0.000000	-0.087903
0.001000	-0.088231
0.002000	-0.087574
0.003000	-0.090533
0.004000	-0.089875
0.005000	-0.086587
0.006000	-0.086258
0.007000	-0.083628
0.008000	-0.076723
0.009000	-0.070475
0.010000	-0.064556
0.011000	-0.059624
0.012000	-0.055678
0.013000	-0.052390
0.014000	-0.049431
0.015000	-0.046471
0.016000	-0.043183
0.017000	-0.041210
0.018000	-0.037593
0.019000	-0.032990
0.020000	-0.030359
0.021000	-0.026414
0.022000	-0.024112
0.023000	-0.020495
0.024000	-0.014905
0.025000	-0.008328
0.026000	-0.007013
0.027000	-0.014247
0.028000	-0.024112
0.029000	-0.032990
0.030000	-0.042526
0.031000	-0.045814
0.032000	-0.046471
0.033000	-0.045485
0.034000	-0.045814
0.035000	-0.046800
0.036000	-0.049760
0.037000	-0.056336
0.038000	-0.061597
0.039000	-0.067187
0.040000	-0.070146
0.041000	-0.069160
0.042000	-0.068831
0.043000	-0.072777
0.044000	-0.073106
0.045000	-0.068831
0.046000	-0.062912
0.047000	-0.057651
0.048000	-0.052061
0.049000	-0.050088
0.050000	-0.052061
0.051000	-0.055350
0.052000	-0.058309
0.053000	-0.060611
0.054000	-0.062912
0.055000	-0.060939
0.056000	-0.055350
0.057000	-0.048116
0.058000	-0.041868
0.059000	-0.036936
0.060000	-0.030688
0.061000	-0.025756
0.062000	-0.020166
0.063000	-0.014905
0.064000	-0.011288
0.065000	-0.008986
0.066000	-0.007342
0.067000	-0.007013
0.068000	-0.006684
0.069000	-0.009973
0.070000	-0.015234
0.071000	-0.019508
0.072000	-0.025427
0.073000	-0.031675
0.074000	-0.033319
0.075000	-0.033976
0.076000	-0.037265
0.077000	-0.038580
0.078000	-0.033648
0.079000	-0.025427
0.080000	-0.017535
0.081000	-0.011945
0.082000	-0.006684
0.083000	-0.001094
0.084000	0.001207
0.085000	0.004495
0.086000	0.000878
0.087000	-0.003725
0.088000	-0.001423
0.089000	-0.000108
0.090000	-0.002081
0.091000	-0.006027
0.092000	-0.010301
0.093000	-0.014905
0.094000	-0.018522
0.095000	-0.021810
0.096000	-0.026414
0.097000	-0.030031
0.098000	-0.030359
0.099000	-0.029373
0.100000	-0.028058
0.101000	-0.025756
0.102000	-0.020166
0.103000	-0.011288
0.104000	-0.002410
0.105000	0.001865
0.106000	0.001207
0.107000	-0.000437
0.108000	-0.003067
0.109000	-0.004383
0.110000	-0.004383
0.111000	-0.004383
0.112000	-0.006356
0.113000	-0.009644
0.114000	-0.013261
0.115000	-0.015562
0.116000	-0.016220
0.117000	-0.019180
0.118000	-0.021481
0.119000	-0.022797
0.120000	-0.022797
0.121000	-0.020824
0.122000	-0.016220
0.123000	-0.006027
0.124000	0.004495
0.125000	0.012058
0.126000	0.016333
0.127000	0.019621
0.128000	0.023238
0.129000	0.026526
0.130000	0.031130
0.131000	0.035076
0.132000	0.040008
0.133000	0.042310
0.134000	0.047571
0.135000	0.051845
0.136000	0.053161
0.137000	0.052832
0.138000	0.051845
0.139000	0.050859
0.140000	0.047899
0.141000	0.043954
0.142000	0.040994
0.143000	0.040994
0.144000	0.039679
0.145000	0.036062
0.146000	0.036391
0.147000	0.037377
0.148000	0.041323
0.149000	0.041323
0.150000	0.040665
0.151000	0.040665
0.152000	0.042967
0.153000	0.047242
0.154000	0.048228
0.155000	0.043954
0.156000	0.040994
0.157000	0.039679
0.158000	0.038693
0.159000	0.038364
0.160000	0.037706
0.161000	0.038035
0.162000	0.034418
0.163000	0.031130
0.164000	0.028828
0.165000	0.026855
0.166000	0.023896
0.167000	0.021265
0.168000	0.020936
0.169000	0.018963
0.170000	0.018635
0.171000	0.018306
0.172000	0.020608
0.173000	0.021923
0.174000	0.024225
0.175000	0.025540
0.176000	0.026526
0.177000	0.028499
0.178000	0.028499
0.179000	0.030143
0.180000	0.032116
0.181000	0.033431
0.182000	0.032445
0.183000	0.030143
0.184000	0.030143
0.185000	0.030801
0.186000	0.026197
0.187000	0.017648
0.188000	0.016004
0.189000	0.016004
0.190000	0.013374
0.191000	0.012058
0.192000	0.011729
0.193000	0.011072
0.194000	0.011401
0.195000	0.011072
0.196000	0.008441
0.197000	0.005811
0.198000	-0.002081
0.199000	-0.005698
0.200000	-0.013261
0.201000	-0.021152
0.202000	-0.026742
0.203000	-0.031017
0.204000	-0.034963
0.205000	-0.034963
0.206000	-0.033648
0.207000	-0.030359
0.208000	-0.026414
0.209000	-0.023783
0.210000	-0.022797
0.211000	-0.024769
0.212000	-0.028386
0.213000	-0.030359
0.214000	-0.031675
0.215000	-0.030688
0.216000	-0.030359
0.217000	-0.031017
0.218000	-0.032990
0.219000	-0.037922
0.220000	-0.045485
0.221000	-0.053377
0.222000	-0.059295
0.223000	-0.061926
0.224000	-0.061926
0.225000	-0.064228
0.226000	-0.062255
0.227000	-0.058638
0.228000	-0.060939
0.229000	-0.067845
0.230000	-0.068502
0.231000	-0.064556
0.232000	-0.058309
0.233000	-0.053377
0.234000	-0.050088
0.235000	-0.044827
0.236000	-0.040553
0.237000	-0.036936
0.238000	-0.033976
0.239000	-0.033319
0.240000	-0.033648
0.241000	-0.034305
0.242000	-0.035292
0.243000	-0.037922
0.244000	-0.042854
0.245000	-0.048444
0.246000	-0.052390
0.247000	-0.054363
0.248000	-0.054034
0.249000	-0.055350
0.250000	-0.059624
0.251000	-0.060611
0.252000	-0.055678
0.253000	-0.051733
0.254000	-0.053048
0.255000	-0.054363
0.256000	-0.055678
0.257000	-0.055350
0.258000	-0.056994
0.259000	-0.057980
0.260000	-0.053705
0.261000	-0.050088
0.262000	-0.051075
0.263000	-0.049431
0.264000	-0.046471
0.265000	-0.046471
0.266000	-0.048444
0.267000	-0.053048
0.268000	-0.056007
0.269000	-0.056665
0.270000	-0.056336
0.271000	-0.058638
0.272000	-0.061268
0.273000	-0.063570
0.274000	-0.068502
0.275000	-0.071462
0.276000	-0.069160
0.277000	-0.063570
0.278000	-0.061926
0.279000	-0.066858
0.280000	-0.074092
0.281000	-0.080669
0.282000	-0.084614
0.283000	-0.084286
0.284000	-0.082970
0.285000	-0.081326
0.286000	-0.081984
0.287000	-0.083299
0.288000	-0.087574
0.289000	-0.093821
0.290000	-0.100069
0.291000	-0.101713
0.292000	-0.098425
0.293000	-0.097438
0.294000	-0.101055
0.295000	-0.100398
0.296000	-0.093492
0.297000	-0.086258
0.298000	-0.079682
0.299000	-0.074092
0.300000	-0.071133
0.301000	-0.067516
0.302000	-0.062912
0.303000	-0.057980
0.304000	-0.055350
0.305000	-0.053377
0.306000	-0.048773
0.307000	-0.042197
0.308000	-0.038580
0.309000	-0.040224
0.310000	-0.040553
0.311000	-0.039237
0.312000	-0.039237
0.313000	-0.042854
0.314000	-0.047129
0.315000	-0.049760
0.316000	-0.054034
0.317000	-0.056665
0.318000	-0.055678
0.319000	-0.056336
0.320000	-0.058967
0.321000	-0.061597
0.322000	-0.064556
0.323000	-0.065214
0.324000	-0.066529
0.325000	-0.068502
0.326000	-0.069818
0.327000	-0.070146
0.328000	-0.070475
0.329000	-0.071133
0.330000	-0.069489
0.331000	-0.066201
0.332000	-0.063899
0.333000	-0.064556
0.334000	-0.063899
0.335000	-0.062584
0.336000	-0.062255
0.337000	-0.060282
0.338000	-0.060939
0.339000	-0.061926
0.340000	-0.062584
0.341000	-0.060282
0.342000	-0.057322
0.343000	-0.057322
0.344000	-0.057980
0.345000	-0.059624
0.346000	-0.060282
0.347000	-0.060282
0.348000	-0.061268
0.349000	-0.065543
0.350000	-0.070804
0.351000	-0.076723
0.352000	-0.079353
0.353000	-0.081655
0.354000	-0.080669
0.355000	-0.080997
0.356000	-0.080340
0.357000	-0.083299
0.358000	-0.084943
0.359000	-0.082313
0.360000	-0.078038
0.361000	-0.075407
0.362000	-0.075079
0.363000	-0.073435
0.364000	-0.067845
0.365000	-0.060611
0.366000	-0.055350
0.367000	-0.053377
0.368000	-0.054034
0.369000	-0.052719
0.370000	-0.050417
0.371000	-0.047787
0.372000	-0.046471
0.373000	-0.045814
0.374000	-0.049102
0.375000	-0.053377
0.376000	-0.054034
0.377000	-0.056665
0.378000	-0.059295
0.379000	-0.061926
0.380000	-0.065214
0.381000	-0.067845
0.382000	-0.069489
0.383000	-0.069160
0.384000	-0.065543
0.385000	-0.060282
0.386000	-0.060282
0.387000	-0.059295
0.388000	-0.061268
0.389000	-0.064556
0.390000	-0.064556
0.391000	-0.061268
0.392000	-0.059624
0.393000	-0.056994
0.394000	-0.053048
0.395000	-0.049760
0.396000	-0.049102
0.397000	-0.052390
0.398000	-0.054363
0.399000	-0.056336
0.400000	-0.058638
0.401000	-0.061268
0.402000	-0.063899
0.403000	-0.064885
0.404000	-0.067516
0.405000	-0.070146
0.406000	-0.072777
0.407000	-0.075079
0.408000	-0.076394
0.409000	-0.074421
0.410000	-0.073106
0.411000	-0.072119
0.412000	-0.071462
0.413000	-0.069489
0.414000	-0.065872
0.415000	-0.062912
0.416000	-0.061597
0.417000	-0.059295
0.418000	-0.056994
0.419000	-0.055021
0.420000	-0.055021
0.421000	-0.053377
0.422000	-0.052719
0.423000	-0.055021
0.424000	-0.059624
0.425000	-0.062255
0.426000	-0.066201
0.427000	-0.072119
0.428000	-0.075736
0.429000	-0.075079
0.430000	-0.071790
0.431000	-0.070146
0.432000	-0.072119
0.433000	-0.075736
0.434000	-0.077709
0.435000	-0.077709
0.436000	-0.075079
0.437000	-0.072119
0.438000	-0.068831
0.439000	-0.065543
0.440000	-0.061268
0.441000	-0.057980
0.442000	-0.056665
0.443000	-0.056007
0.444000	-0.053705
0.445000	-0.051404
0.446000	-0.050088
0.447000	-0.051404
0.448000	-0.053048
0.449000	-0.053705
0.450000	-0.056994
0.451000	-0.060611
0.452000	-0.063570
0.453000	-0.064556
0.454000	-0.062912
0.455000	-0.062255
0.456000	-0.063899
0.457000	-0.069489
0.458000	-0.075407
0.459000	-0.081984
0.460000	-0.087245
0.461000	-0.092177
0.462000	-0.093821
0.463000	-0.091848
0.464000	-0.087245
0.465000	-0.082970
0.466000	-0.079024
0.467000	-0.072119
0.468000	-0.067845
0.469000	-0.067187
0.470000	-0.066858
0.471000	-0.061268
0.472000	-0.057322
0.473000	-0.054034
0.474000	-0.050746
0.475000	-0.048444
0.476000	-0.045156
0.477000	-0.043183
0.478000	-0.043841
0.479000	-0.045485
0.480000	-0.046800
0.481000	-0.050417
0.482000	-0.055350
0.483000	-0.056994
0.484000	-0.057322
0.485000	-0.056665
0.486000	-0.059624
0.487000	-0.062912
0.488000	-0.065872
0.489000	-0.066858
0.490000	-0.067187
0.491000	-0.067845
0.492000	-0.070475
0.493000	-0.071790
0.494000	-0.072448
0.495000	-0.071462
0.496000	-0.070146
0.497000	-0.069160
0.498000	-0.071133
0.499000	-0.072777
0.500000	-0.074421
0.501000	-0.074750
0.502000	-0.074750
0.503000	-0.072777
0.504000	-0.070804
0.505000	-0.070475
0.506000	-0.069489
0.507000	-0.068173
0.508000	-0.069160
0.509000	-0.071133
0.510000	-0.072119
0.511000	-0.071462
0.512000	-0.070804
0.513000	-0.069160
0.514000	-0.066858
0.515000	-0.064556
0.516000	-0.060939
0.517000	-0.060282
0.518000	-0.056994
0.519000	-0.053377
0.520000	-0.053377
0.521000	-0.053377
0.522000	-0.052719
0.523000	-0.052390
0.524000	-0.056994
0.525000	-0.062255
0.526000	-0.062912
0.527000	-0.060611
0.528000	-0.056994
0.529000	-0.056007
0.530000	-0.056665
0.531000	-0.057980
0.532000	-0.058309
0.533000	-0.056336
0.534000	-0.053377
0.535000	-0.052719
0.536000	-0.050417
0.537000	-0.044499
0.538000	-0.037593
0.539000	-0.031346
0.540000	-0.025756
0.541000	-0.021810
0.542000	-0.018522
0.543000	-0.016220
0.544000	-0.016549
0.545000	-0.018851
0.546000	-0.021810
0.547000	-0.027400
0.548000	-0.037593
0.549000	-0.052390
0.550000	-0.064885
0.551000	-0.071462
0.552000	-0.076723
0.553000	-0.082641
0.554000	-0.091191
0.555000	-0.094479
0.556000	-0.091848
0.557000	-0.093164
0.558000	-0.096123
0.559000	-0.100398
0.560000	-0.103357
0.561000	-0.106316
0.562000	-0.104672
0.563000	-0.099740
0.564000	-0.096452
0.565000	-0.088889
0.566000	-0.073763
0.567000	-0.064228
0.568000	-0.056336
0.569000	-0.051733
0.570000	-0.049760
0.571000	-0.054034
0.572000	-0.059295
0.573000	-0.058638
0.574000	-0.054692
0.575000	-0.052061
0.576000	-0.050417
0.577000	-0.050088
0.578000	-0.047129
0.579000	-0.046143
0.580000	-0.049431
0.581000	-0.056007
0.582000	-0.059953
0.583000	-0.061597
0.584000	-0.063899
0.585000	-0.068831
0.586000	-0.070804
0.587000	-0.071462
0.588000	-0.072119
0.589000	-0.071133
0.590000	-0.067516
0.591000	-0.065214
0.592000	-0.066529
0.593000	-0.067845
0.594000	-0.067516
0.595000	-0.063241
0.596000	-0.057651
0.597000	-0.056994
0.598000	-0.058309
0.599000	-0.060611
0.600000	-0.063570
0.601000	-0.063899
0.602000	-0.064228
0.603000	-0.062912
0.604000	-0.058967
0.605000	-0.055678
0.606000	-0.053705
0.607000	-0.052719
0.608000	-0.055021
0.609000	-0.058638
0.610000	-0.061597
0.611000	-0.060939
0.612000	-0.056336
0.613000	-0.051075
0.614000	-0.047129
0.615000	-0.042526
0.616000	-0.034305
0.617000	-0.021810
0.618000	-0.009644
0.619000	0.003180
0.620000	0.017977
0.621000	0.034747
0.622000	0.054147
0.623000	0.071246
0.624000	0.085385
0.625000	0.097880
0.626000	0.107744
0.627000	0.120568
0.628000	0.131748
0.629000	0.138653
0.630000	0.142270
0.631000	0.146874
0.632000	0.151148
0.633000	0.150820
0.634000	0.148189
0.635000	0.146545
0.636000	0.148189
0.637000	0.150820
0.638000	0.153450
0.639000	0.159040
0.640000	0.163644
0.641000	0.166274
0.642000	0.166932
0.643000	0.168576
0.644000	0.172522
0.645000	0.179427
0.646000	0.185017
0.647000	0.188634
0.648000	0.190278
0.649000	0.188305
0.650000	0.181071
0.651000	0.167589
0.652000	0.148847
0.653000	0.131091
0.654000	0.114321
0.655000	0.099195
0.656000	0.085056
0.657000	0.069273
0.658000	0.055133
0.659000	0.040008
0.660000	0.024225
0.661000	0.008112
0.662000	-0.003396
0.663000	-0.009644
0.664000	-0.014247
0.665000	-0.021481
0.666000	-0.026742
0.667000	-0.029373
0.668000	-0.029373
0.669000	-0.029373
0.670000	-0.030688
0.671000	-0.033648
0.672000	-0.036278
0.673000	-0.038251
0.674000	-0.038909
0.675000	-0.037922
0.676000	-0.038251
0.677000	-0.038580
0.678000	-0.038909
0.679000	-0.036607
0.680000	-0.032661
0.681000	-0.029044
0.682000	-0.024769
0.683000	-0.020495
0.684000	-0.021810
0.685000	-0.027400
0.686000	-0.032990
0.687000	-0.037593
0.688000	-0.039566
0.689000	-0.042854
0.690000	-0.044170
0.691000	-0.044170
0.692000	-0.045485
0.693000	-0.046800
0.694000	-0.047458
0.695000	-0.048116
0.696000	-0.049760
0.697000	-0.051404
0.698000	-0.053048
0.699000	-0.053377
0.700000	-0.051075
0.701000	-0.048444
0.702000	-0.044827
0.703000	-0.040882
0.704000	-0.033319
0.705000	-0.031017
0.706000	-0.032990
0.707000	-0.035292
0.708000	-0.040224
0.709000	-0.051075
0.710000	-0.060282
0.711000	-0.066529
0.712000	-0.070475
0.713000	-0.074750
0.714000	-0.079682
0.715000	-0.086258
0.716000	-0.091191
0.717000	-0.094479
0.718000	-0.095137
0.719000	-0.094479
0.720000	-0.092835
0.721000	-0.090204
0.722000	-0.083957
0.723000	-0.076394
0.724000	-0.070475
0.725000	-0.065214
0.726000	-0.059295
0.727000	-0.055678
0.728000	-0.053377
0.729000	-0.051404
0.730000	-0.054363
0.731000	-0.052719
0.732000	-0.045485
0.733000	-0.037593
0.734000	-0.032003
0.735000	-0.032003
0.736000	-0.034963
0.737000	-0.040224
0.738000	-0.045485
0.739000	-0.048116
0.740000	-0.049102
0.741000	-0.049102
0.742000	-0.047129
0.743000	-0.047787
0.744000	-0.048116
0.745000	-0.045814
0.746000	-0.043841
0.747000	-0.040224
0.748000	-0.038580
0.749000	-0.035949
0.750000	-0.031675
0.751000	-0.029044
0.752000	-0.030031
0.753000	-0.030359
0.754000	-0.029702
0.755000	-0.028386
0.756000	-0.028058
0.757000	-0.028715
0.758000	-0.029044
0.759000	-0.031017
0.760000	-0.034963
0.761000	-0.034963
0.762000	-0.033976
0.763000	-0.033976
0.764000	-0.033319
0.765000	-0.035620
0.766000	-0.038909
0.767000	-0.041539
0.768000	-0.043841
0.769000	-0.041539
0.770000	-0.041210
0.771000	-0.045485
0.772000	-0.048116
0.773000	-0.044170
0.774000	-0.039237
0.775000	-0.036278
0.776000	-0.032003
0.777000	-0.030359
0.778000	-0.032003
0.779000	-0.038909
0.780000	-0.046471
0.781000	-0.046800
0.782000	-0.040553
0.783000	-0.034634
0.784000	-0.032332
0.785000	-0.032332
0.786000	-0.034634
0.787000	-0.040224
0.788000	-0.047458
0.789000	-0.050088
0.790000	-0.048773
0.791000	-0.046143
0.792000	-0.044170
0.793000	-0.038909
0.794000	-0.035620
0.795000	-0.034634
0.796000	-0.032332
0.797000	-0.029044
0.798000	-0.022468
0.799000	-0.017864
0.800000	-0.015891
0.801000	-0.014576
0.802000	-0.011617
0.803000	-0.008000
0.804000	-0.007013
0.805000	-0.007342
0.806000	-0.010301
0.807000	-0.013590
0.808000	-0.015562
0.809000	-0.018193
0.810000	-0.018522
0.811000	-0.014576
0.812000	-0.011945
0.813000	-0.011945
0.814000	-0.011945
0.815000	-0.010301
0.816000	-0.008657
0.817000	-0.007013
0.818000	-0.005698
0.819000	-0.006356
0.820000	-0.009315
0.821000	-0.008328
0.822000	-0.005369
0.823000	-0.000437
0.824000	0.008112
0.825000	0.013374
0.826000	0.016004
0.827000	0.019950
0.828000	0.021923
0.829000	0.025540
0.830000	0.025211
0.831000	0.024553
0.832000	0.024882
0.833000	0.023238
0.834000	0.022909
0.835000	0.023238
0.836000	0.024882
0.837000	0.025211
0.838000	0.025211
0.839000	0.024553
0.840000	0.025869
0.841000	0.027184
0.842000	0.027184
0.843000	0.025869
0.844000	0.026526
0.845000	0.028828
0.846000	0.029486
0.847000	0.033760
0.848000	0.038693
0.849000	0.042310
0.850000	0.046913
0.851000	0.047242
0.852000	0.047571
0.853000	0.049544
0.854000	0.052503
0.855000	0.054147
0.856000	0.056449
0.857000	0.055791
0.858000	0.053818
0.859000	0.052832
0.860000	0.052503
0.861000	0.051516
0.862000	0.047242
0.863000	0.044940
0.864000	0.042310
0.865000	0.041981
0.866000	0.042310
0.867000	0.040337
0.868000	0.035733
0.869000	0.028499
0.870000	0.023238
0.871000	0.022252
0.872000	0.020608
0.873000	0.019621
0.874000	0.022252
0.875000	0.024553
0.876000	0.028170
0.877000	0.029157
0.878000	0.031130
0.879000	0.033431
0.880000	0.031459
0.881000	0.029157
0.882000	0.029814
0.883000	0.032774
0.884000	0.035733
0.885000	0.039021
0.886000	0.039679
0.887000	0.038693
0.888000	0.034089
0.889000	0.032445
0.890000	0.031459
0.891000	0.027184
0.892000	0.025869
0.893000	0.024225
0.894000	0.020936
0.895000	0.017648
0.896000	0.012387
0.897000	0.005482
0.898000	0.003509
0.899000	0.005811
0.900000	0.006468
0.901000	0.006468
0.902000	0.007455
0.903000	0.008112
0.904000	0.007784
0.905000	0.010085
0.906000	0.013374
0.907000	0.016662
0.908000	0.016004
0.909000	0.010743
0.910000	0.005811
0.911000	-0.002081
0.912000	-0.008328
0.913000	-0.011288
0.914000	-0.012603
0.915000	-0.014247
0.916000	-0.015234
0.917000	-0.016220
0.918000	-0.015562
0.919000	-0.013261
0.920000	-0.013918
0.921000	-0.016220
0.922000	-0.017535
0.923000	-0.019508
0.924000	-0.025756
0.925000	-0.030031
0.926000	-0.033319
0.927000	-0.037265
0.928000	-0.040224
0.929000	-0.042854
0.930000	-0.045156
0.931000	-0.042197
0.932000	-0.039237
0.933000	-0.034963
0.934000	-0.034634
0.935000	-0.040224
0.936000	-0.045814
0.937000	-0.052390
0.938000	-0.057651
0.939000	-0.061268
0.940000	-0.061268
0.941000	-0.057651
0.942000	-0.051404
0.943000	-0.044170
0.944000	-0.041868
0.945000	-0.043512
0.946000	-0.044170
0.947000	-0.045485
0.948000	-0.046143
0.949000	-0.044827
0.950000	-0.042197
0.951000	-0.043183
0.952000	-0.046471
0.953000	-0.048773
0.954000	-0.049760
0.955000	-0.047787
0.956000	-0.048773
0.957000	-0.050746
0.958000	-0.050746
0.959000	-0.050088
0.960000	-0.049760
0.961000	-0.053048
0.962000	-0.053705
0.963000	-0.054692
0.964000	-0.053377
0.965000	-0.053705
0.966000	-0.056665
0.967000	-0.059953
0.968000	-0.061268
0.969000	-0.061597
0.970000	-0.062255
0.971000	-0.060611
0.972000	-0.057322
0.973000	-0.052390
0.974000	-0.049760
0.975000	-0.047458
0.976000	-0.048444
0.977000	-0.049760
0.978000	-0.052061
0.979000	-0.057322
0.980000	-0.064885
0.981000	-0.072448
0.982000	-0.079024
0.983000	-0.081655
0.984000	-0.083299
0.985000	-0.085272
0.986000	-0.088560
0.987000	-0.087903
0.988000	-0.086587
0.989000	-0.082970
0.990000	-0.081326
0.991000	-0.081655
0.992000	-0.084614
0.993000	-0.087245
0.994000	-0.085930
0.995000	-0.083299
0.996000	-0.079682
0.997000	-0.077052
0.998000	-0.077380
0.999000	-0.075407
1.000000	-0.073763
1.001000	-0.073763
1.002000	-0.073435
1.003000	-0.073435
1.004000	-0.076723
1.005000	-0.078696
1.006000	-0.079353
1.007000	-0.080669
1.008000	-0.083628
1.009000	-0.085272
1.010000	-0.087574
1.011000	-0.086258
1.012000	-0.082970
1.013000	-0.081984
1.014000	-0.080340
1.015000	-0.077052
1.016000	-0.073435
1.017000	-0.070804
1.018000	-0.068831
1.019000	-0.068173
1.020000	-0.065872
1.021000	-0.061268
1.022000	-0.057322
1.023000	-0.055021
1.024000	-0.054034
1.025000	-0.053048
1.026000	-0.055350
1.027000	-0.057322
1.028000	-0.056007
1.029000	-0.054692
1.030000	-0.053377
1.031000	-0.056007
1.032000	-0.059295
1.033000	-0.063570
1.034000	-0.064556
1.035000	-0.064228
1.036000	-0.062584
1.037000	-0.062255
1.038000	-0.061926
1.039000	-0.063899
1.040000	-0.067187
1.041000	-0.071790
1.042000	-0.076394
1.043000	-0.077709
1.044000	-0.077380
1.045000	-0.079024
1.046000	-0.082313
1.047000	-0.083299
1.048000	-0.081655
1.049000	-0.080340
1.050000	-0.078696
1.051000	-0.077052
1.052000	-0.075736
1.053000	-0.076394
1.054000	-0.078696
1.055000	-0.080011
1.056000	-0.077380
1.057000	-0.073763
1.058000	-0.069160
1.059000	-0.065872
1.060000	-0.063241
1.061000	-0.062912
1.062000	-0.062912
1.063000	-0.061268
1.064000	-0.060611
1.065000	-0.058967
1.066000	-0.058309
1.067000	-0.058967
1.068000	-0.060611
1.069000	-0.062912
1.070000	-0.064556
1.071000	-0.066529
1.072000	-0.065214
1.073000	-0.061268
1.074000	-0.059295
1.075000	-0.060939
1.076000	-0.063570
1.077000	-0.064228
1.078000	-0.059624
1.079000	-0.055021
1.080000	-0.052719
1.081000	-0.050088
1.082000	-0.047458
1.083000	-0.043512
1.084000	-0.045485
1.085000	-0.050088
1.086000	-0.052719
1.087000	-0.058638
1.088000	-0.064885
1.089000	-0.067845
1.090000	-0.068173
1.091000	-0.067516
1.092000	-0.068831
1.093000	-0.070146
1.094000	-0.073435
1.095000	-0.077052
1.096000	-0.078696
1.097000	-0.079682
1.098000	-0.082313
1.099000	-0.085930
1.100000	-0.088231
1.101000	-0.091520
1.102000	-0.093492
1.103000	-0.093492
1.104000	-0.093492
1.105000	-0.091191
1.106000	-0.088560
1.107000	-0.082641
1.108000	-0.073763
1.109000	-0.068502
1.110000	-0.062912
1.111000	-0.056665
1.112000	-0.054034
1.113000	-0.050417
1.114000	-0.044170
1.115000	-0.041868
1.116000	-0.038580
1.117000	-0.039566
1.118000	-0.041210
1.119000	-0.045814
1.120000	-0.048773
1.121000	-0.047458
1.122000	-0.046471
1.123000	-0.046800
1.124000	-0.045156
1.125000	-0.046471
1.126000	-0.050746
1.127000	-0.052061
1.128000	-0.055350
1.129000	-0.061268
1.130000	-0.065872
1.131000	-0.066201
1.132000	-0.060939
1.133000	-0.056994
1.134000	-0.056336
1.135000	-0.056007
1.136000	-0.055350
1.137000	-0.058967
1.138000	-0.064885
1.139000	-0.069489
1.140000	-0.073106
1.141000	-0.075079
1.142000	-0.077709
1.143000	-0.082313
1.144000	-0.087903
1.145000	-0.092177
1.146000	-0.095465
1.147000	-0.097438
1.148000	-0.095137
1.149000	-0.089875
1.150000	-0.083299
1.151000	-0.077380
1.152000	-0.070475
1.153000	-0.060282
1.154000	-0.049760
1.155000	-0.040553
1.156000	-0.032661
1.157000	-0.026742
1.158000	-0.021481
1.159000	-0.020824
1.160000	-0.023454
1.161000	-0.026085
1.162000	-0.032990
1.163000	-0.039895
1.164000	-0.041868
1.165000	-0.044499
1.166000	-0.048773
1.167000	-0.054363
1.168000	-0.057322
1.169000	-0.056994
1.170000	-0.057980
1.171000	-0.059953
1.172000	-0.061268
1.173000	-0.064556
1.174000	-0.066529
1.175000	-0.065543
1.176000	-0.063899
1.177000	-0.062255
1.178000	-0.059295
1.179000	-0.056336
1.180000	-0.053705
1.181000	-0.052719
1.182000	-0.053377
1.183000	-0.052390
1.184000	-0.052390
1.185000	-0.054692
1.186000	-0.057322
1.187000	-0.058638
1.188000	-0.060939
1.189000	-0.062912
1.190000	-0.061926
1.191000	-0.058638
1.192000	-0.054034
1.193000	-0.050088
1.194000	-0.048444
1.195000	-0.048773
1.196000	-0.050088
1.197000	-0.049102
1.198000	-0.046800
1.199000	-0.042854
1.200000	-0.039895
1.201000	-0.037922
1.202000	-0.034305
1.203000	-0.032003
1.204000	-0.035620
1.205000	-0.040224
1.206000	-0.043183
1.207000	-0.049102
1.208000	-0.055678
1.209000	-0.062912
1.210000	-0.062912
1.211000	-0.057980
1.212000	-0.054692
1.213000	-0.053377
1.214000	-0.056994
1.215000	-0.058638
1.216000	-0.056665
1.217000	-0.056336
1.218000	-0.055678
1.219000	-0.056336
1.220000	-0.055678
1.221000	-0.054034
1.222000	-0.051075
1.223000	-0.047787
1.224000	-0.043512
1.225000	-0.040553
1.226000	-0.036278
1.227000	-0.032990
1.228000	-0.030031
1.229000	-0.026414
1.230000	-0.023125
1.231000	-0.022797
1.232000	-0.023454
1.233000	-0.022797
1.234000	-0.019837
1.235000	-0.017207
1.236000	-0.013918
1.237000	-0.010959
1.238000	-0.014576
1.239000	-0.020824
1.240000	-0.029044
1.241000	-0.034963
1.242000	-0.034963
1.243000	-0.035292
1.244000	-0.034305
1.245000	-0.035620
1.246000	-0.038580
1.247000	-0.042526
1.248000	-0.044499
1.249000	-0.049431
1.250000	-0.052390
1.251000	-0.053048
1.252000	-0.050417
1.253000	-0.046800
1.254000	-0.044170
1.255000	-0.044170
1.256000	-0.046800
1.257000	-0.049760
1.258000	-0.050088
1.259000	-0.049431
1.260000	-0.045814
1.261000	-0.041868
1.262000	-0.036936
1.263000	-0.035620
1.264000	-0.033976
1.265000	-0.029373
1.266000	-0.025756
1.267000	-0.024112
1.268000	-0.023783
1.269000	-0.027729
1.270000	-0.029044
1.271000	-0.032003
1.272000	-0.034634
1.273000	-0.035292
1.274000	-0.035292
1.275000	-0.037593
1.276000	-0.042197
1.277000	-0.049431
1.278000	-0.057322
1.279000	-0.064556
1.280000	-0.070146
1.281000	-0.075079
1.282000	-0.077709
1.283000	-0.080669
1.284000	-0.081984
1.285000	-0.083299
1.286000	-0.080011
1.287000	-0.074421
1.288000	-0.069160
1.289000	-0.063570
1.290000	-0.058967
1.291000	-0.056336
1.292000	-0.053377
1.293000	-0.048444
1.294000	-0.041868
1.295000	-0.035949
1.296000	-0.031346
1.297000	-0.030359
1.298000	-0.033976
1.299000	-0.039237
1.300000	-0.045156
1.301000	-0.051733
1.302000	-0.051075
1.303000	-0.047787
1.304000	-0.044499
1.305000	-0.040553
1.306000	-0.040553
1.307000	-0.042197
1.308000	-0.040553
1.309000	-0.039566
1.310000	-0.038909
1.311000	-0.036936
1.312000	-0.033648
1.313000	-0.028715
1.314000	-0.024769
1.315000	-0.023454
1.316000	-0.021810
1.317000	-0.015234
1.318000	-0.006356
1.319000	-0.000108
1.320000	0.002851
1.321000	0.007455
1.322000	0.012058
1.323000	0.017648
1.324000	0.025869
1.325000	0.033431
1.326000	0.040008
1.327000	0.047899
1.328000	0.055791
1.329000	0.066971
1.330000	0.078151
1.331000	0.090975
1.332000	0.102812
1.333000	0.110046
1.334000	0.115307
1.335000	0.120240
1.336000	0.129446
1.337000	0.140955
1.338000	0.152793
1.339000	0.162000
1.340000	0.170549
1.341000	0.177454
1.342000	0.186332
1.343000	0.195210
1.344000	0.201458
1.345000	0.207705
1.346000	0.213295
1.347000	0.218227
1.348000	0.225790
1.349000	0.231709
1.350000	0.234668
1.351000	0.232695
1.352000	0.228421
1.353000	0.219214
1.354000	0.207705
1.355000	0.193566
1.356000	0.179098
1.357000	0.163315
1.358000	0.147531
1.359000	0.132735
1.360000	0.114978
1.361000	0.097222
1.362000	0.083412
1.363000	0.070917
1.364000	0.059079
1.365000	0.045598
1.366000	0.036391
1.367000	0.031787
1.368000	0.029814
1.369000	0.026526
1.370000	0.024225
1.371000	0.026197
1.372000	0.026855
1.373000	0.023238
1.374000	0.019292
1.375000	0.017977
1.376000	0.017319
1.377000	0.013702
1.378000	0.007784
1.379000	-0.001094
1.380000	-0.010959
1.381000	-0.020166
1.382000	-0.025098
1.383000	-0.028715
1.384000	-0.032003
1.385000	-0.036936
1.386000	-0.039566
1.387000	-0.041539
1.388000	-0.043512
1.389000	-0.045485
1.390000	-0.046143
1.391000	-0.041539
1.392000	-0.035292
1.393000	-0.031017
1.394000	-0.027729
1.395000	-0.023454
1.396000	-0.020166
1.397000	-0.018851
1.398000	-0.019508
1.399000	-0.020824
1.400000	-0.024769
1.401000	-0.031675
1.402000	-0.036936
1.403000	-0.041210
1.404000	-0.045156
1.405000	-0.048444
1.406000	-0.049102
1.407000	-0.050746
1.408000	-0.051404
1.409000	-0.053705
1.410000	-0.056336
1.411000	-0.056665
1.412000	-0.056665
1.413000	-0.055678
1.414000	-0.053705
1.415000	-0.053705
1.416000	-0.052390
1.417000	-0.049102
1.418000	-0.048773
1.419000	-0.046800
1.420000	-0.045485
1.421000	-0.042854
1.422000	-0.040553
1.423000	-0.037593
1.424000	-0.039237
1.425000	-0.040882
1.426000	-0.043512
1.427000	-0.049760
1.428000	-0.052390
1.429000	-0.050088
1.430000	-0.049102
1.431000	-0.049102
1.432000	-0.047787
1.433000	-0.044170
1.434000	-0.041210
1.435000	-0.041868
1.436000	-0.045156
1.437000	-0.044499
1.438000	-0.042854
1.439000	-0.043183
1.440000	-0.043512
1.441000	-0.042526
1.442000	-0.043512
1.443000	-0.044170
1.444000	-0.048116
1.445000	-0.055678
1.446000	-0.060611
1.447000	-0.061926
1.448000	-0.062255
1.449000	-0.061597
1.450000	-0.059624
1.451000	-0.057322
1.452000	-0.056336
1.453000	-0.055678
1.454000	-0.056007
1.455000	-0.060611
1.456000	-0.063899
1.457000	-0.065872
1.458000	-0.064885
1.459000	-0.057651
1.460000	-0.049760
1.461000	-0.038580
1.462000	-0.031346
1.463000	-0.024112
1.464000	-0.015562
1.465000	-0.011945
1.466000	-0.012274
1.467000	-0.013918
1.468000	-0.016549
1.469000	-0.018193
1.470000	-0.014905
1.471000	-0.011617
1.472000	-0.009315
1.473000	-0.006356
1.474000	-0.004383
1.475000	-0.008328
1.476000	-0.015891
1.477000	-0.022139
1.478000	-0.025427
1.479000	-0.026414
1.480000	-0.028058
1.481000	-0.032661
1.482000	-0.036936
1.483000	-0.038251
1.484000	-0.038580
1.485000	-0.038909
1.486000	-0.039237
1.487000	-0.038909
1.488000	-0.037593
1.489000	-0.034634
1.490000	-0.029044
1.491000	-0.025427
1.492000	-0.024112
1.493000	-0.024441
1.494000	-0.025756
1.495000	-0.025756
1.496000	-0.023783
1.497000	-0.021481
1.498000	-0.021810
1.499000	-0.019508
1.500000	-0.019180
1.501000	-0.019508
1.502000	-0.020824
1.503000	-0.024112
1.504000	-0.027400
1.505000	-0.027400
1.506000	-0.029044
1.507000	-0.031346
1.508000	-0.036278
1.509000	-0.036607
1.510000	-0.032332
1.511000	-0.030688
1.512000	-0.031017
1.513000	-0.032661
1.514000	-0.033976
1.515000	-0.031346
1.516000	-0.028058
1.517000	-0.025756
1.518000	-0.025098
1.519000	-0.025427
1.520000	-0.024769
1.521000	-0.020166
1.522000	-0.015234
1.523000	-0.008000
1.524000	-0.001752
1.525000	0.003180
1.526000	0.008112
1.527000	0.014031
1.528000	0.017319
1.529000	0.015346
1.530000	0.016662
1.531000	0.021923
1.532000	0.025211
1.533000	0.028170
1.534000	0.027513
1.535000	0.023567
1.536000	0.016662
1.537000	0.010414
1.538000	0.006140
1.539000	0.001865
1.540000	0.001865
1.541000	0.004167
1.542000	0.008441
1.543000	0.015018
1.544000	0.019950
1.545000	0.020279
1.546000	0.019950
1.547000	0.020936
1.548000	0.022252
1.549000	0.020279
1.550000	0.020279
1.551000	0.023567
1.552000	0.029486
1.553000	0.038693
1.554000	0.044611
1.555000	0.045269
1.556000	0.045269
1.557000	0.044282
1.558000	0.042967
1.559000	0.040994
1.560000	0.039350
1.561000	0.039021
1.562000	0.036062
1.563000	0.032774
1.564000	0.034089
1.565000	0.036062
1.566000	0.041652
1.567000	0.045269
1.568000	0.045927
1.569000	0.045598
1.570000	0.043296
1.571000	0.041652
1.572000	0.041652
1.573000	0.044940
1.574000	0.047571
1.575000	0.044282
1.576000	0.041652
1.577000	0.042967
1.578000	0.041981
1.579000	0.037377
1.580000	0.032774
1.581000	0.030143
1.582000	0.030143
1.583000	0.033103
1.584000	0.032445
1.585000	0.028828
1.586000	0.025540
1.587000	0.022252
1.588000	0.020936
1.589000	0.021265
1.590000	0.021923
1.591000	0.021923
1.592000	0.021594
1.593000	0.022252
1.594000	0.022252
1.595000	0.022580
1.596000	0.025540
1.597000	0.023567
1.598000	0.020936
1.599000	0.017648
1.600000	0.015346
1.601000	0.015018
1.602000	0.015018
1.603000	0.016004
1.604000	0.017319
1.605000	0.017977
1.606000	0.014031
1.607000	0.011401
1.608000	0.009428
1.609000	0.006797
1.610000	0.004167
1.611000	0.003509
1.612000	0.003509
1.613000	0.000550
1.614000	-0.002081
1.615000	-0.005040
1.616000	-0.006356
1.617000	-0.005698
1.618000	-0.006356
1.619000	-0.009315
1.620000	-0.014576
1.621000	-0.017207
1.622000	-0.019508
1.623000	-0.022139
1.624000	-0.027071
1.625000	-0.030359
1.626000	-0.030688
1.627000	-0.030031
1.628000	-0.029373
1.629000	-0.030359
1.630000	-0.032661
1.631000	-0.037922
1.632000	-0.042526
1.633000	-0.044170
1.634000	-0.043841
1.635000	-0.043183
1.636000	-0.041539
1.637000	-0.039895
1.638000	-0.039566
1.639000	-0.041210
1.640000	-0.044827
1.641000	-0.049102
1.642000	-0.050088
1.643000	-0.050088
1.644000	-0.052390
1.645000	-0.051733
1.646000	-0.052061
1.647000	-0.054692
1.648000	-0.054692
1.649000	-0.054692
1.650000	-0.056336
1.651000	-0.058638
1.652000	-0.061597
1.653000	-0.062255
1.654000	-0.061268
1.655000	-0.058967
1.656000	-0.056994
1.657000	-0.056336
1.658000	-0.057322
1.659000	-0.056994
1.660000	-0.055350
1.661000	-0.054034
1.662000	-0.052061
1.663000	-0.048773
1.664000	-0.047129
1.665000	-0.046800
1.666000	-0.046471
1.667000	-0.044170
1.668000	-0.042526
1.669000	-0.042197
1.670000	-0.043183
1.671000	-0.046471
1.672000	-0.051404
1.673000	-0.055021
1.674000	-0.057651
1.675000	-0.059953
1.676000	-0.060282
1.677000	-0.059953
1.678000	-0.059624
1.679000	-0.059624
1.680000	-0.061268
1.681000	-0.064885
1.682000	-0.066201
1.683000	-0.064228
1.684000	-0.062255
1.685000	-0.061597
1.686000	-0.060282
1.687000	-0.059953
1.688000	-0.061597
1.689000	-0.059953
1.690000	-0.055350
1.691000	-0.047129
1.692000	-0.042854
1.693000	-0.041210
1.694000	-0.043183
1.695000	-0.048116
1.696000	-0.054363
1.697000	-0.058638
1.698000	-0.060611
1.699000	-0.061597
1.700000	-0.061597
1.701000	-0.058638
1.702000	-0.055350
1.703000	-0.052061
1.704000	-0.052061
1.705000	-0.053705
1.706000	-0.054363
1.707000	-0.056336
1.708000	-0.056007
1.709000	-0.056994
1.710000	-0.058638
1.711000	-0.061597
1.712000	-0.059624
1.713000	-0.056336
1.714000	-0.054363
1.715000	-0.050417
1.716000	-0.048773
1.717000	-0.052061
1.718000	-0.055021
1.719000	-0.058638
1.720000	-0.059953
1.721000	-0.062584
1.722000	-0.063241
1.723000	-0.064228
1.724000	-0.065214
1.725000	-0.062912
1.726000	-0.061597
1.727000	-0.058309
1.728000	-0.056336
1.729000	-0.057651
1.730000	-0.058309
1.731000	-0.056336
1.732000	-0.053377
1.733000	-0.050088
1.734000	-0.045814
1.735000	-0.041210
1.736000	-0.038580
1.737000	-0.039566
1.738000	-0.039237
1.739000	-0.039566
1.740000	-0.040224
1.741000	-0.042526
1.742000	-0.044499
1.743000	-0.047458
1.744000	-0.050417
1.745000	-0.053705
1.746000	-0.058638
1.747000	-0.063899
1.748000	-0.065543
1.749000	-0.066529
1.750000	-0.064228
1.751000	-0.067187
1.752000	-0.069160
1.753000	-0.064556
1.754000	-0.055021
1.755000	-0.048116
1.756000	-0.042197
1.757000	-0.040224
1.758000	-0.036936
1.759000	-0.034963
1.760000	-0.036278
1.761000	-0.036278
1.762000	-0.040882
1.763000	-0.047787
1.764000	-0.050088
1.765000	-0.048773
1.766000	-0.048116
1.767000	-0.048116
1.768000	-0.048773
1.769000	-0.049431
1.770000	-0.051404
1.771000	-0.056336
1.772000	-0.058309
1.773000	-0.058638
1.774000	-0.058967
1.775000	-0.057980
1.776000	-0.055021
1.777000	-0.048773
1.778000	-0.040882
1.779000	-0.036607
1.780000	-0.030688
1.781000	-0.024769
1.782000	-0.022468
1.783000	-0.020495
1.784000	-0.018193
1.785000	-0.019180
1.786000	-0.023783
1.787000	-0.031346
1.788000	-0.040224
1.789000	-0.045156
1.790000	-0.045814
1.791000	-0.045156
1.792000	-0.045814
1.793000	-0.045156
1.794000	-0.045814
1.795000	-0.045814
1.796000	-0.045814
1.797000	-0.049431
1.798000	-0.052390
1.799000	-0.052061
1.800000	-0.053048
1.801000	-0.055350
1.802000	-0.056994
1.803000	-0.059624
1.804000	-0.061597
1.805000	-0.059953
1.806000	-0.058309
1.807000	-0.059624
1.808000	-0.061597
1.809000	-0.065543
1.810000	-0.067516
1.811000	-0.067516
1.812000	-0.066858
1.813000	-0.064228
1.814000	-0.063570
1.815000	-0.063570
1.816000	-0.059953
1.817000	-0.056665
1.818000	-0.056994
1.819000	-0.056994
1.820000	-0.052061
1.821000	-0.048116
1.822000	-0.048773
1.823000	-0.051075
1.824000	-0.056007
1.825000	-0.056336
1.826000	-0.051075
1.827000	-0.050088
1.828000	-0.050417
1.829000	-0.052719
1.830000	-0.053705
1.831000	-0.055350
1.832000	-0.056994
1.833000	-0.056994
1.834000	-0.059953
1.835000	-0.065872
1.836000	-0.068502
1.837000	-0.069160
1.838000	-0.068831
1.839000	-0.065214
1.840000	-0.060282
1.841000	-0.058967
1.842000	-0.058967
1.843000	-0.059624
1.844000	-0.060939
1.845000	-0.059953
1.846000	-0.055021
1.847000	-0.049102
1.848000	-0.044499
1.849000	-0.042854
1.850000	-0.041868
1.851000	-0.040224
1.852000	-0.040882
1.853000	-0.042854
1.854000	-0.045814
1.855000	-0.049760
1.856000	-0.051404
1.857000	-0.051075
1.858000	-0.051075
1.859000	-0.050746
1.860000	-0.048773
1.861000	-0.047458
1.862000	-0.049760
1.863000	-0.053048
1.864000	-0.056665
1.865000	-0.058309
1.866000	-0.057651
1.867000	-0.056336
1.868000	-0.054692
1.869000	-0.051404
1.870000	-0.048773
1.871000	-0.046800
1.872000	-0.045485
1.873000	-0.046471
1.874000	-0.047458
1.875000	-0.045156
1.876000	-0.041210
1.877000	-0.040224
1.878000	-0.041210
1.879000	-0.043183
1.880000	-0.040882
1.881000	-0.036607
1.882000	-0.036607
1.883000	-0.037593
1.884000	-0.038909
1.885000	-0.040882
1.886000	-0.040882
1.887000	-0.040224
1.888000	-0.042197
1.889000	-0.045485
1.890000	-0.047458
1.891000	-0.051404
1.892000	-0.052390
1.893000	-0.049760
1.894000	-0.046800
1.895000	-0.046800
1.896000	-0.048773
1.897000	-0.050417
1.898000	-0.054363
1.899000	-0.057322
1.900000	-0.056665
1.901000	-0.054363
1.902000	-0.052061
1.903000	-0.052390
1.904000	-0.050746
1.905000	-0.047458
1.906000	-0.048444
1.907000	-0.050746
1.908000	-0.048773
1.909000	-0.050088
1.910000	-0.054363
1.911000	-0.059624
1.912000	-0.065214
1.913000	-0.066529
1.914000	-0.065214
1.915000	-0.063241
1.916000	-0.064885
1.917000	-0.064556
1.918000	-0.065214
1.919000	-0.065543
1.920000	-0.063570
1.921000	-0.060282
1.922000	-0.055021
1.923000	-0.050746
1.924000	-0.046143
1.925000	-0.042197
1.926000	-0.037593
1.927000	-0.034963
1.928000	-0.035620
1.929000	-0.036607
1.930000	-0.035620
1.931000	-0.033648
1.932000	-0.032332
1.933000	-0.032990
1.934000	-0.031017
1.935000	-0.032661
1.936000	-0.034305
1.937000	-0.034634
1.938000	-0.032990
1.939000	-0.029702
1.940000	-0.029702
1.941000	-0.030688
1.942000	-0.031346
1.943000	-0.035292
1.944000	-0.041210
1.945000	-0.046471
1.946000	-0.050417
1.947000	-0.051075
1.948000	-0.050088
1.949000	-0.046800
1.950000	-0.047129
1.951000	-0.047129
1.952000	-0.047787
1.953000	-0.045814
1.954000	-0.040553
1.955000	-0.037265
1.956000	-0.033976
1.957000	-0.032332
1.958000	-0.032990
1.959000	-0.035949
1.960000	-0.036278
1.961000	-0.032332
1.962000	-0.026414
1.963000	-0.026085
1.964000	-0.027729
1.965000	-0.030031
1.966000	-0.031675
1.967000	-0.032332
1.968000	-0.036278
1.969000	-0.040553
1.970000	-0.039237
1.971000	-0.036278
1.972000	-0.033976
1.973000	-0.031346
1.974000	-0.032661
1.975000	-0.032990
1.976000	-0.031017
1.977000	-0.029044
1.978000	-0.025098
1.979000	-0.018851
1.980000	-0.013918
1.981000	-0.008986
1.982000	-0.007013
1.983000	-0.005040
1.984000	-0.006027
1.985000	-0.010630
1.986000	-0.014247
1.987000	-0.017207
1.988000	-0.020495
1.989000	-0.022468
1.990000	-0.024112
1.991000	-0.025427
1.992000	-0.027071
1.993000	-0.027729
1.994000	-0.029373
1.995000	-0.032332
1.996000	-0.034634
1.997000	-0.039895
1.998000	-0.045156
1.999000	-0.046471
2.000000	-0.048116
2.001000	-0.049760
2.002000	-0.048773
2.003000	-0.041868
2.004000	-0.035292
2.005000	-0.034305
2.006000	-0.035620
2.007000	-0.033976
2.008000	-0.031346
2.009000	-0.029702
2.010000	-0.030031
2.011000	-0.030031
2.012000	-0.028058
2.013000	-0.024441
2.014000	-0.022139
2.015000	-0.020495
2.016000	-0.021481
2.017000	-0.023783
2.018000	-0.025098
2.019000	-0.029044
2.020000	-0.034305
2.021000	-0.037593
2.022000	-0.039566
2.023000	-0.042854
2.024000	-0.047129
2.025000	-0.048773
2.026000	-0.052061
2.027000	-0.055350
2.028000	-0.055350
2.029000	-0.056994
2.030000	-0.055678
2.031000	-0.050746
2.032000	-0.048773
2.033000	-0.046800
2.034000	-0.044170
2.035000	-0.042526
2.036000	-0.040553
2.037000	-0.036936
2.038000	-0.031346
2.039000	-0.027400
2.040000	-0.020824
2.041000	-0.014247
2.042000	-0.010959
2.043000	-0.015562
2.044000	-0.019508
2.045000	-0.019508
2.046000	-0.019180
2.047000	-0.021810
2.048000	-0.025098
2.049000	-0.023783
2.050000	-0.021810
2.051000	-0.023454
2.052000	-0.027071
2.053000	-0.030031
2.054000	-0.032661
2.055000	-0.033319
2.056000	-0.035292
2.057000	-0.036607
2.058000	-0.034305
2.059000	-0.030688
2.060000	-0.027400
2.061000	-0.022468
2.062000	-0.017864
2.063000	-0.012603
2.064000	-0.004054
2.065000	0.005482
2.066000	0.016004
2.067000	0.025869
2.068000	0.035733
2.069000	0.045927
2.070000	0.055462
2.071000	0.066313
2.072000	0.077164
2.073000	0.089331
2.074000	0.103141
2.075000	0.118267
2.076000	0.135036
2.077000	0.154437
2.078000	0.172522
2.079000	0.190936
2.080000	0.207705
2.081000	0.221516
2.082000	0.229078
2.083000	0.234340
2.084000	0.235326
2.085000	0.239272
2.086000	0.246506
2.087000	0.252425
2.088000	0.258015
2.089000	0.259330
2.090000	0.258015
2.091000	0.254069
2.092000	0.249465
2.093000	0.242889
2.094000	0.238943
2.095000	0.237299
2.096000	0.233682
2.097000	0.224475
2.098000	0.213624
2.099000	0.204088
2.100000	0.192251
2.101000	0.178769
2.102000	0.166274
2.103000	0.152464
2.104000	0.139640
2.105000	0.125501
2.106000	0.107744
2.107000	0.089659
2.108000	0.072890
2.109000	0.060723
2.110000	0.050530
2.111000	0.044282
2.112000	0.043954
2.113000	0.040994
2.114000	0.035076
2.115000	0.027842
2.116000	0.020608
2.117000	0.018635
2.118000	0.017977
2.119000	0.016991
2.120000	0.016662
2.121000	0.015346
2.122000	0.019950
2.123000	0.020936
2.124000	0.015018
2.125000	0.008112
2.126000	0.003838
2.127000	0.002523
2.128000	0.000878
2.129000	-0.004383
2.130000	-0.007342
2.131000	-0.010301
2.132000	-0.011945
2.133000	-0.012274
2.134000	-0.012932
2.135000	-0.013918
2.136000	-0.011945
2.137000	-0.010959
2.138000	-0.011288
2.139000	-0.012603
2.140000	-0.012932
2.141000	-0.012932
2.142000	-0.012932
2.143000	-0.014905
2.144000	-0.016220
2.145000	-0.015234
2.146000	-0.014247
2.147000	-0.011945
2.148000	-0.010301
2.149000	-0.008657
2.150000	-0.008000
2.151000	-0.008000
2.152000	-0.008000
2.153000	-0.010630
2.154000	-0.012274
2.155000	-0.014247
2.156000	-0.018851
2.157000	-0.022468
2.158000	-0.027071
2.159000	-0.032332
2.160000	-0.033648
2.161000	-0.036936
2.162000	-0.041210
2.163000	-0.046471
2.164000	-0.050088
2.165000	-0.055678
2.166000	-0.056665
2.167000	-0.056665
2.168000	-0.054363
2.169000	-0.053377
2.170000	-0.049431
2.171000	-0.042197
2.172000	-0.035949
2.173000	-0.031675
2.174000	-0.030688
2.175000	-0.028386
2.176000	-0.023454
2.177000	-0.020495
2.178000	-0.019180
2.179000	-0.019180
2.180000	-0.019508
2.181000	-0.019837
2.182000	-0.020495
2.183000	-0.022468
2.184000	-0.022468
2.185000	-0.023783
2.186000	-0.026414
2.187000	-0.031346
2.188000	-0.036278
2.189000	-0.040224
2.190000	-0.041210
2.191000	-0.039895
2.192000	-0.039237
2.193000	-0.035949
2.194000	-0.033319
2.195000	-0.032332
2.196000	-0.026085
2.197000	-0.020824
2.198000	-0.018522
2.199000	-0.018193
2.200000	-0.016549
2.201000	-0.014247
2.202000	-0.014576
2.203000	-0.014247
2.204000	-0.011945
2.205000	-0.012274
2.206000	-0.013261
2.207000	-0.011288
2.208000	-0.007013
2.209000	-0.006356
2.210000	-0.008657
2.211000	-0.011617
2.212000	-0.013261
2.213000	-0.015234
2.214000	-0.017535
2.215000	-0.015891
2.216000	-0.013590
2.217000	-0.012603
2.218000	-0.012603
2.219000	-0.010630
2.220000	-0.009315
2.221000	-0.005369
2.222000	-0.000766
2.223000	0.002194
2.224000	0.003180
2.225000	0.002523
2.226000	0.001865
2.227000	0.001207
2.228000	-0.001094
2.229000	-0.002739
2.230000	-0.004383
2.231000	-0.006027
2.232000	-0.007342
2.233000	-0.008328
2.234000	-0.006684
2.235000	-0.005698
2.236000	-0.008986
2.237000	-0.011288
2.238000	-0.013261
2.239000	-0.012932
2.240000	-0.010630
2.241000	-0.009644
2.242000	-0.009973
2.243000	-0.013261
2.244000	-0.016220
2.245000	-0.015234
2.246000	-0.010630
2.247000	-0.007671
2.248000	-0.005040
2.249000	-0.003396
2.250000	-0.002410
2.251000	-0.004383
2.252000	-0.009973
2.253000	-0.014576
2.254000	-0.016220
2.255000	-0.018851
2.256000	-0.021810
2.257000	-0.021810
2.258000	-0.017864
2.259000	-0.011945
2.260000	-0.008328
2.261000	-0.008000
2.262000	-0.008986
2.263000	-0.007671
2.264000	-0.006356
2.265000	-0.004054
2.266000	-0.001752
2.267000	0.000221
2.268000	0.003509
2.269000	0.008770
2.270000	0.015018
2.271000	0.020608
2.272000	0.024553
2.273000	0.029814
2.274000	0.034747
2.275000	0.038364
2.276000	0.039679
2.277000	0.040008
2.278000	0.040994
2.279000	0.043954
2.280000	0.048886
2.281000	0.048886
2.282000	0.048557
2.283000	0.051188
2.284000	0.053161
2.285000	0.054805
2.286000	0.054805
2.287000	0.053489
2.288000	0.051845
2.289000	0.048228
2.290000	0.046255
2.291000	0.045927
2.292000	0.045598
2.293000	0.044940
2.294000	0.044940
2.295000	0.046584
2.296000	0.048557
2.297000	0.051188
2.298000	0.053818
2.299000	0.054805
2.300000	0.056778
2.301000	0.058093
2.302000	0.061052
2.303000	0.064669
2.304000	0.067300
2.305000	0.068615
2.306000	0.071903
2.307000	0.074863
2.308000	0.079137
2.309000	0.080453
2.310000	0.078480
2.311000	0.074205
2.312000	0.071246
2.313000	0.066313
2.314000	0.061710
2.315000	0.059408
2.316000	0.056449
2.317000	0.055462
2.318000	0.053489
2.319000	0.054476
2.320000	0.051845
2.321000	0.047242
2.322000	0.045598
2.323000	0.046255
2.324000	0.045598
2.325000	0.046255
2.326000	0.046913
2.327000	0.047242
2.328000	0.047571
2.329000	0.048557
2.330000	0.049872
2.331000	0.049544
2.332000	0.052832
2.333000	0.056120
2.334000	0.057435
2.335000	0.059737
2.336000	0.060066
2.337000	0.059737
2.338000	0.059737
2.339000	0.059408
2.340000	0.058750
2.341000	0.055462
2.342000	0.057764
2.343000	0.057764
2.344000	0.053489
2.345000	0.046584
2.346000	0.041652
2.347000	0.039350
2.348000	0.039021
2.349000	0.037377
2.350000	0.032116
2.351000	0.024225
2.352000	0.018306
2.353000	0.012716
2.354000	0.009099
2.355000	0.003180
2.356000	-0.002739
2.357000	-0.006684
2.358000	-0.008000
2.359000	-0.010630
2.360000	-0.013261
2.361000	-0.015891
2.362000	-0.016220
2.363000	-0.014905
2.364000	-0.013590
2.365000	-0.011617
2.366000	-0.008986
2.367000	-0.008328
2.368000	-0.010630
2.369000	-0.012932
2.370000	-0.013261
2.371000	-0.011945
2.372000	-0.009315
2.373000	-0.008000
2.374000	-0.004383
2.375000	-0.001752
2.376000	0.000221
2.377000	0.000221
2.378000	-0.001094
2.379000	-0.003396
2.380000	-0.007013
2.381000	-0.010959
2.382000	-0.015891
2.383000	-0.018193
2.384000	-0.021481
2.385000	-0.024112
2.386000	-0.027400
2.387000	-0.030688
2.388000	-0.033319
2.389000	-0.034634
2.390000	-0.037593
2.391000	-0.039237
2.392000	-0.039566
2.393000	-0.044499
2.394000	-0.045485
2.395000	-0.043183
2.396000	-0.039237
2.397000	-0.035292
2.398000	-0.029044
2.399000	-0.021481
2.400000	-0.015562
2.401000	-0.009644
2.402000	-0.004711
2.403000	0.000221
2.404000	0.002851
2.405000	0.001865
2.406000	-0.000437
2.407000	-0.009644
2.408000	-0.019508
2.409000	-0.025756
2.410000	-0.030359
2.411000	-0.034305
2.412000	-0.037593
2.413000	-0.039237
2.414000	-0.043183
2.415000	-0.047787
2.416000	-0.049431
2.417000	-0.047458
2.418000	-0.046143
2.419000	-0.045156
2.420000	-0.046471
2.421000	-0.045485
2.422000	-0.039566
2.423000	-0.033319
2.424000	-0.030359
2.425000	-0.028058
2.426000	-0.025098
2.427000	-0.020824
2.428000	-0.019837
2.429000	-0.022797
2.430000	-0.028386
2.431000	-0.032990
2.432000	-0.035292
2.433000	-0.038251
2.434000	-0.041868
2.435000	-0.049102
2.436000	-0.054363
2.437000	-0.056336
2.438000	-0.056007
2.439000	-0.057980
2.440000	-0.058309
2.441000	-0.056007
2.442000	-0.052061
2.443000	-0.049760
2.444000	-0.049760
2.445000	-0.048444
2.446000	-0.043512
2.447000	-0.038580
2.448000	-0.034305
2.449000	-0.031675
2.450000	-0.030688
2.451000	-0.032003
2.452000	-0.034305
2.453000	-0.032332
2.454000	-0.030031
2.455000	-0.028715
2.456000	-0.032661
2.457000	-0.037265
2.458000	-0.038909
2.459000	-0.035620
2.460000	-0.032990
2.461000	-0.030688
2.462000	-0.028058
2.463000	-0.026742
2.464000	-0.027729
2.465000	-0.028386
2.466000	-0.029044
2.467000	-0.031346
2.468000	-0.032003
2.469000	-0.033648
2.470000	-0.033319
2.471000	-0.034634
2.472000	-0.037593
2.473000	-0.041210
2.474000	-0.044499
2.475000	-0.046471
2.476000	-0.049431
2.477000	-0.053377
2.478000	-0.053377
2.479000	-0.050088
2.480000	-0.047787
2.481000	-0.050417
2.482000	-0.056665
2.483000	-0.061926
2.484000	-0.063241
2.485000	-0.062255
2.486000	-0.056007
2.487000	-0.048116
2.488000	-0.041539
2.489000	-0.033976
2.490000	-0.024769
2.491000	-0.014905
2.492000	-0.008986
2.493000	-0.008000
2.494000	-0.008986
2.495000	-0.011288
2.496000	-0.012603
2.497000	-0.010959
2.498000	-0.009644
2.499000	-0.009644
2.500000	-0.010301
2.501000	-0.013261
2.502000	-0.014905
2.503000	-0.015562
2.504000	-0.016878
2.505000	-0.019837
2.506000	-0.020824
2.507000	-0.022468
2.508000	-0.021481
2.509000	-0.021481
2.510000	-0.021152
2.511000	-0.020824
2.512000	-0.021152
2.513000	-0.021481
2.514000	-0.019837
2.515000	-0.018851
2.516000	-0.018522
2.517000	-0.023454
2.518000	-0.029044
2.519000	-0.033976
2.520000	-0.036607
2.521000	-0.037593
2.522000	-0.038909
2.523000	-0.038251
2.524000	-0.039566
2.525000	-0.042526
2.526000	-0.047787
2.527000	-0.054034
2.528000	-0.058309
2.529000	-0.059624
2.530000	-0.055678
2.531000	-0.049102
2.532000	-0.041210
2.533000	-0.035620
2.534000	-0.031346
2.535000	-0.029702
2.536000	-0.028715
2.537000	-0.028058
2.538000	-0.024769
2.539000	-0.022468
2.540000	-0.020824
2.541000	-0.020824
2.542000	-0.023783
2.543000	-0.026414
2.544000	-0.032003
2.545000	-0.037593
2.546000	-0.041868
2.547000	-0.043183
2.548000	-0.047129
2.549000	-0.050417
2.550000	-0.052061
2.551000	-0.052061
2.552000	-0.053705
2.553000	-0.051404
2.554000	-0.044827
2.555000	-0.038909
2.556000	-0.036278
2.557000	-0.033319
2.558000	-0.031017
2.559000	-0.027071
2.560000	-0.023454
2.561000	-0.018522
2.562000	-0.013918
2.563000	-0.011945
2.564000	-0.014576
2.565000	-0.015234
2.566000	-0.012932
2.567000	-0.012603
2.568000	-0.015234
2.569000	-0.016220
2.570000	-0.018851
2.571000	-0.022797
2.572000	-0.027071
2.573000	-0.031017
2.574000	-0.034634
2.575000	-0.036936
2.576000	-0.041210
2.577000	-0.042854
2.578000	-0.040553
2.579000	-0.038251
2.580000	-0.036607
2.581000	-0.037265
2.582000	-0.038580
2.583000	-0.038251
2.584000	-0.037922
2.585000	-0.037922
2.586000	-0.038580
2.587000	-0.037922
2.588000	-0.038580
2.589000	-0.041868
2.590000	-0.046471
2.591000	-0.052390
2.592000	-0.055021
2.593000	-0.058967
2.594000	-0.063241
2.595000	-0.062584
2.596000	-0.060939
2.597000	-0.057651
2.598000	-0.057651
2.599000	-0.053377
2.600000	-0.049431
2.601000	-0.045156
2.602000	-0.042526
2.603000	-0.040553
2.604000	-0.036936
2.605000	-0.031346
2.606000	-0.028386
2.607000	-0.024112
2.608000	-0.021152
2.609000	-0.021152
2.610000	-0.021152
2.611000	-0.018193
2.612000	-0.015891
2.613000	-0.015562
2.614000	-0.019837
2.615000	-0.024769
2.616000	-0.027071
2.617000	-0.027729
2.618000	-0.027729
2.619000	-0.027729
2.620000	-0.027729
2.621000	-0.025427
2.622000	-0.022468
2.623000	-0.018851
2.624000	-0.016549
2.625000	-0.015234
2.626000	-0.012274
2.627000	-0.009973
2.628000	-0.007671
2.629000	-0.008328
2.630000	-0.014247
2.631000	-0.017207
2.632000	-0.013918
2.633000	-0.010301
2.634000	-0.009644
2.635000	-0.013590
2.636000	-0.017864
2.637000	-0.022797
2.638000	-0.027071
2.639000	-0.031675
2.640000	-0.035620
2.641000	-0.036936
2.642000	-0.038909
2.643000	-0.041868
2.644000	-0.042854
2.645000	-0.041868
2.646000	-0.039566
2.647000	-0.038580
2.648000	-0.039566
2.649000	-0.043512
2.650000	-0.046800
2.651000	-0.047458
2.652000	-0.049431
2.653000	-0.052719
2.654000	-0.057322
2.655000	-0.061268
2.656000	-0.063899
2.657000	-0.064228
2.658000	-0.062912
2.659000	-0.059624
2.660000	-0.055678
2.661000	-0.054692
2.662000	-0.055350
2.663000	-0.054363
2.664000	-0.052719
2.665000	-0.053377
2.666000	-0.051733
2.667000	-0.047129
2.668000	-0.041210
2.669000	-0.038251
2.670000	-0.036607
2.671000	-0.034634
2.672000	-0.032990
2.673000	-0.033976
2.674000	-0.031346
2.675000	-0.029702
2.676000	-0.028058
2.677000	-0.027400
2.678000	-0.028058
2.679000	-0.030031
2.680000	-0.031017
2.681000	-0.029044
2.682000	-0.029044
2.683000	-0.029373
2.684000	-0.029044
2.685000	-0.030359
2.686000	-0.028715
2.687000	-0.026414
2.688000	-0.027400
2.689000	-0.027400
2.690000	-0.026085
2.691000	-0.022139
2.692000	-0.017207
2.693000	-0.013590
2.694000	-0.009644
2.695000	-0.005698
2.696000	-0.002739
2.697000	-0.000766
2.698000	-0.002081
2.699000	-0.005040
2.700000	-0.004054
2.701000	-0.004711
2.702000	-0.010301
2.703000	-0.015234
2.704000	-0.016878
2.705000	-0.021152
2.706000	-0.027400
2.707000	-0.032332
2.708000	-0.040224
2.709000	-0.047787
2.710000	-0.053705
2.711000	-0.057322
2.712000	-0.057322
2.713000	-0.055350
2.714000	-0.055678
2.715000	-0.056994
2.716000	-0.056994
2.717000	-0.055021
2.718000	-0.054034
2.719000	-0.053048
2.720000	-0.051404
2.721000	-0.049431
2.722000	-0.047787
2.723000	-0.043841
2.724000	-0.041210
2.725000	-0.041210
2.726000	-0.038909
2.727000	-0.033976
2.728000	-0.033976
2.729000	-0.032332
2.730000	-0.029373
2.731000	-0.029702
2.732000	-0.031675
2.733000	-0.033319
2.734000	-0.031675
2.735000	-0.027400
2.736000	-0.019837
2.737000	-0.013918
2.738000	-0.009973
2.739000	-0.008657
2.740000	-0.010630
2.741000	-0.016549
2.742000	-0.017535
2.743000	-0.018193
2.744000	-0.018193
2.745000	-0.018851
2.746000	-0.019508
2.747000	-0.020166
2.748000	-0.019508
2.749000	-0.021481
2.750000	-0.022139
2.751000	-0.023783
2.752000	-0.025427
2.753000	-0.024112
2.754000	-0.024769
2.755000	-0.025427
2.756000	-0.023783
2.757000	-0.021152
2.758000	-0.020824
2.759000	-0.021810
2.760000	-0.017864
2.761000	-0.011617
2.762000	-0.008986
2.763000	-0.006684
2.764000	-0.006684
2.765000	-0.006027
2.766000	-0.005369
2.767000	-0.006684
2.768000	-0.009644
2.769000	-0.013261
2.770000	-0.015891
2.771000	-0.013918
2.772000	-0.012603
2.773000	-0.012932
2.774000	-0.014576
2.775000	-0.016220
2.776000	-0.021152
2.777000	-0.027400
2.778000	-0.032661
2.779000	-0.035949
2.780000	-0.036607
2.781000	-0.037593
2.782000	-0.040553
2.783000	-0.045156
2.784000	-0.047129
2.785000	-0.046143
2.786000	-0.045814
2.787000	-0.044170
2.788000	-0.039566
2.789000	-0.036936
2.790000	-0.036607
2.791000	-0.036278
2.792000	-0.032990
2.793000	-0.028058
2.794000	-0.024112
2.795000	-0.024441
2.796000	-0.026414
2.797000	-0.025427
2.798000	-0.023454
2.799000	-0.021152
2.800000	-0.019180
2.801000	-0.016220
2.802000	-0.016878
2.803000	-0.018851
2.804000	-0.019180
2.805000	-0.018522
2.806000	-0.021810
2.807000	-0.025756
2.808000	-0.028715
2.809000	-0.032661
2.810000	-0.036278
2.811000	-0.038580
2.812000	-0.040553
2.813000	-0.041539
2.814000	-0.042197
2.815000	-0.042197
2.816000	-0.041539
2.817000	-0.041868
2.818000	-0.042197
2.819000	-0.040553
2.820000	-0.038909
2.821000	-0.035949
2.822000	-0.032661
2.823000	-0.028715
2.824000	-0.026085
2.825000	-0.024112
2.826000	-0.022797
2.827000	-0.020166
2.828000	-0.016220
2.829000	-0.011617
2.830000	-0.006027
2.831000	0.002194
2.832000	0.011401
2.833000	0.020279
2.834000	0.030801
2.835000	0.039350
2.836000	0.044611
2.837000	0.046584
2.838000	0.048886
2.839000	0.055133
2.840000	0.066642
2.841000	0.079137
2.842000	0.091632
2.843000	0.100182
2.844000	0.113006
2.845000	0.126816
2.846000	0.139969
2.847000	0.151148
2.848000	0.158711
2.849000	0.165617
2.850000	0.174166
2.851000	0.181071
2.852000	0.188963
2.853000	0.196197
2.854000	0.204746
2.855000	0.213953
2.856000	0.224146
2.857000	0.231051
2.858000	0.234997
2.859000	0.240587
2.860000	0.246835
2.861000	0.252096
2.862000	0.250123
2.863000	0.245848
2.864000	0.240916
2.865000	0.234011
2.866000	0.226777
2.867000	0.220858
2.868000	0.215597
2.869000	0.210336
2.870000	0.206390
2.871000	0.199485
2.872000	0.192251
2.873000	0.182715
2.874000	0.172522
2.875000	0.157725
2.876000	0.138982
2.877000	0.120897
2.878000	0.108402
2.879000	0.100182
2.880000	0.094592
2.881000	0.088344
2.882000	0.080781
2.883000	0.072232
2.884000	0.064340
2.885000	0.057106
2.886000	0.050530
2.887000	0.046255
2.888000	0.040008
2.889000	0.034089
2.890000	0.027842
2.891000	0.021594
2.892000	0.013702
2.893000	0.007784
2.894000	0.004167
2.895000	-0.001094
2.896000	-0.006027
2.897000	-0.007671
2.898000	-0.007013
2.899000	-0.005369
2.900000	-0.002410
2.901000	-0.000437
2.902000	-0.002410
2.903000	-0.005698
2.904000	-0.009315
2.905000	-0.009315
2.906000	-0.007671
2.907000	-0.007013
2.908000	-0.006684
2.909000	-0.004383
2.910000	-0.000766
2.911000	0.003509
2.912000	0.006140
2.913000	0.007455
2.914000	0.006797
2.915000	0.005153
2.916000	0.001207
2.917000	-0.003067
2.918000	-0.008000
2.919000	-0.012932
2.920000	-0.015562
2.921000	-0.018193
2.922000	-0.020824
2.923000	-0.024769
2.924000	-0.029044
2.925000	-0.032661
2.926000	-0.035620
2.927000	-0.035292
2.928000	-0.035949
2.929000	-0.036278
2.930000	-0.037593
2.931000	-0.038251
2.932000	-0.042197
2.933000	-0.043512
2.934000	-0.040553
2.935000	-0.040224
2.936000	-0.040882
2.937000	-0.040224
2.938000	-0.037922
2.939000	-0.036607
2.940000	-0.034634
2.941000	-0.032661
2.942000	-0.027071
2.943000	-0.021152
2.944000	-0.019180
2.945000	-0.022139
2.946000	-0.029373
2.947000	-0.035620
2.948000	-0.038580
2.949000	-0.038909
2.950000	-0.038580
2.951000	-0.038909
2.952000	-0.040224
2.953000	-0.037922
2.954000	-0.033648
2.955000	-0.030688
2.956000	-0.029373
2.957000	-0.027729
2.958000	-0.022797
2.959000	-0.017535
2.960000	-0.013261
2.961000	-0.011945
2.962000	-0.012274
2.963000	-0.008657
2.964000	-0.004383
2.965000	0.000221
2.966000	0.003838
2.967000	0.007126
2.968000	0.007784
2.969000	0.007784
2.970000	0.005482
2.971000	0.003180
2.972000	0.000550
2.973000	-0.002081
2.974000	-0.006684
2.975000	-0.011617
2.976000	-0.014247
2.977000	-0.015891
2.978000	-0.017207
2.979000	-0.018193
2.980000	-0.017535
2.981000	-0.012603
2.982000	-0.006684
2.983000	-0.004054
2.984000	-0.004054
2.985000	-0.003725
2.986000	-0.006356
2.987000	-0.010959
2.988000	-0.015891
2.989000	-0.014576
2.990000	-0.008328
2.991000	-0.000108
2.992000	0.004167
2.993000	0.006797
2.994000	0.004495
2.995000	0.000221
2.996000	-0.001423
2.997000	-0.001752
2.998000	-0.004711
2.999000	-0.005040
3.000000	-0.004054
3.001000	-0.003067
3.002000	0.000221
3.003000	0.003838
3.004000	0.004167
3.005000	0.003509
3.006000	0.005153
3.007000	0.008112
3.008000	0.007784
3.009000	0.006797
3.010000	0.006797
3.011000	0.005811
3.012000	0.006140
3.013000	0.006140
3.014000	0.006797
3.015000	0.008112
3.016000	0.008112
3.017000	0.005811
3.018000	0.003509
3.019000	0.001207
3.020000	-0.001423
3.021000	-0.000437
3.022000	-0.001423
3.023000	-0.003725
3.024000	-0.004054
3.025000	-0.003396
3.026000	-0.004711
3.027000	-0.007013
3.028000	-0.009644
3.029000	-0.008657
3.030000	-0.002081
3.031000	0.001536
3.032000	0.003180
3.033000	0.004167
3.034000	0.007455
3.035000	0.013045
3.036000	0.017648
3.037000	0.019950
3.038000	0.022580
3.039000	0.024553
3.040000	0.027842
3.041000	0.033103
3.042000	0.037377
3.043000	0.040665
3.044000	0.041652
3.045000	0.046255
3.046000	0.049872
3.047000	0.050859
3.048000	0.050859
3.049000	0.049872
3.050000	0.047899
3.051000	0.045927
3.052000	0.043296
3.053000	0.041652
3.054000	0.039350
3.055000	0.035733
3.056000	0.035076
3.057000	0.036391
3.058000	0.037706
3.059000	0.040665
3.060000	0.045598
3.061000	0.052503
3.062000	0.055462
3.063000	0.053489
3.064000	0.051845
3.065000	0.051516
3.066000	0.052174
3.067000	0.055462
3.068000	0.061381
3.069000	0.069273
3.070000	0.074205
3.071000	0.075191
3.072000	0.073218
3.073000	0.069601
3.074000	0.062367
3.075000	0.056778
3.076000	0.050530
3.077000	0.045927
3.078000	0.050859
3.079000	0.055133
3.080000	0.054805
3.081000	0.053161
3.082000	0.048228
3.083000	0.046913
3.084000	0.048886
3.085000	0.050859
3.086000	0.053818
3.087000	0.057106
3.088000	0.060395
3.089000	0.064012
3.090000	0.067300
3.091000	0.071246
3.092000	0.075520
3.093000	0.076836
3.094000	0.076178
3.095000	0.074205
3.096000	0.069930
3.097000	0.060066
3.098000	0.051845
3.099000	0.047571
3.100000	0.048228
3.101000	0.053161
3.102000	0.054805
3.103000	0.054805
3.104000	0.054476
3.105000	0.053818
3.106000	0.050201
3.107000	0.046584
3.108000	0.044940
3.109000	0.046913
3.110000	0.049544
3.111000	0.052174
3.112000	0.057106
3.113000	0.061381
3.114000	0.060395
3.115000	0.057106
3.116000	0.053161
3.117000	0.052174
3.118000	0.050859
3.119000	0.048557
3.120000	0.047242
3.121000	0.046584
3.122000	0.045269
3.123000	0.044282
3.124000	0.041652
3.125000	0.037706
3.126000	0.037377
3.127000	0.039021
3.128000	0.039679
3.129000	0.038693
3.130000	0.036391
3.131000	0.035733
3.132000	0.033760
3.133000	0.032445
3.134000	0.030801
3.135000	0.027513
3.136000	0.019621
3.137000	0.010085
3.138000	0.001865
3.139000	-0.003396
3.140000	-0.005698
3.141000	-0.004054
3.142000	-0.002081
3.143000	-0.001752
3.144000	-0.000437
3.145000	-0.000766
3.146000	-0.000766
3.147000	-0.003396
3.148000	-0.005040
3.149000	-0.005698
3.150000	-0.005040
3.151000	-0.001423
3.152000	0.000878
3.153000	0.002194
3.154000	0.003838
3.155000	0.003838
3.156000	0.003180
3.157000	0.002523
3.158000	-0.000437
3.159000	-0.005040
3.160000	-0.007013
3.161000	-0.007013
3.162000	-0.005698
3.163000	-0.007342
3.164000	-0.008657
3.165000	-0.013590
3.166000	-0.016878
3.167000	-0.019837
3.168000	-0.021481
3.169000	-0.022139
3.170000	-0.021481
3.171000	-0.022797
3.172000	-0.026742
3.173000	-0.032661
3.174000	-0.034305
3.175000	-0.033648
3.176000	-0.033976
3.177000	-0.033319
3.178000	-0.033648
3.179000	-0.035292
3.180000	-0.035949
3.181000	-0.036936
3.182000	-0.037265
3.183000	-0.034305
3.184000	-0.032661
3.185000	-0.029373
3.186000	-0.029044
3.187000	-0.030031
3.188000	-0.032003
3.189000	-0.036607
3.190000	-0.035292
3.191000	-0.033976
3.192000	-0.032990
3.193000	-0.034963
3.194000	-0.036936
3.195000	-0.035620
3.196000	-0.034305
3.197000	-0.031675
3.198000	-0.025756
3.199000	-0.023783
3.200000	-0.026742
3.201000	-0.029702
3.202000	-0.032003
3.203000	-0.033648
3.204000	-0.035292
3.205000	-0.036936
3.206000	-0.035949
3.207000	-0.035620
3.208000	-0.032661
3.209000	-0.026414
3.210000	-0.020166
3.211000	-0.020495
3.212000	-0.022797
3.213000	-0.024769
3.214000	-0.026742
3.215000	-0.027729
3.216000	-0.026085
3.217000	-0.019508
3.218000	-0.012274
3.219000	-0.008000
3.220000	-0.004711
3.221000	-0.004711
3.222000	-0.003396
3.223000	-0.004711
3.224000	-0.006684
3.225000	-0.009315
3.226000	-0.013261
3.227000	-0.016549
3.228000	-0.019180
3.229000	-0.019508
3.230000	-0.024112
3.231000	-0.026742
3.232000	-0.026414
3.233000	-0.022139
3.234000	-0.017535
3.235000	-0.013590
3.236000	-0.012603
3.237000	-0.012603
3.238000	-0.011288
3.239000	-0.008000
3.240000	-0.009644
3.241000	-0.010959
3.242000	-0.012603
3.243000	-0.013918
3.244000	-0.015891
3.245000	-0.020824
3.246000	-0.024769
3.247000	-0.025427
3.248000	-0.027729
3.249000	-0.030359
3.250000	-0.034634
3.251000	-0.041539
3.252000	-0.049760
3.253000	-0.056994
3.254000	-0.061926
3.255000	-0.065872
3.256000	-0.062255
3.257000	-0.052719
3.258000	-0.045485
3.259000	-0.039237
3.260000	-0.034305
3.261000	-0.035292
3.262000	-0.037922
3.263000	-0.039237
3.264000	-0.037593
3.265000	-0.036278
3.266000	-0.034305
3.267000	-0.028715
3.268000	-0.024112
3.269000	-0.022139
3.270000	-0.020824
3.271000	-0.021152
3.272000	-0.026414
3.273000	-0.028386
3.274000	-0.029373
3.275000	-0.032661
3.276000	-0.035292
3.277000	-0.038251
3.278000	-0.042526
3.279000	-0.045485
3.280000	-0.043512
3.281000	-0.041210
3.282000	-0.037922
3.283000	-0.034963
3.284000	-0.033648
3.285000	-0.030688
3.286000	-0.029044
3.287000	-0.028386
3.288000	-0.030359
3.289000	-0.031346
3.290000	-0.034634
3.291000	-0.036607
3.292000	-0.036278
3.293000	-0.036278
3.294000	-0.036936
3.295000	-0.033648
3.296000	-0.030359
3.297000	-0.028058
3.298000	-0.028058
3.299000	-0.029702
3.300000	-0.028058
3.301000	-0.025756
3.302000	-0.026085
3.303000	-0.027071
3.304000	-0.030688
3.305000	-0.032332
3.306000	-0.031017
3.307000	-0.028058
3.308000	-0.029702
3.309000	-0.030031
3.310000	-0.029044
3.311000	-0.027071
3.312000	-0.025427
3.313000	-0.023454
3.314000	-0.019837
3.315000	-0.017864
3.316000	-0.016878
3.317000	-0.017535
3.318000	-0.020495
3.319000	-0.025756
3.320000	-0.026742
3.321000	-0.024769
3.322000	-0.023125
3.323000	-0.018851
3.324000	-0.011288
3.325000	-0.008328
3.326000	-0.012932
3.327000	-0.016220
3.328000	-0.019180
3.329000	-0.023125
3.330000	-0.022797
3.331000	-0.020166
3.332000	-0.015234
3.333000	-0.010630
3.334000	-0.003725
3.335000	0.001536
3.336000	0.003180
3.337000	0.001207
3.338000	-0.002410
3.339000	-0.006356
3.340000	-0.005698
3.341000	-0.005040
3.342000	-0.007671
3.343000	-0.012603
3.344000	-0.015891
3.345000	-0.018522
3.346000	-0.022797
3.347000	-0.029044
3.348000	-0.035620
3.349000	-0.035949
3.350000	-0.038580
3.351000	-0.041539
3.352000	-0.044499
3.353000	-0.047129
3.354000	-0.048444
3.355000	-0.050746
3.356000	-0.050088
3.357000	-0.046143
3.358000	-0.043183
3.359000	-0.038580
3.360000	-0.034634
3.361000	-0.030359
3.362000	-0.026085
3.363000	-0.020166
3.364000	-0.015891
3.365000	-0.014247
3.366000	-0.014576
3.367000	-0.015562
3.368000	-0.019508
3.369000	-0.025098
3.370000	-0.029044
3.371000	-0.032332
3.372000	-0.033648
3.373000	-0.032990
3.374000	-0.032990
3.375000	-0.034963
3.376000	-0.039237
3.377000	-0.043512
3.378000	-0.044827
3.379000	-0.041868
3.380000	-0.041868
3.381000	-0.043183
3.382000	-0.043841
3.383000	-0.040553
3.384000	-0.035620
3.385000	-0.031675
3.386000	-0.031346
3.387000	-0.029373
3.388000	-0.024769
3.389000	-0.019837
3.390000	-0.015562
3.391000	-0.012274
3.392000	-0.009644
3.393000	-0.005040
3.394000	-0.001094
3.395000	0.001865
3.396000	0.001207
3.397000	-0.002081
3.398000	-0.007013
3.399000	-0.008986
3.400000	-0.009315
3.401000	-0.008328
3.402000	-0.011617
3.403000	-0.017535
3.404000	-0.020495
3.405000	-0.020824
3.406000	-0.019180
3.407000	-0.018193
3.408000	-0.015562
3.409000	-0.012932
3.410000	-0.014247
3.411000	-0.016549
3.412000	-0.015234
3.413000	-0.016220
3.414000	-0.021810
3.415000	-0.023125
3.416000	-0.019180
3.417000	-0.014905
3.418000	-0.011945
3.419000	-0.014576
3.420000	-0.016878
3.421000	-0.021810
3.422000	-0.025098
3.423000	-0.025427
3.424000	-0.025098
3.425000	-0.022139
3.426000	-0.019837
3.427000	-0.016878
3.428000	-0.016549
3.429000	-0.014905
3.430000	-0.012932
3.431000	-0.011945
3.432000	-0.010959
3.433000	-0.008986
3.434000	-0.006356
3.435000	-0.005040
3.436000	-0.003067
3.437000	0.000878
3.438000	0.002523
3.439000	0.000221
3.440000	-0.003725
3.441000	-0.005040
3.442000	-0.008657
3.443000	-0.015891
3.444000	-0.025098
3.445000	-0.034305
3.446000	-0.039566
3.447000	-0.047129
3.448000	-0.056007
3.449000	-0.061597
3.450000	-0.062912
3.451000	-0.065214
3.452000	-0.063570
3.453000	-0.059295
3.454000	-0.056665
3.455000	-0.054692
3.456000	-0.050088
3.457000	-0.046800
3.458000	-0.044170
3.459000	-0.038580
3.460000	-0.032990
3.461000	-0.025756
3.462000	-0.020495
3.463000	-0.018522
3.464000	-0.016220
3.465000	-0.010959
3.466000	-0.006027
3.467000	-0.002081
3.468000	-0.001752
3.469000	-0.004711
3.470000	-0.007013
3.471000	-0.009644
3.472000	-0.013590
3.473000	-0.016220
3.474000	-0.019508
3.475000	-0.024112
3.476000	-0.028058
3.477000	-0.032003
3.478000	-0.034634
3.479000	-0.033648
3.480000	-0.029373
3.481000	-0.022468
3.482000	-0.015891
3.483000	-0.014247
3.484000	-0.013261
3.485000	-0.014576
3.486000	-0.013261
3.487000	-0.008986
3.488000	-0.007013
3.489000	-0.006356
3.490000	-0.006684
3.491000	-0.006684
3.492000	-0.007671
3.493000	-0.009315
3.494000	-0.007671
3.495000	-0.003725
3.496000	-0.000437
3.497000	-0.003067
3.498000	-0.003725
3.499000	-0.001752
3.500000	0.001536
3.501000	0.003838
3.502000	0.005482
3.503000	0.007784
3.504000	0.009757
3.505000	0.010085
3.506000	0.013045
3.507000	0.017319
3.508000	0.023238
3.509000	0.030472
3.510000	0.038035
3.511000	0.047899
3.512000	0.056778
3.513000	0.064669
3.514000	0.072561
3.515000	0.081768
3.516000	0.090975
3.517000	0.099195
3.518000	0.108402
3.519000	0.117609
3.520000	0.123199
3.521000	0.128789
3.522000	0.137009
3.523000	0.148189
3.524000	0.159698
3.525000	0.168247
3.526000	0.174495
3.527000	0.179756
3.528000	0.182386
3.529000	0.183373
3.530000	0.186003
3.531000	0.188634
3.532000	0.192908
3.533000	0.195868
3.534000	0.200471
3.535000	0.206390
3.536000	0.211322
3.537000	0.213953
3.538000	0.213953
3.539000	0.211980
3.540000	0.210665
3.541000	0.205404
3.542000	0.198170
3.543000	0.191922
3.544000	0.182715
3.545000	0.173179
3.546000	0.161342
3.547000	0.148189
3.548000	0.134708
3.549000	0.119582
3.550000	0.104456
3.551000	0.086371
3.552000	0.068615
3.553000	0.050859
3.554000	0.039021
3.555000	0.033760
3.556000	0.029814
3.557000	0.024553
3.558000	0.020279
3.559000	0.016004
3.560000	0.010743
3.561000	0.011072
3.562000	0.012058
3.563000	0.011401
3.564000	0.016662
3.565000	0.020279
3.566000	0.024553
3.567000	0.026197
3.568000	0.028828
3.569000	0.031130
3.570000	0.029814
3.571000	0.024553
3.572000	0.019621
3.573000	0.012058
3.574000	0.004824
3.575000	-0.000766
3.576000	-0.007671
3.577000	-0.018522
3.578000	-0.030359
3.579000	-0.036936
3.580000	-0.037265
3.581000	-0.035949
3.582000	-0.037593
3.583000	-0.038251
3.584000	-0.037922
3.585000	-0.034634
3.586000	-0.032661
3.587000	-0.029373
3.588000	-0.023454
3.589000	-0.017207
3.590000	-0.013261
3.591000	-0.011945
3.592000	-0.013918
3.593000	-0.012932
3.594000	-0.013918
3.595000	-0.014905
3.596000	-0.015562
3.597000	-0.017535
3.598000	-0.019180
3.599000	-0.020495
3.600000	-0.022797
3.601000	-0.027729
3.602000	-0.033976
3.603000	-0.036607
3.604000	-0.038909
3.605000	-0.039895
3.606000	-0.040882
3.607000	-0.040224
3.608000	-0.038251
3.609000	-0.032661
3.610000	-0.028058
3.611000	-0.026085
3.612000	-0.024441
3.613000	-0.024769
3.614000	-0.026414
3.615000	-0.025756
3.616000	-0.022139
3.617000	-0.017535
3.618000	-0.014247
3.619000	-0.013261
3.620000	-0.016220
3.621000	-0.019180
3.622000	-0.021481
3.623000	-0.021810
3.624000	-0.020495
3.625000	-0.018522
3.626000	-0.018851
3.627000	-0.023125
3.628000	-0.027729
3.629000	-0.030688
3.630000	-0.030359
3.631000	-0.026085
3.632000	-0.023125
3.633000	-0.023454
3.634000	-0.025427
3.635000	-0.028058
3.636000	-0.031346
3.637000	-0.032003
3.638000	-0.028058
3.639000	-0.022468
3.640000	-0.017207
3.641000	-0.012274
3.642000	-0.010959
3.643000	-0.012274
3.644000	-0.006684
3.645000	-0.001094
3.646000	-0.001094
3.647000	-0.005369
3.648000	-0.004054
3.649000	-0.002739
3.650000	-0.002410
3.651000	-0.004383
3.652000	-0.007671
3.653000	-0.008657
3.654000	-0.006356
3.655000	-0.005040
3.656000	-0.006027
3.657000	-0.004711
3.658000	-0.003396
3.659000	-0.003067
3.660000	-0.002410
3.661000	-0.003396
3.662000	-0.005040
3.663000	-0.005369
3.664000	-0.004383
3.665000	-0.005040
3.666000	-0.005040
3.667000	-0.005698
3.668000	0.001207
3.669000	0.008770
3.670000	0.012058
3.671000	0.017648
3.672000	0.020608
3.673000	0.018963
3.674000	0.017648
3.675000	0.018963
3.676000	0.019292
3.677000	0.017319
3.678000	0.012716
3.679000	0.012387
3.680000	0.010414
3.681000	0.010743
3.682000	0.011401
3.683000	0.013045
3.684000	0.016662
3.685000	0.018963
3.686000	0.019292
3.687000	0.017319
3.688000	0.011729
3.689000	0.003180
3.690000	-0.005040
3.691000	-0.013261
3.692000	-0.017535
3.693000	-0.016878
3.694000	-0.014247
3.695000	-0.014247
3.696000	-0.014247
3.697000	-0.013918
3.698000	-0.013261
3.699000	-0.014905
3.700000	-0.019508
3.701000	-0.021810
3.702000	-0.023125
3.703000	-0.021481
3.704000	-0.017207
3.705000	-0.015234
3.706000	-0.009644
3.707000	-0.004054
3.708000	0.001207
3.709000	0.005811
3.710000	0.006468
3.711000	0.007784
3.712000	0.011729
3.713000	0.017319
3.714000	0.022580
3.715000	0.025540
3.716000	0.027184
3.717000	0.029814
3.718000	0.034418
3.719000	0.038693
3.720000	0.041981
3.721000	0.046255
3.722000	0.047571
3.723000	0.051188
3.724000	0.054805
3.725000	0.059408
3.726000	0.064012
3.727000	0.067957
3.728000	0.074205
3.729000	0.080124
3.730000	0.081110
3.731000	0.078151
3.732000	0.075520
3.733000	0.073547
3.734000	0.069930
3.735000	0.066971
3.736000	0.062367
3.737000	0.058750
3.738000	0.053818
3.739000	0.050201
3.740000	0.049544
3.741000	0.053161
3.742000	0.059408
3.743000	0.062039
3.744000	0.062367
3.745000	0.061710
3.746000	0.060723
3.747000	0.063354
3.748000	0.064998
3.749000	0.067629
3.750000	0.070588
3.751000	0.071903
3.752000	0.070259
3.753000	0.068615
3.754000	0.066642
3.755000	0.063683
3.756000	0.060066
3.757000	0.055462
3.758000	0.054805
3.759000	0.057764
3.760000	0.057435
3.761000	0.054476
3.762000	0.047571
3.763000	0.040008
3.764000	0.037377
3.765000	0.036391
3.766000	0.037377
3.767000	0.038693
3.768000	0.043625
3.769000	0.049544
3.770000	0.052174
3.771000	0.053818
3.772000	0.056778
3.773000	0.061381
3.774000	0.059737
3.775000	0.055462
3.776000	0.051845
3.777000	0.047242
3.778000	0.046584
3.779000	0.048886
3.780000	0.046913
3.781000	0.045927
3.782000	0.048228
3.783000	0.049872
3.784000	0.050859
3.785000	0.049215
3.786000	0.046913
3.787000	0.047899
3.788000	0.049544
3.789000	0.050530
3.790000	0.051188
3.791000	0.052503
3.792000	0.054805
3.793000	0.054805
3.794000	0.052174
3.795000	0.045598
3.796000	0.042967
3.797000	0.044940
3.798000	0.048228
3.799000	0.047242
3.800000	0.039679
3.801000	0.030801
3.802000	0.023896
3.803000	0.019292
3.804000	0.016004
3.805000	0.010743
3.806000	0.005482
3.807000	-0.000437
3.808000	-0.004711
3.809000	-0.008328
3.810000	-0.012274
3.811000	-0.015891
3.812000	-0.019180
3.813000	-0.019508
3.814000	-0.020824
3.815000	-0.023125
3.816000	-0.023454
3.817000	-0.022468
3.818000	-0.021152
3.819000	-0.020824
3.820000	-0.022139
3.821000	-0.023454
3.822000	-0.024441
3.823000	-0.022139
3.824000	-0.021152
3.825000	-0.020495
3.826000	-0.020166
3.827000	-0.021810
3.828000	-0.026742
3.829000	-0.031017
3.830000	-0.035292
3.831000	-0.041210
3.832000	-0.047458
3.833000	-0.049102
3.834000	-0.047458
3.835000	-0.045485
3.836000	-0.046143
3.837000	-0.049431
3.838000	-0.049102
3.839000	-0.043183
3.840000	-0.039237
3.841000	-0.038909
3.842000	-0.043183
3.843000	-0.045156
3.844000	-0.043183
3.845000	-0.039895
3.846000	-0.034963
3.847000	-0.030688
3.848000	-0.027729
3.849000	-0.026414
3.850000	-0.026742
3.851000	-0.028386
3.852000	-0.032661
3.853000	-0.034305
3.854000	-0.034963
3.855000	-0.036607
3.856000	-0.039237
3.857000	-0.041868
3.858000	-0.037265
3.859000	-0.032661
3.860000	-0.031675
3.861000	-0.031017
3.862000	-0.027071
3.863000	-0.021481
3.864000	-0.017535
3.865000	-0.016549
3.866000	-0.019837
3.867000	-0.023454
3.868000	-0.024769
3.869000	-0.026085
3.870000	-0.027729
3.871000	-0.029702
3.872000	-0.031346
3.873000	-0.033976
3.874000	-0.032990
3.875000	-0.031675
3.876000	-0.032003
3.877000	-0.033976
3.878000	-0.035949
3.879000	-0.037265
3.880000	-0.039566
3.881000	-0.042854
3.882000	-0.044499
3.883000	-0.041868
3.884000	-0.037593
3.885000	-0.035949
3.886000	-0.036278
3.887000	-0.033319
3.888000	-0.030688
3.889000	-0.027400
3.890000	-0.027071
3.891000	-0.032332
3.892000	-0.035949
3.893000	-0.039566
3.894000	-0.040882
3.895000	-0.042526
3.896000	-0.045156
3.897000	-0.049431
3.898000	-0.054692
3.899000	-0.055350
3.900000	-0.052390
3.901000	-0.049760
3.902000	-0.044170
3.903000	-0.038251
3.904000	-0.037265
3.905000	-0.038580
3.906000	-0.041539
3.907000	-0.040553
3.908000	-0.038909
3.909000	-0.036278
3.910000	-0.034305
3.911000	-0.032990
3.912000	-0.030359
3.913000	-0.029373
3.914000	-0.030688
3.915000	-0.031675
3.916000	-0.029702
3.917000	-0.027400
3.918000	-0.025098
3.919000	-0.022468
3.920000	-0.019508
3.921000	-0.019180
3.922000	-0.019508
3.923000	-0.021152
3.924000	-0.023783
3.925000	-0.023454
3.926000	-0.020166
3.927000	-0.013918
3.928000	-0.006356
3.929000	-0.001752
3.930000	-0.001752
3.931000	-0.004054
3.932000	-0.005698
3.933000	-0.008328
3.934000	-0.014576
3.935000	-0.017207
3.936000	-0.019508
3.937000	-0.023454
3.938000	-0.026085
3.939000	-0.027071
3.940000	-0.028058
3.941000	-0.027729
3.942000	-0.024769
3.943000	-0.019837
3.944000	-0.016549
3.945000	-0.013590
3.946000	-0.012932
3.947000	-0.015234
3.948000	-0.019837
3.949000	-0.025427
3.950000	-0.027400
3.951000	-0.030359
3.952000	-0.033319
3.953000	-0.032332
3.954000	-0.033648
3.955000	-0.038251
3.956000	-0.043512
3.957000	-0.048116
3.958000	-0.050417
3.959000	-0.053377
3.960000	-0.055678
3.961000	-0.057651
3.962000	-0.055678
3.963000	-0.054034
3.964000	-0.052719
3.965000	-0.050088
3.966000	-0.048116
3.967000	-0.045156
3.968000	-0.041868
3.969000	-0.035292
3.970000	-0.030688
3.971000	-0.026085
3.972000	-0.025098
3.973000	-0.024441
3.974000	-0.021481
3.975000	-0.017207
3.976000	-0.016878
3.977000	-0.018193
3.978000	-0.021810
3.979000	-0.025756
3.980000	-0.030688
3.981000	-0.032661
3.982000	-0.031017
3.983000	-0.029044
3.984000	-0.027071
3.985000	-0.028058
3.986000	-0.029702
3.987000	-0.031346
3.988000	-0.032003
3.989000	-0.032003
3.990000	-0.033976
3.991000	-0.034305
3.992000	-0.030688
3.993000	-0.025756
3.994000	-0.022797
3.995000	-0.021481
3.996000	-0.020166
3.997000	-0.019180
3.998000	-0.017864
3.999000	-0.019180
4.000000	-0.019837
4.001000	-0.018193
4.002000	-0.012274
4.003000	-0.009973
4.004000	-0.010959
4.005000	-0.013261
4.006000	-0.016549
4.007000	-0.016220
4.008000	-0.013590
4.009000	-0.011945
4.010000	-0.012932
4.011000	-0.016878
4.012000	-0.021481
4.013000	-0.022468
4.014000	-0.024112
4.015000	-0.030031
4.016000	-0.033319
4.017000	-0.034963
4.018000	-0.038580
4.019000	-0.041539
4.020000	-0.043841
4.021000	-0.044499
4.022000	-0.043512
4.023000	-0.043841
4.024000	-0.045485
4.025000	-0.049431
4.026000	-0.053377
4.027000	-0.052719
4.028000	-0.052061
4.029000	-0.053377
4.030000	-0.054363
4.031000	-0.054034
4.032000	-0.051404
4.033000	-0.048116
4.034000	-0.044827
4.035000	-0.043841
4.036000	-0.046800
4.037000	-0.045156
4.038000	-0.040553
4.039000	-0.036278
4.040000	-0.033319
4.041000	-0.029044
4.042000	-0.026085
4.043000	-0.026414
4.044000	-0.024769
4.045000	-0.022468
4.046000	-0.019180
4.047000	-0.018193
4.048000	-0.018193
4.049000	-0.017535
4.050000	-0.016220
4.051000	-0.017207
4.052000	-0.016220
4.053000	-0.016878
4.054000	-0.019837
4.055000	-0.022797
4.056000	-0.024112
4.057000	-0.024769
4.058000	-0.023125
4.059000	-0.024441
4.060000	-0.024769
4.061000	-0.026085
4.062000	-0.026414
4.063000	-0.026742
4.064000	-0.027071
4.065000	-0.026085
4.066000	-0.022139
4.067000	-0.020166
4.068000	-0.020824
4.069000	-0.023783
4.070000	-0.028715
4.071000	-0.030688
4.072000	-0.030359
4.073000	-0.029702
4.074000	-0.032332
4.075000	-0.037922
4.076000	-0.041868
4.077000	-0.044170
4.078000	-0.043512
4.079000	-0.043183
4.080000	-0.043512
4.081000	-0.042526
4.082000	-0.039566
4.083000	-0.036936
4.084000	-0.034305
4.085000	-0.035620
4.086000	-0.034305
4.087000	-0.031675
4.088000	-0.031017
4.089000	-0.032661
4.090000	-0.028715
4.091000	-0.026085
4.092000	-0.026085
4.093000	-0.031017
4.094000	-0.034634
4.095000	-0.036278
4.096000	-0.039566
4.097000	-0.042854
4.098000	-0.041868
4.099000	-0.039237
4.100000	-0.038251
4.101000	-0.039895
4.102000	-0.039237
4.103000	-0.039566
4.104000	-0.037922
4.105000	-0.036278
4.106000	-0.037265
4.107000	-0.037922
4.108000	-0.039237
4.109000	-0.040224
4.110000	-0.036936
4.111000	-0.032661
4.112000	-0.027071
4.113000	-0.023454
4.114000	-0.018522
4.115000	-0.018522
4.116000	-0.019180
4.117000	-0.023125
4.118000	-0.028058
4.119000	-0.035620
4.120000	-0.041868
4.121000	-0.046143
4.122000	-0.043841
4.123000	-0.040553
4.124000	-0.038251
4.125000	-0.035292
4.126000	-0.030359
4.127000	-0.029044
4.128000	-0.028386
4.129000	-0.024769
4.130000	-0.019180
4.131000	-0.020166
4.132000	-0.021152
4.133000	-0.025427
4.134000	-0.028058
4.135000	-0.024112
4.136000	-0.021481
4.137000	-0.021152
4.138000	-0.021481
4.139000	-0.020166
4.140000	-0.019180
4.141000	-0.021481
4.142000	-0.026414
4.143000	-0.030359
4.144000	-0.033319
4.145000	-0.037922
4.146000	-0.041539
4.147000	-0.038909
4.148000	-0.033648
4.149000	-0.025756
4.150000	-0.017535
4.151000	-0.009315
4.152000	-0.000766
4.153000	0.006797
4.154000	0.014031
4.155000	0.023896
4.156000	0.031130
4.157000	0.041323
4.158000	0.056449
4.159000	0.073218
4.160000	0.087029
4.161000	0.099524
4.162000	0.109060
4.163000	0.115965
4.164000	0.122870
4.165000	0.129118
4.166000	0.135365
4.167000	0.146874
4.168000	0.162328
4.169000	0.173508
4.170000	0.182715
4.171000	0.192908
4.172000	0.202773
4.173000	0.212966
4.174000	0.221844
4.175000	0.227763
4.176000	0.232367
4.177000	0.239601
4.178000	0.248479
4.179000	0.255055
4.180000	0.256699
4.181000	0.255713
4.182000	0.251767
4.183000	0.245848
4.184000	0.236312
4.185000	0.222831
4.186000	0.206061
4.187000	0.190278
4.188000	0.170549
4.189000	0.147531
4.190000	0.124185
4.191000	0.101497
4.192000	0.082425
4.193000	0.066642
4.194000	0.055462
4.195000	0.047242
4.196000	0.039350
4.197000	0.030143
4.198000	0.020936
4.199000	0.015675
4.200000	0.010743
4.201000	0.005153
4.202000	0.002194
4.203000	0.002194
4.204000	0.002194
4.205000	0.003180
4.206000	0.005153
4.207000	0.009428
4.208000	0.007784
4.209000	0.007455
4.210000	0.007455
4.211000	0.003838
4.212000	-0.003067
4.213000	-0.008328
4.214000	-0.013918
4.215000	-0.021481
4.216000	-0.028058
4.217000	-0.033976
4.218000	-0.038251
4.219000	-0.036278
4.220000	-0.033976
4.221000	-0.032332
4.222000	-0.030688
4.223000	-0.032003
4.224000	-0.031675
4.225000	-0.030031
4.226000	-0.026085
4.227000	-0.019508
4.228000	-0.012603
4.229000	-0.006027
4.230000	-0.000766
4.231000	0.001865
4.232000	-0.000108
4.233000	-0.001752
4.234000	-0.003067
4.235000	-0.007013
4.236000	-0.009644
4.237000	-0.013918
4.238000	-0.019180
4.239000	-0.025756
4.240000	-0.030359
4.241000	-0.034963
4.242000	-0.039566
4.243000	-0.047129
4.244000	-0.055021
4.245000	-0.061926
4.246000	-0.067187
4.247000	-0.068173
4.248000	-0.064228
4.249000	-0.057322
4.250000	-0.048773
4.251000	-0.041539
4.252000	-0.037593
4.253000	-0.034634
4.254000	-0.029373
4.255000	-0.022468
4.256000	-0.017864
4.257000	-0.016549
4.258000	-0.019508
4.259000	-0.024769
4.260000	-0.029702
4.261000	-0.037265
4.262000	-0.041210
4.263000	-0.041539
4.264000	-0.042197
4.265000	-0.046143
4.266000	-0.049102
4.267000	-0.052719
4.268000	-0.054692
4.269000	-0.055021
4.270000	-0.055021
4.271000	-0.055021
4.272000	-0.049102
4.273000	-0.046143
4.274000	-0.043183
4.275000	-0.035292
4.276000	-0.027071
4.277000	-0.021152
4.278000	-0.015891
4.279000	-0.011617
4.280000	-0.008657
4.281000	-0.007342
4.282000	-0.005698
4.283000	-0.005040
4.284000	-0.007013
4.285000	-0.007013
4.286000	-0.006027
4.287000	-0.006027
4.288000	-0.007671
4.289000	-0.008986
4.290000	-0.011288
4.291000	-0.014576
4.292000	-0.017207
4.293000	-0.017207
4.294000	-0.017535
4.295000	-0.017207
4.296000	-0.014905
4.297000	-0.011945
4.298000	-0.008657
4.299000	-0.007013
4.300000	-0.004383
4.301000	-0.002410
4.302000	-0.004383
4.303000	-0.008986
4.304000	-0.017207
4.305000	-0.025756
4.306000	-0.034963
4.307000	-0.041868
4.308000	-0.047129
4.309000	-0.047129
4.310000	-0.042854
4.311000	-0.038251
4.312000	-0.035292
4.313000	-0.035292
4.314000	-0.037593
4.315000	-0.036607
4.316000	-0.032332
4.317000	-0.025756
4.318000	-0.020166
4.319000	-0.015234
4.320000	-0.008328
4.321000	-0.003396
4.322000	0.002523
4.323000	0.007784
4.324000	0.011729
4.325000	0.014689
4.326000	0.015018
4.327000	0.012387
4.328000	0.005482
4.329000	-0.000437
4.330000	-0.005698
4.331000	-0.008328
4.332000	-0.006027
4.333000	-0.002410
4.334000	-0.000766
4.335000	-0.000108
4.336000	0.000221
4.337000	0.000221
4.338000	-0.001423
4.339000	-0.001752
4.340000	-0.002081
4.341000	-0.003396
4.342000	-0.001423
4.343000	0.002194
4.344000	0.004167
4.345000	0.005811
4.346000	0.005482
4.347000	0.006797
4.348000	0.009428
4.349000	0.007784
4.350000	0.005153
4.351000	0.005811
4.352000	0.009428
4.353000	0.013045
4.354000	0.017319
4.355000	0.023238
4.356000	0.030801
4.357000	0.037048
4.358000	0.040994
4.359000	0.043625
4.360000	0.046255
4.361000	0.049544
4.362000	0.051188
4.363000	0.048557
4.364000	0.046255
4.365000	0.043954
4.366000	0.043625
4.367000	0.043625
4.368000	0.041981
4.369000	0.038035
4.370000	0.032445
4.371000	0.028170
4.372000	0.026855
4.373000	0.028170
4.374000	0.029486
4.375000	0.029814
4.376000	0.029157
4.377000	0.028499
4.378000	0.026526
4.379000	0.027184
4.380000	0.029486
4.381000	0.032445
4.382000	0.034418
4.383000	0.034418
4.384000	0.033431
4.385000	0.033103
4.386000	0.032774
4.387000	0.031787
4.388000	0.031787
4.389000	0.034418
4.390000	0.036391
4.391000	0.042310
4.392000	0.048886
4.393000	0.051845
4.394000	0.051188
4.395000	0.048557
4.396000	0.047899
4.397000	0.051188
4.398000	0.055133
4.399000	0.061710
4.400000	0.069273
4.401000	0.077493
4.402000	0.084070
4.403000	0.084070
4.404000	0.079466
4.405000	0.075191
4.406000	0.071903
4.407000	0.068286
4.408000	0.064998
4.409000	0.063354
4.410000	0.064669
4.411000	0.066642
4.412000	0.067300
4.413000	0.064669
4.414000	0.060395
4.415000	0.058093
4.416000	0.055462
4.417000	0.052503
4.418000	0.048557
4.419000	0.046584
4.420000	0.049215
4.421000	0.056449
4.422000	0.062367
4.423000	0.066313
4.424000	0.068944
4.425000	0.069273
4.426000	0.068615
4.427000	0.063025
4.428000	0.057106
4.429000	0.054805
4.430000	0.055462
4.431000	0.056120
4.432000	0.052832
4.433000	0.048228
4.434000	0.042310
4.435000	0.035076
4.436000	0.028170
4.437000	0.022580
4.438000	0.018306
4.439000	0.016991
4.440000	0.016991
4.441000	0.016662
4.442000	0.012387
4.443000	0.005482
4.444000	-0.000108
4.445000	-0.006684
4.446000	-0.011617
4.447000	-0.012603
4.448000	-0.010630
4.449000	-0.008657
4.450000	-0.008000
4.451000	-0.008657
4.452000	-0.010959
4.453000	-0.012932
4.454000	-0.013261
4.455000	-0.010959
4.456000	-0.009644
4.457000	-0.012932
4.458000	-0.017864
4.459000	-0.023454
4.460000	-0.027400
4.461000	-0.030359
4.462000	-0.034305
4.463000	-0.037265
4.464000	-0.038909
4.465000	-0.041539
4.466000	-0.045485
4.467000	-0.048444
4.468000	-0.050417
4.469000	-0.054034
4.470000	-0.059295
4.471000	-0.060611
4.472000	-0.058967
4.473000	-0.057322
4.474000	-0.056994
4.475000	-0.057322
4.476000	-0.057322
4.477000	-0.058309
4.478000	-0.057651
4.479000	-0.054363
4.480000	-0.048116
4.481000	-0.042197
4.482000	-0.039237
4.483000	-0.039566
4.484000	-0.041210
4.485000	-0.041868
4.486000	-0.040553
4.487000	-0.036607
4.488000	-0.032661
4.489000	-0.027071
4.490000	-0.020824
4.491000	-0.018522
4.492000	-0.017207
4.493000	-0.012932
4.494000	-0.008657
4.495000	-0.006027
4.496000	-0.008000
4.497000	-0.014905
4.498000	-0.016878
4.499000	-0.017864
4.500000	-0.017864
4.501000	-0.018193
4.502000	-0.018522
4.503000	-0.021481
4.504000	-0.025098
4.505000	-0.028058
4.506000	-0.031675
4.507000	-0.035292
4.508000	-0.037922
4.509000	-0.041210
4.510000	-0.040882
4.511000	-0.040224
4.512000	-0.038251
4.513000	-0.036936
4.514000	-0.036607
4.515000	-0.032332
4.516000	-0.025098
4.517000	-0.019508
4.518000	-0.015891
4.519000	-0.014247
4.520000	-0.017207
4.521000	-0.025098
4.522000	-0.033648
4.523000	-0.042854
4.524000	-0.049431
4.525000	-0.052390
4.526000	-0.053705
4.527000	-0.053705
4.528000	-0.055350
4.529000	-0.054692
4.530000	-0.054692
4.531000	-0.054692
4.532000	-0.053705
4.533000	-0.050746
4.534000	-0.051075
4.535000	-0.055021
4.536000	-0.058967
4.537000	-0.060282
4.538000	-0.061926
4.539000	-0.063570
4.540000	-0.065214
4.541000	-0.065214
4.542000	-0.062255
4.543000	-0.058309
4.544000	-0.055350
4.545000	-0.053705
4.546000	-0.058309
4.547000	-0.064228
4.548000	-0.068173
4.549000	-0.072777
4.550000	-0.077709
4.551000	-0.079682
4.552000	-0.078038
4.553000	-0.073435
4.554000	-0.064556
4.555000	-0.056336
4.556000	-0.054363
4.557000	-0.054692
4.558000	-0.054034
4.559000	-0.053705
4.560000	-0.054363
4.561000	-0.055021
4.562000	-0.050746
4.563000	-0.042526
4.564000	-0.033976
4.565000	-0.032003
4.566000	-0.032332
4.567000	-0.032003
4.568000	-0.031346
4.569000	-0.032003
4.570000	-0.031675
4.571000	-0.029044
4.572000	-0.027071
4.573000	-0.025427
4.574000	-0.025098
4.575000	-0.023783
4.576000	-0.024441
4.577000	-0.028715
4.578000	-0.031675
4.579000	-0.032003
4.580000	-0.031346
4.581000	-0.031017
4.582000	-0.028058
4.583000	-0.025098
4.584000	-0.024441
4.585000	-0.024769
4.586000	-0.025756
4.587000	-0.027071
4.588000	-0.028058
4.589000	-0.029044
4.590000	-0.031017
4.591000	-0.032003
4.592000	-0.026414
4.593000	-0.021152
4.594000	-0.017535
4.595000	-0.017535
4.596000	-0.018851
4.597000	-0.021810
4.598000	-0.026742
4.599000	-0.030688
4.600000	-0.032332
4.601000	-0.036278
4.602000	-0.039895
4.603000	-0.042197
4.604000	-0.046471
4.605000	-0.049760
4.606000	-0.051404
4.607000	-0.053377
4.608000	-0.053377
4.609000	-0.054363
4.610000	-0.057651
4.611000	-0.059624
4.612000	-0.061597
4.613000	-0.060282
4.614000	-0.058309
4.615000	-0.057651
4.616000	-0.055678
4.617000	-0.051733
4.618000	-0.047129
4.619000	-0.041868
4.620000	-0.038580
4.621000	-0.036936
4.622000	-0.036278
4.623000	-0.036278
4.624000	-0.034963
4.625000	-0.033976
4.626000	-0.033976
4.627000	-0.036278
4.628000	-0.044170
4.629000	-0.048444
4.630000	-0.051404
4.631000	-0.054363
4.632000	-0.055678
4.633000	-0.058638
4.634000	-0.064556
4.635000	-0.068502
4.636000	-0.068502
4.637000	-0.068173
4.638000	-0.065543
4.639000	-0.062584
4.640000	-0.057322
4.641000	-0.052719
4.642000	-0.050417
4.643000	-0.047458
4.644000	-0.045814
4.645000	-0.042854
4.646000	-0.039566
4.647000	-0.035620
4.648000	-0.032661
4.649000	-0.031675
4.650000	-0.031017
4.651000	-0.028715
4.652000	-0.025756
4.653000	-0.025427
4.654000	-0.025756
4.655000	-0.027400
4.656000	-0.026742
4.657000	-0.025427
4.658000	-0.026414
4.659000	-0.028386
4.660000	-0.032003
4.661000	-0.036936
4.662000	-0.040882
4.663000	-0.040553
4.664000	-0.041868
4.665000	-0.043512
4.666000	-0.043512
4.667000	-0.041539
4.668000	-0.040553
4.669000	-0.039895
4.670000	-0.039237
4.671000	-0.038580
4.672000	-0.035292
4.673000	-0.034305
4.674000	-0.033976
4.675000	-0.032661
4.676000	-0.029702
4.677000	-0.029044
4.678000	-0.029702
4.679000	-0.027729
4.680000	-0.023454
4.681000	-0.022139
4.682000	-0.023783
4.683000	-0.024769
4.684000	-0.024769
4.685000	-0.023783
4.686000	-0.024112
4.687000	-0.027071
4.688000	-0.031017
4.689000	-0.035949
4.690000	-0.037922
4.691000	-0.040882
4.692000	-0.045485
4.693000	-0.051733
4.694000	-0.056665
4.695000	-0.058309
4.696000	-0.058309
4.697000	-0.059953
4.698000	-0.059953
4.699000	-0.057651
4.700000	-0.055678
4.701000	-0.053705
4.702000	-0.052390
4.703000	-0.051404
4.704000	-0.052390
4.705000	-0.051733
4.706000	-0.050417
4.707000	-0.046800
4.708000	-0.043841
4.709000	-0.044170
4.710000	-0.044170
4.711000	-0.043183
4.712000	-0.040553
4.713000	-0.040553
4.714000	-0.042854
4.715000	-0.048444
4.716000	-0.052719
4.717000	-0.051733
4.718000	-0.051404
4.719000	-0.049102
4.720000	-0.046471
4.721000	-0.045814
4.722000	-0.043841
4.723000	-0.044170
4.724000	-0.046471
4.725000	-0.044170
4.726000	-0.042526
4.727000	-0.042526
4.728000	-0.044499
4.729000	-0.048444
4.730000	-0.054034
4.731000	-0.059295
4.732000	-0.060611
4.733000	-0.060939
4.734000	-0.058638
4.735000	-0.056007
4.736000	-0.052390
4.737000	-0.051075
4.738000	-0.053705
4.739000	-0.054692
4.740000	-0.056336
4.741000	-0.058967
4.742000	-0.057980
4.743000	-0.053048
4.744000	-0.049102
4.745000	-0.045485
4.746000	-0.038251
4.747000	-0.033319
4.748000	-0.032661
4.749000	-0.030031
4.750000	-0.026742
4.751000	-0.028058
4.752000	-0.032661
4.753000	-0.037922
4.754000	-0.040553
4.755000	-0.041539
4.756000	-0.042526
4.757000	-0.039895
4.758000	-0.037265
4.759000	-0.035949
4.760000	-0.034963
4.761000	-0.032661
4.762000	-0.029044
4.763000	-0.027729
4.764000	-0.029044
4.765000	-0.029702
4.766000	-0.028386
4.767000	-0.025098
4.768000	-0.023783
4.769000	-0.028715
4.770000	-0.032661
4.771000	-0.032661
4.772000	-0.031017
4.773000	-0.028715
4.774000	-0.025098
4.775000	-0.021810
4.776000	-0.020824
4.777000	-0.021810
4.778000	-0.022139
4.779000	-0.024112
4.780000	-0.027729
4.781000	-0.026414
4.782000	-0.025756
4.783000	-0.024112
4.784000	-0.023454
4.785000	-0.022468
4.786000	-0.020824
4.787000	-0.021152
4.788000	-0.024112
4.789000	-0.026414
4.790000	-0.028058
4.791000	-0.026085
4.792000	-0.025098
4.793000	-0.026085
4.794000	-0.029373
4.795000	-0.031017
4.796000	-0.034634
4.797000	-0.038909
4.798000	-0.039895
4.799000	-0.039895
4.800000	-0.038909
4.801000	-0.034963
4.802000	-0.035620
4.803000	-0.035949
4.804000	-0.036607
4.805000	-0.041210
4.806000	-0.045485
4.807000	-0.050088
4.808000	-0.050417
4.809000	-0.045814
4.810000	-0.043512
4.811000	-0.044170
4.812000	-0.046800
4.813000	-0.045814
4.814000	-0.045156
4.815000	-0.045485
4.816000	-0.044170
4.817000	-0.044827
4.818000	-0.043841
4.819000	-0.044499
4.820000	-0.047129
4.821000	-0.047129
4.822000	-0.043512
4.823000	-0.039566
4.824000	-0.038251
4.825000	-0.038580
4.826000	-0.040882
4.827000	-0.040882
4.828000	-0.039237
4.829000	-0.039566
4.830000	-0.038909
4.831000	-0.035292
4.832000	-0.030688
4.833000	-0.030031
4.834000	-0.031017
4.835000	-0.034963
4.836000	-0.041868
4.837000	-0.048444
4.838000	-0.052390
4.839000	-0.051404
4.840000	-0.048444
4.841000	-0.047129
4.842000	-0.045814
4.843000	-0.043183
4.844000	-0.037922
4.845000	-0.038580
4.846000	-0.040224
4.847000	-0.040882
4.848000	-0.040224
4.849000	-0.039895
4.850000	-0.037265
4.851000	-0.033648
4.852000	-0.028058
4.853000	-0.021481
4.854000	-0.014905
4.855000	-0.009644
4.856000	-0.006356
4.857000	-0.004054
4.858000	-0.002081
4.859000	0.000878
4.860000	0.004495
4.861000	0.006468
4.862000	0.008112
4.863000	0.010414
4.864000	0.011401
4.865000	0.013702
4.866000	0.021265
4.867000	0.035076
4.868000	0.052832
4.869000	0.068615
4.870000	0.081110
4.871000	0.091961
4.872000	0.102155
4.873000	0.113663
4.874000	0.125829
4.875000	0.137009
4.876000	0.145887
4.877000	0.154108
4.878000	0.162986
4.879000	0.173508
4.880000	0.183044
4.881000	0.192580
4.882000	0.202115
4.883000	0.210665
4.884000	0.216255
4.885000	0.218227
4.886000	0.218556
4.887000	0.218885
4.888000	0.221187
4.889000	0.222502
4.890000	0.222831
4.891000	0.221516
4.892000	0.221187
4.893000	0.219543
4.894000	0.221516
4.895000	0.223817
4.896000	0.222502
4.897000	0.217241
4.898000	0.209349
4.899000	0.198827
4.900000	0.185674
4.901000	0.170878
4.902000	0.156081
4.903000	0.144243
4.904000	0.134050
4.905000	0.122212
4.906000	0.107416
4.907000	0.093934
4.908000	0.079137
4.909000	0.060395
4.910000	0.039350
4.911000	0.024225
4.912000	0.012716
4.913000	-0.000108
4.914000	-0.007013
4.915000	-0.011617
4.916000	-0.014576
4.917000	-0.014905
4.918000	-0.016220
4.919000	-0.018522
4.920000	-0.020824
4.921000	-0.021481
4.922000	-0.020824
4.923000	-0.021152
4.924000	-0.021152
4.925000	-0.025098
4.926000	-0.027071
4.927000	-0.025756
4.928000	-0.024441
4.929000	-0.025098
4.930000	-0.021810
4.931000	-0.019508
4.932000	-0.021152
4.933000	-0.022797
4.934000	-0.024112
4.935000	-0.024769
4.936000	-0.027729
4.937000	-0.030031
4.938000	-0.029044
4.939000	-0.027071
4.940000	-0.025427
4.941000	-0.024112
4.942000	-0.021152
4.943000	-0.019180
4.944000	-0.016220
4.945000	-0.014247
4.946000	-0.012932
4.947000	-0.012932
4.948000	-0.013590
4.949000	-0.015891
4.950000	-0.014905
4.951000	-0.016220
4.952000	-0.020166
4.953000	-0.023783
4.954000	-0.025098
4.955000	-0.027071
4.956000	-0.032661
4.957000	-0.037265
4.958000	-0.041210
4.959000	-0.043841
4.960000	-0.042854
4.961000	-0.040882
4.962000	-0.039237
4.963000	-0.040882
4.964000	-0.044499
4.965000	-0.048116
4.966000	-0.048773
4.967000	-0.047787
4.968000	-0.048116
4.969000	-0.048116
4.970000	-0.050417
4.971000	-0.049760
4.972000	-0.047129
4.973000	-0.042854
4.974000	-0.035949
4.975000	-0.030688
4.976000	-0.028715
4.977000	-0.029044
4.978000	-0.030031
4.979000	-0.033319
4.980000	-0.038580
4.981000	-0.043512
4.982000	-0.045814
4.983000	-0.046800
4.984000	-0.044827
4.985000	-0.040882
4.986000	-0.039237
4.987000	-0.037593
4.988000	-0.035620
4.989000	-0.034305
4.990000	-0.034963
4.991000	-0.036936
4.992000	-0.037922
4.993000	-0.040224
4.994000	-0.037593
4.995000	-0.035620
4.996000	-0.034963
4.997000	-0.039566
4.998000	-0.045485
4.999000	-0.048116
5.000000	-0.047787
5.001000	-0.043841
5.002000	-0.038909
5.003000	-0.034634
5.004000	-0.032332
5.005000	-0.032990
5.006000	-0.033976
5.007000	-0.033976
5.008000	-0.032003
5.009000	-0.028715
5.010000	-0.025427
5.011000	-0.020166
5.012000	-0.014905
5.013000	-0.010301
5.014000	-0.005040
5.015000	0.000550
5.016000	0.004824
5.017000	0.006468
5.018000	0.009099
5.019000	0.009099
5.020000	0.009099
5.021000	0.007784
5.022000	0.003180
5.023000	-0.000437
5.024000	-0.001094
5.025000	0.000221
5.026000	-0.002410
5.027000	-0.006027
5.028000	-0.006356
5.029000	-0.007671
5.030000	-0.013590
5.031000	-0.015891
5.032000	-0.017207
5.033000	-0.017535
5.034000	-0.016549
5.035000	-0.017535
5.036000	-0.018851
5.037000	-0.016549
5.038000	-0.014247
5.039000	-0.014576
5.040000	-0.013918
5.041000	-0.011288
5.042000	-0.009315
5.043000	-0.009644
5.044000	-0.008000
5.045000	-0.007342
5.046000	-0.005698
5.047000	-0.005698
5.048000	-0.009315
5.049000	-0.014247
5.050000	-0.019180
5.051000	-0.027729
5.052000	-0.033976
5.053000	-0.037265
5.054000	-0.036607
5.055000	-0.036936
5.056000	-0.039895
5.057000	-0.044170
5.058000	-0.043512
5.059000	-0.035620
5.060000	-0.028715
5.061000	-0.022797
5.062000	-0.017864
5.063000	-0.016549
5.064000	-0.015891
5.065000	-0.011945
5.066000	-0.006684
5.067000	-0.001752
5.068000	0.001207
5.069000	0.002851
5.070000	0.002851
5.071000	0.003180
5.072000	0.003838
5.073000	0.002194
5.074000	0.004495
5.075000	0.002194
5.076000	0.000221
5.077000	0.000878
5.078000	0.002194
5.079000	0.003838
5.080000	0.007455
5.081000	0.010743
5.082000	0.018306
5.083000	0.026526
5.084000	0.035076
5.085000	0.042310
5.086000	0.046255
5.087000	0.048557
5.088000	0.052174
5.089000	0.052832
5.090000	0.050859
5.091000	0.049872
5.092000	0.050530
5.093000	0.052174
5.094000	0.053161
5.095000	0.056120
5.096000	0.061052
5.097000	0.065327
5.098000	0.065656
5.099000	0.064669
5.100000	0.064998
5.101000	0.065656
5.102000	0.067629
5.103000	0.069273
5.104000	0.072561
5.105000	0.075520
5.106000	0.079466
5.107000	0.084727
5.108000	0.088673
5.109000	0.090317
5.110000	0.087358
5.111000	0.087029
5.112000	0.086371
5.113000	0.081110
5.114000	0.075520
5.115000	0.068615
5.116000	0.064012
5.117000	0.061052
5.118000	0.057435
5.119000	0.053818
5.120000	0.048557
5.121000	0.041652
5.122000	0.035733
5.123000	0.031130
5.124000	0.027184
5.125000	0.024553
5.126000	0.022580
5.127000	0.018635
5.128000	0.014689
5.129000	0.009757
5.130000	0.009099
5.131000	0.012058
5.132000	0.014689
5.133000	0.016662
5.134000	0.016991
5.135000	0.019621
5.136000	0.023567
5.137000	0.024553
5.138000	0.025869
5.139000	0.030143
5.140000	0.030801
5.141000	0.032445
5.142000	0.030472
5.143000	0.027842
5.144000	0.023238
5.145000	0.018963
5.146000	0.013374
5.147000	0.013374
5.148000	0.016991
5.149000	0.020936
5.150000	0.016991
5.151000	0.007455
5.152000	-0.001423
5.153000	-0.009973
5.154000	-0.010301
5.155000	-0.012603
5.156000	-0.015891
5.157000	-0.018193
5.158000	-0.016549
5.159000	-0.015234
5.160000	-0.014247
5.161000	-0.013261
5.162000	-0.010301
5.163000	-0.008986
5.164000	-0.008328
5.165000	-0.008657
5.166000	-0.009644
5.167000	-0.010630
5.168000	-0.010630
5.169000	-0.010630
5.170000	-0.008986
5.171000	-0.009644
5.172000	-0.009644
5.173000	-0.008000
5.174000	-0.008657
5.175000	-0.009644
5.176000	-0.012603
5.177000	-0.015562
5.178000	-0.019180
5.179000	-0.026414
5.180000	-0.029702
5.181000	-0.030359
5.182000	-0.030359
5.183000	-0.031017
5.184000	-0.034305
5.185000	-0.035949
5.186000	-0.036278
5.187000	-0.036278
5.188000	-0.037593
5.189000	-0.037922
5.190000	-0.037593
5.191000	-0.032661
5.192000	-0.032003
5.193000	-0.031017
5.194000	-0.030359
5.195000	-0.030031
5.196000	-0.028386
5.197000	-0.024769
5.198000	-0.022139
5.199000	-0.019837
5.200000	-0.020495
5.201000	-0.025427
5.202000	-0.030359
5.203000	-0.035292
5.204000	-0.041539
5.205000	-0.045156
5.206000	-0.046471
5.207000	-0.045814
5.208000	-0.050746
5.209000	-0.053377
5.210000	-0.054034
5.211000	-0.058309
5.212000	-0.062584
5.213000	-0.069160
5.214000	-0.076394
5.215000	-0.080011
5.216000	-0.083299
5.217000	-0.084614
5.218000	-0.081326
5.219000	-0.075407
5.220000	-0.069489
5.221000	-0.065214
5.222000	-0.058309
5.223000	-0.052061
5.224000	-0.047787
5.225000	-0.044499
5.226000	-0.043512
5.227000	-0.045485
5.228000	-0.046471
5.229000	-0.045156
5.230000	-0.046471
5.231000	-0.049102
5.232000	-0.049102
5.233000	-0.044499
5.234000	-0.044170
5.235000	-0.045485
5.236000	-0.048116
5.237000	-0.050088
5.238000	-0.049431
5.239000	-0.049102
5.240000	-0.047129
5.241000	-0.046800
5.242000	-0.042526
5.243000	-0.039237
5.244000	-0.038580
5.245000	-0.037265
5.246000	-0.036278
5.247000	-0.034963
5.248000	-0.034634
5.249000	-0.035620
5.250000	-0.035292
5.251000	-0.034963
5.252000	-0.032990
5.253000	-0.033648
5.254000	-0.034963
5.255000	-0.035292
5.256000	-0.033976
5.257000	-0.034634
5.258000	-0.035620
5.259000	-0.037265
5.260000	-0.036936
5.261000	-0.034963
5.262000	-0.031017
5.263000	-0.028058
5.264000	-0.026414
5.265000	-0.019837
5.266000	-0.015891
5.267000	-0.015562
5.268000	-0.016878
5.269000	-0.013261
5.270000	-0.011945
5.271000	-0.012603
5.272000	-0.012274
5.273000	-0.014247
5.274000	-0.017864
5.275000	-0.025427
5.276000	-0.030688
5.277000	-0.035620
5.278000	-0.041210
5.279000	-0.047129
5.280000	-0.052061
5.281000	-0.056007
5.282000	-0.058309
5.283000	-0.059624
5.284000	-0.061268
5.285000	-0.062912
5.286000	-0.062912
5.287000	-0.060282
5.288000	-0.057322
5.289000	-0.060282
5.290000	-0.061926
5.291000	-0.063241
5.292000	-0.065872
5.293000	-0.066529
5.294000	-0.063241
5.295000	-0.060282
5.296000	-0.056994
5.297000	-0.052061
5.298000	-0.048773
5.299000	-0.045814
5.300000	-0.043183
5.301000	-0.039895
5.302000	-0.037265
5.303000	-0.037265
5.304000	-0.038580
5.305000	-0.042526
5.306000	-0.046800
5.307000	-0.050088
5.308000	-0.054692
5.309000	-0.055350
5.310000	-0.055021
5.311000	-0.053705
5.312000	-0.051404
5.313000	-0.049431
5.314000	-0.048773
5.315000	-0.050746
5.316000	-0.052390
5.317000	-0.054034
5.318000	-0.053705
5.319000	-0.051075
5.320000	-0.047787
5.321000	-0.045814
5.322000	-0.042854
5.323000	-0.036936
5.324000	-0.034634
5.325000	-0.032990
5.326000	-0.030688
5.327000	-0.032661
5.328000	-0.036936
5.329000	-0.040224
5.330000	-0.041210
5.331000	-0.040553
5.332000	-0.038909
5.333000	-0.038909
5.334000	-0.038580
5.335000	-0.038909
5.336000	-0.038909
5.337000	-0.038580
5.338000	-0.035949
5.339000	-0.029702
5.340000	-0.022139
5.341000	-0.015891
5.342000	-0.014905
5.343000	-0.012603
5.344000	-0.010630
5.345000	-0.008328
5.346000	-0.008986
5.347000	-0.012274
5.348000	-0.016549
5.349000	-0.019837
5.350000	-0.019837
5.351000	-0.022139
5.352000	-0.029044
5.353000	-0.034963
5.354000	-0.039895
5.355000	-0.044170
5.356000	-0.047458
5.357000	-0.047458
5.358000	-0.046143
5.359000	-0.047458
5.360000	-0.049431
5.361000	-0.047787
5.362000	-0.044827
5.363000	-0.043183
5.364000	-0.041210
5.365000	-0.038251
5.366000	-0.036607
5.367000	-0.033319
5.368000	-0.028715
5.369000	-0.025756
5.370000	-0.027729
5.371000	-0.033319
5.372000	-0.040224
5.373000	-0.046800
5.374000	-0.053377
5.375000	-0.056994
5.376000	-0.060282
5.377000	-0.060939
5.378000	-0.060611
5.379000	-0.061268
5.380000	-0.060611
5.381000	-0.061268
5.382000	-0.061926
5.383000	-0.063241
5.384000	-0.065543
5.385000	-0.064556
5.386000	-0.063241
5.387000	-0.059295
5.388000	-0.054034
5.389000	-0.048444
5.390000	-0.041210
5.391000	-0.033648
5.392000	-0.029702
5.393000	-0.032990
5.394000	-0.035949
5.395000	-0.035292
5.396000	-0.035292
5.397000	-0.035620
5.398000	-0.037265
5.399000	-0.038909
5.400000	-0.037593
5.401000	-0.036607
5.402000	-0.037265
5.403000	-0.040553
5.404000	-0.044499
5.405000	-0.045814
5.406000	-0.046143
5.407000	-0.044827
5.408000	-0.046143
5.409000	-0.049431
5.410000	-0.050746
5.411000	-0.050417
5.412000	-0.047129
5.413000	-0.041868
5.414000	-0.040553
5.415000	-0.042197
5.416000	-0.042854
5.417000	-0.042197
5.418000	-0.040553
5.419000	-0.038580
5.420000	-0.039895
5.421000	-0.039895
5.422000	-0.037265
5.423000	-0.036607
5.424000	-0.039237
5.425000	-0.040224
5.426000	-0.038909
5.427000	-0.035949
5.428000	-0.033648
5.429000	-0.034963
5.430000	-0.037265
5.431000	-0.044499
5.432000	-0.052390
5.433000	-0.056665
5.434000	-0.058309
5.435000	-0.056994
5.436000	-0.054692
5.437000	-0.050088
5.438000	-0.044827
5.439000	-0.038580
5.440000	-0.036936
5.441000	-0.036607
5.442000	-0.033319
5.443000	-0.030688
5.444000	-0.026414
5.445000	-0.024769
5.446000	-0.023783
5.447000	-0.024441
5.448000	-0.024112
5.449000	-0.025098
5.450000	-0.023783
5.451000	-0.024441
5.452000	-0.028386
5.453000	-0.034634
5.454000	-0.039237
5.455000	-0.039895
5.456000	-0.040553
5.457000	-0.041210
5.458000	-0.043512
5.459000	-0.044170
5.460000	-0.043512
5.461000	-0.043183
5.462000	-0.038909
5.463000	-0.032990
5.464000	-0.028386
5.465000	-0.028058
5.466000	-0.029373
5.467000	-0.032990
5.468000	-0.033976
5.469000	-0.032990
5.470000	-0.031675
5.471000	-0.030031
5.472000	-0.029702
5.473000	-0.030688
5.474000	-0.032661
5.475000	-0.033976
5.476000	-0.033648
5.477000	-0.032332
5.478000	-0.033319
5.479000	-0.035949
5.480000	-0.033976
5.481000	-0.033648
5.482000	-0.033976
5.483000	-0.034963
5.484000	-0.036607
5.485000	-0.036936
5.486000	-0.035949
5.487000	-0.036936
5.488000	-0.034963
5.489000	-0.030688
5.490000	-0.027729
5.491000	-0.025756
5.492000	-0.025427
5.493000	-0.026414
5.494000	-0.027400
5.495000	-0.029044
5.496000	-0.029044
5.497000	-0.029044
5.498000	-0.030031
5.499000	-0.031346
5.500000	-0.032661
5.501000	-0.032661
5.502000	-0.034634
5.503000	-0.036607
5.504000	-0.037593
5.505000	-0.038251
5.506000	-0.038580
5.507000	-0.041539
5.508000	-0.042854
5.509000	-0.041210
5.510000	-0.039566
5.511000	-0.037593
5.512000	-0.032990
5.513000	-0.026742
5.514000	-0.021810
5.515000	-0.022468
5.516000	-0.018851
5.517000	-0.015891
5.518000	-0.013590
5.519000	-0.013590
5.520000	-0.016220
5.521000	-0.024441
5.522000	-0.032990
5.523000	-0.038909
5.524000	-0.041539
5.525000	-0.039566
5.526000	-0.036607
5.527000	-0.033648
5.528000	-0.034634
5.529000	-0.039566
5.530000	-0.043841
5.531000	-0.045814
5.532000	-0.043183
5.533000	-0.040553
5.534000	-0.039895
5.535000	-0.034634
5.536000	-0.031675
5.537000	-0.032332
5.538000	-0.031346
5.539000	-0.030688
5.540000	-0.031017
5.541000	-0.030359
5.542000	-0.028386
5.543000	-0.028058
5.544000	-0.029044
5.545000	-0.028058
5.546000	-0.028058
5.547000	-0.028386
5.548000	-0.027729
5.549000	-0.024441
5.550000	-0.019508
5.551000	-0.017207
5.552000	-0.018851
5.553000	-0.021810
5.554000	-0.022468
5.555000	-0.020824
5.556000	-0.020495
5.557000	-0.020824
5.558000	-0.023454
5.559000	-0.025098
5.560000	-0.030359
5.561000	-0.035292
5.562000	-0.037922
5.563000	-0.035949
5.564000	-0.035949
5.565000	-0.034963
5.566000	-0.032990
5.567000	-0.031675
5.568000	-0.030688
5.569000	-0.029702
5.570000	-0.028386
5.571000	-0.025427
5.572000	-0.022468
5.573000	-0.020495
5.574000	-0.019837
5.575000	-0.016878
5.576000	-0.013918
5.577000	-0.011945
5.578000	-0.013590
5.579000	-0.018193
5.580000	-0.024441
5.581000	-0.033648
5.582000	-0.041539
5.583000	-0.047787
5.584000	-0.052061
5.585000	-0.054692
5.586000	-0.053705
5.587000	-0.051733
5.588000	-0.050746
5.589000	-0.052061
5.590000	-0.055678
5.591000	-0.055021
5.592000	-0.049760
5.593000	-0.044170
5.594000	-0.036936
5.595000	-0.031017
5.596000	-0.025756
5.597000	-0.019837
5.598000	-0.013918
5.599000	-0.007671
5.600000	-0.000766
5.601000	0.003509
5.602000	0.003180
5.603000	0.005153
5.604000	0.007126
5.605000	0.008441
5.606000	0.004824
5.607000	-0.002081
5.608000	-0.006027
5.609000	-0.010301
5.610000	-0.016220
5.611000	-0.023783
5.612000	-0.026414
5.613000	-0.025756
5.614000	-0.027071
5.615000	-0.029373
5.616000	-0.032661
5.617000	-0.035292
5.618000	-0.035949
5.619000	-0.032003
5.620000	-0.024769
5.621000	-0.018851
5.622000	-0.016549
5.623000	-0.013590
5.624000	-0.011288
5.625000	-0.010301
5.626000	-0.012603
5.627000	-0.010959
5.628000	-0.007342
5.629000	-0.001752
5.630000	-0.000108
5.631000	0.000221
5.632000	-0.000437
5.633000	0.000878
5.634000	0.006468
5.635000	0.014689
5.636000	0.020936
5.637000	0.028170
5.638000	0.039021
5.639000	0.051845
5.640000	0.062367
5.641000	0.076836
5.642000	0.094263
5.643000	0.113334
5.644000	0.131748
5.645000	0.149504
5.646000	0.162986
5.647000	0.172851
5.648000	0.182386
5.649000	0.195210
5.650000	0.210336
5.651000	0.220529
5.652000	0.229078
5.653000	0.233353
5.654000	0.237957
5.655000	0.241902
5.656000	0.245191
5.657000	0.248150
5.658000	0.249136
5.659000	0.249794
5.660000	0.248808
5.661000	0.243875
5.662000	0.238285
5.663000	0.233682
5.664000	0.226448
5.665000	0.218885
5.666000	0.210336
5.667000	0.196525
5.668000	0.177454
5.669000	0.159040
5.670000	0.144243
5.671000	0.132406
5.672000	0.125501
5.673000	0.116294
5.674000	0.107744
5.675000	0.096893
5.676000	0.089002
5.677000	0.081768
5.678000	0.076178
5.679000	0.073547
5.680000	0.068944
5.681000	0.065327
5.682000	0.064012
5.683000	0.060395
5.684000	0.054805
5.685000	0.046255
5.686000	0.040337
5.687000	0.035404
5.688000	0.030801
5.689000	0.025869
5.690000	0.021594
5.691000	0.017648
5.692000	0.014031
5.693000	0.009757
5.694000	0.005482
5.695000	-0.000108
5.696000	-0.007671
5.697000	-0.010301
5.698000	-0.010630
5.699000	-0.012932
5.700000	-0.010630
5.701000	-0.005369
5.702000	-0.005040
5.703000	-0.005698
5.704000	-0.005369
5.705000	-0.005698
5.706000	-0.008000
5.707000	-0.008986
5.708000	-0.010301
5.709000	-0.014247
5.710000	-0.017864
5.711000	-0.020495
5.712000	-0.021152
5.713000	-0.022797
5.714000	-0.021810
5.715000	-0.022468
5.716000	-0.025427
5.717000	-0.028058
5.718000	-0.032990
5.719000	-0.037593
5.720000	-0.038580
5.721000	-0.036607
5.722000	-0.034963
5.723000	-0.035620
5.724000	-0.037922
5.725000	-0.039895
5.726000	-0.041868
5.727000	-0.043841
5.728000	-0.046800
5.729000	-0.046471
5.730000	-0.044170
5.731000	-0.044499
5.732000	-0.045156
5.733000	-0.042854
5.734000	-0.042197
5.735000	-0.045156
5.736000	-0.048116
5.737000	-0.049760
5.738000	-0.046143
5.739000	-0.044499
5.740000	-0.045156
5.741000	-0.043512
5.742000	-0.040882
5.743000	-0.038251
5.744000	-0.035620
5.745000	-0.033976
5.746000	-0.031675
5.747000	-0.029373
5.748000	-0.031675
5.749000	-0.032332
5.750000	-0.031346
5.751000	-0.029702
5.752000	-0.026742
5.753000	-0.021810
5.754000	-0.016220
5.755000	-0.012274
5.756000	-0.012274
5.757000	-0.016220
5.758000	-0.020166
5.759000	-0.023783
5.760000	-0.025098
5.761000	-0.023125
5.762000	-0.019180
5.763000	-0.014905
5.764000	-0.010301
5.765000	-0.010630
5.766000	-0.008986
5.767000	-0.007342
5.768000	-0.006356
5.769000	-0.007013
5.770000	-0.007013
5.771000	-0.008328
5.772000	-0.010959
5.773000	-0.011945
5.774000	-0.009315
5.775000	-0.007342
5.776000	-0.006027
5.777000	-0.007671
5.778000	-0.009644
5.779000	-0.008986
5.780000	-0.006027
5.781000	-0.004711
5.782000	-0.005040
5.783000	-0.006684
5.784000	-0.009644
5.785000	-0.009644
5.786000	-0.010630
5.787000	-0.010630
5.788000	-0.010959
5.789000	-0.012274
5.790000	-0.017207
5.791000	-0.022797
5.792000	-0.026742
5.793000	-0.028058
5.794000	-0.028715
5.795000	-0.027400
5.796000	-0.025098
5.797000	-0.027729
5.798000	-0.032661
5.799000	-0.035949
5.800000	-0.036278
5.801000	-0.036278
5.802000	-0.034963
5.803000	-0.031017
5.804000	-0.024441
5.805000	-0.019508
5.806000	-0.014576
5.807000	-0.008657
5.808000	-0.002410
5.809000	0.000550
5.810000	-0.001423
5.811000	-0.004054
5.812000	-0.005698
5.813000	-0.005369
5.814000	-0.006027
5.815000	-0.006684
5.816000	-0.008328
5.817000	-0.010301
5.818000	-0.009315
5.819000	-0.008986
5.820000	-0.014247
5.821000	-0.020824
5.822000	-0.024769
5.823000	-0.024441
5.824000	-0.022139
5.825000	-0.019508
5.826000	-0.016549
5.827000	-0.009973
5.828000	-0.003396
5.829000	0.002851
5.830000	0.006468
5.831000	0.010414
5.832000	0.016333
5.833000	0.023896
5.834000	0.029814
5.835000	0.033760
5.836000	0.037048
5.837000	0.039350
5.838000	0.042310
5.839000	0.041652
5.840000	0.038364
5.841000	0.035404
5.842000	0.033103
5.843000	0.030801
5.844000	0.029157
5.845000	0.029157
5.846000	0.027842
5.847000	0.023896
5.848000	0.020608
5.849000	0.016333
5.850000	0.015018
5.851000	0.014689
5.852000	0.016004
5.853000	0.016662
5.854000	0.021923
5.855000	0.025211
5.856000	0.026855
5.857000	0.027184
5.858000	0.028170
5.859000	0.030801
5.860000	0.034747
5.861000	0.036720
5.862000	0.039021
5.863000	0.044282
5.864000	0.049215
5.865000	0.057764
5.866000	0.064998
5.867000	0.072561
5.868000	0.077822
5.869000	0.080781
5.870000	0.079466
5.871000	0.072890
5.872000	0.061381
5.873000	0.052174
5.874000	0.048557
5.875000	0.043296
5.876000	0.034418
5.877000	0.023567
5.878000	0.015018
5.879000	0.010414
5.880000	0.007126
5.881000	0.002523
5.882000	-0.002739
5.883000	-0.008000
5.884000	-0.010301
5.885000	-0.008328
5.886000	-0.002410
5.887000	0.007455
5.888000	0.018635
5.889000	0.030472
5.890000	0.040665
5.891000	0.049872
5.892000	0.056778
5.893000	0.059408
5.894000	0.057764
5.895000	0.055791
5.896000	0.056449
5.897000	0.057435
5.898000	0.057764
5.899000	0.056449
5.900000	0.054805
5.901000	0.053161
5.902000	0.047899
5.903000	0.042310
5.904000	0.039679
5.905000	0.036720
5.906000	0.034747
5.907000	0.036720
5.908000	0.039350
5.909000	0.042310
5.910000	0.045927
5.911000	0.049544
5.912000	0.054147
5.913000	0.059079
5.914000	0.064998
5.915000	0.067300
5.916000	0.065984
5.917000	0.062367
5.918000	0.062039
5.919000	0.059079
5.920000	0.055791
5.921000	0.050530
5.922000	0.040337
5.923000	0.029486
5.924000	0.015346
5.925000	0.006468
5.926000	0.003180
5.927000	0.001536
5.928000	0.000221
5.929000	-0.001752
5.930000	-0.004711
5.931000	-0.007671
5.932000	-0.011945
5.933000	-0.017207
5.934000	-0.018522
5.935000	-0.019180
5.936000	-0.018193
5.937000	-0.017535
5.938000	-0.015562
5.939000	-0.015891
5.940000	-0.018851
5.941000	-0.021810
5.942000	-0.025427
5.943000	-0.030688
5.944000	-0.032990
5.945000	-0.035292
5.946000	-0.041210
5.947000	-0.045485
5.948000	-0.046800
5.949000	-0.049760
5.950000	-0.052719
5.951000	-0.050417
5.952000	-0.047458
5.953000	-0.046143
5.954000	-0.043183
5.955000	-0.039237
5.956000	-0.036278
5.957000	-0.036278
5.958000	-0.036278
5.959000	-0.036607
5.960000	-0.039895
5.961000	-0.042526
5.962000	-0.042197
5.963000	-0.044499
5.964000	-0.046143
5.965000	-0.047458
5.966000	-0.049431
5.967000	-0.054363
5.968000	-0.055678
5.969000	-0.055678
5.970000	-0.057322
5.971000	-0.056007
5.972000	-0.052719
5.973000	-0.046800
5.974000	-0.042854
5.975000	-0.041210
5.976000	-0.040553
5.977000	-0.040224
5.978000	-0.037922
5.979000	-0.035292
5.980000	-0.034963
5.981000	-0.034305
5.982000	-0.031346
5.983000	-0.028386
5.984000	-0.026742
5.985000	-0.030688
5.986000	-0.036936
5.987000	-0.042854
5.988000	-0.045156
5.989000	-0.043512
5.990000	-0.039895
5.991000	-0.038251
5.992000	-0.038251
5.993000	-0.036607
5.994000	-0.033648
5.995000	-0.034963
5.996000	-0.038580
5.997000	-0.042197
5.998000	-0.046800
5.999000	-0.051733
6.000000	-0.055678
6.001000	-0.056994
6.002000	-0.057980
6.003000	-0.062912
6.004000	-0.070475
6.005000	-0.079682
6.006000	-0.086587
6.007000	-0.089547
6.008000	-0.088560
6.009000	-0.084614
6.010000	-0.076065
6.011000	-0.069818
6.012000	-0.064228
6.013000	-0.058309
6.014000	-0.052719
6.015000	-0.044827
6.016000	-0.033976
6.017000	-0.024441
6.018000	-0.019508
6.019000	-0.019837
6.020000	-0.019508
6.021000	-0.017535
6.022000	-0.012603
6.023000	-0.010301
6.024000	-0.008000
6.025000	-0.007342
6.026000	-0.009315
6.027000	-0.012932
6.028000	-0.018193
6.029000	-0.024769
6.030000	-0.026085
6.031000	-0.023783
6.032000	-0.021481
6.033000	-0.021810
6.034000	-0.019837
6.035000	-0.018193
6.036000	-0.016220
6.037000	-0.016549
6.038000	-0.018851
6.039000	-0.019508
6.040000	-0.021810
6.041000	-0.025427
6.042000	-0.031017
6.043000	-0.034963
6.044000	-0.035292
6.045000	-0.035292
6.046000	-0.038251
6.047000	-0.043841
6.048000	-0.049102
6.049000	-0.057322
6.050000	-0.062912
6.051000	-0.066201
6.052000	-0.067187
6.053000	-0.067845
6.054000	-0.068502
6.055000	-0.066201
6.056000	-0.063570
6.057000	-0.062255
6.058000	-0.060939
6.059000	-0.059624
6.060000	-0.059953
6.061000	-0.056665
6.062000	-0.052390
6.063000	-0.051404
6.064000	-0.050417
6.065000	-0.047129
6.066000	-0.045485
6.067000	-0.042197
6.068000	-0.036936
6.069000	-0.032332
6.070000	-0.028058
