0.000000	0.073547
0.001000	0.070259
0.002000	0.067629
0.003000	0.066971
0.004000	0.067957
0.005000	0.068286
0.006000	0.065984
0.007000	0.068286
0.008000	0.067629
0.009000	0.064669
0.010000	0.064340
0.011000	0.067629
0.012000	0.067957
0.013000	0.065656
0.014000	0.066642
0.015000	0.068944
0.016000	0.068944
0.017000	0.067629
0.018000	0.067629
0.019000	0.065984
0.020000	0.064669
0.021000	0.062367
0.022000	0.062039
0.023000	0.062367
0.024000	0.062696
0.025000	0.063354
0.026000	0.065656
0.027000	0.064998
0.028000	0.060066
0.029000	0.056449
0.030000	0.053818
0.031000	0.051845
0.032000	0.052174
0.033000	0.052832
0.034000	0.052174
0.035000	0.050530
0.036000	0.049544
0.037000	0.050201
0.038000	0.050201
0.039000	0.048557
0.040000	0.047571
0.041000	0.047571
0.042000	0.045269
0.043000	0.042638
0.044000	0.044940
0.045000	0.044940
0.046000	0.045927
0.047000	0.044611
0.048000	0.044940
0.049000	0.045927
0.050000	0.045927
0.051000	0.045598
0.052000	0.045269
0.053000	0.043954
0.054000	0.043296
0.055000	0.044940
0.056000	0.046913
0.057000	0.046913
0.058000	0.046584
0.059000	0.045269
0.060000	0.043954
0.061000	0.040665
0.062000	0.035076
0.063000	0.032445
0.064000	0.034418
0.065000	0.039679
0.066000	0.042967
0.067000	0.044611
0.068000	0.043954
0.069000	0.042967
0.070000	0.041981
0.071000	0.039350
0.072000	0.037706
0.073000	0.035733
0.074000	0.035076
0.075000	0.035076
0.076000	0.035733
0.077000	0.037377
0.078000	0.038693
0.079000	0.038693
0.080000	0.036720
0.081000	0.033431
0.082000	0.032445
0.083000	0.033431
0.084000	0.031787
0.085000	0.030143
0.086000	0.025869
0.087000	0.022909
0.088000	0.022580
0.089000	0.023238
0.090000	0.024225
0.091000	0.021594
0.092000	0.020279
0.093000	0.018306
0.094000	0.017977
0.095000	0.017648
0.096000	0.017648
0.097000	0.018963
0.098000	0.018635
0.099000	0.018306
0.100000	0.018963
0.101000	0.018963
0.102000	0.016991
0.103000	0.016004
0.104000	0.015346
0.105000	0.015346
0.106000	0.018635
0.107000	0.021923
0.108000	0.023896
0.109000	0.024553
0.110000	0.023238
0.111000	0.021923
0.112000	0.021594
0.113000	0.020936
0.114000	0.019621
0.115000	0.018306
0.116000	0.018635
0.117000	0.020608
0.118000	0.024553
0.119000	0.025540
0.120000	0.025869
0.121000	0.025540
0.122000	0.026526
0.123000	0.026197
0.124000	0.026526
0.125000	0.026197
0.126000	0.025540
0.127000	0.024553
0.128000	0.023896
0.129000	0.023567
0.130000	0.023238
0.131000	0.021594
0.132000	0.022909
0.133000	0.024553
0.134000	0.026855
0.135000	0.029157
0.136000	0.030472
0.137000	0.031130
0.138000	0.033103
0.139000	0.035076
0.140000	0.037048
0.141000	0.038364
0.142000	0.039021
0.143000	0.040337
0.144000	0.042967
0.145000	0.043625
0.146000	0.045927
0.147000	0.048557
0.148000	0.047571
0.149000	0.047242
0.150000	0.044940
0.151000	0.040665
0.152000	0.037048
0.153000	0.031787
0.154000	0.028828
0.155000	0.029486
0.156000	0.030143
0.157000	0.030472
0.158000	0.027842
0.159000	0.023896
0.160000	0.020608
0.161000	0.019950
0.162000	0.019950
0.163000	0.018306
0.164000	0.016662
0.165000	0.013702
0.166000	0.012716
0.167000	0.014031
0.168000	0.014689
0.169000	0.011729
0.170000	0.007126
0.171000	0.003838
0.172000	0.001207
0.173000	-0.000437
0.174000	-0.002739
0.175000	-0.004054
0.176000	-0.006356
0.177000	-0.007342
0.178000	-0.008986
0.179000	-0.010301
0.180000	-0.010959
0.181000	-0.011617
0.182000	-0.011288
0.183000	-0.010959
0.184000	-0.012932
0.185000	-0.016878
0.186000	-0.020166
0.187000	-0.021481
0.188000	-0.020495
0.189000	-0.017207
0.190000	-0.012932
0.191000	-0.011945
0.192000	-0.014247
0.193000	-0.017535
0.194000	-0.021152
0.195000	-0.023125
0.196000	-0.024769
0.197000	-0.024769
0.198000	-0.024769
0.199000	-0.025098
0.200000	-0.023783
0.201000	-0.022139
0.202000	-0.021152
0.203000	-0.023454
0.204000	-0.026414
0.205000	-0.028386
0.206000	-0.029044
0.207000	-0.027071
0.208000	-0.027071
0.209000	-0.027729
0.210000	-0.027071
0.211000	-0.026085
0.212000	-0.024441
0.213000	-0.023454
0.214000	-0.023454
0.215000	-0.022797
0.216000	-0.022468
0.217000	-0.022139
0.218000	-0.023783
0.219000	-0.025098
0.220000	-0.026414
0.221000	-0.026742
0.222000	-0.025098
0.223000	-0.023125
0.224000	-0.023783
0.225000	-0.026085
0.226000	-0.029044
0.227000	-0.031346
0.228000	-0.032661
0.229000	-0.032990
0.230000	-0.034305
0.231000	-0.035620
0.232000	-0.035949
0.233000	-0.036278
0.234000	-0.037922
0.235000	-0.040882
0.236000	-0.042854
0.237000	-0.045156
0.238000	-0.047129
0.239000	-0.048773
0.240000	-0.050746
0.241000	-0.053377
0.242000	-0.057651
0.243000	-0.062584
0.244000	-0.066529
0.245000	-0.071133
0.246000	-0.073106
0.247000	-0.074092
0.248000	-0.075079
0.249000	-0.074750
0.250000	-0.073106
0.251000	-0.074092
0.252000	-0.074750
0.253000	-0.073435
0.254000	-0.067845
0.255000	-0.057980
0.256000	-0.049760
0.257000	-0.040553
0.258000	-0.030031
0.259000	-0.018851
0.260000	-0.005369
0.261000	0.010414
0.262000	0.024882
0.263000	0.038364
0.264000	0.053818
0.265000	0.071574
0.266000	0.094921
0.267000	0.118924
0.268000	0.140297
0.269000	0.162328
0.270000	0.182386
0.271000	0.201458
0.272000	0.219214
0.273000	0.238943
0.274000	0.257686
0.275000	0.275442
0.276000	0.287937
0.277000	0.296486
0.278000	0.295829
0.279000	0.291883
0.280000	0.285635
0.281000	0.275771
0.282000	0.263604
0.283000	0.247164
0.284000	0.226448
0.285000	0.204746
0.286000	0.182386
0.287000	0.156738
0.288000	0.129775
0.289000	0.103470
0.290000	0.079137
0.291000	0.057106
0.292000	0.036062
0.293000	0.016333
0.294000	-0.000108
0.295000	-0.013590
0.296000	-0.026414
0.297000	-0.039566
0.298000	-0.049431
0.299000	-0.055350
0.300000	-0.058309
0.301000	-0.058309
0.302000	-0.058967
0.303000	-0.059624
0.304000	-0.061597
0.305000	-0.062584
0.306000	-0.063241
0.307000	-0.065872
0.308000	-0.067516
0.309000	-0.067516
0.310000	-0.066858
0.311000	-0.066201
0.312000	-0.065214
0.313000	-0.063241
0.314000	-0.060939
0.315000	-0.059624
0.316000	-0.056994
0.317000	-0.053048
0.318000	-0.052390
0.319000	-0.054034
0.320000	-0.057322
0.321000	-0.062584
0.322000	-0.069489
0.323000	-0.073435
0.324000	-0.074092
0.325000	-0.074750
0.326000	-0.072119
0.327000	-0.071790
0.328000	-0.074092
0.329000	-0.077380
0.330000	-0.078367
0.331000	-0.080011
0.332000	-0.080997
0.333000	-0.079682
0.334000	-0.078367
0.335000	-0.079682
0.336000	-0.078367
0.337000	-0.075407
0.338000	-0.075407
0.339000	-0.076723
0.340000	-0.078696
0.341000	-0.079024
0.342000	-0.079024
0.343000	-0.078038
0.344000	-0.078696
0.345000	-0.080011
0.346000	-0.083299
0.347000	-0.087245
0.348000	-0.088231
0.349000	-0.088560
0.350000	-0.086258
0.351000	-0.085601
0.352000	-0.086258
0.353000	-0.086916
0.354000	-0.086916
0.355000	-0.087574
0.356000	-0.086916
0.357000	-0.085930
0.358000	-0.085272
0.359000	-0.085601
0.360000	-0.084943
0.361000	-0.083628
0.362000	-0.080669
0.363000	-0.080340
0.364000	-0.079682
0.365000	-0.079682
0.366000	-0.080997
0.367000	-0.082641
0.368000	-0.082970
0.369000	-0.083628
0.370000	-0.085930
0.371000	-0.086587
0.372000	-0.086587
0.373000	-0.086258
0.374000	-0.085272
0.375000	-0.084943
0.376000	-0.084614
0.377000	-0.081326
0.378000	-0.079024
0.379000	-0.079682
0.380000	-0.080669
0.381000	-0.083299
0.382000	-0.083957
0.383000	-0.083299
0.384000	-0.083628
0.385000	-0.083957
0.386000	-0.083957
0.387000	-0.082970
0.388000	-0.082313
0.389000	-0.082313
0.390000	-0.084286
0.391000	-0.085272
0.392000	-0.085272
0.393000	-0.085930
0.394000	-0.083628
0.395000	-0.082970
0.396000	-0.083628
0.397000	-0.085930
0.398000	-0.087245
0.399000	-0.086587
0.400000	-0.083299
0.401000	-0.083957
0.402000	-0.084286
0.403000	-0.083628
0.404000	-0.083957
0.405000	-0.082970
0.406000	-0.081655
0.407000	-0.079024
0.408000	-0.077709
0.409000	-0.076065
0.410000	-0.078367
0.411000	-0.082313
0.412000	-0.083628
0.413000	-0.083628
0.414000	-0.082970
0.415000	-0.079682
0.416000	-0.076065
0.417000	-0.075736
0.418000	-0.075407
0.419000	-0.075079
0.420000	-0.076394
0.421000	-0.077052
0.422000	-0.078038
0.423000	-0.078038
0.424000	-0.077052
0.425000	-0.073106
0.426000	-0.069818
0.427000	-0.067516
0.428000	-0.066201
0.429000	-0.064556
0.430000	-0.065872
0.431000	-0.068502
0.432000	-0.070804
0.433000	-0.071133
0.434000	-0.069160
0.435000	-0.067516
0.436000	-0.065872
0.437000	-0.064228
0.438000	-0.061926
0.439000	-0.060282
0.440000	-0.058638
0.441000	-0.058309
0.442000	-0.061268
0.443000	-0.062912
0.444000	-0.061597
0.445000	-0.058309
0.446000	-0.056665
0.447000	-0.056007
0.448000	-0.058967
0.449000	-0.057322
0.450000	-0.053377
0.451000	-0.050088
0.452000	-0.046471
0.453000	-0.043183
0.454000	-0.041210
0.455000	-0.041210
0.456000	-0.041539
0.457000	-0.045156
0.458000	-0.046143
0.459000	-0.043183
0.460000	-0.040882
0.461000	-0.037922
0.462000	-0.037265
0.463000	-0.036278
0.464000	-0.033648
0.465000	-0.032661
0.466000	-0.033319
0.467000	-0.034634
0.468000	-0.034963
0.469000	-0.034963
0.470000	-0.034963
0.471000	-0.034305
0.472000	-0.034963
0.473000	-0.035292
0.474000	-0.032990
0.475000	-0.031346
0.476000	-0.031675
0.477000	-0.029702
0.478000	-0.028058
0.479000	-0.028386
0.480000	-0.030359
0.481000	-0.031346
0.482000	-0.030031
0.483000	-0.028715
0.484000	-0.027071
0.485000	-0.026414
0.486000	-0.026742
0.487000	-0.028715
0.488000	-0.030359
0.489000	-0.030031
0.490000	-0.029373
0.491000	-0.030688
0.492000	-0.033319
0.493000	-0.033319
0.494000	-0.032003
0.495000	-0.031675
0.496000	-0.031346
0.497000	-0.032003
0.498000	-0.034305
0.499000	-0.035949
0.500000	-0.036278
0.501000	-0.036936
0.502000	-0.039566
0.503000	-0.044170
0.504000	-0.047129
0.505000	-0.048773
0.506000	-0.051404
0.507000	-0.054692
0.508000	-0.059295
0.509000	-0.060939
0.510000	-0.057980
0.511000	-0.056994
0.512000	-0.060939
0.513000	-0.065872
0.514000	-0.069818
0.515000	-0.072777
0.516000	-0.074421
0.517000	-0.074750
0.518000	-0.073106
0.519000	-0.073763
0.520000	-0.076065
0.521000	-0.077709
0.522000	-0.080011
0.523000	-0.085272
0.524000	-0.086916
0.525000	-0.086916
0.526000	-0.089875
0.527000	-0.093164
0.528000	-0.096781
0.529000	-0.101055
0.530000	-0.104672
0.531000	-0.107632
0.532000	-0.110920
0.533000	-0.113550
0.534000	-0.116181
0.535000	-0.120784
0.536000	-0.122757
0.537000	-0.124073
0.538000	-0.126046
0.539000	-0.127032
0.540000	-0.129334
0.541000	-0.132951
0.542000	-0.135581
0.543000	-0.135581
0.544000	-0.136239
0.545000	-0.137225
0.546000	-0.139856
0.547000	-0.141829
0.548000	-0.144131
0.549000	-0.146761
0.550000	-0.148405
0.551000	-0.149063
0.552000	-0.151693
0.553000	-0.154324
0.554000	-0.157283
0.555000	-0.159914
0.556000	-0.160243
0.557000	-0.162544
0.558000	-0.164846
0.559000	-0.165504
0.560000	-0.167805
0.561000	-0.172738
0.562000	-0.175697
0.563000	-0.176026
0.564000	-0.174382
0.565000	-0.172409
0.566000	-0.173067
0.567000	-0.174053
0.568000	-0.176684
0.569000	-0.181616
0.570000	-0.185562
0.571000	-0.184246
0.572000	-0.180629
0.573000	-0.177999
0.574000	-0.179314
0.575000	-0.185890
0.576000	-0.192467
0.577000	-0.195097
0.578000	-0.197070
0.579000	-0.198714
0.580000	-0.193453
0.581000	-0.187206
0.582000	-0.186548
0.583000	-0.182602
0.584000	-0.180958
0.585000	-0.181945
0.586000	-0.182931
0.587000	-0.183918
0.588000	-0.183589
0.589000	-0.181616
0.590000	-0.179972
0.591000	-0.180629
0.592000	-0.180958
0.593000	-0.182602
0.594000	-0.185233
0.595000	-0.186877
0.596000	-0.183918
0.597000	-0.184575
0.598000	-0.186877
0.599000	-0.190823
0.600000	-0.193124
0.601000	-0.192467
0.602000	-0.192467
0.603000	-0.193453
0.604000	-0.192467
0.605000	-0.192796
0.606000	-0.194111
0.607000	-0.196084
0.608000	-0.194111
0.609000	-0.191152
0.610000	-0.189836
0.611000	-0.188850
0.612000	-0.188521
0.613000	-0.189507
0.614000	-0.192138
0.615000	-0.194440
0.616000	-0.196084
0.617000	-0.198057
0.618000	-0.200687
0.619000	-0.201345
0.620000	-0.201345
0.621000	-0.200358
0.622000	-0.197728
0.623000	-0.195426
0.624000	-0.196084
0.625000	-0.198057
0.626000	-0.199701
0.627000	-0.202003
0.628000	-0.203647
0.629000	-0.203975
0.630000	-0.203647
0.631000	-0.203975
0.632000	-0.205620
0.633000	-0.206606
0.634000	-0.206606
0.635000	-0.206277
0.636000	-0.205948
0.637000	-0.206277
0.638000	-0.207264
0.639000	-0.207592
0.640000	-0.208908
0.641000	-0.209565
0.642000	-0.209894
0.643000	-0.209565
0.644000	-0.209565
0.645000	-0.209894
0.646000	-0.211867
0.647000	-0.214826
0.648000	-0.216142
0.649000	-0.215484
0.650000	-0.214169
0.651000	-0.212525
0.652000	-0.212854
0.653000	-0.215813
0.654000	-0.217128
0.655000	-0.217128
0.656000	-0.219101
0.657000	-0.219430
0.658000	-0.221074
0.659000	-0.223376
0.660000	-0.222718
0.661000	-0.220416
0.662000	-0.218444
0.663000	-0.217786
0.664000	-0.217457
0.665000	-0.217128
0.666000	-0.217457
0.667000	-0.218115
0.668000	-0.219759
0.669000	-0.222061
0.670000	-0.223705
0.671000	-0.223376
0.672000	-0.222718
0.673000	-0.223047
0.674000	-0.222718
0.675000	-0.219101
0.676000	-0.218772
0.677000	-0.218444
0.678000	-0.219101
0.679000	-0.220745
0.680000	-0.223705
0.681000	-0.226335
0.682000	-0.227322
0.683000	-0.227322
0.684000	-0.227650
0.685000	-0.228637
0.686000	-0.227650
0.687000	-0.226335
0.688000	-0.223376
0.689000	-0.220745
0.690000	-0.219759
0.691000	-0.219430
0.692000	-0.222061
0.693000	-0.227322
0.694000	-0.227322
0.695000	-0.226993
0.696000	-0.225678
0.697000	-0.224033
0.698000	-0.220745
0.699000	-0.222389
0.700000	-0.226664
0.701000	-0.228966
0.702000	-0.229623
0.703000	-0.230939
0.704000	-0.232912
0.705000	-0.231267
0.706000	-0.231596
0.707000	-0.231596
0.708000	-0.232583
0.709000	-0.232583
0.710000	-0.232583
0.711000	-0.232254
0.712000	-0.231596
0.713000	-0.233240
0.714000	-0.233569
0.715000	-0.232912
0.716000	-0.233569
0.717000	-0.232583
0.718000	-0.232912
0.719000	-0.235213
0.720000	-0.238173
0.721000	-0.240803
0.722000	-0.242118
0.723000	-0.241461
0.724000	-0.240803
0.725000	-0.241461
0.726000	-0.241132
0.727000	-0.239817
0.728000	-0.239488
0.729000	-0.240803
0.730000	-0.241461
0.731000	-0.242118
0.732000	-0.240803
0.733000	-0.237844
0.734000	-0.234227
0.735000	-0.233240
0.736000	-0.233569
0.737000	-0.234227
0.738000	-0.237515
0.739000	-0.238830
0.740000	-0.239817
0.741000	-0.237515
0.742000	-0.236200
0.743000	-0.235542
0.744000	-0.237186
0.745000	-0.238173
0.746000	-0.236529
0.747000	-0.234556
0.748000	-0.233569
0.749000	-0.235213
0.750000	-0.235213
0.751000	-0.233569
0.752000	-0.232583
0.753000	-0.230281
0.754000	-0.226993
0.755000	-0.225678
0.756000	-0.224033
0.757000	-0.224033
0.758000	-0.226006
0.759000	-0.227650
0.760000	-0.226006
0.761000	-0.226664
0.762000	-0.228966
0.763000	-0.229952
0.764000	-0.226993
0.765000	-0.221074
0.766000	-0.215813
0.767000	-0.213511
0.768000	-0.213182
0.769000	-0.214169
0.770000	-0.214498
0.771000	-0.214498
0.772000	-0.213840
0.773000	-0.210881
0.774000	-0.207921
0.775000	-0.203975
0.776000	-0.201674
0.777000	-0.203647
0.778000	-0.204633
0.779000	-0.204962
0.780000	-0.205291
0.781000	-0.205948
0.782000	-0.203975
0.783000	-0.203647
0.784000	-0.208579
0.785000	-0.216142
0.786000	-0.221403
0.787000	-0.225349
0.788000	-0.231596
0.789000	-0.234227
0.790000	-0.233240
0.791000	-0.229623
0.792000	-0.228637
0.793000	-0.228966
0.794000	-0.231267
0.795000	-0.234227
0.796000	-0.234227
0.797000	-0.234556
0.798000	-0.235871
0.799000	-0.236857
0.800000	-0.239159
0.801000	-0.239817
0.802000	-0.240803
0.803000	-0.243105
0.804000	-0.243434
0.805000	-0.240803
0.806000	-0.239488
0.807000	-0.243434
0.808000	-0.248037
0.809000	-0.249024
0.810000	-0.249681
0.811000	-0.250339
0.812000	-0.253298
0.813000	-0.257573
0.814000	-0.258888
0.815000	-0.257573
0.816000	-0.255929
0.817000	-0.253298
0.818000	-0.251983
0.819000	-0.252312
0.820000	-0.252641
0.821000	-0.252641
0.822000	-0.253956
0.823000	-0.253298
0.824000	-0.252969
0.825000	-0.254942
0.826000	-0.258231
0.827000	-0.258888
0.828000	-0.258888
0.829000	-0.258559
0.830000	-0.258559
0.831000	-0.258888
0.832000	-0.259217
0.833000	-0.263820
0.834000	-0.268753
0.835000	-0.270397
0.836000	-0.267109
0.837000	-0.262505
0.838000	-0.259217
0.839000	-0.257902
0.840000	-0.257902
0.841000	-0.261519
0.842000	-0.262834
0.843000	-0.264478
0.844000	-0.266780
0.845000	-0.269082
0.846000	-0.268753
0.847000	-0.268753
0.848000	-0.270068
0.849000	-0.269082
0.850000	-0.269410
0.851000	-0.269410
0.852000	-0.271054
0.853000	-0.273356
0.854000	-0.275658
0.855000	-0.276644
0.856000	-0.279275
0.857000	-0.280919
0.858000	-0.280261
0.859000	-0.278946
0.860000	-0.277302
0.861000	-0.277302
0.862000	-0.277302
0.863000	-0.278288
0.864000	-0.281905
0.865000	-0.283878
0.866000	-0.283550
0.867000	-0.281905
0.868000	-0.281905
0.869000	-0.284536
0.870000	-0.291441
0.871000	-0.298675
0.872000	-0.303936
0.873000	-0.308869
0.874000	-0.312814
0.875000	-0.316760
0.876000	-0.317418
0.877000	-0.320706
0.878000	-0.322679
0.879000	-0.323994
0.880000	-0.325638
0.881000	-0.324981
0.882000	-0.321692
0.883000	-0.316431
0.884000	-0.310513
0.885000	-0.303607
0.886000	-0.296373
0.887000	-0.287167
0.888000	-0.274671
0.889000	-0.261190
0.890000	-0.247380
0.891000	-0.232583
0.892000	-0.215484
0.893000	-0.198714
0.894000	-0.179972
0.895000	-0.159256
0.896000	-0.139856
0.897000	-0.120456
0.898000	-0.098425
0.899000	-0.076723
0.900000	-0.053377
0.901000	-0.028058
0.902000	-0.004383
0.903000	0.017977
0.904000	0.037706
0.905000	0.056449
0.906000	0.074205
0.907000	0.088673
0.908000	0.096565
0.909000	0.101168
0.910000	0.099195
0.911000	0.095907
0.912000	0.089988
0.913000	0.077822
0.914000	0.061381
0.915000	0.040337
0.916000	0.020279
0.917000	-0.000437
0.918000	-0.022139
0.919000	-0.045485
0.920000	-0.068502
0.921000	-0.092506
0.922000	-0.116181
0.923000	-0.138212
0.924000	-0.158270
0.925000	-0.175697
0.926000	-0.194440
0.927000	-0.209894
0.928000	-0.219759
0.929000	-0.226664
0.930000	-0.231267
0.931000	-0.234884
0.932000	-0.237844
0.933000	-0.241461
0.934000	-0.246064
0.935000	-0.251325
0.936000	-0.252969
0.937000	-0.251983
0.938000	-0.252312
0.939000	-0.251983
0.940000	-0.250339
0.941000	-0.249681
0.942000	-0.249024
0.943000	-0.249681
0.944000	-0.249681
0.945000	-0.250010
0.946000	-0.251983
0.947000	-0.253627
0.948000	-0.253627
0.949000	-0.255600
0.950000	-0.256586
0.951000	-0.257244
0.952000	-0.256586
0.953000	-0.256586
0.954000	-0.258559
0.955000	-0.259875
0.956000	-0.261848
0.957000	-0.263492
0.958000	-0.264807
0.959000	-0.265136
0.960000	-0.264807
0.961000	-0.262505
0.962000	-0.261190
0.963000	-0.257244
0.964000	-0.254942
0.965000	-0.252969
0.966000	-0.252969
0.967000	-0.252969
0.968000	-0.252312
0.969000	-0.252641
0.970000	-0.252312
0.971000	-0.253956
0.972000	-0.252641
0.973000	-0.252969
0.974000	-0.251654
0.975000	-0.247708
0.976000	-0.245407
0.977000	-0.244420
0.978000	-0.248695
0.979000	-0.250339
0.980000	-0.251654
0.981000	-0.251654
0.982000	-0.250339
0.983000	-0.248037
0.984000	-0.247708
0.985000	-0.250010
0.986000	-0.252969
0.987000	-0.253956
0.988000	-0.253956
0.989000	-0.250997
0.990000	-0.249352
0.991000	-0.250010
0.992000	-0.250668
0.993000	-0.251983
0.994000	-0.252641
0.995000	-0.253298
0.996000	-0.250997
0.997000	-0.247380
0.998000	-0.246393
0.999000	-0.246064
1.000000	-0.245735
1.001000	-0.246722
1.002000	-0.246064
1.003000	-0.245078
1.004000	-0.244091
1.005000	-0.243434
1.006000	-0.243763
1.007000	-0.241790
1.008000	-0.236857
1.009000	-0.234227
1.010000	-0.231267
1.011000	-0.230281
1.012000	-0.232583
1.013000	-0.232254
1.014000	-0.232583
1.015000	-0.229952
1.016000	-0.226664
1.017000	-0.220745
1.018000	-0.218115
1.019000	-0.217128
1.020000	-0.217786
1.021000	-0.218115
1.022000	-0.217457
1.023000	-0.218444
1.024000	-0.219759
1.025000	-0.222061
1.026000	-0.222389
1.027000	-0.221732
1.028000	-0.222061
1.029000	-0.224033
1.030000	-0.227322
1.031000	-0.228308
1.032000	-0.227979
1.033000	-0.226664
1.034000	-0.222061
1.035000	-0.219101
1.036000	-0.218772
1.037000	-0.219101
1.038000	-0.221403
1.039000	-0.224362
1.040000	-0.224362
1.041000	-0.221732
1.042000	-0.216799
1.043000	-0.210223
1.044000	-0.207921
1.045000	-0.206935
1.046000	-0.206277
1.047000	-0.204962
1.048000	-0.203647
1.049000	-0.203647
1.050000	-0.202331
1.051000	-0.202989
1.052000	-0.203647
1.053000	-0.203647
1.054000	-0.201016
1.055000	-0.198057
1.056000	-0.195426
1.057000	-0.194111
1.058000	-0.196084
1.059000	-0.198386
1.060000	-0.197399
1.061000	-0.194769
1.062000	-0.193124
1.063000	-0.192467
1.064000	-0.196084
1.065000	-0.197399
1.066000	-0.195426
1.067000	-0.191152
1.068000	-0.187535
1.069000	-0.186877
1.070000	-0.185890
1.071000	-0.181616
1.072000	-0.180629
1.073000	-0.180301
1.074000	-0.180301
1.075000	-0.179314
1.076000	-0.175697
1.077000	-0.172738
1.078000	-0.170107
1.079000	-0.168134
1.080000	-0.167477
1.081000	-0.167148
1.082000	-0.165833
1.083000	-0.164188
1.084000	-0.163531
1.085000	-0.164517
1.086000	-0.162873
1.087000	-0.160243
1.088000	-0.158599
1.089000	-0.158599
1.090000	-0.159256
1.091000	-0.158599
1.092000	-0.158599
1.093000	-0.157612
1.094000	-0.155968
1.095000	-0.157283
1.096000	-0.158599
1.097000	-0.158270
1.098000	-0.156297
1.099000	-0.155968
1.100000	-0.156954
1.101000	-0.154653
1.102000	-0.153337
1.103000	-0.151693
1.104000	-0.152680
1.105000	-0.150049
1.106000	-0.145775
1.107000	-0.142158
1.108000	-0.140185
1.109000	-0.137225
1.110000	-0.136568
1.111000	-0.136897
1.112000	-0.137225
1.113000	-0.139198
1.114000	-0.141171
1.115000	-0.141500
1.116000	-0.142158
1.117000	-0.142815
1.118000	-0.143144
1.119000	-0.145117
1.120000	-0.146761
1.121000	-0.151036
1.122000	-0.155310
1.123000	-0.159585
1.124000	-0.157941
1.125000	-0.154324
1.126000	-0.152022
1.127000	-0.152022
1.128000	-0.153666
1.129000	-0.155968
1.130000	-0.155639
1.131000	-0.154982
1.132000	-0.154982
1.133000	-0.154653
1.134000	-0.153009
1.135000	-0.153009
1.136000	-0.154324
1.137000	-0.158599
1.138000	-0.163531
1.139000	-0.166819
1.140000	-0.168134
1.141000	-0.169778
1.142000	-0.174053
1.143000	-0.177012
1.144000	-0.178985
1.145000	-0.179314
1.146000	-0.181945
1.147000	-0.184575
1.148000	-0.187206
1.149000	-0.192138
1.150000	-0.195755
1.151000	-0.198057
1.152000	-0.199372
1.153000	-0.202989
1.154000	-0.205948
1.155000	-0.207921
1.156000	-0.210223
1.157000	-0.211867
1.158000	-0.213511
1.159000	-0.214498
1.160000	-0.216142
1.161000	-0.220745
1.162000	-0.226664
1.163000	-0.230610
1.164000	-0.231925
1.165000	-0.233240
1.166000	-0.236857
1.167000	-0.238173
1.168000	-0.241132
1.169000	-0.242447
1.170000	-0.243105
1.171000	-0.244091
1.172000	-0.244091
1.173000	-0.245735
1.174000	-0.248366
1.175000	-0.253627
1.176000	-0.259217
1.177000	-0.264478
1.178000	-0.266780
1.179000	-0.267437
1.180000	-0.268095
1.181000	-0.267109
1.182000	-0.266122
1.183000	-0.266780
1.184000	-0.268424
1.185000	-0.271054
1.186000	-0.275987
1.187000	-0.279275
1.188000	-0.279933
1.189000	-0.278946
1.190000	-0.280590
1.191000	-0.281577
1.192000	-0.284536
1.193000	-0.285851
1.194000	-0.287167
1.195000	-0.286509
1.196000	-0.283221
1.197000	-0.283221
1.198000	-0.287495
1.199000	-0.290784
1.200000	-0.293085
1.201000	-0.297031
1.202000	-0.299990
1.203000	-0.300648
1.204000	-0.298346
1.205000	-0.295716
1.206000	-0.292756
1.207000	-0.293085
1.208000	-0.294072
1.209000	-0.295058
1.210000	-0.295716
1.211000	-0.297689
1.212000	-0.297360
1.213000	-0.295716
1.214000	-0.293414
1.215000	-0.292428
1.216000	-0.290455
1.217000	-0.290126
1.218000	-0.292099
1.219000	-0.294072
1.220000	-0.296045
1.221000	-0.296373
1.222000	-0.296373
1.223000	-0.295058
1.224000	-0.293743
1.225000	-0.293743
1.226000	-0.294729
1.227000	-0.295058
1.228000	-0.294729
1.229000	-0.294729
1.230000	-0.296045
1.231000	-0.295716
1.232000	-0.296045
1.233000	-0.298018
1.234000	-0.299662
1.235000	-0.299990
1.236000	-0.299662
1.237000	-0.298346
1.238000	-0.298346
1.239000	-0.298675
1.240000	-0.298675
1.241000	-0.299004
1.242000	-0.299004
1.243000	-0.299990
1.244000	-0.301635
1.245000	-0.303607
1.246000	-0.304923
1.247000	-0.303936
1.248000	-0.305580
1.249000	-0.305580
1.250000	-0.303936
1.251000	-0.301635
1.252000	-0.301306
1.253000	-0.302292
1.254000	-0.302292
1.255000	-0.301963
1.256000	-0.303936
1.257000	-0.306567
1.258000	-0.308540
1.259000	-0.308211
1.260000	-0.308869
1.261000	-0.307882
1.262000	-0.310184
1.263000	-0.312157
1.264000	-0.311170
1.265000	-0.307224
1.266000	-0.303279
1.267000	-0.302292
1.268000	-0.300977
1.269000	-0.300319
1.270000	-0.299333
1.271000	-0.302950
1.272000	-0.306238
1.273000	-0.308211
1.274000	-0.308211
1.275000	-0.305909
1.276000	-0.304265
1.277000	-0.302621
1.278000	-0.304594
1.279000	-0.305252
1.280000	-0.306238
1.281000	-0.306567
1.282000	-0.306896
1.283000	-0.310841
1.284000	-0.311828
1.285000	-0.310841
1.286000	-0.311170
1.287000	-0.312486
1.288000	-0.313143
1.289000	-0.310841
1.290000	-0.309855
1.291000	-0.311499
1.292000	-0.312814
1.293000	-0.313472
1.294000	-0.312486
1.295000	-0.312486
1.296000	-0.314130
1.297000	-0.316431
1.298000	-0.317747
1.299000	-0.317418
1.300000	-0.317089
1.301000	-0.318404
1.302000	-0.319391
1.303000	-0.320048
1.304000	-0.317418
1.305000	-0.315116
1.306000	-0.315116
1.307000	-0.316760
1.308000	-0.319062
1.309000	-0.319720
1.310000	-0.318404
1.311000	-0.316103
1.312000	-0.315445
1.313000	-0.316103
1.314000	-0.318733
1.315000	-0.319062
1.316000	-0.317418
1.317000	-0.317089
1.318000	-0.318733
1.319000	-0.319062
1.320000	-0.319062
1.321000	-0.319720
1.322000	-0.320706
1.323000	-0.322679
1.324000	-0.323008
1.325000	-0.321035
1.326000	-0.321035
1.327000	-0.321692
1.328000	-0.321692
1.329000	-0.322679
1.330000	-0.324323
1.331000	-0.327282
1.332000	-0.331228
1.333000	-0.330242
1.334000	-0.329584
1.335000	-0.328598
1.336000	-0.325967
1.337000	-0.321035
1.338000	-0.319062
1.339000	-0.318404
1.340000	-0.320377
1.341000	-0.323665
1.342000	-0.325309
1.343000	-0.323665
1.344000	-0.320377
1.345000	-0.315774
1.346000	-0.309197
1.347000	-0.304594
1.348000	-0.304265
1.349000	-0.308211
1.350000	-0.314130
1.351000	-0.319391
1.352000	-0.320377
1.353000	-0.317089
1.354000	-0.315445
1.355000	-0.314787
1.356000	-0.314458
1.357000	-0.312814
1.358000	-0.314130
1.359000	-0.314458
1.360000	-0.314458
1.361000	-0.314787
1.362000	-0.313472
1.363000	-0.313472
1.364000	-0.311828
1.365000	-0.310184
1.366000	-0.310513
1.367000	-0.306238
1.368000	-0.301306
1.369000	-0.301306
1.370000	-0.299662
1.371000	-0.295387
1.372000	-0.293414
1.373000	-0.294401
1.374000	-0.294729
1.375000	-0.291770
1.376000	-0.290784
1.377000	-0.291770
1.378000	-0.289797
1.379000	-0.287495
1.380000	-0.286509
1.381000	-0.287167
1.382000	-0.287824
1.383000	-0.286838
1.384000	-0.285851
1.385000	-0.284536
1.386000	-0.282892
1.387000	-0.281577
1.388000	-0.279933
1.389000	-0.277631
1.390000	-0.274671
1.391000	-0.274014
1.392000	-0.273685
1.393000	-0.273685
1.394000	-0.273356
1.395000	-0.268753
1.396000	-0.264807
1.397000	-0.266122
1.398000	-0.269739
1.399000	-0.273685
1.400000	-0.276644
1.401000	-0.278288
1.402000	-0.277631
1.403000	-0.277631
1.404000	-0.278946
1.405000	-0.280590
1.406000	-0.281577
1.407000	-0.281248
1.408000	-0.282234
1.409000	-0.280590
1.410000	-0.281248
1.411000	-0.280590
1.412000	-0.281577
1.413000	-0.284207
1.414000	-0.291112
1.415000	-0.293414
1.416000	-0.292756
1.417000	-0.293414
1.418000	-0.294401
1.419000	-0.299004
1.420000	-0.303936
1.421000	-0.309197
1.422000	-0.313143
1.423000	-0.315445
1.424000	-0.314458
1.425000	-0.315774
1.426000	-0.317747
1.427000	-0.319062
1.428000	-0.320048
1.429000	-0.323337
1.430000	-0.324323
1.431000	-0.322350
1.432000	-0.320706
1.433000	-0.319062
1.434000	-0.319391
1.435000	-0.319720
1.436000	-0.321364
1.437000	-0.321692
1.438000	-0.320706
1.439000	-0.320048
1.440000	-0.320377
1.441000	-0.319391
1.442000	-0.318404
1.443000	-0.319062
1.444000	-0.321692
1.445000	-0.320377
1.446000	-0.317089
1.447000	-0.317089
1.448000	-0.319062
1.449000	-0.319720
1.450000	-0.320048
1.451000	-0.319720
1.452000	-0.320706
1.453000	-0.323337
1.454000	-0.326625
1.455000	-0.325967
1.456000	-0.323008
1.457000	-0.320706
1.458000	-0.318733
1.459000	-0.321035
1.460000	-0.323337
1.461000	-0.325309
1.462000	-0.327282
1.463000	-0.328598
1.464000	-0.331228
1.465000	-0.332215
1.466000	-0.330571
1.467000	-0.327611
1.468000	-0.325309
1.469000	-0.322021
1.470000	-0.320377
1.471000	-0.318404
1.472000	-0.318404
1.473000	-0.321692
1.474000	-0.326625
1.475000	-0.330242
1.476000	-0.330571
1.477000	-0.329913
1.478000	-0.328926
1.479000	-0.328598
1.480000	-0.328269
1.481000	-0.328269
1.482000	-0.325309
1.483000	-0.324323
1.484000	-0.324981
1.485000	-0.326625
1.486000	-0.328598
1.487000	-0.331886
1.488000	-0.337476
1.489000	-0.339120
1.490000	-0.342079
1.491000	-0.344710
1.492000	-0.347669
1.493000	-0.350629
1.494000	-0.351944
1.495000	-0.352601
1.496000	-0.354246
1.497000	-0.354903
1.498000	-0.357534
1.499000	-0.358191
1.500000	-0.357534
1.501000	-0.354574
1.502000	-0.351615
1.503000	-0.347340
1.504000	-0.342079
1.505000	-0.334845
1.506000	-0.325638
1.507000	-0.317089
1.508000	-0.306238
1.509000	-0.293743
1.510000	-0.280590
1.511000	-0.267109
1.512000	-0.251983
1.513000	-0.231925
1.514000	-0.208908
1.515000	-0.187206
1.516000	-0.163531
1.517000	-0.138212
1.518000	-0.111906
1.519000	-0.084614
1.520000	-0.059295
1.521000	-0.034305
1.522000	-0.010301
1.523000	0.012058
1.524000	0.033760
1.525000	0.055133
1.526000	0.071246
1.527000	0.082754
1.528000	0.087687
1.529000	0.085385
1.530000	0.080124
1.531000	0.071574
1.532000	0.058093
1.533000	0.040665
1.534000	0.018635
1.535000	-0.005698
1.536000	-0.030359
1.537000	-0.056336
1.538000	-0.082641
1.539000	-0.112235
1.540000	-0.139527
1.541000	-0.162873
1.542000	-0.183918
1.543000	-0.205948
1.544000	-0.226664
1.545000	-0.244091
1.546000	-0.261190
1.547000	-0.276644
1.548000	-0.291112
1.549000	-0.302950
1.550000	-0.310841
1.551000	-0.311499
1.552000	-0.311170
1.553000	-0.309855
1.554000	-0.309197
1.555000	-0.309526
1.556000	-0.309855
1.557000	-0.310184
1.558000	-0.308869
1.559000	-0.309197
1.560000	-0.309526
1.561000	-0.310841
1.562000	-0.311499
1.563000	-0.309197
1.564000	-0.305909
1.565000	-0.305252
1.566000	-0.305252
1.567000	-0.304923
1.568000	-0.305252
1.569000	-0.307553
1.570000	-0.311828
1.571000	-0.316103
1.572000	-0.320706
1.573000	-0.323337
1.574000	-0.322679
1.575000	-0.321692
1.576000	-0.320048
1.577000	-0.319391
1.578000	-0.316760
1.579000	-0.314130
1.580000	-0.312486
1.581000	-0.312486
1.582000	-0.311170
1.583000	-0.311170
1.584000	-0.312157
1.585000	-0.313801
1.586000	-0.316103
1.587000	-0.316760
1.588000	-0.315774
1.589000	-0.314458
1.590000	-0.314458
1.591000	-0.316431
1.592000	-0.315774
1.593000	-0.315116
1.594000	-0.311499
1.595000	-0.309855
1.596000	-0.309526
1.597000	-0.312486
1.598000	-0.313472
1.599000	-0.312814
1.600000	-0.311499
1.601000	-0.310184
1.602000	-0.309526
1.603000	-0.310513
1.604000	-0.312157
1.605000	-0.312814
1.606000	-0.312486
1.607000	-0.313801
1.608000	-0.312486
1.609000	-0.313143
1.610000	-0.315774
1.611000	-0.315445
1.612000	-0.315116
1.613000	-0.311828
1.614000	-0.309197
1.615000	-0.306896
1.616000	-0.304594
1.617000	-0.302950
1.618000	-0.302621
1.619000	-0.300319
1.620000	-0.296373
1.621000	-0.295716
1.622000	-0.296373
1.623000	-0.295387
1.624000	-0.291770
1.625000	-0.289139
1.626000	-0.289139
1.627000	-0.290455
1.628000	-0.293743
1.629000	-0.296373
1.630000	-0.297689
1.631000	-0.298018
1.632000	-0.296045
1.633000	-0.294401
1.634000	-0.294401
1.635000	-0.294072
1.636000	-0.295387
1.637000	-0.296373
1.638000	-0.295387
1.639000	-0.293743
1.640000	-0.290784
1.641000	-0.289139
1.642000	-0.288482
1.643000	-0.283878
1.644000	-0.279604
1.645000	-0.278617
1.646000	-0.281248
1.647000	-0.282892
1.648000	-0.282892
1.649000	-0.281577
1.650000	-0.279275
1.651000	-0.277960
1.652000	-0.274343
1.653000	-0.272370
1.654000	-0.273685
1.655000	-0.275000
1.656000	-0.273356
1.657000	-0.270726
1.658000	-0.271054
1.659000	-0.270726
1.660000	-0.268753
1.661000	-0.267766
1.662000	-0.266451
1.663000	-0.265465
1.664000	-0.263492
1.665000	-0.261519
1.666000	-0.259217
1.667000	-0.258559
1.668000	-0.258559
1.669000	-0.259875
1.670000	-0.259217
1.671000	-0.258231
1.672000	-0.255929
1.673000	-0.254285
1.674000	-0.253956
1.675000	-0.255929
1.676000	-0.256258
1.677000	-0.257244
1.678000	-0.255929
1.679000	-0.256915
1.680000	-0.256586
1.681000	-0.254285
1.682000	-0.251654
1.683000	-0.247380
1.684000	-0.244420
1.685000	-0.243105
1.686000	-0.242447
1.687000	-0.241132
1.688000	-0.238830
1.689000	-0.236200
1.690000	-0.235542
1.691000	-0.233569
1.692000	-0.231267
1.693000	-0.228637
1.694000	-0.226993
1.695000	-0.227979
1.696000	-0.229623
1.697000	-0.229952
1.698000	-0.227322
1.699000	-0.224362
1.700000	-0.222061
1.701000	-0.221074
1.702000	-0.221403
1.703000	-0.218444
1.704000	-0.215484
1.705000	-0.216471
1.706000	-0.218115
1.707000	-0.216142
1.708000	-0.213511
1.709000	-0.210881
1.710000	-0.207592
1.711000	-0.207592
1.712000	-0.207921
1.713000	-0.208250
1.714000	-0.210223
1.715000	-0.211209
1.716000	-0.209894
1.717000	-0.206935
1.718000	-0.204633
1.719000	-0.200030
1.720000	-0.199701
1.721000	-0.200030
1.722000	-0.199701
1.723000	-0.200358
1.724000	-0.203975
1.725000	-0.206606
1.726000	-0.203647
1.727000	-0.198057
1.728000	-0.192138
1.729000	-0.188521
1.730000	-0.187535
1.731000	-0.187535
1.732000	-0.184904
1.733000	-0.181287
1.734000	-0.177670
1.735000	-0.176355
1.736000	-0.177012
1.737000	-0.180958
1.738000	-0.180958
1.739000	-0.179972
1.740000	-0.181616
1.741000	-0.182931
1.742000	-0.183260
1.743000	-0.180301
1.744000	-0.178985
1.745000	-0.179972
1.746000	-0.181945
1.747000	-0.183918
1.748000	-0.185233
1.749000	-0.186548
1.750000	-0.187206
1.751000	-0.184904
1.752000	-0.184246
1.753000	-0.185233
1.754000	-0.186548
1.755000	-0.186548
1.756000	-0.187863
1.757000	-0.187863
1.758000	-0.188521
1.759000	-0.189507
1.760000	-0.190823
1.761000	-0.191480
1.762000	-0.195755
1.763000	-0.199701
1.764000	-0.204633
1.765000	-0.206606
1.766000	-0.208908
1.767000	-0.213511
1.768000	-0.217786
1.769000	-0.221074
1.770000	-0.223705
1.771000	-0.226664
1.772000	-0.227979
1.773000	-0.229295
1.774000	-0.230939
1.775000	-0.232254
1.776000	-0.234556
1.777000	-0.237844
1.778000	-0.240803
1.779000	-0.243763
1.780000	-0.245078
1.781000	-0.245735
1.782000	-0.248695
1.783000	-0.251325
1.784000	-0.253298
1.785000	-0.254285
1.786000	-0.255600
1.787000	-0.258231
1.788000	-0.260861
1.789000	-0.263163
1.790000	-0.264478
1.791000	-0.264149
1.792000	-0.265136
1.793000	-0.270397
1.794000	-0.273685
1.795000	-0.274014
1.796000	-0.274671
1.797000	-0.275329
1.798000	-0.276644
1.799000	-0.276973
1.800000	-0.278617
1.801000	-0.281905
1.802000	-0.285851
1.803000	-0.286180
1.804000	-0.287495
1.805000	-0.289797
1.806000	-0.289797
1.807000	-0.287824
1.808000	-0.286509
1.809000	-0.290126
1.810000	-0.292428
1.811000	-0.293414
1.812000	-0.291770
1.813000	-0.289468
1.814000	-0.286180
1.815000	-0.284207
1.816000	-0.283550
1.817000	-0.284865
1.818000	-0.285851
1.819000	-0.286180
1.820000	-0.285194
1.821000	-0.283878
1.822000	-0.284207
1.823000	-0.287167
1.824000	-0.289797
1.825000	-0.290126
1.826000	-0.290455
1.827000	-0.291112
1.828000	-0.293743
1.829000	-0.292428
1.830000	-0.291112
1.831000	-0.292428
1.832000	-0.291441
1.833000	-0.289139
1.834000	-0.290784
1.835000	-0.292428
1.836000	-0.293085
1.837000	-0.293743
1.838000	-0.292756
1.839000	-0.289797
1.840000	-0.286180
1.841000	-0.283550
1.842000	-0.282234
1.843000	-0.281248
1.844000	-0.282563
1.845000	-0.284207
1.846000	-0.285522
1.847000	-0.284536
1.848000	-0.282234
1.849000	-0.280919
1.850000	-0.282234
1.851000	-0.283221
1.852000	-0.284207
1.853000	-0.284865
1.854000	-0.285522
1.855000	-0.285522
1.856000	-0.285522
1.857000	-0.285851
1.858000	-0.287167
1.859000	-0.290126
1.860000	-0.292428
1.861000	-0.295387
1.862000	-0.296045
1.863000	-0.293743
1.864000	-0.294072
1.865000	-0.296045
1.866000	-0.296702
1.867000	-0.297031
1.868000	-0.297031
1.869000	-0.297360
1.870000	-0.298675
1.871000	-0.299662
1.872000	-0.301306
1.873000	-0.302621
1.874000	-0.302292
1.875000	-0.301635
1.876000	-0.302292
1.877000	-0.300977
1.878000	-0.298675
1.879000	-0.296373
1.880000	-0.295058
1.881000	-0.295387
1.882000	-0.296373
1.883000	-0.297689
1.884000	-0.297031
1.885000	-0.297360
1.886000	-0.299333
1.887000	-0.295387
1.888000	-0.290126
1.889000	-0.284865
1.890000	-0.281905
1.891000	-0.281248
1.892000	-0.282234
1.893000	-0.282563
1.894000	-0.280919
1.895000	-0.279933
1.896000	-0.279933
1.897000	-0.278617
1.898000	-0.279933
1.899000	-0.281577
1.900000	-0.281905
1.901000	-0.283221
1.902000	-0.283878
1.903000	-0.285851
1.904000	-0.287495
1.905000	-0.289139
1.906000	-0.290455
1.907000	-0.290784
1.908000	-0.294072
1.909000	-0.296702
1.910000	-0.296702
1.911000	-0.293743
1.912000	-0.291112
1.913000	-0.290455
1.914000	-0.292099
1.915000	-0.294401
1.916000	-0.296373
1.917000	-0.296702
1.918000	-0.297031
1.919000	-0.295716
1.920000	-0.294072
1.921000	-0.293085
1.922000	-0.293085
1.923000	-0.292099
1.924000	-0.292428
1.925000	-0.295387
1.926000	-0.299004
1.927000	-0.299004
1.928000	-0.295387
1.929000	-0.292428
1.930000	-0.289468
1.931000	-0.288811
1.932000	-0.290126
1.933000	-0.289797
1.934000	-0.285522
1.935000	-0.282234
1.936000	-0.281577
1.937000	-0.283550
1.938000	-0.284536
1.939000	-0.285522
1.940000	-0.285851
1.941000	-0.286509
1.942000	-0.287824
1.943000	-0.289468
1.944000	-0.290126
1.945000	-0.290784
1.946000	-0.292756
1.947000	-0.293414
1.948000	-0.291770
1.949000	-0.290784
1.950000	-0.291770
1.951000	-0.293414
1.952000	-0.294729
1.953000	-0.295716
1.954000	-0.294401
1.955000	-0.291770
1.956000	-0.288811
1.957000	-0.288153
1.958000	-0.291112
1.959000	-0.292099
1.960000	-0.288482
1.961000	-0.285194
1.962000	-0.282234
1.963000	-0.281248
1.964000	-0.281905
1.965000	-0.280919
1.966000	-0.279275
1.967000	-0.277302
1.968000	-0.275987
1.969000	-0.273027
1.970000	-0.271383
1.971000	-0.269082
1.972000	-0.265793
1.973000	-0.263492
1.974000	-0.262176
1.975000	-0.261848
1.976000	-0.262505
1.977000	-0.263163
1.978000	-0.263163
1.979000	-0.263820
1.980000	-0.266451
1.981000	-0.267766
1.982000	-0.269739
1.983000	-0.270397
1.984000	-0.268753
1.985000	-0.266122
1.986000	-0.264149
1.987000	-0.261848
1.988000	-0.263163
1.989000	-0.263820
1.990000	-0.261519
1.991000	-0.259217
1.992000	-0.255929
1.993000	-0.251983
1.994000	-0.247708
1.995000	-0.245078
1.996000	-0.243763
1.997000	-0.243105
1.998000	-0.245078
1.999000	-0.245407
2.000000	-0.245078
2.001000	-0.246393
2.002000	-0.248695
2.003000	-0.250339
2.004000	-0.250010
2.005000	-0.251325
2.006000	-0.252641
2.007000	-0.252641
2.008000	-0.255600
2.009000	-0.260203
2.010000	-0.262176
2.011000	-0.261848
2.012000	-0.260532
2.013000	-0.258559
2.014000	-0.257573
2.015000	-0.258888
2.016000	-0.258559
2.017000	-0.256258
2.018000	-0.256915
2.019000	-0.258559
2.020000	-0.259875
2.021000	-0.262176
2.022000	-0.261519
2.023000	-0.260861
2.024000	-0.260532
2.025000	-0.262176
2.026000	-0.261848
2.027000	-0.262505
2.028000	-0.264807
2.029000	-0.265136
2.030000	-0.267437
2.031000	-0.270397
2.032000	-0.273356
2.033000	-0.275000
2.034000	-0.275329
2.035000	-0.274343
2.036000	-0.272370
2.037000	-0.271712
2.038000	-0.272370
2.039000	-0.271383
2.040000	-0.269739
2.041000	-0.269739
2.042000	-0.272699
2.043000	-0.276973
2.044000	-0.280261
2.045000	-0.280590
2.046000	-0.282563
2.047000	-0.284536
2.048000	-0.281248
2.049000	-0.277631
2.050000	-0.275658
2.051000	-0.275987
2.052000	-0.275987
2.053000	-0.276973
2.054000	-0.277302
2.055000	-0.277631
2.056000	-0.276316
2.057000	-0.274014
2.058000	-0.269739
2.059000	-0.269410
2.060000	-0.268095
2.061000	-0.268095
2.062000	-0.268095
2.063000	-0.267437
2.064000	-0.267766
2.065000	-0.267437
2.066000	-0.267437
2.067000	-0.270068
2.068000	-0.273685
2.069000	-0.275329
2.070000	-0.276644
2.071000	-0.277960
2.072000	-0.279275
2.073000	-0.280590
2.074000	-0.281577
2.075000	-0.281905
2.076000	-0.281577
2.077000	-0.280261
2.078000	-0.281577
2.079000	-0.280590
2.080000	-0.280590
2.081000	-0.280590
2.082000	-0.280919
2.083000	-0.280590
2.084000	-0.281905
2.085000	-0.283221
2.086000	-0.283878
2.087000	-0.286838
2.088000	-0.286838
2.089000	-0.286180
2.090000	-0.286509
2.091000	-0.286838
2.092000	-0.288153
2.093000	-0.290126
2.094000	-0.295387
2.095000	-0.299333
2.096000	-0.306238
2.097000	-0.310184
2.098000	-0.309526
2.099000	-0.307553
2.100000	-0.305252
2.101000	-0.303936
2.102000	-0.303279
2.103000	-0.303607
2.104000	-0.303607
2.105000	-0.300977
2.106000	-0.295716
2.107000	-0.288811
2.108000	-0.279604
2.109000	-0.268424
2.110000	-0.257573
2.111000	-0.247380
2.112000	-0.233898
2.113000	-0.217786
2.114000	-0.200687
2.115000	-0.184246
2.116000	-0.168134
2.117000	-0.152351
2.118000	-0.136568
2.119000	-0.119140
2.120000	-0.097109
2.121000	-0.071790
2.122000	-0.048773
2.123000	-0.026742
2.124000	-0.005698
2.125000	0.014360
2.126000	0.032774
2.127000	0.048886
2.128000	0.064340
2.129000	0.076178
2.130000	0.085385
2.131000	0.092290
2.132000	0.097222
2.133000	0.097222
2.134000	0.090646
2.135000	0.078480
2.136000	0.061052
2.137000	0.038035
2.138000	0.012058
2.139000	-0.015234
2.140000	-0.039237
2.141000	-0.061597
2.142000	-0.082313
2.143000	-0.108289
2.144000	-0.134266
2.145000	-0.159914
2.146000	-0.182931
2.147000	-0.202003
2.148000	-0.219101
2.149000	-0.234884
2.150000	-0.247380
2.151000	-0.256915
2.152000	-0.264149
2.153000	-0.267766
2.154000	-0.267766
2.155000	-0.268424
2.156000	-0.271054
2.157000	-0.273027
2.158000	-0.273356
2.159000	-0.272370
2.160000	-0.273685
2.161000	-0.275000
2.162000	-0.277302
2.163000	-0.276644
2.164000	-0.275000
2.165000	-0.273027
2.166000	-0.270068
2.167000	-0.269410
2.168000	-0.270397
2.169000	-0.271712
2.170000	-0.270726
2.171000	-0.267766
2.172000	-0.267109
2.173000	-0.266780
2.174000	-0.266451
2.175000	-0.265793
2.176000	-0.264478
2.177000	-0.265793
2.178000	-0.267437
2.179000	-0.269410
2.180000	-0.269739
2.181000	-0.269410
2.182000	-0.267109
2.183000	-0.266122
2.184000	-0.264807
2.185000	-0.260861
2.186000	-0.256915
2.187000	-0.254942
2.188000	-0.254942
2.189000	-0.257244
2.190000	-0.256915
2.191000	-0.254614
2.192000	-0.253298
2.193000	-0.250997
2.194000	-0.247380
2.195000	-0.245078
2.196000	-0.244749
2.197000	-0.246064
2.198000	-0.248695
2.199000	-0.250668
2.200000	-0.250339
2.201000	-0.250997
2.202000	-0.250339
2.203000	-0.252641
2.204000	-0.253956
2.205000	-0.251325
2.206000	-0.250668
2.207000	-0.251654
2.208000	-0.250997
2.209000	-0.251325
2.210000	-0.249352
2.211000	-0.249024
2.212000	-0.247380
2.213000	-0.246393
2.214000	-0.245078
2.215000	-0.244091
2.216000	-0.242776
2.217000	-0.241461
2.218000	-0.240803
2.219000	-0.241790
2.220000	-0.241132
2.221000	-0.240474
2.222000	-0.239159
2.223000	-0.239488
2.224000	-0.236857
2.225000	-0.234884
2.226000	-0.233569
2.227000	-0.234227
2.228000	-0.234227
2.229000	-0.234884
2.230000	-0.236857
2.231000	-0.235542
2.232000	-0.231596
2.233000	-0.229295
2.234000	-0.226993
2.235000	-0.224691
2.236000	-0.226664
2.237000	-0.228637
2.238000	-0.228966
2.239000	-0.228637
2.240000	-0.228308
2.241000	-0.227322
2.242000	-0.227322
2.243000	-0.225678
2.244000	-0.224362
2.245000	-0.223705
2.246000	-0.223047
2.247000	-0.224033
2.248000	-0.223705
2.249000	-0.221732
2.250000	-0.219430
2.251000	-0.218115
2.252000	-0.216471
2.253000	-0.214826
2.254000	-0.214826
2.255000	-0.214169
2.256000	-0.213182
2.257000	-0.214169
2.258000	-0.217128
2.259000	-0.217128
2.260000	-0.215813
2.261000	-0.215155
2.262000	-0.214498
2.263000	-0.213182
2.264000	-0.211538
2.265000	-0.210881
2.266000	-0.211538
2.267000	-0.211538
2.268000	-0.210223
2.269000	-0.209894
2.270000	-0.210223
2.271000	-0.209237
2.272000	-0.205291
2.273000	-0.201016
2.274000	-0.199043
2.275000	-0.199701
2.276000	-0.199701
2.277000	-0.200358
2.278000	-0.197728
2.279000	-0.192467
2.280000	-0.186548
2.281000	-0.182273
2.282000	-0.181287
2.283000	-0.183589
2.284000	-0.183918
2.285000	-0.183918
2.286000	-0.184246
2.287000	-0.182273
2.288000	-0.178985
2.289000	-0.174053
2.290000	-0.170436
2.291000	-0.169450
2.292000	-0.169778
2.293000	-0.169778
2.294000	-0.171422
2.295000	-0.172409
2.296000	-0.171751
2.297000	-0.172080
2.298000	-0.170436
2.299000	-0.168792
2.300000	-0.168463
2.301000	-0.163531
2.302000	-0.161887
2.303000	-0.162216
2.304000	-0.162873
2.305000	-0.162873
2.306000	-0.163860
2.307000	-0.163531
2.308000	-0.161229
2.309000	-0.156626
2.310000	-0.153337
2.311000	-0.151365
2.312000	-0.148734
2.313000	-0.148734
2.314000	-0.148734
2.315000	-0.148734
2.316000	-0.146761
2.317000	-0.142815
2.318000	-0.138541
2.319000	-0.135252
2.320000	-0.133608
2.321000	-0.131635
2.322000	-0.131307
2.323000	-0.132622
2.324000	-0.132951
2.325000	-0.129005
2.326000	-0.125717
2.327000	-0.123744
2.328000	-0.122429
2.329000	-0.121442
2.330000	-0.121442
2.331000	-0.120127
2.332000	-0.119469
2.333000	-0.118483
2.334000	-0.118154
2.335000	-0.117496
2.336000	-0.117167
2.337000	-0.118812
2.338000	-0.121113
2.339000	-0.121113
2.340000	-0.121113
2.341000	-0.121442
2.342000	-0.120127
2.343000	-0.117167
2.344000	-0.116510
2.345000	-0.120127
2.346000	-0.124073
2.347000	-0.127361
2.348000	-0.128676
2.349000	-0.129334
2.350000	-0.129334
2.351000	-0.128018
2.352000	-0.125388
2.353000	-0.122757
2.354000	-0.122757
2.355000	-0.123744
2.356000	-0.125059
2.357000	-0.129005
2.358000	-0.131635
2.359000	-0.131964
2.360000	-0.131635
2.361000	-0.131635
2.362000	-0.132293
2.363000	-0.134595
2.364000	-0.138541
2.365000	-0.141829
2.366000	-0.144131
2.367000	-0.146103
2.368000	-0.148405
2.369000	-0.149063
2.370000	-0.149720
2.371000	-0.151036
2.372000	-0.153995
2.373000	-0.157941
2.374000	-0.160900
2.375000	-0.164517
2.376000	-0.167805
2.377000	-0.167805
2.378000	-0.167805
2.379000	-0.168463
2.380000	-0.169450
2.381000	-0.171751
2.382000	-0.174382
2.383000	-0.177999
2.384000	-0.181287
2.385000	-0.181945
2.386000	-0.180301
2.387000	-0.181287
2.388000	-0.181287
2.389000	-0.182602
2.390000	-0.186548
2.391000	-0.188850
2.392000	-0.189836
2.393000	-0.189507
2.394000	-0.189836
2.395000	-0.192138
2.396000	-0.194769
2.397000	-0.197070
2.398000	-0.197728
2.399000	-0.198057
2.400000	-0.199701
2.401000	-0.201016
2.402000	-0.202989
2.403000	-0.204962
2.404000	-0.207592
2.405000	-0.211867
2.406000	-0.216142
2.407000	-0.216799
2.408000	-0.214826
2.409000	-0.216799
2.410000	-0.218444
2.411000	-0.218772
2.412000	-0.221403
2.413000	-0.222389
2.414000	-0.222061
2.415000	-0.220745
2.416000	-0.221732
2.417000	-0.224691
2.418000	-0.226664
2.419000	-0.226664
2.420000	-0.227979
2.421000	-0.228308
2.422000	-0.226664
2.423000	-0.223376
2.424000	-0.221074
2.425000	-0.220745
2.426000	-0.221074
2.427000	-0.222718
2.428000	-0.224033
2.429000	-0.224691
2.430000	-0.226664
2.431000	-0.228637
2.432000	-0.226664
2.433000	-0.224691
2.434000	-0.221732
2.435000	-0.222718
2.436000	-0.221732
2.437000	-0.219759
2.438000	-0.219101
2.439000	-0.220416
2.440000	-0.222718
2.441000	-0.221074
2.442000	-0.221074
2.443000	-0.223047
2.444000	-0.224033
2.445000	-0.221403
2.446000	-0.219759
2.447000	-0.219759
2.448000	-0.219759
2.449000	-0.222389
2.450000	-0.227650
2.451000	-0.229295
2.452000	-0.228966
2.453000	-0.225020
2.454000	-0.223376
2.455000	-0.222718
2.456000	-0.223705
2.457000	-0.226335
2.458000	-0.226335
2.459000	-0.225020
2.460000	-0.224362
2.461000	-0.222389
2.462000	-0.221074
2.463000	-0.221074
2.464000	-0.220416
2.465000	-0.219430
2.466000	-0.219759
2.467000	-0.220088
2.468000	-0.220416
2.469000	-0.217786
2.470000	-0.214826
2.471000	-0.210552
2.472000	-0.210223
2.473000	-0.211538
2.474000	-0.211867
2.475000	-0.210881
2.476000	-0.211209
2.477000	-0.212525
2.478000	-0.212525
2.479000	-0.210881
2.480000	-0.207921
2.481000	-0.205948
2.482000	-0.205948
2.483000	-0.207592
2.484000	-0.209237
2.485000	-0.210552
2.486000	-0.211867
2.487000	-0.212196
2.488000	-0.211209
2.489000	-0.212854
2.490000	-0.213840
2.491000	-0.214498
2.492000	-0.212525
2.493000	-0.211538
2.494000	-0.209894
2.495000	-0.209894
2.496000	-0.211538
2.497000	-0.210223
2.498000	-0.209894
2.499000	-0.210552
2.500000	-0.211538
2.501000	-0.210881
2.502000	-0.210223
2.503000	-0.209894
2.504000	-0.210223
2.505000	-0.211867
2.506000	-0.214169
2.507000	-0.213840
2.508000	-0.211538
2.509000	-0.208250
2.510000	-0.209565
2.511000	-0.212196
2.512000	-0.214169
2.513000	-0.212854
2.514000	-0.211209
2.515000	-0.210881
2.516000	-0.211209
2.517000	-0.209894
2.518000	-0.209565
2.519000	-0.209894
2.520000	-0.211209
2.521000	-0.212196
2.522000	-0.211867
2.523000	-0.212525
2.524000	-0.211209
2.525000	-0.208908
2.526000	-0.208908
2.527000	-0.211538
2.528000	-0.212525
2.529000	-0.214169
2.530000	-0.215155
2.531000	-0.213840
2.532000	-0.212854
2.533000	-0.211538
2.534000	-0.210552
2.535000	-0.209565
2.536000	-0.208908
2.537000	-0.207592
2.538000	-0.207921
2.539000	-0.209565
2.540000	-0.208579
2.541000	-0.207264
2.542000	-0.204962
2.543000	-0.206277
2.544000	-0.206277
2.545000	-0.205620
2.546000	-0.204304
2.547000	-0.205291
2.548000	-0.205291
2.549000	-0.204962
2.550000	-0.204633
2.551000	-0.201016
2.552000	-0.195755
2.553000	-0.192796
2.554000	-0.193453
2.555000	-0.195097
2.556000	-0.194769
2.557000	-0.191480
2.558000	-0.188850
2.559000	-0.184246
2.560000	-0.181616
2.561000	-0.181616
2.562000	-0.182931
2.563000	-0.180958
2.564000	-0.178328
2.565000	-0.175697
2.566000	-0.173724
2.567000	-0.173067
2.568000	-0.173724
2.569000	-0.174053
2.570000	-0.174382
2.571000	-0.177341
2.572000	-0.179314
2.573000	-0.179972
2.574000	-0.179314
2.575000	-0.177670
2.576000	-0.175697
2.577000	-0.175368
2.578000	-0.175697
2.579000	-0.175697
2.580000	-0.175039
2.581000	-0.172409
2.582000	-0.171094
2.583000	-0.169450
2.584000	-0.168134
2.585000	-0.166490
2.586000	-0.164846
2.587000	-0.162216
2.588000	-0.161558
2.589000	-0.161887
2.590000	-0.162544
2.591000	-0.162216
2.592000	-0.162216
2.593000	-0.162544
2.594000	-0.160900
2.595000	-0.159585
2.596000	-0.157941
2.597000	-0.157941
2.598000	-0.158599
2.599000	-0.162873
2.600000	-0.165833
2.601000	-0.166490
2.602000	-0.168134
2.603000	-0.168463
2.604000	-0.169778
2.605000	-0.171094
2.606000	-0.173067
2.607000	-0.172738
2.608000	-0.171751
2.609000	-0.172409
2.610000	-0.174053
2.611000	-0.176355
2.612000	-0.179314
2.613000	-0.180958
2.614000	-0.180958
2.615000	-0.180301
2.616000	-0.181945
2.617000	-0.184575
2.618000	-0.187535
2.619000	-0.190165
2.620000	-0.191152
2.621000	-0.188850
2.622000	-0.187535
2.623000	-0.185562
2.624000	-0.184246
2.625000	-0.183918
2.626000	-0.186877
2.627000	-0.189179
2.628000	-0.190823
2.629000	-0.191152
2.630000	-0.191809
2.631000	-0.191152
2.632000	-0.190823
2.633000	-0.188850
2.634000	-0.188192
2.635000	-0.190165
2.636000	-0.189836
2.637000	-0.189836
2.638000	-0.190823
2.639000	-0.190165
2.640000	-0.188521
2.641000	-0.187535
2.642000	-0.187206
2.643000	-0.186877
2.644000	-0.183260
2.645000	-0.180629
2.646000	-0.181616
2.647000	-0.180301
2.648000	-0.179643
2.649000	-0.178328
2.650000	-0.179314
2.651000	-0.180301
2.652000	-0.181616
2.653000	-0.182931
2.654000	-0.186877
2.655000	-0.190165
2.656000	-0.193453
2.657000	-0.196084
2.658000	-0.198057
2.659000	-0.196741
2.660000	-0.195097
2.661000	-0.196413
2.662000	-0.200358
2.663000	-0.199701
2.664000	-0.197070
2.665000	-0.195426
2.666000	-0.195097
2.667000	-0.193124
2.668000	-0.191152
2.669000	-0.190494
2.670000	-0.191809
2.671000	-0.190823
2.672000	-0.189507
2.673000	-0.187863
2.674000	-0.187206
2.675000	-0.189836
2.676000	-0.191480
2.677000	-0.193124
2.678000	-0.194440
2.679000	-0.196413
2.680000	-0.201345
2.681000	-0.204304
2.682000	-0.206277
2.683000	-0.207921
2.684000	-0.211867
2.685000	-0.214169
2.686000	-0.217457
2.687000	-0.218115
2.688000	-0.216142
2.689000	-0.216142
2.690000	-0.217786
2.691000	-0.217128
2.692000	-0.216471
2.693000	-0.214826
2.694000	-0.211209
2.695000	-0.207264
2.696000	-0.202331
2.697000	-0.196413
2.698000	-0.189507
2.699000	-0.179314
2.700000	-0.168463
2.701000	-0.158927
2.702000	-0.148076
2.703000	-0.135910
2.704000	-0.123086
2.705000	-0.108618
2.706000	-0.091520
2.707000	-0.074092
2.708000	-0.054363
2.709000	-0.031675
2.710000	-0.009644
2.711000	0.011729
2.712000	0.034418
2.713000	0.057435
2.714000	0.080124
2.715000	0.101826
2.716000	0.121226
2.717000	0.137996
2.718000	0.153121
2.719000	0.164959
2.720000	0.177454
2.721000	0.186003
2.722000	0.189291
2.723000	0.183373
2.724000	0.171864
2.725000	0.159698
2.726000	0.146545
2.727000	0.127145
2.728000	0.104456
2.729000	0.081110
2.730000	0.058750
2.731000	0.037048
2.732000	0.015346
2.733000	-0.006027
2.734000	-0.030031
2.735000	-0.053705
2.736000	-0.074421
2.737000	-0.092835
2.738000	-0.109276
2.739000	-0.123086
2.740000	-0.134266
2.741000	-0.141171
2.742000	-0.147748
2.743000	-0.156297
2.744000	-0.163531
2.745000	-0.167805
2.746000	-0.170107
2.747000	-0.172738
2.748000	-0.171751
2.749000	-0.171094
2.750000	-0.172080
2.751000	-0.173395
2.752000	-0.171422
2.753000	-0.169121
2.754000	-0.168463
2.755000	-0.169121
2.756000	-0.170436
2.757000	-0.170107
2.758000	-0.169450
2.759000	-0.165504
2.760000	-0.161887
2.761000	-0.160571
2.762000	-0.161887
2.763000	-0.163860
2.764000	-0.163860
2.765000	-0.167148
2.766000	-0.171094
2.767000	-0.171751
2.768000	-0.170107
2.769000	-0.167477
2.770000	-0.166161
2.771000	-0.166161
2.772000	-0.166819
2.773000	-0.166490
2.774000	-0.164517
2.775000	-0.164846
2.776000	-0.164188
2.777000	-0.164188
2.778000	-0.164517
2.779000	-0.162873
2.780000	-0.160571
2.781000	-0.157283
2.782000	-0.156297
2.783000	-0.155968
2.784000	-0.158270
2.785000	-0.160571
2.786000	-0.158270
2.787000	-0.154653
2.788000	-0.153666
2.789000	-0.153995
2.790000	-0.153337
2.791000	-0.151693
2.792000	-0.153009
2.793000	-0.153995
2.794000	-0.154982
2.795000	-0.154982
2.796000	-0.156626
2.797000	-0.157283
2.798000	-0.157941
2.799000	-0.158270
2.800000	-0.159585
2.801000	-0.159585
2.802000	-0.158927
2.803000	-0.157612
2.804000	-0.156626
2.805000	-0.158270
2.806000	-0.160900
2.807000	-0.161229
2.808000	-0.159256
2.809000	-0.157283
2.810000	-0.153995
2.811000	-0.150049
2.812000	-0.146103
2.813000	-0.144459
2.814000	-0.144459
2.815000	-0.145775
2.816000	-0.144459
2.817000	-0.142486
2.818000	-0.141829
2.819000	-0.141500
2.820000	-0.140842
2.821000	-0.138541
2.822000	-0.135910
2.823000	-0.133937
2.824000	-0.132622
2.825000	-0.132622
2.826000	-0.134266
2.827000	-0.134924
2.828000	-0.135910
2.829000	-0.137225
2.830000	-0.137883
2.831000	-0.133937
2.832000	-0.131307
2.833000	-0.131307
2.834000	-0.133280
2.835000	-0.132622
2.836000	-0.131307
2.837000	-0.132293
2.838000	-0.133280
2.839000	-0.132622
2.840000	-0.130649
2.841000	-0.129663
2.842000	-0.127361
2.843000	-0.125059
2.844000	-0.126046
2.845000	-0.127690
2.846000	-0.128018
2.847000	-0.126046
2.848000	-0.123086
2.849000	-0.120784
2.850000	-0.119140
2.851000	-0.117496
2.852000	-0.115852
2.853000	-0.116839
2.854000	-0.118154
2.855000	-0.117496
2.856000	-0.116510
2.857000	-0.113879
2.858000	-0.110920
2.859000	-0.106974
2.860000	-0.103686
2.861000	-0.101055
2.862000	-0.099740
2.863000	-0.097438
2.864000	-0.097767
2.865000	-0.096781
2.866000	-0.095465
2.867000	-0.095794
2.868000	-0.096123
2.869000	-0.096452
2.870000	-0.096123
2.871000	-0.094150
2.872000	-0.093821
2.873000	-0.091191
2.874000	-0.087245
2.875000	-0.085601
2.876000	-0.084943
2.877000	-0.082970
2.878000	-0.082641
2.879000	-0.081984
2.880000	-0.083628
2.881000	-0.085601
2.882000	-0.087574
2.883000	-0.087903
2.884000	-0.085272
2.885000	-0.081984
2.886000	-0.080669
2.887000	-0.079682
2.888000	-0.077380
2.889000	-0.075407
2.890000	-0.073435
2.891000	-0.074750
2.892000	-0.075407
2.893000	-0.073435
2.894000	-0.070475
2.895000	-0.068502
2.896000	-0.067516
2.897000	-0.064556
2.898000	-0.062584
2.899000	-0.059624
2.900000	-0.056336
2.901000	-0.054692
2.902000	-0.053048
2.903000	-0.051733
2.904000	-0.049760
2.905000	-0.049431
2.906000	-0.051075
2.907000	-0.051733
2.908000	-0.052719
2.909000	-0.054363
2.910000	-0.054363
2.911000	-0.053377
2.912000	-0.052719
2.913000	-0.051075
2.914000	-0.048444
2.915000	-0.044499
2.916000	-0.040553
2.917000	-0.038909
2.918000	-0.039895
2.919000	-0.040882
2.920000	-0.042526
2.921000	-0.043841
2.922000	-0.041539
2.923000	-0.038251
2.924000	-0.037265
2.925000	-0.035292
2.926000	-0.032661
2.927000	-0.034634
2.928000	-0.035949
2.929000	-0.036278
2.930000	-0.036607
2.931000	-0.036607
2.932000	-0.035620
2.933000	-0.035292
2.934000	-0.035620
2.935000	-0.037593
2.936000	-0.037265
2.937000	-0.036607
2.938000	-0.035949
2.939000	-0.036607
2.940000	-0.035949
2.941000	-0.035620
2.942000	-0.034634
2.943000	-0.036278
2.944000	-0.037922
2.945000	-0.038251
2.946000	-0.037922
2.947000	-0.039237
2.948000	-0.039237
2.949000	-0.039895
2.950000	-0.040553
2.951000	-0.039566
2.952000	-0.039895
2.953000	-0.042197
2.954000	-0.044499
2.955000	-0.048116
2.956000	-0.053705
2.957000	-0.056994
2.958000	-0.057651
2.959000	-0.059624
2.960000	-0.059295
2.961000	-0.057980
2.962000	-0.061268
2.963000	-0.065214
2.964000	-0.069160
2.965000	-0.071462
2.966000	-0.078038
2.967000	-0.085272
2.968000	-0.090204
2.969000	-0.092506
2.970000	-0.095137
2.971000	-0.097438
2.972000	-0.098096
2.973000	-0.100398
2.974000	-0.103028
2.975000	-0.105659
2.976000	-0.108947
2.977000	-0.111577
2.978000	-0.112893
2.979000	-0.113222
2.980000	-0.113222
2.981000	-0.111906
2.982000	-0.113222
2.983000	-0.116839
2.984000	-0.119140
2.985000	-0.118483
2.986000	-0.118812
2.987000	-0.121771
2.988000	-0.124401
2.989000	-0.126703
2.990000	-0.129334
2.991000	-0.130649
2.992000	-0.133608
2.993000	-0.136568
2.994000	-0.139198
2.995000	-0.143144
2.996000	-0.144459
2.997000	-0.146761
2.998000	-0.148076
2.999000	-0.150378
3.000000	-0.152022
3.001000	-0.151693
3.002000	-0.150049
3.003000	-0.148405
3.004000	-0.146432
3.005000	-0.145446
3.006000	-0.147419
3.007000	-0.148734
3.008000	-0.150707
3.009000	-0.149720
3.010000	-0.150049
3.011000	-0.152022
3.012000	-0.152022
3.013000	-0.151036
3.014000	-0.150378
3.015000	-0.149063
3.016000	-0.146761
3.017000	-0.145117
3.018000	-0.147419
3.019000	-0.150378
3.020000	-0.151036
3.021000	-0.149063
3.022000	-0.148076
3.023000	-0.147748
3.024000	-0.148076
3.025000	-0.147090
3.026000	-0.147090
3.027000	-0.147090
3.028000	-0.148405
3.029000	-0.150378
3.030000	-0.150049
3.031000	-0.150378
3.032000	-0.150049
3.033000	-0.150378
3.034000	-0.152680
3.035000	-0.153995
3.036000	-0.153337
3.037000	-0.148734
3.038000	-0.146432
3.039000	-0.145775
3.040000	-0.146103
3.041000	-0.148734
3.042000	-0.148405
3.043000	-0.146761
3.044000	-0.146103
3.045000	-0.144788
3.046000	-0.144788
3.047000	-0.143802
3.048000	-0.142815
3.049000	-0.143144
3.050000	-0.144459
3.051000	-0.144459
3.052000	-0.144788
3.053000	-0.142815
3.054000	-0.140842
3.055000	-0.138869
3.056000	-0.139856
3.057000	-0.141171
3.058000	-0.142158
3.059000	-0.141171
3.060000	-0.139198
3.061000	-0.137225
3.062000	-0.137554
3.063000	-0.138869
3.064000	-0.140842
3.065000	-0.142815
3.066000	-0.143802
3.067000	-0.143144
3.068000	-0.141500
3.069000	-0.142486
3.070000	-0.143144
3.071000	-0.144459
3.072000	-0.147748
3.073000	-0.149720
3.074000	-0.149392
3.075000	-0.148076
3.076000	-0.146761
3.077000	-0.147090
3.078000	-0.145775
3.079000	-0.143144
3.080000	-0.142486
3.081000	-0.143144
3.082000	-0.143473
3.083000	-0.142486
3.084000	-0.140185
3.085000	-0.138212
3.086000	-0.135581
3.087000	-0.133608
3.088000	-0.132622
3.089000	-0.134266
3.090000	-0.134924
3.091000	-0.135252
3.092000	-0.135252
3.093000	-0.136239
3.094000	-0.136568
3.095000	-0.134924
3.096000	-0.133937
3.097000	-0.131307
3.098000	-0.129663
3.099000	-0.129334
3.100000	-0.132622
3.101000	-0.137225
3.102000	-0.139856
3.103000	-0.138212
3.104000	-0.136897
3.105000	-0.139198
3.106000	-0.139856
3.107000	-0.139198
3.108000	-0.136568
3.109000	-0.135910
3.110000	-0.136897
3.111000	-0.137225
3.112000	-0.134595
3.113000	-0.133608
3.114000	-0.134595
3.115000	-0.134924
3.116000	-0.129005
3.117000	-0.122757
3.118000	-0.123086
3.119000	-0.126703
3.120000	-0.128347
3.121000	-0.127361
3.122000	-0.127361
3.123000	-0.125717
3.124000	-0.123086
3.125000	-0.120127
3.126000	-0.120127
3.127000	-0.121113
3.128000	-0.122429
3.129000	-0.124730
3.130000	-0.126374
3.131000	-0.128018
3.132000	-0.127690
3.133000	-0.127361
3.134000	-0.125717
3.135000	-0.124401
3.136000	-0.126703
3.137000	-0.127361
3.138000	-0.127361
3.139000	-0.127690
3.140000	-0.126703
3.141000	-0.124730
3.142000	-0.126046
3.143000	-0.128347
3.144000	-0.129663
3.145000	-0.129005
3.146000	-0.128347
3.147000	-0.129334
3.148000	-0.132622
3.149000	-0.133937
3.150000	-0.134266
3.151000	-0.136239
3.152000	-0.138541
3.153000	-0.138869
3.154000	-0.134595
3.155000	-0.131635
3.156000	-0.131635
3.157000	-0.130978
3.158000	-0.130649
3.159000	-0.129991
3.160000	-0.129991
3.161000	-0.128347
3.162000	-0.127361
3.163000	-0.125388
3.164000	-0.124730
3.165000	-0.122757
3.166000	-0.119798
3.167000	-0.117825
3.168000	-0.119469
3.169000	-0.121771
3.170000	-0.123086
3.171000	-0.122100
3.172000	-0.121771
3.173000	-0.122100
3.174000	-0.122429
3.175000	-0.120127
3.176000	-0.119798
3.177000	-0.120127
3.178000	-0.119140
3.179000	-0.122429
3.180000	-0.125059
3.181000	-0.125717
3.182000	-0.125059
3.183000	-0.121771
3.184000	-0.118154
3.185000	-0.115852
3.186000	-0.114208
3.187000	-0.112564
3.188000	-0.110920
3.189000	-0.108947
3.190000	-0.108289
3.191000	-0.108947
3.192000	-0.108289
3.193000	-0.106974
3.194000	-0.105659
3.195000	-0.105001
3.196000	-0.104343
3.197000	-0.104015
3.198000	-0.103028
3.199000	-0.102371
3.200000	-0.102699
3.201000	-0.102699
3.202000	-0.104015
3.203000	-0.109276
3.204000	-0.111906
3.205000	-0.110920
3.206000	-0.108289
3.207000	-0.104672
3.208000	-0.099740
3.209000	-0.094808
3.210000	-0.090533
3.211000	-0.087245
3.212000	-0.084286
3.213000	-0.082970
3.214000	-0.080011
3.215000	-0.076065
3.216000	-0.069489
3.217000	-0.064885
3.218000	-0.062584
3.219000	-0.061597
3.220000	-0.063570
3.221000	-0.064228
3.222000	-0.063899
3.223000	-0.064885
3.224000	-0.064885
3.225000	-0.067845
3.226000	-0.070146
3.227000	-0.072448
3.228000	-0.074750
3.229000	-0.079024
3.230000	-0.083628
3.231000	-0.085930
3.232000	-0.086587
3.233000	-0.087574
3.234000	-0.085930
3.235000	-0.085272
3.236000	-0.087574
3.237000	-0.090204
3.238000	-0.091848
3.239000	-0.092506
3.240000	-0.094479
3.241000	-0.096123
3.242000	-0.097767
3.243000	-0.099082
3.244000	-0.101713
3.245000	-0.102371
3.246000	-0.104015
3.247000	-0.105659
3.248000	-0.107632
3.249000	-0.109933
3.250000	-0.111577
3.251000	-0.113550
3.252000	-0.114208
3.253000	-0.115195
3.254000	-0.114208
3.255000	-0.112564
3.256000	-0.112235
3.257000	-0.113550
3.258000	-0.114537
3.259000	-0.111906
3.260000	-0.111577
3.261000	-0.114866
3.262000	-0.116839
3.263000	-0.116839
3.264000	-0.116839
3.265000	-0.116510
3.266000	-0.114866
3.267000	-0.114866
3.268000	-0.116839
3.269000	-0.119469
3.270000	-0.117496
3.271000	-0.114208
3.272000	-0.113879
3.273000	-0.117825
3.274000	-0.120127
3.275000	-0.122429
3.276000	-0.123086
3.277000	-0.121771
3.278000	-0.121113
3.279000	-0.120127
3.280000	-0.120456
3.281000	-0.119798
3.282000	-0.118812
3.283000	-0.120456
3.284000	-0.121113
3.285000	-0.122429
3.286000	-0.124073
3.287000	-0.125388
3.288000	-0.127690
3.289000	-0.124401
3.290000	-0.122429
3.291000	-0.119469
3.292000	-0.117167
3.293000	-0.119469
3.294000	-0.121771
3.295000	-0.122757
3.296000	-0.122100
3.297000	-0.120456
3.298000	-0.122100
3.299000	-0.120127
3.300000	-0.115852
3.301000	-0.112893
3.302000	-0.111249
3.303000	-0.109605
3.304000	-0.110262
3.305000	-0.111906
3.306000	-0.114866
3.307000	-0.117167
3.308000	-0.118812
3.309000	-0.121442
3.310000	-0.124730
3.311000	-0.128018
3.312000	-0.129663
3.313000	-0.131964
3.314000	-0.133937
3.315000	-0.137225
3.316000	-0.141171
3.317000	-0.146103
3.318000	-0.148734
3.319000	-0.149392
3.320000	-0.150378
3.321000	-0.150378
3.322000	-0.152351
3.323000	-0.153995
3.324000	-0.149392
3.325000	-0.146432
3.326000	-0.141829
3.327000	-0.136897
3.328000	-0.128676
3.329000	-0.118812
3.330000	-0.108947
3.331000	-0.099740
3.332000	-0.091191
3.333000	-0.079682
3.334000	-0.066529
3.335000	-0.050746
3.336000	-0.033648
3.337000	-0.016878
3.338000	0.003509
3.339000	0.025869
3.340000	0.048886
3.341000	0.070588
3.342000	0.091632
3.343000	0.113992
3.344000	0.137338
3.345000	0.159369
3.346000	0.180085
3.347000	0.199485
3.348000	0.218227
3.349000	0.236641
3.350000	0.251767
3.351000	0.262618
3.352000	0.265906
3.353000	0.262947
3.354000	0.256699
3.355000	0.250781
3.356000	0.240916
3.357000	0.224146
3.358000	0.203759
3.359000	0.185346
3.360000	0.168576
3.361000	0.147203
3.362000	0.122541
3.363000	0.096236
3.364000	0.069273
3.365000	0.045598
3.366000	0.022580
3.367000	-0.002410
3.368000	-0.023783
3.369000	-0.038909
3.370000	-0.050746
3.371000	-0.059295
3.372000	-0.068173
3.373000	-0.075407
3.374000	-0.082641
3.375000	-0.088231
3.376000	-0.091848
3.377000	-0.094150
3.378000	-0.095465
3.379000	-0.094479
3.380000	-0.093821
3.381000	-0.090204
3.382000	-0.088560
3.383000	-0.088889
3.384000	-0.090862
3.385000	-0.091848
3.386000	-0.094479
3.387000	-0.095137
3.388000	-0.094479
3.389000	-0.093821
3.390000	-0.093164
3.391000	-0.092506
3.392000	-0.092177
3.393000	-0.092177
3.394000	-0.092835
3.395000	-0.094150
3.396000	-0.096123
3.397000	-0.097767
3.398000	-0.096452
3.399000	-0.095794
3.400000	-0.094479
3.401000	-0.096452
3.402000	-0.098425
3.403000	-0.098096
3.404000	-0.097438
3.405000	-0.096781
3.406000	-0.095137
3.407000	-0.094479
3.408000	-0.095137
3.409000	-0.096452
3.410000	-0.096123
3.411000	-0.095794
3.412000	-0.096123
3.413000	-0.095465
3.414000	-0.093164
3.415000	-0.092177
3.416000	-0.093821
3.417000	-0.095465
3.418000	-0.094808
3.419000	-0.092177
3.420000	-0.090533
3.421000	-0.090533
3.422000	-0.088560
3.423000	-0.086916
3.424000	-0.084943
3.425000	-0.086258
3.426000	-0.089875
3.427000	-0.091191
3.428000	-0.090204
3.429000	-0.089547
3.430000	-0.089218
3.431000	-0.091848
3.432000	-0.092506
3.433000	-0.093492
3.434000	-0.093492
3.435000	-0.091848
3.436000	-0.086587
3.437000	-0.083957
3.438000	-0.084286
3.439000	-0.083957
3.440000	-0.083299
3.441000	-0.080997
3.442000	-0.079682
3.443000	-0.078696
3.444000	-0.075736
3.445000	-0.071462
3.446000	-0.068173
3.447000	-0.066529
3.448000	-0.064556
3.449000	-0.063241
3.450000	-0.062584
3.451000	-0.062912
3.452000	-0.061597
3.453000	-0.061268
3.454000	-0.059953
3.455000	-0.062255
3.456000	-0.064885
3.457000	-0.064228
3.458000	-0.065214
3.459000	-0.067845
3.460000	-0.071133
3.461000	-0.071462
3.462000	-0.069818
3.463000	-0.068173
3.464000	-0.066858
3.465000	-0.068831
3.466000	-0.070146
3.467000	-0.070804
3.468000	-0.073106
3.469000	-0.073763
3.470000	-0.070146
3.471000	-0.066858
3.472000	-0.064228
3.473000	-0.062912
3.474000	-0.061268
3.475000	-0.057980
3.476000	-0.054363
3.477000	-0.051733
3.478000	-0.051733
3.479000	-0.051404
3.480000	-0.052390
3.481000	-0.051075
3.482000	-0.051075
3.483000	-0.052390
3.484000	-0.053377
3.485000	-0.050417
3.486000	-0.044499
3.487000	-0.040882
3.488000	-0.040224
3.489000	-0.040882
3.490000	-0.041868
3.491000	-0.041210
3.492000	-0.039895
3.493000	-0.036607
3.494000	-0.033648
3.495000	-0.028386
3.496000	-0.025098
3.497000	-0.023783
3.498000	-0.021481
3.499000	-0.019837
3.500000	-0.019508
3.501000	-0.020166
3.502000	-0.019837
3.503000	-0.019180
3.504000	-0.018851
3.505000	-0.018522
3.506000	-0.018522
3.507000	-0.018193
3.508000	-0.016878
3.509000	-0.012603
3.510000	-0.009644
3.511000	-0.007342
3.512000	-0.005040
3.513000	-0.004383
3.514000	-0.003725
3.515000	-0.002081
3.516000	-0.001752
3.517000	-0.000108
3.518000	-0.000108
3.519000	0.000221
3.520000	0.001207
3.521000	0.002851
3.522000	0.002523
3.523000	0.002523
3.524000	0.004167
3.525000	0.005482
3.526000	0.005153
3.527000	0.006140
3.528000	0.007784
3.529000	0.008112
3.530000	0.007126
3.531000	0.008770
3.532000	0.010414
3.533000	0.011072
3.534000	0.011401
3.535000	0.012058
3.536000	0.009757
3.537000	0.008112
3.538000	0.008770
3.539000	0.013045
3.540000	0.020936
3.541000	0.027513
3.542000	0.033103
3.543000	0.033431
3.544000	0.030472
3.545000	0.028499
3.546000	0.028828
3.547000	0.030143
3.548000	0.034089
3.549000	0.039679
3.550000	0.043625
3.551000	0.046913
3.552000	0.051188
3.553000	0.054805
3.554000	0.053161
3.555000	0.049215
3.556000	0.048557
3.557000	0.047899
3.558000	0.048228
3.559000	0.047571
3.560000	0.046913
3.561000	0.044282
3.562000	0.042310
3.563000	0.041323
3.564000	0.044282
3.565000	0.046584
3.566000	0.048557
3.567000	0.051188
3.568000	0.051845
3.569000	0.049215
3.570000	0.048886
3.571000	0.051516
3.572000	0.053489
3.573000	0.053161
3.574000	0.053489
3.575000	0.051188
3.576000	0.048886
3.577000	0.047571
3.578000	0.045269
3.579000	0.043296
3.580000	0.040665
3.581000	0.038035
3.582000	0.038693
3.583000	0.038035
3.584000	0.037706
3.585000	0.037048
3.586000	0.034418
3.587000	0.031459
3.588000	0.026197
3.589000	0.021923
3.590000	0.021923
3.591000	0.023238
3.592000	0.023238
3.593000	0.021923
3.594000	0.020936
3.595000	0.019621
3.596000	0.016991
3.597000	0.016004
3.598000	0.012387
3.599000	0.007455
3.600000	0.002523
3.601000	-0.000766
3.602000	-0.002410
3.603000	-0.006027
3.604000	-0.009315
3.605000	-0.012603
3.606000	-0.014576
3.607000	-0.016878
3.608000	-0.019508
3.609000	-0.023125
3.610000	-0.027071
3.611000	-0.030031
3.612000	-0.031675
3.613000	-0.033976
3.614000	-0.033976
3.615000	-0.034963
3.616000	-0.037265
3.617000	-0.037265
3.618000	-0.037593
3.619000	-0.039237
3.620000	-0.042526
3.621000	-0.046143
3.622000	-0.051733
3.623000	-0.057322
3.624000	-0.061597
3.625000	-0.061268
3.626000	-0.058638
3.627000	-0.055350
3.628000	-0.056007
3.629000	-0.057651
3.630000	-0.061268
3.631000	-0.060282
3.632000	-0.059295
3.633000	-0.059295
3.634000	-0.060282
3.635000	-0.062255
3.636000	-0.063241
3.637000	-0.062912
3.638000	-0.060939
3.639000	-0.060611
3.640000	-0.061268
3.641000	-0.061268
3.642000	-0.060282
3.643000	-0.061268
3.644000	-0.062912
3.645000	-0.063241
3.646000	-0.063899
3.647000	-0.066201
3.648000	-0.067516
3.649000	-0.066858
3.650000	-0.067516
3.651000	-0.071462
3.652000	-0.073106
3.653000	-0.073435
3.654000	-0.069160
3.655000	-0.066201
3.656000	-0.067187
3.657000	-0.066858
3.658000	-0.066858
3.659000	-0.069160
3.660000	-0.071790
3.661000	-0.074421
3.662000	-0.075079
3.663000	-0.074750
3.664000	-0.073435
3.665000	-0.072119
3.666000	-0.070475
3.667000	-0.068831
3.668000	-0.068173
3.669000	-0.065214
3.670000	-0.065543
3.671000	-0.066201
3.672000	-0.066858
3.673000	-0.065543
3.674000	-0.065214
3.675000	-0.065543
3.676000	-0.066201
3.677000	-0.062584
3.678000	-0.059953
3.679000	-0.059953
3.680000	-0.062255
3.681000	-0.063570
3.682000	-0.064885
3.683000	-0.066858
3.684000	-0.067845
3.685000	-0.068173
3.686000	-0.067516
3.687000	-0.066858
3.688000	-0.066201
3.689000	-0.066201
3.690000	-0.065543
3.691000	-0.063899
3.692000	-0.063241
3.693000	-0.063241
3.694000	-0.062255
3.695000	-0.061926
3.696000	-0.060939
3.697000	-0.062255
3.698000	-0.061926
3.699000	-0.061268
3.700000	-0.060611
3.701000	-0.062912
3.702000	-0.064556
3.703000	-0.065872
3.704000	-0.065543
3.705000	-0.063570
3.706000	-0.060939
3.707000	-0.061597
3.708000	-0.061926
3.709000	-0.061926
3.710000	-0.062912
3.711000	-0.064228
3.712000	-0.063570
3.713000	-0.063899
3.714000	-0.063899
3.715000	-0.063899
3.716000	-0.062912
3.717000	-0.060939
3.718000	-0.061597
3.719000	-0.063241
3.720000	-0.064885
3.721000	-0.065214
3.722000	-0.070146
3.723000	-0.074092
3.724000	-0.073435
3.725000	-0.073106
3.726000	-0.074092
3.727000	-0.074092
3.728000	-0.073763
3.729000	-0.073435
3.730000	-0.072777
3.731000	-0.069489
3.732000	-0.066858
3.733000	-0.066529
3.734000	-0.069160
3.735000	-0.069489
3.736000	-0.067845
3.737000	-0.065543
3.738000	-0.063241
3.739000	-0.063241
3.740000	-0.063241
3.741000	-0.064556
3.742000	-0.064556
3.743000	-0.066201
3.744000	-0.069160
3.745000	-0.070804
3.746000	-0.069160
3.747000	-0.067187
3.748000	-0.063899
3.749000	-0.060939
3.750000	-0.060611
3.751000	-0.062255
3.752000	-0.064556
3.753000	-0.066858
3.754000	-0.066858
3.755000	-0.063899
3.756000	-0.057322
3.757000	-0.053705
3.758000	-0.052390
3.759000	-0.053048
3.760000	-0.055350
3.761000	-0.055021
3.762000	-0.055021
3.763000	-0.056994
3.764000	-0.057651
3.765000	-0.057980
3.766000	-0.058638
3.767000	-0.058967
3.768000	-0.058309
3.769000	-0.058967
3.770000	-0.057651
3.771000	-0.056336
3.772000	-0.055350
3.773000	-0.056007
3.774000	-0.057322
3.775000	-0.059295
3.776000	-0.057980
3.777000	-0.056994
3.778000	-0.056665
3.779000	-0.056336
3.780000	-0.056007
3.781000	-0.056994
3.782000	-0.058638
3.783000	-0.059295
3.784000	-0.059624
3.785000	-0.058967
3.786000	-0.056665
3.787000	-0.055350
3.788000	-0.055021
3.789000	-0.055678
3.790000	-0.057980
3.791000	-0.060611
3.792000	-0.061597
3.793000	-0.061926
3.794000	-0.060939
3.795000	-0.059953
3.796000	-0.057651
3.797000	-0.055350
3.798000	-0.054034
3.799000	-0.053705
3.800000	-0.055021
3.801000	-0.055678
3.802000	-0.055350
3.803000	-0.054692
3.804000	-0.054363
3.805000	-0.054692
3.806000	-0.054692
3.807000	-0.054363
3.808000	-0.052390
3.809000	-0.050088
3.810000	-0.048773
3.811000	-0.049431
3.812000	-0.051075
3.813000	-0.053048
3.814000	-0.055350
3.815000	-0.056007
3.816000	-0.055678
3.817000	-0.054692
3.818000	-0.054034
3.819000	-0.056336
3.820000	-0.059953
3.821000	-0.059953
3.822000	-0.060611
3.823000	-0.061926
3.824000	-0.063241
3.825000	-0.063899
3.826000	-0.062912
3.827000	-0.060611
3.828000	-0.060939
3.829000	-0.063241
3.830000	-0.063899
3.831000	-0.061926
3.832000	-0.060939
3.833000	-0.060282
3.834000	-0.060282
3.835000	-0.060611
3.836000	-0.060282
3.837000	-0.057980
3.838000	-0.056336
3.839000	-0.058309
3.840000	-0.058638
3.841000	-0.058309
3.842000	-0.059953
3.843000	-0.061597
3.844000	-0.058638
3.845000	-0.056336
3.846000	-0.056007
3.847000	-0.056994
3.848000	-0.056665
3.849000	-0.055678
3.850000	-0.056007
3.851000	-0.057322
3.852000	-0.055021
3.853000	-0.054034
3.854000	-0.053705
3.855000	-0.052390
3.856000	-0.052061
3.857000	-0.051075
3.858000	-0.049760
3.859000	-0.051075
3.860000	-0.052719
3.861000	-0.053705
3.862000	-0.054692
3.863000	-0.056007
3.864000	-0.055021
3.865000	-0.052390
3.866000	-0.046800
3.867000	-0.043512
3.868000	-0.043183
3.869000	-0.045485
3.870000	-0.047129
3.871000	-0.046143
3.872000	-0.046471
3.873000	-0.044827
3.874000	-0.041210
3.875000	-0.037922
3.876000	-0.036278
3.877000	-0.035949
3.878000	-0.034634
3.879000	-0.034963
3.880000	-0.035620
3.881000	-0.033976
3.882000	-0.031346
3.883000	-0.029373
3.884000	-0.028386
3.885000	-0.029044
3.886000	-0.029702
3.887000	-0.029044
3.888000	-0.029044
3.889000	-0.029044
3.890000	-0.029044
3.891000	-0.026085
3.892000	-0.023125
3.893000	-0.020495
3.894000	-0.018193
3.895000	-0.018851
3.896000	-0.020166
3.897000	-0.019837
3.898000	-0.018851
3.899000	-0.019180
3.900000	-0.020166
3.901000	-0.020824
3.902000	-0.020495
3.903000	-0.017207
3.904000	-0.013590
3.905000	-0.011288
3.906000	-0.011945
3.907000	-0.009644
3.908000	-0.007671
3.909000	-0.006684
3.910000	-0.005369
3.911000	-0.004711
3.912000	-0.005040
3.913000	-0.004711
3.914000	-0.004383
3.915000	-0.002739
3.916000	0.000550
3.917000	0.002851
3.918000	0.001536
3.919000	0.000550
3.920000	0.002523
3.921000	0.002194
3.922000	-0.000108
3.923000	0.000221
3.924000	-0.002410
3.925000	-0.003725
3.926000	-0.002739
3.927000	-0.003067
3.928000	-0.004711
3.929000	-0.006356
3.930000	-0.007671
3.931000	-0.007013
3.932000	-0.005040
3.933000	-0.005040
3.934000	-0.006027
3.935000	-0.007671
3.936000	-0.008986
3.937000	-0.010301
3.938000	-0.010630
3.939000	-0.011617
3.940000	-0.012274
3.941000	-0.014247
3.942000	-0.015891
3.943000	-0.016549
3.944000	-0.017535
3.945000	-0.018851
3.946000	-0.018851
3.947000	-0.020166
3.948000	-0.020495
3.949000	-0.022468
3.950000	-0.026085
3.951000	-0.028715
3.952000	-0.031675
3.953000	-0.033319
3.954000	-0.032661
3.955000	-0.033648
3.956000	-0.032661
3.957000	-0.031017
3.958000	-0.029044
3.959000	-0.029702
3.960000	-0.029702
3.961000	-0.030031
3.962000	-0.032332
3.963000	-0.033648
3.964000	-0.033648
3.965000	-0.032332
3.966000	-0.031346
3.967000	-0.031346
3.968000	-0.032332
3.969000	-0.032990
3.970000	-0.032332
3.971000	-0.030359
3.972000	-0.029373
3.973000	-0.029702
3.974000	-0.032990
3.975000	-0.034634
3.976000	-0.033319
3.977000	-0.031017
3.978000	-0.029044
3.979000	-0.027729
3.980000	-0.027400
3.981000	-0.025098
3.982000	-0.024112
3.983000	-0.025427
3.984000	-0.026742
3.985000	-0.025756
3.986000	-0.025098
3.987000	-0.025098
3.988000	-0.025098
3.989000	-0.025756
3.990000	-0.027400
3.991000	-0.029373
3.992000	-0.033319
3.993000	-0.033976
3.994000	-0.033976
3.995000	-0.032990
3.996000	-0.032990
3.997000	-0.033976
3.998000	-0.035949
3.999000	-0.035949
4.000000	-0.038251
4.001000	-0.038580
4.002000	-0.040553
4.003000	-0.041868
4.004000	-0.041210
4.005000	-0.044499
4.006000	-0.049760
4.007000	-0.054363
4.008000	-0.057980
4.009000	-0.059624
4.010000	-0.057651
4.011000	-0.057980
4.012000	-0.061268
4.013000	-0.063899
4.014000	-0.065872
4.015000	-0.066858
4.016000	-0.067516
4.017000	-0.069489
4.018000	-0.070475
4.019000	-0.067516
4.020000	-0.063899
4.021000	-0.059953
4.022000	-0.055350
4.023000	-0.051404
4.024000	-0.047458
4.025000	-0.040882
4.026000	-0.031346
4.027000	-0.018851
4.028000	-0.004711
4.029000	0.008441
4.030000	0.020936
4.031000	0.035404
4.032000	0.052174
4.033000	0.070917
4.034000	0.093934
4.035000	0.120568
4.036000	0.147531
4.037000	0.174166
4.038000	0.201129
4.039000	0.229407
4.040000	0.254398
4.041000	0.277744
4.042000	0.299774
4.043000	0.320490
4.044000	0.338904
4.045000	0.355016
4.046000	0.369155
4.047000	0.379677
4.048000	0.386254
4.049000	0.386911
4.050000	0.378362
4.051000	0.367511
4.052000	0.353372
4.053000	0.336273
4.054000	0.313914
4.055000	0.291883
4.056000	0.268866
4.057000	0.244533
4.058000	0.218885
4.059000	0.192580
4.060000	0.168576
4.061000	0.144901
4.062000	0.119253
4.063000	0.095249
4.064000	0.073547
4.065000	0.053489
4.066000	0.037377
4.067000	0.022909
4.068000	0.012716
4.069000	0.005482
4.070000	-0.000108
4.071000	-0.004711
4.072000	-0.008328
4.073000	-0.008657
4.074000	-0.009644
4.075000	-0.013590
4.076000	-0.014247
4.077000	-0.013590
4.078000	-0.014905
4.079000	-0.014247
4.080000	-0.011945
4.081000	-0.011617
4.082000	-0.011617
4.083000	-0.011288
4.084000	-0.010959
4.085000	-0.009644
4.086000	-0.006356
4.087000	-0.003725
4.088000	-0.005040
4.089000	-0.007671
4.090000	-0.009315
4.091000	-0.012932
4.092000	-0.014576
4.093000	-0.016220
4.094000	-0.014576
4.095000	-0.015562
4.096000	-0.016220
4.097000	-0.017207
4.098000	-0.018851
4.099000	-0.018851
4.100000	-0.017864
4.101000	-0.015562
4.102000	-0.014576
4.103000	-0.015891
4.104000	-0.016549
4.105000	-0.018522
4.106000	-0.020166
4.107000	-0.022797
4.108000	-0.022797
4.109000	-0.021481
4.110000	-0.020166
4.111000	-0.020495
4.112000	-0.019837
4.113000	-0.018522
4.114000	-0.017207
4.115000	-0.015562
4.116000	-0.013918
4.117000	-0.012603
4.118000	-0.010959
4.119000	-0.008657
4.120000	-0.007671
4.121000	-0.006356
4.122000	-0.004054
4.123000	-0.002739
4.124000	-0.002081
4.125000	-0.002081
4.126000	-0.002410
4.127000	-0.001094
4.128000	0.000221
4.129000	-0.000437
4.130000	-0.000437
4.131000	0.000221
4.132000	0.000550
4.133000	0.000550
4.134000	0.000550
4.135000	-0.000437
4.136000	-0.000437
4.137000	-0.000437
4.138000	0.000878
4.139000	0.002194
4.140000	0.002523
4.141000	0.002523
4.142000	0.004167
4.143000	0.005482
4.144000	0.006140
4.145000	0.006797
4.146000	0.007784
4.147000	0.009099
4.148000	0.009428
4.149000	0.010743
4.150000	0.012716
4.151000	0.015018
4.152000	0.016004
4.153000	0.016662
4.154000	0.017319
4.155000	0.017648
4.156000	0.016991
4.157000	0.017319
4.158000	0.017977
4.159000	0.018306
4.160000	0.019950
4.161000	0.022909
4.162000	0.022252
4.163000	0.018963
4.164000	0.018963
4.165000	0.019292
4.166000	0.020279
4.167000	0.020608
4.168000	0.022580
4.169000	0.027513
4.170000	0.031130
4.171000	0.032116
4.172000	0.032774
4.173000	0.035076
4.174000	0.034418
4.175000	0.032445
4.176000	0.032445
4.177000	0.033760
4.178000	0.034089
4.179000	0.032774
4.180000	0.032774
4.181000	0.034747
4.182000	0.036062
4.183000	0.034089
4.184000	0.032116
4.185000	0.028828
4.186000	0.028828
4.187000	0.032116
4.188000	0.036391
4.189000	0.040008
4.190000	0.040665
4.191000	0.041323
4.192000	0.041981
4.193000	0.045598
4.194000	0.050859
4.195000	0.054147
4.196000	0.055133
4.197000	0.055133
4.198000	0.055133
4.199000	0.055133
4.200000	0.055462
4.201000	0.055462
4.202000	0.055462
4.203000	0.055462
4.204000	0.056120
4.205000	0.059079
4.206000	0.061052
4.207000	0.063025
4.208000	0.066642
4.209000	0.068286
4.210000	0.067300
4.211000	0.066313
4.212000	0.065327
4.213000	0.066313
4.214000	0.067629
4.215000	0.071574
4.216000	0.077822
4.217000	0.081439
4.218000	0.079795
4.219000	0.078480
4.220000	0.078808
4.221000	0.079466
4.222000	0.081439
4.223000	0.082754
4.224000	0.082425
4.225000	0.083083
4.226000	0.087358
4.227000	0.090646
4.228000	0.094263
4.229000	0.094921
4.230000	0.095907
4.231000	0.096236
4.232000	0.097880
4.233000	0.100839
4.234000	0.101826
4.235000	0.102483
4.236000	0.101497
4.237000	0.099195
4.238000	0.097880
4.239000	0.098209
4.240000	0.099524
4.241000	0.100839
4.242000	0.102483
4.243000	0.103799
4.244000	0.106429
4.245000	0.107416
4.246000	0.107087
4.247000	0.107744
4.248000	0.110375
4.249000	0.112677
4.250000	0.114650
4.251000	0.115636
4.252000	0.117609
4.253000	0.116951
4.254000	0.114978
4.255000	0.115636
4.256000	0.116294
4.257000	0.118924
4.258000	0.122541
4.259000	0.124843
4.260000	0.125829
4.261000	0.124514
4.262000	0.123528
4.263000	0.123857
4.264000	0.126487
4.265000	0.128460
4.266000	0.127802
4.267000	0.126158
4.268000	0.125501
4.269000	0.125172
4.270000	0.126158
4.271000	0.126816
4.272000	0.125829
4.273000	0.123199
4.274000	0.120897
4.275000	0.118595
4.276000	0.114978
4.277000	0.112348
4.278000	0.108073
4.279000	0.105114
4.280000	0.105443
4.281000	0.105772
4.282000	0.104785
4.283000	0.105443
4.284000	0.102155
4.285000	0.100510
4.286000	0.100510
4.287000	0.101497
4.288000	0.101826
4.289000	0.101497
4.290000	0.100839
4.291000	0.098866
4.292000	0.092948
4.293000	0.085714
4.294000	0.082097
4.295000	0.081110
4.296000	0.081110
4.297000	0.078480
4.298000	0.074863
4.299000	0.068944
4.300000	0.064669
4.301000	0.061052
4.302000	0.055791
4.303000	0.052832
4.304000	0.052503
4.305000	0.052174
4.306000	0.049544
4.307000	0.049215
4.308000	0.048557
4.309000	0.049544
4.310000	0.049544
4.311000	0.047571
4.312000	0.045269
4.313000	0.043954
4.314000	0.041323
4.315000	0.038364
4.316000	0.035404
4.317000	0.033431
4.318000	0.032774
4.319000	0.032774
4.320000	0.033103
4.321000	0.031130
4.322000	0.030801
4.323000	0.028828
4.324000	0.026197
4.325000	0.025540
4.326000	0.025869
4.327000	0.024882
4.328000	0.023238
4.329000	0.018963
4.330000	0.015675
4.331000	0.015675
4.332000	0.017977
4.333000	0.018963
4.334000	0.020279
4.335000	0.019950
4.336000	0.018306
4.337000	0.013045
4.338000	0.008770
4.339000	0.007126
4.340000	0.005811
4.341000	0.006140
4.342000	0.007455
4.343000	0.008112
4.344000	0.008441
4.345000	0.007455
4.346000	0.005482
4.347000	0.005482
4.348000	0.006797
4.349000	0.007126
4.350000	0.008112
4.351000	0.009099
4.352000	0.008441
4.353000	0.007455
4.354000	0.008770
4.355000	0.008112
4.356000	0.005482
4.357000	0.002851
4.358000	0.002851
4.359000	0.003180
4.360000	0.003838
4.361000	0.003509
4.362000	0.001207
4.363000	-0.001423
4.364000	-0.002081
4.365000	-0.001752
4.366000	0.000221
4.367000	0.001536
4.368000	-0.000437
4.369000	-0.002739
4.370000	-0.005040
4.371000	-0.008328
4.372000	-0.011945
4.373000	-0.014905
4.374000	-0.009315
4.375000	-0.002081
4.376000	0.000878
4.377000	0.000221
4.378000	-0.004711
4.379000	-0.007671
4.380000	-0.007671
4.381000	-0.005040
4.382000	-0.000437
4.383000	0.000550
4.384000	-0.002410
4.385000	-0.006356
4.386000	-0.008000
4.387000	-0.006356
4.388000	-0.004054
4.389000	-0.003725
4.390000	-0.005040
4.391000	-0.005369
4.392000	-0.005040
4.393000	-0.003396
4.394000	-0.003396
4.395000	-0.004383
4.396000	-0.005698
4.397000	-0.006684
4.398000	-0.006684
4.399000	-0.007671
4.400000	-0.006684
4.401000	-0.005369
4.402000	-0.002739
4.403000	-0.002081
4.404000	-0.000437
4.405000	0.001865
4.406000	0.001207
4.407000	-0.000437
4.408000	-0.003067
4.409000	-0.003725
4.410000	-0.004383
4.411000	-0.004383
4.412000	-0.003725
4.413000	-0.004711
4.414000	-0.004711
4.415000	-0.003396
4.416000	-0.002410
4.417000	-0.002739
4.418000	-0.004054
4.419000	-0.004711
4.420000	-0.006356
4.421000	-0.007013
4.422000	-0.007342
4.423000	-0.007671
4.424000	-0.008328
4.425000	-0.008986
4.426000	-0.008657
4.427000	-0.006684
4.428000	-0.006684
4.429000	-0.008000
4.430000	-0.008657
4.431000	-0.008986
4.432000	-0.008328
4.433000	-0.007671
4.434000	-0.008000
4.435000	-0.007342
4.436000	-0.007013
4.437000	-0.006027
4.438000	-0.005369
4.439000	-0.008328
4.440000	-0.010630
4.441000	-0.010630
4.442000	-0.008986
4.443000	-0.006027
4.444000	-0.004711
4.445000	-0.004383
4.446000	-0.002410
4.447000	-0.001752
4.448000	0.001207
4.449000	0.005153
4.450000	0.006468
4.451000	0.005153
4.452000	0.002523
4.453000	-0.001094
4.454000	0.000550
4.455000	0.001536
4.456000	0.001536
4.457000	0.001207
4.458000	0.001865
4.459000	0.002194
4.460000	-0.000437
4.461000	-0.003725
4.462000	-0.007342
4.463000	-0.008657
4.464000	-0.011288
4.465000	-0.012932
4.466000	-0.012932
4.467000	-0.012932
4.468000	-0.013261
4.469000	-0.014905
4.470000	-0.016549
4.471000	-0.019508
4.472000	-0.021810
4.473000	-0.024441
4.474000	-0.018193
4.475000	-0.013590
4.476000	-0.011945
4.477000	-0.010959
4.478000	-0.014576
4.479000	-0.015234
4.480000	-0.013261
4.481000	-0.012603
4.482000	-0.011945
4.483000	-0.009644
4.484000	-0.008657
4.485000	-0.006027
4.486000	-0.004383
4.487000	-0.003725
4.488000	-0.004054
4.489000	-0.004054
4.490000	-0.004383
4.491000	-0.004383
4.492000	-0.004054
4.493000	-0.004054
4.494000	-0.004711
4.495000	-0.004711
4.496000	-0.005369
4.497000	-0.008000
4.498000	-0.011617
4.499000	-0.013918
4.500000	-0.014905
4.501000	-0.014576
4.502000	-0.013261
4.503000	-0.013261
4.504000	-0.014576
4.505000	-0.015562
4.506000	-0.014576
4.507000	-0.014247
4.508000	-0.012274
4.509000	-0.011617
4.510000	-0.011617
4.511000	-0.012274
4.512000	-0.011617
4.513000	-0.011617
4.514000	-0.011945
4.515000	-0.009315
4.516000	-0.008000
4.517000	-0.007342
4.518000	-0.007671
4.519000	-0.008657
4.520000	-0.009644
4.521000	-0.010630
4.522000	-0.009973
4.523000	-0.007013
4.524000	-0.006027
4.525000	-0.005040
4.526000	-0.005040
4.527000	-0.006684
4.528000	-0.008000
4.529000	-0.008986
4.530000	-0.009644
4.531000	-0.008657
4.532000	-0.008328
4.533000	-0.006684
4.534000	-0.005369
4.535000	-0.005040
4.536000	-0.004054
4.537000	-0.003067
4.538000	-0.001752
4.539000	-0.002410
4.540000	-0.003067
4.541000	-0.003725
4.542000	-0.002739
4.543000	-0.001423
4.544000	-0.000437
4.545000	0.000550
4.546000	0.001207
4.547000	0.002523
4.548000	0.005482
4.549000	0.007784
4.550000	0.009099
4.551000	0.009757
4.552000	0.012387
4.553000	0.012716
4.554000	0.011729
4.555000	0.011401
4.556000	0.013045
4.557000	0.012716
4.558000	0.012387
4.559000	0.011729
4.560000	0.012058
4.561000	0.011072
4.562000	0.013045
4.563000	0.018306
4.564000	0.026197
4.565000	0.030801
4.566000	0.028499
4.567000	0.024225
4.568000	0.021594
4.569000	0.021923
4.570000	0.023896
4.571000	0.025540
4.572000	0.028499
4.573000	0.032116
4.574000	0.031787
4.575000	0.031787
4.576000	0.032774
4.577000	0.031130
4.578000	0.031787
4.579000	0.031130
4.580000	0.027842
4.581000	0.024225
4.582000	0.021594
4.583000	0.020279
4.584000	0.021265
4.585000	0.021923
4.586000	0.019950
4.587000	0.017319
4.588000	0.015675
4.589000	0.012387
4.590000	0.009428
4.591000	0.008112
4.592000	0.007784
4.593000	0.007455
4.594000	0.008441
4.595000	0.008112
4.596000	0.005153
4.597000	0.002523
4.598000	0.000878
4.599000	0.000550
4.600000	0.000221
4.601000	-0.000766
4.602000	-0.001094
4.603000	-0.002081
4.604000	-0.001423
4.605000	0.000550
4.606000	0.000550
4.607000	-0.000108
4.608000	-0.001752
4.609000	-0.003067
4.610000	-0.002739
4.611000	-0.004711
4.612000	-0.005698
4.613000	-0.004711
4.614000	-0.003396
4.615000	-0.002739
4.616000	-0.004054
4.617000	-0.007342
4.618000	-0.010630
4.619000	-0.012274
4.620000	-0.012603
4.621000	-0.012274
4.622000	-0.012274
4.623000	-0.011617
4.624000	-0.012932
4.625000	-0.013590
4.626000	-0.013590
4.627000	-0.010301
4.628000	-0.009644
4.629000	-0.008986
4.630000	-0.009644
4.631000	-0.010959
4.632000	-0.011945
4.633000	-0.009973
4.634000	-0.008657
4.635000	-0.006356
4.636000	-0.005369
4.637000	-0.004383
4.638000	-0.004383
4.639000	-0.006684
4.640000	-0.009644
4.641000	-0.012603
4.642000	-0.010959
4.643000	-0.009973
4.644000	-0.007013
4.645000	-0.006356
4.646000	-0.006027
4.647000	-0.005698
4.648000	-0.009315
4.649000	-0.014905
4.650000	-0.018851
4.651000	-0.018522
4.652000	-0.017535
4.653000	-0.014247
4.654000	-0.012603
4.655000	-0.011945
4.656000	-0.013590
4.657000	-0.016549
4.658000	-0.019508
4.659000	-0.020824
4.660000	-0.021810
4.661000	-0.024112
4.662000	-0.027729
4.663000	-0.031346
4.664000	-0.035949
4.665000	-0.037265
4.666000	-0.036278
4.667000	-0.035620
4.668000	-0.035949
4.669000	-0.034634
4.670000	-0.035949
4.671000	-0.037922
4.672000	-0.040224
4.673000	-0.041539
4.674000	-0.039895
4.675000	-0.037593
4.676000	-0.034305
4.677000	-0.030688
4.678000	-0.025427
4.679000	-0.018193
4.680000	-0.005369
4.681000	0.008441
4.682000	0.020608
4.683000	0.033760
4.684000	0.049544
4.685000	0.065656
4.686000	0.083741
4.687000	0.102812
4.688000	0.121226
4.689000	0.140626
4.690000	0.161342
4.691000	0.185017
4.692000	0.211651
4.693000	0.237299
4.694000	0.259987
4.695000	0.278401
4.696000	0.295829
4.697000	0.312598
4.698000	0.328711
4.699000	0.343507
4.700000	0.355016
4.701000	0.362579
4.702000	0.365538
4.703000	0.361264
4.704000	0.353701
4.705000	0.345151
4.706000	0.333972
4.707000	0.319175
4.708000	0.300103
4.709000	0.278730
4.710000	0.255055
4.711000	0.231709
4.712000	0.207705
4.713000	0.183044
4.714000	0.159369
4.715000	0.137009
4.716000	0.115307
4.717000	0.095249
4.718000	0.076507
4.719000	0.059408
4.720000	0.046255
4.721000	0.035404
4.722000	0.025869
4.723000	0.018635
4.724000	0.014031
4.725000	0.009757
4.726000	0.005153
4.727000	0.001865
4.728000	-0.001094
4.729000	-0.003067
4.730000	-0.004383
4.731000	-0.005040
4.732000	-0.006356
4.733000	-0.007671
4.734000	-0.009644
4.735000	-0.008000
4.736000	-0.004383
4.737000	-0.002081
4.738000	-0.000766
4.739000	0.000550
4.740000	0.002194
4.741000	0.002851
4.742000	0.001865
4.743000	0.003509
4.744000	0.006468
4.745000	0.007455
4.746000	0.005811
4.747000	0.004495
4.748000	0.002851
4.749000	0.002194
4.750000	0.003838
4.751000	0.003838
4.752000	0.003838
4.753000	0.003509
4.754000	0.004824
4.755000	0.006140
4.756000	0.007455
4.757000	0.007126
4.758000	0.004824
4.759000	0.003838
4.760000	0.003509
4.761000	0.003509
4.762000	0.004167
4.763000	0.005153
4.764000	0.007126
4.765000	0.009099
4.766000	0.009428
4.767000	0.007784
4.768000	0.004824
4.769000	0.004167
4.770000	0.002851
4.771000	0.002523
4.772000	0.003180
4.773000	0.004824
4.774000	0.008770
4.775000	0.008112
4.776000	0.003838
4.777000	0.003509
4.778000	0.006797
4.779000	0.008770
4.780000	0.010743
4.781000	0.013374
4.782000	0.013374
4.783000	0.013374
4.784000	0.013045
4.785000	0.013374
4.786000	0.013702
4.787000	0.015018
4.788000	0.016662
4.789000	0.016333
4.790000	0.017319
4.791000	0.016991
4.792000	0.017319
4.793000	0.016004
4.794000	0.016662
4.795000	0.019621
4.796000	0.022580
4.797000	0.024225
4.798000	0.023896
4.799000	0.024225
4.800000	0.024882
4.801000	0.024553
4.802000	0.025869
4.803000	0.027513
4.804000	0.031130
4.805000	0.033103
4.806000	0.032445
4.807000	0.032445
4.808000	0.032116
4.809000	0.031787
4.810000	0.033760
4.811000	0.034089
4.812000	0.034747
4.813000	0.034747
4.814000	0.034418
4.815000	0.034089
4.816000	0.033431
4.817000	0.034747
4.818000	0.035404
4.819000	0.036391
4.820000	0.034747
4.821000	0.032774
4.822000	0.033760
4.823000	0.036391
4.824000	0.037377
4.825000	0.039350
4.826000	0.039021
4.827000	0.039350
4.828000	0.037377
4.829000	0.036720
4.830000	0.037706
4.831000	0.040665
4.832000	0.042638
4.833000	0.040994
4.834000	0.039679
4.835000	0.039350
4.836000	0.041652
4.837000	0.045598
4.838000	0.048886
4.839000	0.048886
4.840000	0.047242
4.841000	0.046255
4.842000	0.046913
4.843000	0.047899
4.844000	0.047242
4.845000	0.046584
4.846000	0.047242
4.847000	0.046913
4.848000	0.047242
4.849000	0.053818
4.850000	0.057764
4.851000	0.057435
4.852000	0.056778
4.853000	0.057106
4.854000	0.060066
4.855000	0.063025
4.856000	0.064012
4.857000	0.066971
4.858000	0.070259
4.859000	0.073876
4.860000	0.076836
4.861000	0.078480
4.862000	0.081768
4.863000	0.085056
4.864000	0.087358
4.865000	0.087358
4.866000	0.086042
4.867000	0.083083
4.868000	0.081439
4.869000	0.084727
4.870000	0.087687
4.871000	0.090646
4.872000	0.091632
4.873000	0.093605
4.874000	0.093934
4.875000	0.093605
4.876000	0.093276
4.877000	0.094263
4.878000	0.094263
4.879000	0.094263
4.880000	0.097880
4.881000	0.101168
4.882000	0.103141
4.883000	0.105443
4.884000	0.106758
4.885000	0.105772
4.886000	0.104127
4.887000	0.104785
4.888000	0.106758
4.889000	0.107744
4.890000	0.106100
4.891000	0.105114
4.892000	0.105772
4.893000	0.109060
4.894000	0.112019
4.895000	0.115965
4.896000	0.118595
4.897000	0.119582
4.898000	0.120568
4.899000	0.122541
4.900000	0.124514
4.901000	0.125829
4.902000	0.126158
4.903000	0.126487
4.904000	0.124514
4.905000	0.124843
4.906000	0.125172
4.907000	0.126487
4.908000	0.125829
4.909000	0.123857
4.910000	0.123199
4.911000	0.122212
4.912000	0.122541
4.913000	0.122212
4.914000	0.120568
4.915000	0.119253
4.916000	0.116623
4.917000	0.115636
4.918000	0.113663
4.919000	0.112677
4.920000	0.112348
4.921000	0.114650
4.922000	0.117280
4.923000	0.118267
4.924000	0.119911
4.925000	0.119253
4.926000	0.118595
4.927000	0.117938
4.928000	0.117280
4.929000	0.116294
4.930000	0.113992
4.931000	0.111690
4.932000	0.110046
4.933000	0.110704
4.934000	0.110375
4.935000	0.108402
4.936000	0.107744
4.937000	0.106758
4.938000	0.105114
4.939000	0.101497
4.940000	0.097222
4.941000	0.091304
4.942000	0.085385
4.943000	0.080453
4.944000	0.076836
4.945000	0.074534
4.946000	0.072890
4.947000	0.071246
4.948000	0.067957
4.949000	0.063354
4.950000	0.057764
4.951000	0.054805
4.952000	0.053161
4.953000	0.051845
4.954000	0.049872
4.955000	0.046913
4.956000	0.043954
4.957000	0.042310
4.958000	0.039350
4.959000	0.036720
4.960000	0.036391
4.961000	0.036720
4.962000	0.037048
4.963000	0.035404
4.964000	0.032774
4.965000	0.031787
4.966000	0.031130
4.967000	0.030143
4.968000	0.029486
4.969000	0.031787
4.970000	0.031459
4.971000	0.029814
4.972000	0.028170
4.973000	0.027513
4.974000	0.024553
4.975000	0.020936
4.976000	0.019950
4.977000	0.020936
4.978000	0.020608
4.979000	0.018963
4.980000	0.018306
4.981000	0.016662
4.982000	0.014360
4.983000	0.013045
4.984000	0.009099
4.985000	0.008112
4.986000	0.007784
4.987000	0.007126
4.988000	0.006797
4.989000	0.005482
4.990000	0.004167
4.991000	0.002194
4.992000	0.001865
4.993000	0.001536
4.994000	0.004495
4.995000	0.006468
4.996000	0.006468
4.997000	0.003509
4.998000	-0.000437
4.999000	-0.004383
5.000000	-0.008657
5.001000	-0.008328
5.002000	-0.005040
5.003000	-0.004711
5.004000	-0.005698
5.005000	-0.005040
5.006000	-0.003396
5.007000	-0.003396
5.008000	-0.006684
5.009000	-0.008000
5.010000	-0.007013
5.011000	-0.006356
5.012000	-0.005698
5.013000	-0.007013
5.014000	-0.006356
5.015000	-0.005040
5.016000	-0.002410
5.017000	-0.000437
5.018000	0.000878
5.019000	0.001536
5.020000	0.003509
5.021000	0.003509
5.022000	0.004824
5.023000	0.004824
5.024000	0.005153
5.025000	0.004167
5.026000	0.003509
5.027000	0.000550
5.028000	-0.001752
5.029000	-0.002739
5.030000	-0.004711
5.031000	-0.004054
5.032000	-0.004383
5.033000	-0.006027
5.034000	-0.006684
5.035000	-0.007671
5.036000	-0.007342
5.037000	-0.007671
5.038000	-0.007013
5.039000	-0.008000
5.040000	-0.009315
5.041000	-0.010959
5.042000	-0.011617
5.043000	-0.010959
5.044000	-0.011288
5.045000	-0.010630
5.046000	-0.009973
5.047000	-0.007342
5.048000	-0.003725
5.049000	-0.003725
5.050000	-0.006684
5.051000	-0.008328
5.052000	-0.008000
5.053000	-0.006027
5.054000	-0.004054
5.055000	-0.003725
5.056000	-0.006027
5.057000	-0.006356
5.058000	-0.003725
5.059000	-0.002739
5.060000	-0.001423
5.061000	-0.002410
5.062000	-0.004383
5.063000	-0.004383
5.064000	-0.004711
5.065000	-0.008000
5.066000	-0.007671
5.067000	-0.005040
5.068000	-0.001752
5.069000	-0.001423
5.070000	-0.000766
5.071000	-0.001423
5.072000	-0.004711
5.073000	-0.008328
5.074000	-0.007342
5.075000	-0.005698
5.076000	-0.005369
5.077000	-0.005698
5.078000	-0.005698
5.079000	-0.004054
5.080000	-0.000437
5.081000	-0.000108
5.082000	-0.001094
5.083000	-0.001752
5.084000	-0.005040
5.085000	-0.007342
5.086000	-0.008328
5.087000	-0.007671
5.088000	-0.005698
5.089000	-0.005040
5.090000	-0.005040
5.091000	-0.004711
5.092000	-0.004383
5.093000	-0.002410
5.094000	-0.001094
5.095000	0.000221
5.096000	-0.000437
5.097000	-0.000437
5.098000	-0.000766
5.099000	0.000550
5.100000	0.000221
5.101000	-0.002410
5.102000	-0.004711
5.103000	-0.003725
5.104000	-0.001752
5.105000	0.000221
5.106000	0.001536
5.107000	0.001207
5.108000	-0.001094
5.109000	-0.002081
5.110000	-0.002081
5.111000	-0.003396
5.112000	-0.003396
5.113000	-0.003725
5.114000	-0.006027
5.115000	-0.007671
5.116000	-0.007342
5.117000	-0.007342
5.118000	-0.008328
5.119000	-0.008986
5.120000	-0.008328
5.121000	-0.008986
5.122000	-0.010959
5.123000	-0.011945
5.124000	-0.013918
5.125000	-0.014247
5.126000	-0.013261
5.127000	-0.014576
5.128000	-0.015891
5.129000	-0.013261
5.130000	-0.008657
5.131000	-0.007013
5.132000	-0.006027
5.133000	-0.005369
5.134000	-0.005369
5.135000	-0.004383
5.136000	-0.005369
5.137000	-0.007671
5.138000	-0.010630
5.139000	-0.012274
5.140000	-0.013261
5.141000	-0.011945
5.142000	-0.008328
5.143000	-0.006027
5.144000	-0.007342
5.145000	-0.009973
5.146000	-0.013261
5.147000	-0.016220
5.148000	-0.014905
5.149000	-0.012932
5.150000	-0.009644
5.151000	-0.008986
5.152000	-0.009644
5.153000	-0.010301
5.154000	-0.009315
5.155000	-0.008328
5.156000	-0.006356
5.157000	-0.004383
5.158000	-0.004054
5.159000	-0.005369
5.160000	-0.006356
5.161000	-0.006356
5.162000	-0.007671
5.163000	-0.009315
5.164000	-0.010959
5.165000	-0.011288
5.166000	-0.011945
5.167000	-0.011945
5.168000	-0.013261
5.169000	-0.015891
5.170000	-0.018851
5.171000	-0.018193
5.172000	-0.012603
5.173000	-0.008986
5.174000	-0.008986
5.175000	-0.008986
5.176000	-0.011617
5.177000	-0.013918
5.178000	-0.014247
5.179000	-0.016549
5.180000	-0.014905
5.181000	-0.011945
5.182000	-0.010630
5.183000	-0.008657
5.184000	-0.007671
5.185000	-0.007342
5.186000	-0.004383
5.187000	-0.004054
5.188000	-0.003067
5.189000	-0.003067
5.190000	-0.003067
5.191000	-0.003725
5.192000	-0.002410
5.193000	-0.000108
5.194000	0.000878
5.195000	0.001536
5.196000	0.001536
5.197000	0.003838
5.198000	0.005153
5.199000	0.005811
5.200000	0.006797
5.201000	0.007784
5.202000	0.008112
5.203000	0.008441
5.204000	0.008441
5.205000	0.009099
5.206000	0.009428
5.207000	0.010414
5.208000	0.012058
5.209000	0.012387
5.210000	0.013045
5.211000	0.014689
5.212000	0.015346
5.213000	0.015346
5.214000	0.016991
5.215000	0.018635
5.216000	0.019292
5.217000	0.019292
5.218000	0.019621
5.219000	0.022909
5.220000	0.026526
5.221000	0.026526
5.222000	0.024553
5.223000	0.026197
5.224000	0.028499
5.225000	0.031130
5.226000	0.030801
5.227000	0.032445
5.228000	0.033431
5.229000	0.031787
5.230000	0.028499
5.231000	0.026855
5.232000	0.026855
5.233000	0.027513
5.234000	0.026197
5.235000	0.023238
5.236000	0.023238
5.237000	0.024225
5.238000	0.026526
5.239000	0.026197
5.240000	0.024553
5.241000	0.023238
5.242000	0.021594
5.243000	0.019621
5.244000	0.016004
5.245000	0.011401
5.246000	0.009757
5.247000	0.009099
5.248000	0.008441
5.249000	0.006468
5.250000	0.004167
5.251000	0.001207
5.252000	0.000221
5.253000	-0.000108
5.254000	0.000550
5.255000	-0.000437
5.256000	-0.002410
5.257000	-0.005040
5.258000	-0.006356
5.259000	-0.008657
5.260000	-0.008328
5.261000	-0.006684
5.262000	-0.004383
5.263000	-0.003396
5.264000	-0.002410
5.265000	-0.000437
5.266000	-0.000437
5.267000	-0.001752
5.268000	-0.003396
5.269000	-0.004711
5.270000	-0.005698
5.271000	-0.004383
5.272000	-0.003396
5.273000	-0.004054
5.274000	-0.006684
5.275000	-0.005369
5.276000	-0.005369
5.277000	-0.008986
5.278000	-0.010301
5.279000	-0.009315
5.280000	-0.007013
5.281000	-0.007013
5.282000	-0.009315
5.283000	-0.009644
5.284000	-0.010630
5.285000	-0.012603
5.286000	-0.013918
5.287000	-0.015562
5.288000	-0.013918
5.289000	-0.011288
5.290000	-0.010959
5.291000	-0.010301
5.292000	-0.009315
5.293000	-0.007671
5.294000	-0.008986
5.295000	-0.009315
5.296000	-0.009644
5.297000	-0.009973
5.298000	-0.010959
5.299000	-0.009973
5.300000	-0.007671
5.301000	-0.005369
5.302000	-0.006027
5.303000	-0.007013
5.304000	-0.007671
5.305000	-0.010301
5.306000	-0.013918
5.307000	-0.015562
5.308000	-0.015234
5.309000	-0.012603
5.310000	-0.012603
5.311000	-0.013918
5.312000	-0.015234
5.313000	-0.017207
5.314000	-0.018193
5.315000	-0.021481
5.316000	-0.025427
5.317000	-0.032003
5.318000	-0.037593
5.319000	-0.040224
5.320000	-0.041539
5.321000	-0.042526
5.322000	-0.041868
5.323000	-0.042197
5.324000	-0.044170
5.325000	-0.045156
5.326000	-0.043841
5.327000	-0.042854
5.328000	-0.044499
5.329000	-0.043183
5.330000	-0.040882
5.331000	-0.036607
5.332000	-0.030688
5.333000	-0.021152
5.334000	-0.012274
5.335000	-0.002410
5.336000	0.008112
5.337000	0.016333
5.338000	0.022909
5.339000	0.032774
5.340000	0.044282
5.341000	0.062367
5.342000	0.082425
5.343000	0.104127
5.344000	0.128131
5.345000	0.150820
5.346000	0.173837
5.347000	0.199156
5.348000	0.224146
5.349000	0.246177
5.350000	0.265906
5.351000	0.287937
5.352000	0.310297
5.353000	0.329368
5.354000	0.346467
5.355000	0.359948
5.356000	0.370799
5.357000	0.378691
5.358000	0.380006
5.359000	0.374087
5.360000	0.362908
5.361000	0.351070
5.362000	0.337917
5.363000	0.320161
5.364000	0.298130
5.365000	0.276100
5.366000	0.252425
5.367000	0.227106
5.368000	0.203759
5.369000	0.182386
5.370000	0.160027
5.371000	0.138653
5.372000	0.115965
5.373000	0.095249
5.374000	0.078151
5.375000	0.062367
5.376000	0.048557
5.377000	0.035404
5.378000	0.025211
5.379000	0.017319
5.380000	0.011401
5.381000	0.005811
5.382000	0.001865
5.383000	0.001207
5.384000	-0.001423
5.385000	-0.003067
5.386000	-0.002081
5.387000	-0.000108
5.388000	0.001207
5.389000	-0.001752
5.390000	-0.003396
5.391000	-0.003725
5.392000	-0.002081
5.393000	-0.002081
5.394000	0.000878
5.395000	0.002851
5.396000	0.003838
5.397000	0.002523
5.398000	0.002523
5.399000	0.002523
5.400000	0.003180
5.401000	0.003838
5.402000	0.006140
5.403000	0.006468
5.404000	0.004824
5.405000	0.004824
5.406000	0.005482
5.407000	0.004824
5.408000	0.003180
5.409000	0.002523
5.410000	0.003180
5.411000	0.004824
5.412000	0.006140
5.413000	0.004824
5.414000	0.003509
5.415000	0.005482
5.416000	0.005482
5.417000	0.004824
5.418000	0.005153
5.419000	0.004824
5.420000	0.005153
5.421000	0.003838
5.422000	0.003838
5.423000	0.002851
5.424000	0.002194
5.425000	0.003509
5.426000	0.006468
5.427000	0.009099
5.428000	0.008441
5.429000	0.009099
5.430000	0.007126
5.431000	0.006797
5.432000	0.004824
5.433000	0.006468
5.434000	0.007784
5.435000	0.010085
5.436000	0.010743
5.437000	0.010085
5.438000	0.010743
5.439000	0.012387
5.440000	0.014360
5.441000	0.013702
5.442000	0.012387
5.443000	0.012387
5.444000	0.011729
5.445000	0.013045
5.446000	0.015346
5.447000	0.018306
5.448000	0.019950
5.449000	0.019950
5.450000	0.019950
5.451000	0.018963
5.452000	0.017977
5.453000	0.018306
5.454000	0.019950
5.455000	0.019621
5.456000	0.019950
5.457000	0.020608
5.458000	0.021923
5.459000	0.022909
5.460000	0.024882
5.461000	0.025540
5.462000	0.025211
5.463000	0.022909
5.464000	0.021923
5.465000	0.021594
5.466000	0.022252
5.467000	0.023238
5.468000	0.023238
5.469000	0.024553
5.470000	0.023896
5.471000	0.022909
5.472000	0.024225
5.473000	0.024882
5.474000	0.024882
5.475000	0.024882
5.476000	0.025540
5.477000	0.029486
5.478000	0.031130
5.479000	0.030143
5.480000	0.030143
5.481000	0.032774
5.482000	0.036062
5.483000	0.039021
5.484000	0.038035
5.485000	0.037377
5.486000	0.037706
5.487000	0.039350
5.488000	0.040337
5.489000	0.043625
5.490000	0.045269
5.491000	0.046255
5.492000	0.050201
5.493000	0.053489
5.494000	0.053489
5.495000	0.050530
5.496000	0.048228
5.497000	0.048886
5.498000	0.050859
5.499000	0.052174
5.500000	0.053818
5.501000	0.054147
5.502000	0.054805
5.503000	0.055791
5.504000	0.056778
5.505000	0.056778
5.506000	0.057764
5.507000	0.058750
5.508000	0.060723
5.509000	0.063025
5.510000	0.064669
5.511000	0.065327
5.512000	0.065327
5.513000	0.064669
5.514000	0.064012
5.515000	0.066971
5.516000	0.073218
5.517000	0.075849
5.518000	0.076178
5.519000	0.076507
5.520000	0.077164
5.521000	0.077164
5.522000	0.077493
5.523000	0.080124
5.524000	0.082754
5.525000	0.086371
5.526000	0.088344
5.527000	0.089988
5.528000	0.091632
5.529000	0.091961
5.530000	0.092948
5.531000	0.095578
5.532000	0.098538
5.533000	0.098209
5.534000	0.097222
5.535000	0.095907
5.536000	0.092619
5.537000	0.091304
5.538000	0.090646
5.539000	0.092619
5.540000	0.098209
5.541000	0.102483
5.542000	0.103141
5.543000	0.103141
5.544000	0.105114
5.545000	0.107744
5.546000	0.110046
5.547000	0.110046
5.548000	0.108402
5.549000	0.109060
5.550000	0.112019
5.551000	0.115636
5.552000	0.119253
5.553000	0.122870
5.554000	0.124185
5.555000	0.124185
5.556000	0.121555
5.557000	0.120897
5.558000	0.121884
5.559000	0.123857
5.560000	0.124185
5.561000	0.122870
5.562000	0.119911
5.563000	0.118924
5.564000	0.119911
5.565000	0.120897
5.566000	0.121884
5.567000	0.123528
5.568000	0.124185
5.569000	0.123857
5.570000	0.123857
5.571000	0.121884
5.572000	0.121555
5.573000	0.122870
5.574000	0.123199
5.575000	0.123199
5.576000	0.122541
5.577000	0.122541
5.578000	0.124185
5.579000	0.124185
5.580000	0.123857
5.581000	0.122541
5.582000	0.122541
5.583000	0.122541
5.584000	0.120568
5.585000	0.115965
5.586000	0.111361
5.587000	0.109389
5.588000	0.108073
5.589000	0.107416
5.590000	0.103799
5.591000	0.101497
5.592000	0.099853
5.593000	0.098538
5.594000	0.097551
5.595000	0.094263
5.596000	0.089659
5.597000	0.087687
5.598000	0.087029
5.599000	0.087029
5.600000	0.085714
5.601000	0.082754
5.602000	0.080453
5.603000	0.079795
5.604000	0.078480
5.605000	0.077164
5.606000	0.073547
5.607000	0.070917
5.608000	0.068944
5.609000	0.065984
5.610000	0.063354
5.611000	0.058750
5.612000	0.052503
5.613000	0.048557
5.614000	0.046913
5.615000	0.046255
5.616000	0.046255
5.617000	0.042967
5.618000	0.037377
5.619000	0.033760
5.620000	0.031459
5.621000	0.029486
5.622000	0.028170
5.623000	0.025869
5.624000	0.024553
5.625000	0.024553
5.626000	0.024225
5.627000	0.020279
5.628000	0.016004
5.629000	0.015018
5.630000	0.014689
5.631000	0.014031
5.632000	0.011729
5.633000	0.012716
5.634000	0.011729
5.635000	0.009428
5.636000	0.010414
5.637000	0.011072
5.638000	0.010085
5.639000	0.009757
5.640000	0.007784
5.641000	0.005153
5.642000	0.004167
5.643000	0.005482
5.644000	0.005482
5.645000	0.003838
5.646000	0.004495
5.647000	0.004824
5.648000	0.004495
5.649000	0.003509
5.650000	0.002523
5.651000	0.003509
5.652000	0.002851
5.653000	0.000550
5.654000	-0.002410
5.655000	-0.004054
5.656000	-0.005369
5.657000	-0.005698
5.658000	-0.005040
5.659000	-0.006684
5.660000	-0.007342
5.661000	-0.008328
5.662000	-0.007342
5.663000	-0.007013
5.664000	-0.008986
5.665000	-0.009973
5.666000	-0.009973
5.667000	-0.009973
5.668000	-0.008328
5.669000	-0.007013
5.670000	-0.007013
5.671000	-0.006684
5.672000	-0.005040
5.673000	-0.002081
5.674000	-0.000766
5.675000	-0.001423
5.676000	-0.003396
5.677000	-0.005040
5.678000	-0.004383
5.679000	-0.004711
5.680000	-0.006027
5.681000	-0.006356
5.682000	-0.006027
5.683000	-0.006027
5.684000	-0.007013
5.685000	-0.008986
5.686000	-0.007342
5.687000	-0.006684
5.688000	-0.006027
5.689000	-0.007342
5.690000	-0.009973
5.691000	-0.010301
5.692000	-0.007342
5.693000	-0.005040
5.694000	-0.003725
5.695000	-0.003067
5.696000	-0.003396
5.697000	-0.004383
5.698000	-0.004711
5.699000	-0.002081
5.700000	-0.001752
5.701000	-0.003067
5.702000	-0.003396
5.703000	-0.001094
5.704000	0.000221
5.705000	-0.001752
5.706000	-0.003067
5.707000	-0.002410
5.708000	-0.003725
5.709000	-0.004711
5.710000	-0.004711
5.711000	-0.004383
5.712000	-0.005369
5.713000	-0.003396
5.714000	-0.000766
5.715000	-0.001094
5.716000	-0.000766
5.717000	0.000550
5.718000	-0.001423
5.719000	-0.002410
5.720000	-0.003725
5.721000	-0.001094
5.722000	0.000550
5.723000	-0.000108
5.724000	-0.001094
5.725000	-0.002410
5.726000	-0.005369
5.727000	-0.004383
5.728000	-0.002410
5.729000	-0.001423
5.730000	-0.000437
5.731000	-0.001094
5.732000	-0.001752
5.733000	-0.003725
5.734000	-0.005040
5.735000	-0.006027
5.736000	-0.004711
5.737000	-0.003067
5.738000	-0.002410
5.739000	-0.004054
5.740000	-0.004383
5.741000	-0.003396
5.742000	-0.002739
5.743000	-0.001094
5.744000	-0.000437
5.745000	-0.001094
5.746000	-0.001094
5.747000	-0.002739
5.748000	-0.004383
5.749000	-0.008328
5.750000	-0.007671
5.751000	-0.004711
5.752000	-0.001752
5.753000	-0.000108
5.754000	0.000550
5.755000	-0.001423
5.756000	-0.002739
5.757000	-0.004383
5.758000	-0.006356
5.759000	-0.007013
5.760000	-0.006027
5.761000	-0.003067
5.762000	-0.000766
5.763000	-0.000766
5.764000	-0.001752
5.765000	-0.002081
5.766000	-0.003396
5.767000	-0.003725
5.768000	-0.002410
5.769000	-0.001094
5.770000	-0.000108
5.771000	0.000550
5.772000	0.000878
5.773000	-0.000437
5.774000	-0.001423
5.775000	-0.003067
5.776000	-0.003067
5.777000	-0.003396
5.778000	-0.004054
5.779000	-0.004054
5.780000	-0.004054
5.781000	-0.002739
5.782000	-0.003725
5.783000	-0.003396
5.784000	-0.003725
5.785000	-0.005040
5.786000	-0.004054
5.787000	-0.002410
5.788000	-0.002739
5.789000	-0.002739
5.790000	-0.002081
5.791000	-0.001094
5.792000	-0.002081
5.793000	-0.001752
5.794000	-0.003067
5.795000	-0.002081
5.796000	-0.002410
5.797000	-0.004383
5.798000	-0.005369
5.799000	-0.006027
5.800000	-0.004711
5.801000	-0.004711
5.802000	-0.004054
5.803000	-0.006684
5.804000	-0.007671
5.805000	-0.009315
5.806000	-0.008657
5.807000	-0.007013
5.808000	-0.007013
5.809000	-0.007013
5.810000	-0.008657
5.811000	-0.010301
5.812000	-0.008986
5.813000	-0.007342
5.814000	-0.005698
5.815000	-0.003725
5.816000	-0.003396
5.817000	-0.004054
5.818000	-0.005040
5.819000	-0.007013
5.820000	-0.008328
5.821000	-0.007671
5.822000	-0.008000
5.823000	-0.009973
5.824000	-0.012603
5.825000	-0.012603
5.826000	-0.010630
5.827000	-0.010301
5.828000	-0.011288
5.829000	-0.010630
5.830000	-0.010301
5.831000	-0.013918
5.832000	-0.016878
5.833000	-0.015234
5.834000	-0.010301
5.835000	-0.007342
5.836000	-0.007671
5.837000	-0.009315
5.838000	-0.009973
5.839000	-0.008986
5.840000	-0.006684
5.841000	-0.004383
5.842000	-0.000766
5.843000	0.001536
5.844000	0.002523
5.845000	0.002523
5.846000	0.002851
5.847000	0.000221
5.848000	-0.002739
5.849000	-0.005369
5.850000	-0.007671
5.851000	-0.007342
5.852000	-0.005698
5.853000	-0.002739
5.854000	-0.001752
5.855000	-0.002739
5.856000	-0.004383
5.857000	-0.006027
5.858000	-0.007013
5.859000	-0.008000
5.860000	-0.008328
5.861000	-0.009315
5.862000	-0.007342
5.863000	-0.005698
5.864000	-0.005698
5.865000	-0.005698
5.866000	-0.004711
5.867000	-0.003396
5.868000	-0.001094
5.869000	0.001865
5.870000	0.002851
5.871000	0.003180
5.872000	0.003509
5.873000	0.003180
5.874000	0.004167
5.875000	0.006140
5.876000	0.009428
5.877000	0.012387
5.878000	0.013374
5.879000	0.014031
5.880000	0.014031
5.881000	0.013702
5.882000	0.011729
5.883000	0.009428
5.884000	0.008441
5.885000	0.010085
5.886000	0.012058
5.887000	0.016004
5.888000	0.019621
5.889000	0.020279
5.890000	0.020936
5.891000	0.020608
5.892000	0.020279
5.893000	0.020279
5.894000	0.021594
5.895000	0.024553
5.896000	0.027184
5.897000	0.028828
5.898000	0.030801
5.899000	0.032116
5.900000	0.032445
5.901000	0.033431
5.902000	0.033431
5.903000	0.033431
5.904000	0.033103
5.905000	0.032445
5.906000	0.030801
5.907000	0.030801
5.908000	0.034089
5.909000	0.037048
5.910000	0.035733
5.911000	0.033431
5.912000	0.030801
5.913000	0.029814
5.914000	0.028499
5.915000	0.029157
5.916000	0.029486
5.917000	0.028828
5.918000	0.027184
5.919000	0.026526
5.920000	0.026526
5.921000	0.025211
5.922000	0.020279
5.923000	0.012058
5.924000	0.005153
5.925000	-0.000766
5.926000	-0.003396
5.927000	-0.001423
5.928000	0.000550
5.929000	-0.001752
5.930000	-0.002410
5.931000	-0.001752
5.932000	-0.003067
5.933000	-0.004054
5.934000	-0.002410
5.935000	-0.001094
5.936000	-0.002410
5.937000	-0.004383
5.938000	-0.003067
5.939000	-0.001094
5.940000	0.003180
5.941000	0.004495
5.942000	0.005811
5.943000	0.005811
5.944000	0.006140
5.945000	0.005811
5.946000	0.004824
5.947000	0.004167
5.948000	0.003838
5.949000	0.003509
5.950000	0.001536
5.951000	-0.000766
5.952000	-0.003067
5.953000	-0.005040
5.954000	-0.006027
5.955000	-0.006027
5.956000	-0.006027
5.957000	-0.005698
5.958000	-0.006027
5.959000	-0.005040
5.960000	-0.004711
5.961000	-0.005369
5.962000	-0.004383
5.963000	-0.004711
5.964000	-0.006027
5.965000	-0.006684
5.966000	-0.008986
5.967000	-0.009973
5.968000	-0.009973
5.969000	-0.009644
5.970000	-0.008657
5.971000	-0.008657
5.972000	-0.007671
5.973000	-0.007342
5.974000	-0.008657
5.975000	-0.011288
5.976000	-0.011945
5.977000	-0.010959
5.978000	-0.011945
5.979000	-0.013261
5.980000	-0.015891
5.981000	-0.018522
5.982000	-0.017535
5.983000	-0.016878
5.984000	-0.014247
5.985000	-0.012274
5.986000	-0.013918
5.987000	-0.016878
5.988000	-0.018522
5.989000	-0.018851
5.990000	-0.019180
5.991000	-0.020495
5.992000	-0.022797
5.993000	-0.023783
5.994000	-0.025756
5.995000	-0.027729
5.996000	-0.029373
5.997000	-0.031346
5.998000	-0.034634
5.999000	-0.035620
6.000000	-0.037922
6.001000	-0.038909
6.002000	-0.041868
6.003000	-0.044170
6.004000	-0.043183
6.005000	-0.042197
6.006000	-0.040224
6.007000	-0.038251
6.008000	-0.034963
6.009000	-0.030688
6.010000	-0.025427
6.011000	-0.019508
6.012000	-0.011617
6.013000	-0.002081
6.014000	0.010743
6.015000	0.021265
6.016000	0.033760
6.017000	0.045927
6.018000	0.056449
6.019000	0.068286
6.020000	0.084398
6.021000	0.105114
6.022000	0.125501
6.023000	0.144901
6.024000	0.162657
6.025000	0.182057
6.026000	0.201129
6.027000	0.222502
6.028000	0.246177
6.029000	0.268866
6.030000	0.289581
6.031000	0.306351
6.032000	0.319504
6.033000	0.334300
6.034000	0.344165
6.035000	0.347124
6.036000	0.344494
6.037000	0.340548
6.038000	0.331999
6.039000	0.319504
6.040000	0.304378
6.041000	0.285635
6.042000	0.265906
6.043000	0.244204
6.044000	0.219543
6.045000	0.193237
6.046000	0.168576
6.047000	0.146545
6.048000	0.124843
6.049000	0.104127
6.050000	0.082754
6.051000	0.063354
6.052000	0.046913
6.053000	0.034747
6.054000	0.024882
6.055000	0.014360
6.056000	0.008112
6.057000	0.005153
6.058000	0.002851
6.059000	0.000878
6.060000	-0.002739
6.061000	-0.007013
6.062000	-0.008328
6.063000	-0.008328
6.064000	-0.008000
6.065000	-0.008000
6.066000	-0.008000
6.067000	-0.008000
6.068000	-0.008000
6.069000	-0.008328
6.070000	-0.008000
6.071000	-0.007671
6.072000	-0.006684
6.073000	-0.004711
6.074000	-0.003067
6.075000	-0.000766
6.076000	-0.000766
