'Elapsed time','ECG I','ECG I filtered'
'seconds','mV','mV'
0.000,-0.160,-0.065
0.002,-0.085,-0.035
0.004,0.030,-0.020
0.006,-0.035,-0.005
0.008,-0.085,-0.005
0.010,-0.150,-0.015
0.012,-0.210,-0.030
0.014,-0.260,-0.045
0.016,-0.225,-0.060
0.018,-0.150,-0.060
0.020,-0.110,-0.060
0.022,-0.070,-0.045
0.024,-0.005,-0.030
0.026,-0.005,-0.015
0.028,-0.080,-0.005
0.030,-0.115,-0.005
0.032,-0.165,-0.005
0.034,-0.235,-0.020
0.036,-0.240,-0.030
0.038,-0.175,-0.045
0.040,-0.105,-0.050
0.042,-0.040,-0.055
0.044,-0.015,-0.055
0.046,-0.055,-0.050
0.048,-0.150,-0.045
0.050,-0.170,-0.040
0.052,-0.230,-0.040
0.054,-0.260,-0.040
0.056,-0.225,-0.045
0.058,-0.155,-0.050
0.060,-0.090,-0.055
0.062,-0.025,-0.055
0.064,-0.040,-0.050
0.066,-0.060,-0.040
0.068,-0.080,-0.035
0.070,-0.115,-0.025
0.072,-0.180,-0.020
0.074,-0.245,-0.025
0.076,-0.225,-0.035
0.078,-0.160,-0.045
0.080,-0.140,-0.060
0.082,-0.055,-0.070
0.084,-0.045,-0.080
0.086,-0.060,-0.080
0.088,-0.155,-0.075
0.090,-0.175,-0.065
0.092,-0.265,-0.050
0.094,-0.230,-0.035
0.096,-0.185,-0.020
0.098,-0.125,-0.010
0.100,-0.040,-0.005
0.102,0.010,-0.010
0.104,-0.005,-0.015
0.106,-0.020,-0.020
0.108,-0.110,-0.030
0.110,-0.155,-0.035
0.112,-0.240,-0.040
0.114,-0.265,-0.040
0.116,-0.230,-0.035
0.118,-0.115,-0.030
0.120,-0.070,-0.025
0.122,0.035,-0.020
0.124,0.015,-0.020
0.126,-0.005,-0.020
0.128,-0.115,-0.020
0.130,-0.160,-0.020
0.132,-0.240,-0.025
0.134,-0.215,-0.030
0.136,-0.195,-0.030
0.138,-0.165,-0.035
0.140,-0.135,-0.040
0.142,-0.020,-0.045
0.144,-0.010,-0.050
0.146,-0.065,-0.055
0.148,-0.110,-0.055
0.150,-0.170,-0.055
0.152,-0.250,-0.050
0.154,-0.235,-0.045
0.156,-0.175,-0.035
0.158,-0.095,-0.025
0.160,-0.065,-0.015
0.162,0.050,-0.005
0.164,-0.020,0.000
0.166,-0.015,0.000
0.168,-0.080,0.000
0.170,-0.125,0.000
0.172,-0.195,0.000
0.174,-0.200,0.000
0.176,-0.160,0.000
0.178,-0.085,0.000
0.180,-0.050,0.005
0.182,0.075,0.005
0.184,0.025,0.010
0.186,0.000,0.010
0.188,-0.070,0.005
0.190,-0.120,-0.005
0.192,-0.235,-0.015
0.194,-0.265,-0.025
0.196,-0.190,-0.035
0.198,-0.130,-0.040
0.200,-0.110,-0.045
0.202,0.015,-0.040
0.204,-0.010,-0.040
0.206,-0.055,-0.035
0.208,-0.145,-0.030
0.210,-0.170,-0.025
0.212,-0.220,-0.025
0.214,-0.225,-0.030
0.216,-0.240,-0.035
0.218,-0.115,-0.040
0.220,-0.060,-0.050
0.222,0.000,-0.055
0.224,-0.030,-0.060
0.226,-0.090,-0.065
0.228,-0.190,-0.070
0.230,-0.225,-0.070
0.232,-0.305,-0.070
0.234,-0.255,-0.070
0.236,-0.220,-0.070
0.238,-0.100,-0.070
0.240,-0.075,-0.065
0.242,-0.025,-0.065
0.244,-0.035,-0.060
0.246,-0.070,-0.055
0.248,-0.175,-0.055
0.250,-0.200,-0.050
0.252,-0.250,-0.055
0.254,-0.275,-0.055
0.256,-0.210,-0.060
0.258,-0.095,-0.065
0.260,-0.070,-0.065
0.262,-0.040,-0.070
0.264,-0.030,-0.080
0.266,-0.110,-0.090
0.268,-0.200,-0.105
0.270,-0.270,-0.125
0.272,-0.360,-0.155
0.274,-0.400,-0.180
0.276,-0.390,-0.195
0.278,-0.305,-0.205
0.280,-0.145,-0.190
0.282,-0.080,-0.150
0.284,-0.045,-0.085
0.286,-0.035,0.010
0.288,0.025,0.125
0.290,0.105,0.260
0.292,0.230,0.400
0.294,0.370,0.540
0.296,0.545,0.675
0.298,0.770,0.800
0.300,0.960,0.915
0.302,1.090,1.010
0.304,1.180,1.090
0.306,1.160,1.140
0.308,1.110,1.165
0.310,1.065,1.150
0.312,0.940,1.100
0.314,0.810,1.005
0.316,0.740,0.875
0.318,0.645,0.715
0.320,0.495,0.545
0.322,0.360,0.375
0.324,0.155,0.225
0.326,0.005,0.105
0.328,-0.085,0.020
0.330,-0.150,-0.025
0.332,-0.205,-0.040
0.334,-0.165,-0.030
0.336,-0.140,-0.020
0.338,-0.080,-0.010
0.340,-0.020,-0.015
0.342,-0.050,-0.025
0.344,-0.065,-0.050
0.346,-0.185,-0.075
0.348,-0.210,-0.095
0.350,-0.265,-0.110
0.352,-0.245,-0.110
0.354,-0.195,-0.105
0.356,-0.185,-0.090
0.358,-0.155,-0.075
0.360,-0.080,-0.065
0.362,-0.065,-0.065
0.364,-0.115,-0.070
0.366,-0.170,-0.080
0.368,-0.195,-0.090
0.370,-0.250,-0.100
0.372,-0.280,-0.105
0.374,-0.285,-0.105
0.376,-0.170,-0.105
0.378,-0.120,-0.095
0.380,-0.065,-0.090
0.382,-0.065,-0.085
0.384,-0.075,-0.090
0.386,-0.150,-0.090
0.388,-0.200,-0.100
0.390,-0.305,-0.105
0.392,-0.300,-0.110
0.394,-0.260,-0.110
0.396,-0.150,-0.105
0.398,-0.130,-0.100
0.400,-0.055,-0.100
0.402,-0.070,-0.095
0.404,-0.125,-0.100
0.406,-0.180,-0.100
0.408,-0.225,-0.100
0.410,-0.315,-0.105
0.412,-0.255,-0.100
0.414,-0.200,-0.090
0.416,-0.125,-0.080
0.418,-0.090,-0.070
0.420,-0.010,-0.060
0.422,-0.045,-0.055
0.424,-0.065,-0.055
0.426,-0.165,-0.065
0.428,-0.260,-0.075
0.430,-0.290,-0.090
0.432,-0.265,-0.100
0.434,-0.260,-0.105
0.436,-0.185,-0.105
0.438,-0.120,-0.095
0.440,0.010,-0.080
0.442,-0.015,-0.060
0.444,-0.065,-0.045
0.446,-0.105,-0.035
0.448,-0.165,-0.030
0.450,-0.260,-0.035
0.452,-0.200,-0.045
0.454,-0.210,-0.055
0.456,-0.180,-0.070
0.458,-0.090,-0.085
0.460,-0.010,-0.090
0.462,-0.080,-0.090
0.464,-0.070,-0.085
0.466,-0.125,-0.070
0.468,-0.145,-0.060
0.470,-0.250,-0.045
0.472,-0.225,-0.035
0.474,-0.165,-0.030
0.476,-0.105,-0.025
0.478,-0.065,-0.020
0.480,0.030,-0.020
0.482,0.000,-0.020
0.484,-0.060,-0.020
0.486,-0.130,-0.020
0.488,-0.130,-0.015
0.490,-0.215,-0.015
0.492,-0.160,-0.010
0.494,-0.130,-0.005
0.496,-0.065,0.000
0.498,-0.010,0.000
0.500,0.035,0.000
0.502,0.045,0.000
0.504,-0.035,0.000
0.506,-0.085,0.000
0.508,-0.095,0.005
0.510,-0.175,0.015
0.512,-0.130,0.025
0.514,-0.075,0.040
0.516,0.005,0.050
0.518,0.050,0.060
0.520,0.105,0.070
0.522,0.070,0.075
0.524,0.070,0.075
0.526,0.000,0.070
0.528,-0.075,0.070
0.530,-0.175,0.065
0.532,-0.130,0.060
0.534,-0.075,0.065
0.536,-0.005,0.065
0.538,0.040,0.075
0.540,0.135,0.080
0.542,0.130,0.090
0.544,0.080,0.095
0.546,-0.015,0.100
0.548,-0.035,0.095
0.550,-0.105,0.090
0.552,-0.120,0.085
0.554,-0.085,0.070
0.556,-0.010,0.060
0.558,0.050,0.045
0.560,0.080,0.040
0.562,0.070,0.030
0.564,0.035,0.025
0.566,-0.055,0.025
0.568,-0.105,0.030
0.570,-0.170,0.030
0.572,-0.160,0.035
0.574,-0.070,0.040
0.576,-0.020,0.040
0.578,0.020,0.040
0.580,0.080,0.040
0.582,0.070,0.035
0.584,0.000,0.025
0.586,-0.100,0.020
0.588,-0.180,0.010
0.590,-0.195,0.005
0.592,-0.160,-0.005
0.594,-0.095,-0.010
0.596,-0.060,-0.015
0.598,-0.010,-0.020
0.600,0.035,-0.025
0.602,0.025,-0.025
0.604,-0.060,-0.030
0.606,-0.145,-0.035
0.608,-0.235,-0.035
0.610,-0.255,-0.040
0.612,-0.240,-0.045
0.614,-0.180,-0.045
0.616,-0.100,-0.050
0.618,-0.050,-0.050
0.620,-0.005,-0.050
0.622,-0.020,-0.055
0.624,-0.090,-0.055
0.626,-0.140,-0.055
0.628,-0.200,-0.060
0.630,-0.220,-0.060
0.632,-0.230,-0.065
0.634,-0.170,-0.065
0.636,-0.105,-0.065
0.638,-0.020,-0.065
0.640,-0.020,-0.060
0.642,-0.055,-0.055
0.644,-0.120,-0.050
0.646,-0.125,-0.045
0.648,-0.190,-0.040
0.650,-0.220,-0.040
0.652,-0.230,-0.035
0.654,-0.145,-0.035
0.656,-0.090,-0.035
0.658,-0.015,-0.040
0.660,0.005,-0.045
0.662,-0.030,-0.045
0.664,-0.110,-0.050
0.666,-0.190,-0.055
0.668,-0.230,-0.060
0.670,-0.270,-0.060
0.672,-0.205,-0.065
0.674,-0.120,-0.065
0.676,-0.115,-0.060
0.678,0.000,-0.060
0.680,0.025,-0.055
0.682,-0.030,-0.050
0.684,-0.110,-0.045
0.686,-0.125,-0.045
0.688,-0.235,-0.045
0.690,-0.225,-0.045
0.692,-0.185,-0.050
0.694,-0.165,-0.060
0.696,-0.140,-0.065
0.698,-0.020,-0.070
0.700,-0.015,-0.070
0.702,-0.050,-0.070
0.704,-0.100,-0.070
0.706,-0.155,-0.065
0.708,-0.230,-0.060
0.710,-0.225,-0.055
0.712,-0.195,-0.055
0.714,-0.100,-0.055
0.716,-0.100,-0.055
0.718,-0.035,-0.060
0.720,0.000,-0.060
0.722,-0.025,-0.060
0.724,-0.105,-0.060
0.726,-0.155,-0.055
0.728,-0.245,-0.050
0.730,-0.230,-0.040
0.732,-0.165,-0.035
0.734,-0.085,-0.025
0.736,-0.060,-0.025
0.738,0.060,-0.020
0.740,0.020,-0.020
0.742,-0.030,-0.025
0.744,-0.135,-0.025
0.746,-0.155,-0.030
0.748,-0.260,-0.035
0.750,-0.200,-0.035
0.752,-0.160,-0.040
0.754,-0.125,-0.045
0.756,-0.095,-0.045
0.758,0.010,-0.050
0.760,0.025,-0.055
0.762,-0.050,-0.060
0.764,-0.155,-0.060
0.766,-0.205,-0.060
0.768,-0.285,-0.060
0.770,-0.210,-0.055
0.772,-0.155,-0.050
0.774,-0.100,-0.040
0.776,-0.065,-0.035
0.778,0.035,-0.030
0.780,0.000,-0.025
0.782,-0.035,-0.025
0.784,-0.115,-0.030
0.786,-0.140,-0.030
0.788,-0.210,-0.035
0.790,-0.240,-0.040
0.792,-0.190,-0.040
0.794,-0.085,-0.040
0.796,-0.060,-0.040
0.798,0.030,-0.040
0.800,0.025,-0.035
0.802,-0.050,-0.035
0.804,-0.120,-0.035
0.806,-0.150,-0.030
0.808,-0.235,-0.030
0.810,-0.205,-0.035
0.812,-0.180,-0.035
0.814,-0.065,-0.030
0.816,-0.025,-0.030
0.818,0.035,-0.025
0.820,0.005,-0.025
0.822,-0.075,-0.020
0.824,-0.085,-0.015
0.826,-0.140,-0.015
0.828,-0.195,-0.015
0.830,-0.165,-0.015
0.832,-0.140,-0.015
0.834,-0.045,-0.015
0.836,-0.030,-0.015
0.838,0.045,-0.015
0.840,0.005,-0.010
0.842,-0.040,-0.005
0.844,-0.070,-0.005
0.846,-0.080,0.000
0.848,-0.180,0.005
0.850,-0.135,0.005
0.852,-0.120,0.005
0.854,-0.075,0.005
0.856,-0.010,0.005
0.858,0.045,0.005
0.860,0.060,0.005
0.862,-0.005,0.000
0.864,-0.065,-0.005
0.866,-0.150,-0.010
0.868,-0.235,-0.015
0.870,-0.245,-0.025
0.872,-0.175,-0.035
0.874,-0.110,-0.045
0.876,-0.060,-0.050
0.878,0.010,-0.055
0.880,0.005,-0.055
0.882,-0.085,-0.050
0.884,-0.120,-0.045
0.886,-0.145,-0.035
0.888,-0.180,-0.030
0.890,-0.195,-0.025
0.892,-0.135,-0.025
0.894,-0.080,-0.025
0.896,-0.075,-0.035
0.898,-0.015,-0.045
0.900,0.000,-0.055
0.902,-0.095,-0.065
0.904,-0.140,-0.070
0.906,-0.165,-0.070
0.908,-0.215,-0.060
0.910,-0.200,-0.050
0.912,-0.135,-0.040
0.914,-0.075,-0.030
0.916,-0.035,-0.030
0.918,-0.035,-0.030
0.920,-0.050,-0.040
0.922,-0.105,-0.055
0.924,-0.140,-0.075
0.926,-0.250,-0.090
0.928,-0.285,-0.105
0.930,-0.245,-0.110
0.932,-0.180,-0.110
0.934,-0.165,-0.105
0.936,-0.050,-0.095
0.938,-0.055,-0.085
0.940,-0.075,-0.080
0.942,-0.140,-0.080
0.944,-0.155,-0.090
0.946,-0.265,-0.110
0.948,-0.320,-0.135
0.950,-0.345,-0.160
0.952,-0.305,-0.175
0.954,-0.230,-0.180
0.956,-0.145,-0.160
0.958,-0.050,-0.115
0.960,-0.010,-0.050
0.962,-0.055,0.045
0.964,0.060,0.155
0.966,0.155,0.275
0.968,0.270,0.405
0.970,0.375,0.535
0.972,0.560,0.655
0.974,0.760,0.765
0.976,0.970,0.865
0.978,1.040,0.940
0.980,1.075,1.000
0.982,1.060,1.030
0.984,1.000,1.025
0.986,0.815,0.995
0.988,0.700,0.925
0.990,0.650,0.825
0.992,0.635,0.695
0.994,0.490,0.550
0.996,0.400,0.400
0.998,0.265,0.255
1.000,0.110,0.135
1.002,-0.075,0.040
1.004,-0.160,-0.025
1.006,-0.240,-0.055
1.008,-0.210,-0.065
1.010,-0.240,-0.055
1.012,-0.135,-0.040
1.014,-0.055,-0.025
1.016,0.050,-0.015
1.018,0.010,-0.020
1.020,-0.015,-0.025
1.022,-0.095,-0.040
1.024,-0.165,-0.055
1.026,-0.245,-0.070
1.028,-0.220,-0.075
1.030,-0.240,-0.080
1.032,-0.170,-0.075
1.034,-0.135,-0.075
1.036,-0.025,-0.070
1.038,-0.015,-0.070
1.040,-0.035,-0.070
1.042,-0.075,-0.070
1.044,-0.210,-0.075
1.046,-0.305,-0.075
1.048,-0.260,-0.080
1.050,-0.240,-0.080
1.052,-0.195,-0.085
1.054,-0.125,-0.090
1.056,-0.015,-0.095
1.058,-0.070,-0.105
1.060,-0.080,-0.115
1.062,-0.165,-0.120
1.064,-0.245,-0.125
1.066,-0.260,-0.125
1.068,-0.270,-0.120
1.070,-0.225,-0.115
1.072,-0.165,-0.105
1.074,-0.140,-0.095
1.076,-0.040,-0.085
1.078,-0.050,-0.075
1.080,-0.090,-0.070
1.082,-0.155,-0.070
1.084,-0.170,-0.070
1.086,-0.240,-0.070
1.088,-0.245,-0.070
1.090,-0.205,-0.070
1.092,-0.110,-0.070
1.094,-0.085,-0.065
1.096,0.020,-0.065
1.098,-0.015,-0.060
1.100,-0.060,-0.055
1.102,-0.120,-0.055
1.104,-0.165,-0.055
1.106,-0.230,-0.055
1.108,-0.205,-0.060
1.110,-0.155,-0.060
1.112,-0.090,-0.060
1.114,-0.090,-0.060
1.116,-0.010,-0.055
1.118,-0.010,-0.055
1.120,-0.050,-0.055
1.122,-0.130,-0.055
1.124,-0.190,-0.055
1.126,-0.240,-0.060
1.128,-0.275,-0.070
1.130,-0.215,-0.080
1.132,-0.120,-0.085
1.134,-0.065,-0.090
1.136,-0.015,-0.095
1.138,-0.055,-0.095
1.140,-0.125,-0.090
1.142,-0.185,-0.080
1.144,-0.185,-0.070
1.146,-0.240,-0.055
1.148,-0.235,-0.045
1.150,-0.145,-0.035
1.152,-0.095,-0.020
1.154,-0.025,-0.015
1.156,0.065,-0.010
1.158,0.035,-0.005
1.160,0.005,0.000
1.162,-0.045,0.000
1.164,-0.085,0.000
1.166,-0.180,0.005
1.168,-0.165,0.005
1.170,-0.090,0.005
1.172,-0.055,0.005
1.174,-0.015,0.005
1.176,0.025,0.005
1.178,0.020,0.010
1.180,-0.015,0.010
1.182,-0.030,0.015
1.184,-0.115,0.020
1.186,-0.155,0.025
1.188,-0.155,0.035
1.190,-0.070,0.040
1.192,0.020,0.050
1.194,0.055,0.060
1.196,0.135,0.065
1.198,0.125,0.070
1.200,0.050,0.075
1.202,-0.040,0.080
1.204,-0.095,0.080
1.206,-0.065,0.075
1.208,-0.040,0.075
1.210,-0.025,0.070
1.212,0.010,0.070
1.214,0.075,0.065
1.216,0.145,0.060
1.218,0.085,0.060
1.220,0.015,0.055
1.222,-0.055,0.055
1.224,-0.110,0.055
1.226,-0.145,0.055
1.228,-0.125,0.055
1.230,-0.030,0.050
1.232,-0.005,0.050
1.234,0.100,0.050
1.236,0.130,0.050
1.238,0.075,0.050
1.240,-0.010,0.050
1.242,-0.050,0.050
1.244,-0.105,0.050
1.246,-0.100,0.050
1.248,-0.080,0.050
1.250,-0.030,0.045
1.252,-0.030,0.040
1.254,0.045,0.030
1.256,0.050,0.025
1.258,0.025,0.015
1.260,-0.055,0.005
1.262,-0.075,-0.005
1.264,-0.190,-0.010
1.266,-0.200,-0.020
1.268,-0.175,-0.025
1.270,-0.115,-0.030
1.272,-0.075,-0.035
1.274,0.005,-0.040
1.276,0.000,-0.045
1.278,-0.030,-0.045
1.280,-0.115,-0.045
1.282,-0.195,-0.045
1.284,-0.210,-0.045
1.286,-0.195,-0.040
1.288,-0.160,-0.040
1.290,-0.110,-0.040
1.292,-0.070,-0.045
1.294,-0.025,-0.050
1.296,-0.045,-0.055
1.298,-0.030,-0.065
1.300,-0.120,-0.070
1.302,-0.150,-0.075
1.304,-0.255,-0.075
1.306,-0.225,-0.070
1.308,-0.210,-0.065
1.310,-0.135,-0.055
1.312,-0.085,-0.050
1.314,0.015,-0.045
1.316,-0.005,-0.045
1.318,-0.065,-0.050
1.320,-0.080,-0.055
1.322,-0.140,-0.065
1.324,-0.270,-0.070
1.326,-0.270,-0.070
1.328,-0.205,-0.070
1.330,-0.115,-0.070
1.332,-0.070,-0.065
1.334,0.030,-0.060
1.336,0.015,-0.055
1.338,-0.060,-0.055
1.340,-0.125,-0.055
1.342,-0.165,-0.060
1.344,-0.285,-0.065
1.346,-0.255,-0.070
1.348,-0.205,-0.070
1.350,-0.095,-0.070
1.352,-0.065,-0.065
1.354,0.030,-0.055
1.356,0.000,-0.045
1.358,-0.035,-0.040
1.360,-0.085,-0.035
1.362,-0.125,-0.030
1.364,-0.220,-0.030
1.366,-0.225,-0.030
1.368,-0.160,-0.035
1.370,-0.105,-0.040
1.372,-0.070,-0.045
1.374,0.005,-0.050
1.376,0.035,-0.060
1.378,-0.025,-0.065
1.380,-0.175,-0.075
1.382,-0.225,-0.085
1.384,-0.290,-0.090
1.386,-0.250,-0.090
1.388,-0.180,-0.085
1.390,-0.110,-0.075
1.392,-0.065,-0.065
1.394,0.045,-0.055
1.396,-0.010,-0.040
1.398,-0.080,-0.035
1.400,-0.125,-0.030
1.402,-0.105,-0.035
1.404,-0.215,-0.040
1.406,-0.220,-0.050
1.408,-0.200,-0.060
1.410,-0.130,-0.070
1.412,-0.085,-0.075
1.414,-0.010,-0.080
1.416,-0.015,-0.080
1.418,-0.060,-0.075
1.420,-0.120,-0.070
1.422,-0.170,-0.065
1.424,-0.245,-0.060
1.426,-0.240,-0.055
1.428,-0.145,-0.050
1.430,-0.065,-0.040
1.432,-0.015,-0.040
1.434,0.035,-0.035
1.436,-0.005,-0.030
1.438,-0.060,-0.030
1.440,-0.115,-0.035
1.442,-0.170,-0.035
1.444,-0.245,-0.035
1.446,-0.230,-0.035
1.448,-0.135,-0.035
1.450,-0.065,-0.030
1.452,-0.030,-0.025
1.454,0.050,-0.020
1.456,0.030,-0.015
1.458,-0.030,-0.010
1.460,-0.115,-0.010
1.462,-0.150,-0.015
1.464,-0.210,-0.020
1.466,-0.220,-0.030
1.468,-0.145,-0.040
1.470,-0.075,-0.050
1.472,-0.040,-0.055
1.474,0.030,-0.060
1.476,-0.035,-0.065
1.478,-0.085,-0.065
1.480,-0.145,-0.065
1.482,-0.185,-0.065
1.484,-0.220,-0.060
1.486,-0.185,-0.055
1.488,-0.140,-0.055
1.490,-0.065,-0.050
1.492,0.005,-0.040
1.494,0.035,-0.035
1.496,0.030,-0.030
1.498,-0.025,-0.020
1.500,-0.105,-0.015
1.502,-0.115,-0.015
1.504,-0.195,-0.015
1.506,-0.210,-0.015
1.508,-0.150,-0.015
1.510,-0.080,-0.020
1.512,-0.020,-0.020
1.514,0.010,-0.015
1.516,0.075,-0.010
1.518,0.005,-0.005
1.520,-0.065,0.005
1.522,-0.135,0.010
1.524,-0.135,0.015
1.526,-0.145,0.015
1.528,-0.095,0.015
1.530,-0.065,0.005
1.532,0.025,-0.005
1.534,0.050,-0.015
1.536,0.000,-0.030
1.538,-0.085,-0.040
1.540,-0.105,-0.050
1.542,-0.225,-0.055
1.544,-0.265,-0.060
1.546,-0.220,-0.060
1.548,-0.135,-0.065
1.550,-0.080,-0.065
1.552,-0.010,-0.065
1.554,0.010,-0.070
1.556,-0.055,-0.070
1.558,-0.120,-0.075
1.560,-0.160,-0.075
1.562,-0.260,-0.075
1.564,-0.235,-0.075
1.566,-0.210,-0.070
1.568,-0.130,-0.070
1.570,-0.045,-0.065
1.572,0.010,-0.060
1.574,-0.050,-0.060
1.576,-0.090,-0.060
1.578,-0.160,-0.065
1.580,-0.145,-0.065
1.582,-0.240,-0.070
1.584,-0.210,-0.075
1.586,-0.215,-0.075
1.588,-0.130,-0.075
1.590,-0.055,-0.075
1.592,0.025,-0.075
1.594,-0.005,-0.065
1.596,-0.050,-0.060
1.598,-0.115,-0.050
1.600,-0.120,-0.045
1.602,-0.235,-0.045
1.604,-0.190,-0.050
1.606,-0.200,-0.060
1.608,-0.135,-0.080
1.610,-0.155,-0.105
1.612,-0.070,-0.135
1.614,-0.130,-0.165
1.616,-0.190,-0.185
1.618,-0.290,-0.200
1.620,-0.335,-0.200
1.622,-0.335,-0.180
1.624,-0.250,-0.140
1.626,-0.190,-0.075
1.628,-0.065,0.005
1.630,0.075,0.110
1.632,0.320,0.230
1.634,0.435,0.360
1.636,0.525,0.495
1.638,0.580,0.630
1.640,0.680,0.760
1.642,0.725,0.875
1.644,0.865,0.975
1.646,0.975,1.055
1.648,1.115,1.100
1.650,1.165,1.110
1.652,1.225,1.080
1.654,1.075,1.015
1.656,0.865,0.910
1.658,0.665,0.780
1.660,0.525,0.635
1.662,0.270,0.480
1.664,0.160,0.335
1.666,0.050,0.210
1.668,0.005,0.110
1.670,-0.005,0.040
1.672,0.050,-0.005
1.674,0.035,-0.025
1.676,-0.010,-0.030
1.678,-0.075,-0.030
1.680,-0.115,-0.025
1.682,-0.220,-0.030
1.684,-0.190,-0.040
1.686,-0.140,-0.055
1.688,-0.070,-0.075
1.690,-0.115,-0.095
1.692,-0.065,-0.110
1.694,-0.080,-0.120
1.696,-0.100,-0.125
1.698,-0.180,-0.120
1.700,-0.210,-0.110
1.702,-0.295,-0.105
1.704,-0.255,-0.095
1.706,-0.205,-0.090
1.708,-0.160,-0.085
1.710,-0.120,-0.085
1.712,-0.010,-0.090
1.714,-0.040,-0.095
1.716,-0.125,-0.100
1.718,-0.155,-0.100
1.720,-0.185,-0.100
1.722,-0.260,-0.100
1.724,-0.240,-0.095
1.726,-0.170,-0.085
1.728,-0.090,-0.080
1.730,-0.080,-0.075
1.732,-0.010,-0.070
1.734,-0.030,-0.070
1.736,-0.080,-0.070
1.738,-0.150,-0.070
1.740,-0.240,-0.075
1.742,-0.270,-0.080
1.744,-0.260,-0.090
1.746,-0.195,-0.095
1.748,-0.130,-0.095
1.750,-0.065,-0.095
1.752,0.005,-0.090
1.754,0.010,-0.085
1.756,-0.070,-0.075
1.758,-0.150,-0.065
1.760,-0.175,-0.055
1.762,-0.230,-0.055
1.764,-0.245,-0.050
1.766,-0.210,-0.055
1.768,-0.140,-0.065
1.770,-0.075,-0.075
1.772,0.000,-0.085
1.774,-0.045,-0.095
1.776,-0.130,-0.100
1.778,-0.145,-0.100
1.780,-0.180,-0.095
1.782,-0.240,-0.090
1.784,-0.240,-0.080
1.786,-0.165,-0.070
1.788,-0.115,-0.065
1.790,-0.050,-0.060
1.792,-0.010,-0.060
1.794,-0.025,-0.065
1.796,-0.105,-0.070
1.798,-0.185,-0.075
1.800,-0.265,-0.080
1.802,-0.225,-0.080
1.804,-0.215,-0.080
1.806,-0.165,-0.075
1.808,-0.095,-0.065
1.810,-0.020,-0.055
1.812,0.045,-0.040
1.814,0.025,-0.030
1.816,-0.035,-0.020
1.818,-0.065,-0.015
1.820,-0.150,-0.010
1.822,-0.160,-0.005
1.824,-0.140,-0.010
1.826,-0.070,-0.010
1.828,-0.065,-0.015
1.830,-0.025,-0.015
1.832,0.045,-0.020
1.834,0.010,-0.015
1.836,-0.070,-0.015
1.838,-0.070,-0.010
1.840,-0.135,-0.005
1.842,-0.155,0.000
1.844,-0.155,0.005
1.846,-0.065,0.010
1.848,-0.025,0.010
1.850,0.055,0.010
1.852,0.075,0.015
1.854,0.070,0.015
1.856,-0.025,0.015
1.858,-0.080,0.015
1.860,-0.155,0.015
1.862,-0.145,0.015
1.864,-0.095,0.020
1.866,-0.025,0.025
1.868,0.025,0.030
1.870,0.095,0.040
1.872,0.135,0.050
1.874,0.080,0.065
1.876,0.000,0.075
1.878,-0.015,0.080
1.880,-0.090,0.085
1.882,-0.105,0.080
1.884,-0.080,0.075
1.886,-0.010,0.065
1.888,0.000,0.060
1.890,0.115,0.050
1.892,0.110,0.045
1.894,0.100,0.045
1.896,0.015,0.045
1.898,-0.025,0.050
1.900,-0.125,0.055
1.902,-0.100,0.060
1.904,-0.070,0.060
1.906,0.030,0.055
1.908,0.020,0.045
1.910,0.100,0.035
1.912,0.070,0.025
1.914,0.055,0.015
1.916,-0.025,0.010
1.918,-0.075,0.010
1.920,-0.170,0.015
1.922,-0.170,0.020
1.924,-0.095,0.025
1.926,-0.035,0.025
1.928,0.015,0.020
1.930,0.085,0.010
1.932,0.035,-0.005
1.934,0.010,-0.020
1.936,-0.045,-0.035
1.938,-0.080,-0.040
1.940,-0.255,-0.045
1.942,-0.225,-0.045
1.944,-0.155,-0.045
1.946,-0.100,-0.040
1.948,-0.065,-0.040
1.950,0.020,-0.045
1.952,-0.005,-0.050
1.954,-0.085,-0.065
1.956,-0.145,-0.075
1.958,-0.170,-0.085
1.960,-0.295,-0.095
1.962,-0.240,-0.095
1.964,-0.170,-0.090
1.966,-0.090,-0.085
1.968,-0.060,-0.075
1.970,0.000,-0.065
1.972,-0.030,-0.055
1.974,-0.065,-0.050
1.976,-0.130,-0.055
1.978,-0.155,-0.055
1.980,-0.240,-0.065
1.982,-0.210,-0.065
1.984,-0.180,-0.070
1.986,-0.095,-0.065
1.988,-0.025,-0.060
1.990,0.035,-0.055
1.992,0.025,-0.050
1.994,-0.030,-0.050
1.996,-0.130,-0.050
1.998,-0.200,-0.055
2.000,-0.270,-0.065
2.002,-0.255,-0.075
2.004,-0.195,-0.085
2.006,-0.110,-0.095
2.008,-0.075,-0.100
2.010,-0.030,-0.095
2.012,-0.005,-0.090
2.014,-0.040,-0.080
2.016,-0.140,-0.065
2.018,-0.155,-0.055
2.020,-0.205,-0.050
2.022,-0.195,-0.045
2.024,-0.185,-0.045
2.026,-0.120,-0.055
2.028,-0.085,-0.060
2.030,-0.005,-0.070
2.032,-0.010,-0.075
2.034,-0.070,-0.080
2.036,-0.175,-0.080
2.038,-0.220,-0.080
2.040,-0.210,-0.075
2.042,-0.235,-0.070
2.044,-0.160,-0.065
2.046,-0.095,-0.060
2.048,-0.030,-0.055
2.050,0.040,-0.050
2.052,-0.005,-0.050
2.054,-0.050,-0.050
2.056,-0.140,-0.055
2.058,-0.180,-0.060
2.060,-0.260,-0.065
2.062,-0.230,-0.075
2.064,-0.130,-0.075
2.066,-0.110,-0.080
2.068,-0.090,-0.080
2.070,-0.015,-0.075
2.072,-0.010,-0.070
2.074,-0.075,-0.065
2.076,-0.150,-0.060
2.078,-0.195,-0.055
2.080,-0.230,-0.055
2.082,-0.225,-0.055
2.084,-0.185,-0.055
2.086,-0.095,-0.055
2.088,-0.030,-0.050
2.090,0.040,-0.050
2.092,0.045,-0.045
2.094,-0.035,-0.040
2.096,-0.120,-0.035
2.098,-0.170,-0.030
2.100,-0.195,-0.025
2.102,-0.165,-0.025
2.104,-0.120,-0.030
2.106,-0.090,-0.035
2.108,-0.025,-0.045
2.110,0.000,-0.050
2.112,0.000,-0.055
2.114,-0.065,-0.055
2.116,-0.100,-0.050
2.118,-0.160,-0.045
2.120,-0.215,-0.040
2.122,-0.165,-0.035
2.124,-0.130,-0.030
2.126,-0.105,-0.030
2.128,-0.005,-0.035
2.130,0.005,-0.045
2.132,-0.040,-0.055
2.134,-0.105,-0.065
2.136,-0.140,-0.075
2.138,-0.210,-0.080
2.140,-0.250,-0.080
2.142,-0.230,-0.080
2.144,-0.140,-0.075
2.146,-0.095,-0.065
2.148,-0.015,-0.060
2.150,0.000,-0.050
2.152,0.000,-0.045
2.154,-0.075,-0.040
2.156,-0.130,-0.035
2.158,-0.195,-0.030
2.160,-0.150,-0.025
2.162,-0.145,-0.025
2.164,-0.125,-0.020
2.166,-0.110,-0.020
2.168,0.015,-0.020
2.170,0.030,-0.020
2.172,0.000,-0.020
2.174,-0.030,-0.020
2.176,-0.070,-0.015
2.178,-0.135,-0.015
2.180,-0.130,-0.010
2.182,-0.155,-0.005
2.184,-0.085,0.000
2.186,-0.035,0.005
2.188,0.065,0.005
2.190,0.030,0.000
2.192,0.040,-0.005
2.194,-0.020,-0.015
2.196,-0.060,-0.025
2.198,-0.220,-0.035
2.200,-0.200,-0.040
2.202,-0.215,-0.040
2.204,-0.120,-0.040
2.206,-0.075,-0.040
2.208,0.015,-0.040
2.210,0.020,-0.035
2.212,-0.010,-0.040
2.214,-0.095,-0.040
2.216,-0.115,-0.045
2.218,-0.235,-0.050
2.220,-0.220,-0.055
2.222,-0.185,-0.060
2.224,-0.075,-0.060
2.226,-0.065,-0.065
2.228,0.015,-0.065
2.230,-0.020,-0.060
2.232,-0.060,-0.060
2.234,-0.130,-0.060
2.236,-0.170,-0.060
2.238,-0.240,-0.060
2.240,-0.245,-0.060
2.242,-0.170,-0.060
2.244,-0.080,-0.055
2.246,-0.055,-0.050
2.248,0.060,-0.050
2.250,-0.020,-0.050
2.252,-0.040,-0.055
2.254,-0.095,-0.060
2.256,-0.135,-0.070
2.258,-0.265,-0.080
2.260,-0.260,-0.090
2.262,-0.240,-0.100
2.264,-0.140,-0.105
2.266,-0.115,-0.110
2.268,-0.070,-0.115
2.270,-0.085,-0.120
2.272,-0.070,-0.125
2.274,-0.185,-0.135
2.276,-0.245,-0.150
2.278,-0.360,-0.165
2.280,-0.370,-0.180
2.282,-0.375,-0.190
2.284,-0.265,-0.190
2.286,-0.130,-0.170
2.288,-0.030,-0.130
2.290,-0.005,-0.065
2.292,0.025,0.030
2.294,0.080,0.140
2.296,0.190,0.270
2.298,0.240,0.410
2.300,0.390,0.555
2.302,0.620,0.695
2.304,0.835,0.830
2.306,0.975,0.945
2.308,1.160,1.040
2.310,1.190,1.105
2.312,1.140,1.145
2.314,1.120,1.150
2.316,1.090,1.115
2.318,0.950,1.045
2.320,0.805,0.940
2.322,0.685,0.805
2.324,0.545,0.650
2.326,0.375,0.485
2.328,0.330,0.330
2.330,0.180,0.190
2.332,0.050,0.080
2.334,-0.075,0.000
2.336,-0.125,-0.045
2.338,-0.180,-0.060
2.340,-0.195,-0.050
2.342,-0.125,-0.035
2.344,-0.045,-0.020
2.346,-0.035,-0.010
2.348,0.025,-0.015
2.350,0.030,-0.025
2.352,-0.105,-0.050
2.354,-0.165,-0.075
2.356,-0.215,-0.100
2.358,-0.255,-0.115
2.360,-0.280,-0.120
2.362,-0.230,-0.115
2.364,-0.140,-0.105
2.366,-0.085,-0.090
2.368,0.000,-0.080
2.370,-0.020,-0.070
2.372,-0.080,-0.070
2.374,-0.195,-0.075
2.376,-0.235,-0.085
2.378,-0.245,-0.100
2.380,-0.260,-0.110
2.382,-0.230,-0.120
2.384,-0.150,-0.120
2.386,-0.075,-0.120
2.388,-0.050,-0.115
2.390,-0.040,-0.110
2.392,-0.140,-0.105
2.394,-0.175,-0.100
2.396,-0.260,-0.100
2.398,-0.270,-0.100
2.400,-0.285,-0.105
2.402,-0.200,-0.105
2.404,-0.100,-0.100
2.406,-0.040,-0.095
2.408,-0.010,-0.090
2.410,0.010,-0.080
2.412,-0.115,-0.070
2.414,-0.160,-0.060
2.416,-0.180,-0.055
2.418,-0.225,-0.055
2.420,-0.195,-0.055
2.422,-0.160,-0.055
2.424,-0.125,-0.060
2.426,-0.030,-0.060
2.428,-0.005,-0.065
2.430,-0.015,-0.065
2.432,-0.090,-0.065
2.434,-0.100,-0.065
2.436,-0.220,-0.070
2.438,-0.250,-0.070
2.440,-0.215,-0.075
2.442,-0.155,-0.080
2.444,-0.130,-0.085
2.446,-0.010,-0.090
2.448,-0.040,-0.085
2.450,-0.090,-0.085
2.452,-0.115,-0.075
2.454,-0.160,-0.070
2.456,-0.205,-0.065
2.458,-0.235,-0.060
2.460,-0.190,-0.060
2.462,-0.105,-0.065
2.464,-0.105,-0.070
2.466,-0.040,-0.080
2.468,-0.055,-0.085
2.470,-0.040,-0.085
2.472,-0.075,-0.080
2.474,-0.140,-0.075
2.476,-0.235,-0.060
2.478,-0.205,-0.050
2.480,-0.220,-0.035
2.482,-0.105,-0.025
2.484,-0.040,-0.015
2.486,0.090,-0.010
2.488,0.060,-0.010
2.490,-0.020,-0.010
2.492,-0.095,-0.010
2.494,-0.130,-0.015
2.496,-0.195,-0.015
2.498,-0.145,-0.010
2.500,-0.130,-0.005
2.502,-0.045,-0.005
2.504,-0.015,0.000
2.506,0.070,0.000
2.508,0.025,0.000
2.510,0.000,0.000
2.512,-0.065,-0.005
2.514,-0.080,-0.005
2.516,-0.185,-0.005
2.518,-0.160,0.000
2.520,-0.095,0.005
2.522,-0.010,0.015
2.524,0.000,0.025
2.526,0.100,0.035
2.528,0.095,0.045
2.530,0.090,0.050
2.532,0.035,0.055
2.534,-0.005,0.060
2.536,-0.095,0.060
2.538,-0.105,0.065
2.540,-0.060,0.065
2.542,-0.025,0.070
2.544,-0.005,0.070
2.546,0.130,0.070
2.548,0.140,0.075
2.550,0.080,0.075
2.552,0.035,0.075
2.554,0.010,0.075
2.556,-0.115,0.075
2.558,-0.080,0.070
2.560,-0.025,0.070
2.562,0.010,0.070
2.564,0.035,0.065
2.566,0.105,0.060
2.568,0.105,0.055
2.570,0.035,0.045
2.572,-0.030,0.035
2.574,-0.085,0.025
2.576,-0.195,0.015
2.578,-0.140,0.010
2.580,-0.125,0.005
2.582,-0.050,0.005
2.584,-0.015,0.005
2.586,0.085,0.005
2.588,0.075,0.000
2.590,-0.025,0.000
2.592,-0.105,-0.010
2.594,-0.135,-0.015
2.596,-0.240,-0.020
2.598,-0.180,-0.025
2.600,-0.125,-0.030
2.602,-0.095,-0.035
2.604,-0.025,-0.035
2.606,0.060,-0.030
2.608,0.015,-0.030
2.610,-0.045,-0.030
2.612,-0.110,-0.035
2.614,-0.145,-0.035
2.616,-0.235,-0.040
2.618,-0.210,-0.045
2.620,-0.165,-0.050
2.622,-0.080,-0.050
2.624,-0.025,-0.050
2.626,0.035,-0.050
2.628,-0.035,-0.055
2.630,-0.100,-0.055
2.632,-0.160,-0.060
2.634,-0.185,-0.070
2.636,-0.220,-0.080
2.638,-0.260,-0.085
2.640,-0.205,-0.090
2.642,-0.115,-0.095
2.644,-0.060,-0.090
2.646,-0.035,-0.085
2.648,-0.030,-0.075
2.650,-0.055,-0.060
2.652,-0.130,-0.050
2.654,-0.145,-0.045
2.656,-0.215,-0.040
2.658,-0.210,-0.045
2.660,-0.175,-0.050
2.662,-0.120,-0.055
2.664,-0.060,-0.060
2.666,0.000,-0.065
2.668,0.000,-0.065
2.670,-0.080,-0.060
2.672,-0.120,-0.055
2.674,-0.175,-0.050
2.676,-0.220,-0.045
2.678,-0.225,-0.040
2.680,-0.145,-0.040
2.682,-0.065,-0.045
2.684,-0.050,-0.045
2.686,0.020,-0.050
2.688,-0.020,-0.055
2.690,-0.075,-0.055
2.692,-0.135,-0.055
2.694,-0.210,-0.055
2.696,-0.225,-0.050
2.698,-0.185,-0.045
2.700,-0.120,-0.045
2.702,-0.070,-0.045
2.704,-0.005,-0.050
2.706,0.000,-0.055
2.708,-0.025,-0.060
2.710,-0.105,-0.065
2.712,-0.165,-0.065
2.714,-0.220,-0.065
2.716,-0.215,-0.065
2.718,-0.165,-0.060
2.720,-0.135,-0.050
2.722,-0.090,-0.045
2.724,0.015,-0.035
2.726,-0.005,-0.030
2.728,-0.040,-0.030
2.730,-0.080,-0.030
2.732,-0.165,-0.035
2.734,-0.205,-0.040
2.736,-0.215,-0.045
2.738,-0.210,-0.055
2.740,-0.110,-0.060
2.742,-0.100,-0.070
2.744,-0.040,-0.070
2.746,-0.020,-0.070
2.748,0.010,-0.070
2.750,-0.110,-0.065
2.752,-0.150,-0.060
2.754,-0.230,-0.060
2.756,-0.235,-0.055
2.758,-0.220,-0.055
2.760,-0.170,-0.060
2.762,-0.140,-0.065
2.764,-0.035,-0.070
2.766,-0.020,-0.070
2.768,-0.015,-0.070
2.770,-0.080,-0.065
2.772,-0.135,-0.050
2.774,-0.205,-0.035
2.776,-0.170,-0.020
2.778,-0.195,-0.005
2.780,-0.075,0.005
2.782,-0.055,0.010
2.784,0.075,0.010
2.786,0.080,0.000
2.788,0.005,-0.010
2.790,-0.075,-0.025
2.792,-0.155,-0.035
2.794,-0.285,-0.045
2.796,-0.235,-0.050
2.798,-0.170,-0.050
2.800,-0.110,-0.045
2.802,-0.055,-0.040
2.804,0.040,-0.040
2.806,-0.005,-0.040
2.808,-0.045,-0.045
2.810,-0.150,-0.050
2.812,-0.160,-0.055
2.814,-0.250,-0.060
2.816,-0.230,-0.060
2.818,-0.195,-0.060
2.820,-0.125,-0.055
2.822,-0.070,-0.045
2.824,0.055,-0.035
2.826,0.050,-0.020
2.828,-0.020,-0.010
2.830,-0.115,-0.005
2.832,-0.105,-0.005
2.834,-0.220,-0.005
2.836,-0.215,-0.010
2.838,-0.170,-0.015
2.840,-0.085,-0.020
2.842,-0.005,-0.025
2.844,0.065,-0.030
2.846,0.080,-0.030
2.848,-0.025,-0.025
2.850,-0.075,-0.015
2.852,-0.130,-0.010
2.854,-0.230,0.000
2.856,-0.155,0.010
2.858,-0.120,0.015
2.860,-0.070,0.015
2.862,-0.020,0.010
2.864,0.050,0.000
2.866,0.040,-0.015
2.868,-0.030,-0.030
2.870,-0.080,-0.040
2.872,-0.130,-0.055
2.874,-0.270,-0.060
2.876,-0.240,-0.065
2.878,-0.170,-0.060
2.880,-0.095,-0.055
2.882,-0.015,-0.050
2.884,0.000,-0.040
2.886,-0.010,-0.035
2.888,-0.065,-0.035
2.890,-0.145,-0.035
2.892,-0.180,-0.040
2.894,-0.235,-0.045
2.896,-0.200,-0.050
2.898,-0.165,-0.055
2.900,-0.095,-0.065
2.902,-0.070,-0.065
2.904,-0.040,-0.065
2.906,0.000,-0.065
2.908,-0.090,-0.060
2.910,-0.175,-0.055
2.912,-0.170,-0.055
2.914,-0.225,-0.050
2.916,-0.225,-0.050
2.918,-0.190,-0.055
2.920,-0.115,-0.060
2.922,-0.070,-0.065
2.924,-0.020,-0.070
2.926,-0.010,-0.080
2.928,-0.040,-0.080
2.930,-0.145,-0.085
2.932,-0.205,-0.080
2.934,-0.255,-0.075
2.936,-0.225,-0.070
2.938,-0.165,-0.060
2.940,-0.105,-0.055
2.942,-0.040,-0.055
2.944,0.015,-0.065
2.946,-0.040,-0.080
2.948,-0.145,-0.105
2.950,-0.240,-0.135
2.952,-0.300,-0.165
2.954,-0.395,-0.185
2.956,-0.380,-0.195
2.958,-0.275,-0.190
2.960,-0.170,-0.155
2.962,-0.070,-0.100
2.964,0.020,-0.015
2.966,0.120,0.095
2.968,0.195,0.220
2.970,0.300,0.355
2.972,0.380,0.495
2.974,0.455,0.640
2.976,0.625,0.770
2.978,0.835,0.895
2.980,1.010,1.005
2.982,1.160,1.095
2.984,1.285,1.155
2.986,1.270,1.190
2.988,1.225,1.185
2.990,1.105,1.140
2.992,0.885,1.060
2.994,0.720,0.940
2.996,0.635,0.790
2.998,0.490,0.620
3.000,0.360,0.450
3.002,0.245,0.290
3.004,0.155,0.155
3.006,0.055,0.055
3.008,-0.060,-0.015
3.010,-0.125,-0.050
3.012,-0.185,-0.060
3.014,-0.220,-0.050
3.016,-0.215,-0.040
3.018,-0.125,-0.030
3.020,-0.095,-0.025
3.022,-0.055,-0.035
3.024,0.005,-0.050
3.026,0.020,-0.065
3.028,-0.100,-0.080
3.030,-0.195,-0.090
3.032,-0.270,-0.095
3.034,-0.240,-0.090
3.036,-0.220,-0.080
3.038,-0.120,-0.075
3.040,-0.120,-0.070
3.042,-0.060,-0.070
3.044,-0.035,-0.070
3.046,-0.065,-0.080
3.048,-0.135,-0.085
3.050,-0.215,-0.095
3.052,-0.285,-0.100
3.054,-0.270,-0.100
3.056,-0.250,-0.100
3.058,-0.175,-0.095
3.060,-0.105,-0.085
3.062,-0.020,-0.080
3.064,-0.020,-0.075
3.066,-0.080,-0.075
3.068,-0.135,-0.070
3.070,-0.180,-0.065
3.072,-0.235,-0.060
3.074,-0.255,-0.055
3.076,-0.185,-0.050
3.078,-0.130,-0.045
3.080,-0.070,-0.040
3.082,0.030,-0.040
3.084,0.010,-0.050
3.086,-0.080,-0.060
3.088,-0.160,-0.075
3.090,-0.205,-0.090
3.092,-0.315,-0.105
3.094,-0.270,-0.115
3.096,-0.260,-0.120
3.098,-0.195,-0.125
3.100,-0.095,-0.120
3.102,-0.020,-0.110
3.104,-0.065,-0.100
3.106,-0.070,-0.090
3.108,-0.170,-0.080
3.110,-0.190,-0.070
3.112,-0.270,-0.065
3.114,-0.250,-0.065
3.116,-0.215,-0.070
3.118,-0.160,-0.075
3.120,-0.095,-0.080
3.122,-0.035,-0.085
3.124,-0.050,-0.090
3.126,-0.075,-0.090
3.128,-0.160,-0.090
3.130,-0.185,-0.085
3.132,-0.265,-0.075
3.134,-0.250,-0.070
3.136,-0.215,-0.065
3.138,-0.140,-0.060
3.140,-0.085,-0.060
3.142,0.015,-0.060
3.144,-0.025,-0.060
3.146,-0.025,-0.060
3.148,-0.145,-0.055
3.150,-0.135,-0.050
3.152,-0.265,-0.045
3.154,-0.200,-0.035
3.156,-0.150,-0.025
3.158,-0.095,-0.015
3.160,-0.035,-0.005
3.162,0.065,0.000
3.164,0.055,0.005
3.166,-0.010,0.005
3.168,-0.075,0.000
3.170,-0.135,-0.005
3.172,-0.215,-0.005
3.174,-0.175,-0.010
3.176,-0.120,-0.005
3.178,-0.060,-0.005
3.180,-0.040,0.005
3.182,0.080,0.015
3.184,0.065,0.020
3.186,0.000,0.030
3.188,-0.050,0.035
3.190,-0.105,0.040
3.192,-0.150,0.040
3.194,-0.125,0.040
3.196,-0.100,0.035
3.198,-0.020,0.035
3.200,0.035,0.035
3.202,0.110,0.035
3.204,0.105,0.030
3.206,0.025,0.030
3.208,-0.055,0.030
3.210,-0.110,0.030
3.212,-0.135,0.030
3.214,-0.100,0.030
3.216,-0.090,0.030
3.218,-0.025,0.035
3.220,0.015,0.035
3.222,0.090,0.040
3.224,0.105,0.045
3.226,0.030,0.055
3.228,-0.020,0.060
3.230,-0.080,0.065
3.232,-0.115,0.065
3.234,-0.125,0.070
3.236,-0.070,0.070
3.238,0.015,0.065
3.240,0.085,0.065
3.242,0.105,0.060
3.244,0.075,0.055
3.246,0.035,0.045
3.248,-0.055,0.040
3.250,-0.140,0.035
3.252,-0.195,0.025
3.254,-0.145,0.020
3.256,-0.080,0.010
3.258,-0.040,0.005
3.260,-0.005,-0.005
3.262,0.055,-0.010
3.264,0.025,-0.015
3.266,-0.060,-0.020
3.268,-0.130,-0.025
3.270,-0.175,-0.025
3.272,-0.230,-0.030
3.274,-0.215,-0.030
3.276,-0.125,-0.030
3.278,-0.080,-0.030
3.280,-0.010,-0.025
3.282,0.070,-0.025
3.284,0.010,-0.025
3.286,-0.055,-0.030
3.288,-0.130,-0.035
3.290,-0.230,-0.040
3.292,-0.270,-0.050
3.294,-0.230,-0.055
3.296,-0.195,-0.065
3.298,-0.130,-0.070
3.300,-0.040,-0.070
3.302,0.010,-0.070
3.304,0.025,-0.065
3.306,-0.060,-0.060
3.308,-0.135,-0.055
3.310,-0.210,-0.050
3.312,-0.240,-0.055
3.314,-0.260,-0.060
3.316,-0.185,-0.065
3.318,-0.120,-0.080
3.320,-0.045,-0.090
3.322,-0.070,-0.095
3.324,-0.105,-0.100
3.326,-0.105,-0.095
3.328,-0.140,-0.085
3.330,-0.245,-0.075
3.332,-0.230,-0.055
3.334,-0.220,-0.045
3.336,-0.100,-0.035
3.338,-0.065,-0.030
3.340,-0.015,-0.030
3.342,0.020,-0.040
3.344,-0.045,-0.050
3.346,-0.150,-0.060
3.348,-0.180,-0.075
3.350,-0.250,-0.080
3.352,-0.255,-0.085
3.354,-0.240,-0.085
3.356,-0.165,-0.080
3.358,-0.085,-0.080
3.360,-0.015,-0.075
3.362,-0.010,-0.075
3.364,-0.075,-0.075
3.366,-0.140,-0.075
3.368,-0.195,-0.075
3.370,-0.285,-0.075
3.372,-0.230,-0.070
3.374,-0.195,-0.070
3.376,-0.130,-0.065
3.378,-0.115,-0.065
3.380,-0.020,-0.060
3.382,-0.020,-0.060
3.384,-0.065,-0.055
3.386,-0.110,-0.055
3.388,-0.140,-0.055
3.390,-0.250,-0.055
3.392,-0.225,-0.050
3.394,-0.165,-0.050
3.396,-0.085,-0.050
3.398,-0.090,-0.050
3.400,-0.005,-0.055
3.402,-0.030,-0.060
3.404,-0.065,-0.065
3.406,-0.130,-0.070
3.408,-0.140,-0.075
3.410,-0.265,-0.075
3.412,-0.260,-0.075
3.414,-0.230,-0.070
3.416,-0.145,-0.065
3.418,-0.095,-0.060
3.420,0.000,-0.060
3.422,-0.015,-0.060
3.424,-0.045,-0.065
3.426,-0.160,-0.070
3.428,-0.175,-0.075
3.430,-0.285,-0.080
3.432,-0.255,-0.080
3.434,-0.195,-0.075
3.436,-0.115,-0.070
3.438,-0.095,-0.055
3.440,0.045,-0.040
3.442,0.030,-0.030
3.444,-0.030,-0.020
3.446,-0.135,-0.020
3.448,-0.130,-0.025
3.450,-0.250,-0.035
3.452,-0.250,-0.045
3.454,-0.180,-0.055
3.456,-0.140,-0.065
3.458,-0.120,-0.070
3.460,0.000,-0.075
3.462,-0.015,-0.070
3.464,-0.085,-0.065
3.466,-0.135,-0.060
3.468,-0.185,-0.050
3.470,-0.255,-0.045
3.472,-0.205,-0.040
3.474,-0.160,-0.040
3.476,-0.105,-0.040
3.478,-0.065,-0.040
3.480,0.005,-0.040
3.482,-0.040,-0.045
3.484,-0.085,-0.050
3.486,-0.180,-0.060
3.488,-0.180,-0.065
3.490,-0.260,-0.070
3.492,-0.250,-0.070
3.494,-0.170,-0.070
3.496,-0.105,-0.065
3.498,-0.055,-0.055
3.500,0.015,-0.040
3.502,-0.015,-0.025
3.504,-0.035,-0.015
3.506,-0.100,0.000
3.508,-0.125,0.005
3.510,-0.180,0.005
3.512,-0.185,0.005
3.514,-0.145,0.000
3.516,-0.060,-0.005
3.518,0.010,-0.010
3.520,0.075,-0.010
3.522,0.045,-0.010
3.524,-0.005,-0.005
3.526,-0.100,0.000
3.528,-0.140,0.005
3.530,-0.205,0.005
3.532,-0.190,0.005
3.534,-0.120,0.005
3.536,-0.050,-0.005
3.538,0.005,-0.015
3.540,0.025,-0.030
3.542,0.010,-0.040
3.544,-0.110,-0.055
3.546,-0.200,-0.065
3.548,-0.245,-0.070
3.550,-0.270,-0.070
3.552,-0.225,-0.070
3.554,-0.155,-0.065
3.556,-0.080,-0.060
3.558,-0.050,-0.055
3.560,0.005,-0.050
3.562,-0.030,-0.045
3.564,-0.100,-0.040
3.566,-0.150,-0.040
3.568,-0.235,-0.045
3.570,-0.255,-0.050
3.572,-0.235,-0.055
3.574,-0.175,-0.060
3.576,-0.090,-0.065
3.578,-0.045,-0.065
3.580,-0.030,-0.070
3.582,-0.050,-0.070
3.584,-0.085,-0.070
3.586,-0.160,-0.070
3.588,-0.240,-0.065
3.590,-0.265,-0.065
3.592,-0.225,-0.065
3.594,-0.155,-0.070
3.596,-0.115,-0.075
3.598,-0.070,-0.075
3.600,-0.015,-0.080
3.602,-0.060,-0.080
3.604,-0.120,-0.075
3.606,-0.165,-0.070
3.608,-0.245,-0.065
3.610,-0.235,-0.055
3.612,-0.230,-0.055
3.614,-0.110,-0.060
3.616,-0.095,-0.075
3.618,-0.070,-0.100
3.620,-0.135,-0.130
3.622,-0.220,-0.165
3.624,-0.315,-0.195
3.626,-0.375,-0.215
3.628,-0.420,-0.215
3.630,-0.335,-0.190
3.632,-0.275,-0.140
3.634,-0.115,-0.060
3.636,0.010,0.050
3.638,0.210,0.175
3.640,0.375,0.320
3.642,0.490,0.470
3.644,0.565,0.620
3.646,0.670,0.770
3.648,0.750,0.905
3.650,0.920,1.025
3.652,1.010,1.120
3.654,1.165,1.185
3.656,1.255,1.220
3.658,1.335,1.215
3.660,1.235,1.165
3.662,1.105,1.080
3.664,0.880,0.955
3.666,0.660,0.805
3.668,0.400,0.640
3.670,0.245,0.475
3.672,0.100,0.320
3.674,0.050,0.185
3.676,0.040,0.085
3.678,0.100,0.015
3.680,0.025,-0.025
3.682,-0.015,-0.035
3.684,-0.110,-0.035
3.686,-0.135,-0.030
3.688,-0.230,-0.025
3.690,-0.220,-0.025
3.692,-0.210,-0.030
3.694,-0.135,-0.045
3.696,-0.105,-0.060
3.698,-0.010,-0.080
3.700,-0.060,-0.090
3.702,-0.085,-0.100
3.704,-0.170,-0.100
3.706,-0.175,-0.100
3.708,-0.320,-0.095
3.710,-0.275,-0.095
3.712,-0.245,-0.100
3.714,-0.220,-0.105
3.716,-0.180,-0.115
3.718,-0.080,-0.125
3.720,-0.110,-0.135
3.722,-0.105,-0.140
3.724,-0.220,-0.140
3.726,-0.235,-0.130
3.728,-0.310,-0.120
3.730,-0.270,-0.110
3.732,-0.210,-0.095
3.734,-0.140,-0.085
3.736,-0.120,-0.075
3.738,-0.025,-0.075
3.740,-0.045,-0.070
3.742,-0.105,-0.075
3.744,-0.175,-0.080
3.746,-0.250,-0.085
3.748,-0.305,-0.090
3.750,-0.270,-0.090
3.752,-0.245,-0.090
3.754,-0.110,-0.095
3.756,-0.095,-0.090
3.758,-0.020,-0.090
3.760,-0.060,-0.095
3.762,-0.095,-0.095
3.764,-0.175,-0.100
3.766,-0.230,-0.105
3.768,-0.315,-0.110
3.770,-0.285,-0.110
3.772,-0.230,-0.110
3.774,-0.135,-0.110
3.776,-0.100,-0.100
3.778,-0.055,-0.095
3.780,-0.025,-0.085
3.782,-0.100,-0.075
3.784,-0.135,-0.070
3.786,-0.195,-0.065
3.788,-0.265,-0.070
3.790,-0.275,-0.070
3.792,-0.225,-0.080
3.794,-0.145,-0.085
3.796,-0.130,-0.090
3.798,-0.020,-0.095
3.800,-0.080,-0.090
3.802,-0.085,-0.085
3.804,-0.155,-0.075
3.806,-0.185,-0.065
3.808,-0.255,-0.055
3.810,-0.265,-0.050
3.812,-0.185,-0.050
3.814,-0.055,-0.050
3.816,-0.075,-0.055
3.818,-0.030,-0.065
3.820,-0.030,-0.070
3.822,-0.095,-0.075
3.824,-0.160,-0.080
3.826,-0.225,-0.075
3.828,-0.240,-0.070
3.830,-0.220,-0.055
3.832,-0.140,-0.045
3.834,-0.050,-0.030
3.836,0.035,-0.020
3.838,0.050,-0.010
3.840,0.030,-0.005
3.842,-0.065,0.000
3.844,-0.130,0.000
3.846,-0.160,-0.005
3.848,-0.195,-0.005
3.850,-0.180,-0.010
3.852,-0.110,-0.010
3.854,-0.045,-0.005
3.856,0.020,0.000
3.858,0.035,0.005
3.860,0.040,0.015
3.862,-0.025,0.025
3.864,-0.040,0.035
3.866,-0.120,0.040
3.868,-0.135,0.045
3.870,-0.135,0.045
3.872,-0.075,0.045
3.874,0.020,0.045
3.876,0.075,0.040
3.878,0.080,0.035
3.880,0.045,0.030
3.882,0.015,0.030
3.884,-0.045,0.025
3.886,-0.155,0.025
3.888,-0.165,0.030
3.890,-0.145,0.030
3.892,-0.075,0.035
3.894,-0.010,0.040
3.896,0.055,0.040
3.898,0.105,0.045
3.900,0.090,0.045
3.902,0.010,0.045
3.904,-0.050,0.045
3.906,-0.155,0.045
3.908,-0.160,0.040
3.910,-0.130,0.040
3.912,-0.065,0.035
3.914,0.000,0.035
3.916,0.080,0.030
3.918,0.100,0.030
3.920,0.030,0.025
3.922,-0.050,0.020
3.924,-0.095,0.015
3.926,-0.185,0.005
3.928,-0.190,0.000
3.930,-0.185,-0.005
3.932,-0.105,-0.010
3.934,-0.035,-0.010
3.936,0.040,-0.010
3.938,0.060,-0.010
3.940,0.030,-0.005
3.942,-0.070,0.000
3.944,-0.130,0.000
3.946,-0.210,0.000
3.948,-0.200,-0.005
3.950,-0.180,-0.020
3.952,-0.100,-0.030
3.954,-0.060,-0.050
3.956,-0.040,-0.065
3.958,-0.080,-0.080
3.960,-0.090,-0.090
3.962,-0.155,-0.095
3.964,-0.215,-0.095
3.966,-0.300,-0.090
3.968,-0.245,-0.080
3.970,-0.215,-0.070
3.972,-0.140,-0.060
3.974,-0.100,-0.055
3.976,0.010,-0.050
3.978,-0.015,-0.050
3.980,-0.075,-0.055
3.982,-0.120,-0.060
3.984,-0.175,-0.070
3.986,-0.245,-0.075
3.988,-0.245,-0.075
3.990,-0.240,-0.075
3.992,-0.175,-0.075
3.994,-0.110,-0.070
3.996,0.005,-0.070
3.998,-0.040,-0.070
4.000,-0.055,-0.070
4.002,-0.110,-0.070
4.004,-0.195,-0.070
4.006,-0.280,-0.070
4.008,-0.270,-0.070
4.010,-0.195,-0.070
4.012,-0.145,-0.065
4.014,-0.105,-0.055
4.016,-0.005,-0.050
4.018,0.020,-0.040
4.020,-0.030,-0.030
4.022,-0.125,-0.025
4.024,-0.105,-0.025
4.026,-0.215,-0.025
4.028,-0.205,-0.030
4.030,-0.215,-0.040
4.032,-0.155,-0.050
4.034,-0.135,-0.065
4.036,-0.015,-0.075
4.038,-0.045,-0.085
4.040,-0.105,-0.090
4.042,-0.160,-0.090
4.044,-0.175,-0.085
4.046,-0.260,-0.080
4.048,-0.235,-0.065
4.050,-0.210,-0.055
4.052,-0.105,-0.045
4.054,-0.110,-0.040
4.056,0.005,-0.040
4.058,0.015,-0.045
4.060,-0.070,-0.050
4.062,-0.180,-0.060
4.064,-0.205,-0.075
4.066,-0.275,-0.080
4.068,-0.250,-0.085
4.070,-0.190,-0.090
4.072,-0.135,-0.085
4.074,-0.085,-0.080
4.076,-0.015,-0.070
4.078,-0.020,-0.065
4.080,-0.080,-0.060
4.082,-0.140,-0.060
4.084,-0.190,-0.060
4.086,-0.250,-0.060
4.088,-0.240,-0.065
4.090,-0.135,-0.060
4.092,-0.140,-0.060
4.094,-0.095,-0.055
4.096,-0.010,-0.050
4.098,-0.005,-0.040
4.100,-0.060,-0.035
4.102,-0.120,-0.030
4.104,-0.165,-0.030
4.106,-0.230,-0.035
4.108,-0.230,-0.040
4.110,-0.195,-0.050
4.112,-0.115,-0.055
4.114,-0.045,-0.055
4.116,-0.015,-0.055
4.118,-0.040,-0.050
4.120,-0.105,-0.045
4.122,-0.110,-0.040
4.124,-0.160,-0.030
4.126,-0.220,-0.025
4.128,-0.165,-0.025
4.130,-0.140,-0.025
4.132,-0.100,-0.035
4.134,-0.065,-0.040
4.136,-0.040,-0.050
4.138,-0.070,-0.060
4.140,-0.120,-0.065
4.142,-0.155,-0.065
4.144,-0.200,-0.065
4.146,-0.210,-0.060
4.148,-0.200,-0.055
4.150,-0.160,-0.050
4.152,-0.085,-0.040
4.154,-0.030,-0.035
4.156,0.020,-0.030
4.158,0.035,-0.020
4.160,-0.040,-0.015
4.162,-0.100,-0.010
4.164,-0.165,-0.005
4.166,-0.200,0.000
4.168,-0.190,0.000
4.170,-0.110,-0.005
4.172,-0.060,-0.010
4.174,-0.040,-0.015
4.176,0.015,-0.025
4.178,0.000,-0.030
4.180,-0.045,-0.035
4.182,-0.100,-0.035
4.184,-0.190,-0.030
4.186,-0.210,-0.025
4.188,-0.210,-0.015
4.190,-0.110,-0.010
4.192,-0.060,-0.005
4.194,-0.010,-0.010
4.196,-0.020,-0.015
4.198,-0.025,-0.025
4.200,-0.115,-0.035
4.202,-0.165,-0.045
4.204,-0.235,-0.055
4.206,-0.225,-0.055
4.208,-0.210,-0.045
4.210,-0.120,-0.035
4.212,-0.070,-0.020
4.214,0.030,-0.005
4.216,0.090,0.010
4.218,0.045,0.015
4.220,-0.065,0.015
4.222,-0.145,0.005
4.224,-0.220,-0.015
4.226,-0.260,-0.035
4.228,-0.250,-0.060
4.230,-0.205,-0.080
4.232,-0.155,-0.095
4.234,-0.040,-0.100
4.236,-0.045,-0.100
4.238,-0.040,-0.090
4.240,-0.140,-0.075
4.242,-0.165,-0.055
4.244,-0.240,-0.040
4.246,-0.185,-0.030
4.248,-0.165,-0.025
4.250,-0.150,-0.030
4.252,-0.105,-0.040
4.254,-0.045,-0.050
4.256,-0.055,-0.065
4.258,-0.050,-0.075
4.260,-0.135,-0.085
4.262,-0.180,-0.085
4.264,-0.275,-0.085
4.266,-0.240,-0.085
4.268,-0.275,-0.090
4.270,-0.170,-0.095
4.272,-0.135,-0.105
4.274,-0.105,-0.120
4.276,-0.155,-0.135
4.278,-0.185,-0.140
4.280,-0.255,-0.135
4.282,-0.215,-0.115
4.284,-0.270,-0.070
4.286,-0.220,-0.005
4.288,-0.060,0.085
4.290,0.165,0.195
4.292,0.335,0.320
4.294,0.535,0.450
4.296,0.605,0.585
4.298,0.685,0.720
4.300,0.810,0.835
4.302,0.890,0.940
4.304,0.880,1.015
4.306,0.940,1.065
4.308,0.975,1.075
4.310,1.040,1.045
4.312,0.995,0.980
4.314,0.925,0.875
4.316,0.775,0.740
4.318,0.565,0.590
4.320,0.290,0.435
4.322,0.085,0.285
4.324,-0.135,0.155
4.326,-0.185,0.050
4.328,-0.170,-0.020
4.330,-0.120,-0.060
4.332,-0.100,-0.070
4.334,-0.005,-0.070
4.336,-0.005,-0.055
4.338,-0.035,-0.045
4.340,-0.120,-0.040
4.342,-0.200,-0.040
4.344,-0.295,-0.050
4.346,-0.255,-0.065
4.348,-0.165,-0.080
4.350,-0.145,-0.090
4.352,-0.155,-0.100
4.354,-0.045,-0.100
4.356,-0.045,-0.095
4.358,-0.085,-0.085
4.360,-0.150,-0.070
4.362,-0.160,-0.060
4.364,-0.255,-0.055
4.366,-0.230,-0.050
4.368,-0.185,-0.055
4.370,-0.130,-0.060
4.372,-0.090,-0.070
4.374,-0.045,-0.080
4.376,-0.035,-0.090
4.378,-0.130,-0.100
4.380,-0.185,-0.105
4.382,-0.215,-0.105
4.384,-0.305,-0.105
4.386,-0.260,-0.095
4.388,-0.185,-0.085
4.390,-0.120,-0.075
4.392,-0.095,-0.065
4.394,-0.015,-0.055
4.396,-0.035,-0.050
4.398,-0.100,-0.050
4.400,-0.140,-0.050
4.402,-0.195,-0.055
4.404,-0.260,-0.060
4.406,-0.260,-0.065
4.408,-0.220,-0.070
4.410,-0.150,-0.070
4.412,-0.085,-0.070
4.414,-0.010,-0.065
4.416,0.015,-0.060
4.418,-0.050,-0.055
4.420,-0.145,-0.050
4.422,-0.240,-0.050
4.424,-0.295,-0.050
4.426,-0.255,-0.050
4.428,-0.175,-0.055
4.430,-0.090,-0.060
4.432,-0.070,-0.065
4.434,0.020,-0.065
4.436,-0.015,-0.065
4.438,-0.135,-0.065
4.440,-0.165,-0.065
4.442,-0.215,-0.060
4.444,-0.260,-0.055
4.446,-0.210,-0.050
4.448,-0.145,-0.045
4.450,-0.085,-0.045
4.452,-0.020,-0.045
4.454,0.005,-0.040
4.456,-0.040,-0.040
4.458,-0.080,-0.040
4.460,-0.145,-0.040
4.462,-0.205,-0.040
4.464,-0.220,-0.045
4.466,-0.195,-0.045
4.468,-0.120,-0.045
4.470,-0.100,-0.050
4.472,-0.020,-0.050
4.474,0.020,-0.055
4.476,-0.055,-0.050
4.478,-0.095,-0.045
4.480,-0.165,-0.040
4.482,-0.175,-0.025
4.484,-0.165,-0.010
4.486,-0.135,0.000
4.488,-0.075,0.015
4.490,-0.045,0.020
4.492,0.035,0.025
4.494,0.080,0.020
4.496,0.075,0.015
4.498,-0.050,0.010
4.500,-0.100,0.005
4.502,-0.170,0.000
4.504,-0.185,0.000
4.506,-0.160,0.005
4.508,-0.080,0.010
4.510,-0.015,0.020
4.512,0.070,0.030
4.514,0.075,0.035
4.516,0.010,0.045
4.518,-0.005,0.050
4.520,-0.030,0.055
4.522,-0.145,0.060
4.524,-0.085,0.060
4.526,-0.045,0.065
4.528,-0.040,0.070
4.530,0.015,0.075
4.532,0.155,0.080
4.534,0.125,0.080
4.536,0.095,0.080
4.538,-0.015,0.080
4.540,-0.035,0.075
4.542,-0.130,0.075
4.544,-0.105,0.075
4.546,-0.080,0.075
4.548,0.005,0.075
4.550,0.050,0.075
4.552,0.115,0.075
4.554,0.090,0.070
4.556,0.060,0.060
4.558,-0.010,0.050
4.560,-0.065,0.040
4.562,-0.175,0.030
4.564,-0.145,0.025
4.566,-0.135,0.025
4.568,-0.080,0.025
4.570,-0.045,0.025
4.572,0.060,0.025
4.574,0.035,0.020
4.576,0.005,0.010
4.578,-0.055,0.000
4.580,-0.080,-0.010
4.582,-0.210,-0.020
4.584,-0.190,-0.020
4.586,-0.145,-0.020
4.588,-0.065,-0.010
4.590,-0.050,0.005
4.592,0.075,0.020
4.594,0.025,0.030
4.596,-0.045,0.030
4.598,-0.130,0.020
4.600,-0.045,0.000
4.602,-0.170,-0.030
4.604,-0.180,-0.065
4.606,-0.275,-0.090
4.608,-0.265,-0.110
4.610,-0.185,-0.115
4.612,-0.100,-0.105
4.614,-0.075,-0.090
4.616,-0.005,-0.065
4.618,-0.055,-0.040
4.620,-0.060,-0.025
4.622,-0.130,-0.020
4.624,-0.200,-0.025
4.626,-0.285,-0.040
4.628,-0.200,-0.055
4.630,-0.175,-0.070
4.632,-0.100,-0.075
4.634,-0.085,-0.075
4.636,0.010,-0.065
4.638,-0.015,-0.055
4.640,-0.070,-0.040
4.642,-0.095,-0.030
4.644,-0.170,-0.025
4.646,-0.270,-0.030
4.648,-0.250,-0.040
4.650,-0.185,-0.055
4.652,-0.130,-0.070
4.654,-0.105,-0.085
4.656,-0.035,-0.095
4.658,-0.050,-0.100
4.660,-0.115,-0.100
4.662,-0.185,-0.095
4.664,-0.200,-0.090
4.666,-0.305,-0.085
4.668,-0.255,-0.080
4.670,-0.190,-0.080
4.672,-0.140,-0.080
4.674,-0.085,-0.075
4.676,-0.010,-0.075
4.678,-0.015,-0.070
4.680,-0.090,-0.070
4.682,-0.155,-0.070
4.684,-0.195,-0.065
4.686,-0.280,-0.065
4.688,-0.240,-0.070
4.690,-0.200,-0.070
4.692,-0.135,-0.075
4.694,-0.065,-0.075
4.696,-0.050,-0.075
4.698,-0.040,-0.075
4.700,-0.070,-0.070
4.702,-0.145,-0.060
4.704,-0.195,-0.055
4.706,-0.260,-0.050
4.708,-0.215,-0.045
4.710,-0.160,-0.040
4.712,-0.095,-0.035
4.714,-0.025,-0.035
4.716,-0.005,-0.040
4.718,-0.030,-0.040
4.720,-0.075,-0.045
4.722,-0.170,-0.050
4.724,-0.220,-0.060
4.726,-0.245,-0.065
4.728,-0.250,-0.070
4.730,-0.200,-0.075
4.732,-0.115,-0.070
4.734,-0.040,-0.065
4.736,0.000,-0.060
4.738,0.015,-0.045
4.740,-0.015,-0.030
4.742,-0.080,-0.015
4.744,-0.150,-0.005
4.746,-0.215,0.000
4.748,-0.185,-0.005
4.750,-0.155,-0.015
4.752,-0.130,-0.035
4.754,-0.050,-0.055
4.756,-0.060,-0.070
4.758,-0.075,-0.090
4.760,-0.130,-0.095
4.762,-0.185,-0.100
4.764,-0.235,-0.090
4.766,-0.260,-0.080
4.768,-0.200,-0.065
4.770,-0.105,-0.050
4.772,-0.100,-0.040
4.774,-0.030,-0.030
4.776,-0.020,-0.025
4.778,-0.030,-0.025
4.780,-0.090,-0.025
4.782,-0.155,-0.030
4.784,-0.225,-0.030
4.786,-0.215,-0.030
4.788,-0.145,-0.025
4.790,-0.065,-0.015
4.792,-0.030,-0.005
4.794,0.025,0.000
4.796,0.060,0.010
4.798,0.015,0.015
4.800,-0.085,0.015
4.802,-0.130,0.015
4.804,-0.185,0.005
4.806,-0.175,-0.005
4.808,-0.180,-0.015
4.810,-0.115,-0.025
4.812,-0.070,-0.035
4.814,-0.015,-0.045
4.816,-0.030,-0.050
4.818,-0.050,-0.050
4.820,-0.105,-0.045
4.822,-0.170,-0.045
4.824,-0.245,-0.040
4.826,-0.220,-0.040
4.828,-0.195,-0.045
4.830,-0.120,-0.050
4.832,-0.095,-0.055
4.834,-0.030,-0.065
4.836,-0.070,-0.070
4.838,-0.100,-0.075
4.840,-0.175,-0.075
4.842,-0.190,-0.075
4.844,-0.270,-0.070
4.846,-0.235,-0.070
4.848,-0.210,-0.065
4.850,-0.135,-0.065
4.852,-0.120,-0.070
4.854,-0.020,-0.070
4.856,-0.050,-0.075
4.858,-0.095,-0.080
4.860,-0.170,-0.080
4.862,-0.190,-0.080
4.864,-0.295,-0.075
4.866,-0.235,-0.070
4.868,-0.205,-0.065
4.870,-0.145,-0.060
4.872,-0.130,-0.055
4.874,-0.035,-0.055
4.876,-0.010,-0.050
4.878,-0.045,-0.050
4.880,-0.115,-0.055
4.882,-0.160,-0.060
4.884,-0.280,-0.070
4.886,-0.270,-0.090
4.888,-0.265,-0.115
4.890,-0.240,-0.140
4.892,-0.245,-0.170
4.894,-0.170,-0.195
4.896,-0.200,-0.210
4.898,-0.245,-0.210
4.900,-0.295,-0.190
4.902,-0.235,-0.145
4.904,-0.300,-0.075
4.906,-0.190,0.020
4.908,-0.030,0.135
4.910,0.215,0.270
4.912,0.440,0.415
4.914,0.610,0.560
4.916,0.745,0.705
4.918,0.860,0.840
4.920,0.935,0.960
4.922,0.985,1.050
4.924,0.985,1.115
4.926,1.005,1.135
4.928,1.050,1.120
4.930,1.030,1.060
4.932,0.905,0.965
4.934,0.845,0.835
4.936,0.715,0.690
4.938,0.470,0.530
4.940,0.255,0.375
4.942,0.030,0.240
4.944,-0.105,0.130
4.946,-0.160,0.050
4.948,-0.155,0.000
4.950,-0.095,-0.025
4.952,-0.050,-0.035
4.954,0.005,-0.035
4.956,-0.015,-0.035
4.958,-0.095,-0.035
4.960,-0.160,-0.045
4.962,-0.235,-0.060
4.964,-0.300,-0.075
4.966,-0.275,-0.090
4.968,-0.205,-0.100
4.970,-0.160,-0.105
4.972,-0.115,-0.105
4.974,-0.030,-0.095
4.976,-0.065,-0.090
4.978,-0.120,-0.090
4.980,-0.230,-0.095
4.982,-0.300,-0.100
4.984,-0.335,-0.115
4.986,-0.295,-0.125
4.988,-0.225,-0.140
4.990,-0.205,-0.145
4.992,-0.140,-0.145
4.994,-0.070,-0.135
4.996,-0.055,-0.125
4.998,-0.125,-0.110
5.000,-0.215,-0.100
5.002,-0.255,-0.090
5.004,-0.310,-0.085
5.006,-0.275,-0.080
5.008,-0.210,-0.085
5.010,-0.150,-0.090
5.012,-0.080,-0.090
5.014,-0.040,-0.095
5.016,-0.095,-0.095
5.018,-0.190,-0.095
5.020,-0.190,-0.095
5.022,-0.210,-0.095
5.024,-0.280,-0.095
5.026,-0.290,-0.100
5.028,-0.235,-0.105
5.030,-0.190,-0.110
5.032,-0.135,-0.110
5.034,-0.070,-0.110
5.036,-0.075,-0.110
5.038,-0.125,-0.100
5.040,-0.185,-0.090
5.042,-0.220,-0.080
5.044,-0.225,-0.070
5.046,-0.235,-0.060
5.048,-0.160,-0.060
5.050,-0.140,-0.060
5.052,-0.065,-0.065
5.054,-0.035,-0.070
5.056,-0.070,-0.075
5.058,-0.140,-0.080
5.060,-0.170,-0.085
5.062,-0.280,-0.085
5.064,-0.260,-0.085
5.066,-0.220,-0.080
5.068,-0.175,-0.080
5.070,-0.125,-0.075
5.072,-0.120,-0.080
5.074,-0.085,-0.080
5.076,-0.080,-0.080
5.078,-0.105,-0.085
5.080,-0.160,-0.080
5.082,-0.260,-0.080
5.084,-0.235,-0.070
5.086,-0.215,-0.060
5.088,-0.145,-0.050
5.090,-0.070,-0.040
5.092,0.015,-0.030
5.094,-0.005,-0.025
5.096,-0.055,-0.025
5.098,-0.130,-0.025
5.100,-0.145,-0.030
5.102,-0.225,-0.035
5.104,-0.225,-0.045
5.106,-0.210,-0.050
5.108,-0.120,-0.050
5.110,-0.090,-0.050
5.112,-0.015,-0.045
5.114,-0.020,-0.035
5.116,-0.020,-0.025
5.118,-0.100,-0.010
5.120,-0.145,0.010
5.122,-0.190,0.020
5.124,-0.110,0.030
5.126,-0.105,0.035
5.128,-0.060,0.035
5.130,-0.040,0.030
5.132,0.060,0.025
5.134,0.005,0.025
5.136,0.015,0.025
5.138,-0.045,0.030
5.140,-0.055,0.045
5.142,-0.135,0.060
5.144,-0.080,0.075
5.146,-0.075,0.090
5.148,0.025,0.100
5.150,0.050,0.100
5.152,0.115,0.095
5.154,0.085,0.080
5.156,0.040,0.065
5.158,-0.010,0.050
5.160,-0.050,0.040
5.162,-0.155,0.035
5.164,-0.135,0.035
5.166,-0.115,0.045
5.168,-0.040,0.055
5.170,-0.005,0.065
5.172,0.105,0.070
5.174,0.090,0.070
5.176,0.035,0.070
5.178,-0.035,0.060
5.180,-0.065,0.050
5.182,-0.155,0.040
5.184,-0.150,0.030
5.186,-0.115,0.025
5.188,-0.050,0.025
5.190,-0.030,0.025
5.192,0.065,0.025
5.194,0.055,0.025
5.196,-0.035,0.015
5.198,-0.105,0.005
5.200,-0.130,-0.005
5.202,-0.245,-0.020
5.204,-0.235,-0.030
5.206,-0.155,-0.035
5.208,-0.115,-0.035
5.210,-0.080,-0.035
5.212,0.005,-0.030
5.214,0.015,-0.025
5.216,-0.040,-0.025
5.218,-0.135,-0.025
5.220,-0.160,-0.035
5.222,-0.260,-0.045
5.224,-0.240,-0.055
5.226,-0.205,-0.065
5.228,-0.150,-0.070
5.230,-0.135,-0.075
5.232,-0.065,-0.075
5.234,-0.065,-0.075
5.236,-0.105,-0.070
5.238,-0.175,-0.070
5.240,-0.205,-0.065
5.242,-0.255,-0.065
5.244,-0.270,-0.070
5.246,-0.195,-0.070
5.248,-0.130,-0.065
5.250,-0.045,-0.060
5.252,0.000,-0.055
5.254,-0.015,-0.050
5.256,-0.105,-0.045
5.258,-0.135,-0.040
5.260,-0.165,-0.035
5.262,-0.260,-0.035
5.264,-0.260,-0.040
5.266,-0.185,-0.045
5.268,-0.110,-0.055
5.270,-0.075,-0.060
5.272,-0.065,-0.065
5.274,-0.085,-0.065
5.276,-0.090,-0.070
5.278,-0.145,-0.070
5.280,-0.205,-0.070
5.282,-0.290,-0.070
5.284,-0.295,-0.070
5.286,-0.195,-0.075
5.288,-0.120,-0.075
5.290,-0.105,-0.075
5.292,-0.045,-0.075
5.294,0.000,-0.070
5.296,-0.100,-0.070
5.298,-0.180,-0.065
5.300,-0.210,-0.060
5.302,-0.290,-0.055
5.304,-0.285,-0.055
5.306,-0.195,-0.055
5.308,-0.130,-0.055
5.310,-0.070,-0.060
5.312,-0.035,-0.065
5.314,-0.065,-0.070
5.316,-0.130,-0.075
5.318,-0.220,-0.080
5.320,-0.270,-0.085
5.322,-0.260,-0.085
5.324,-0.250,-0.080
5.326,-0.180,-0.080
5.328,-0.115,-0.075
5.330,-0.095,-0.070
5.332,-0.050,-0.065
5.334,-0.025,-0.060
5.336,-0.120,-0.055
5.338,-0.160,-0.055
5.340,-0.235,-0.055
5.342,-0.260,-0.055
5.344,-0.235,-0.050
5.346,-0.150,-0.050
5.348,-0.085,-0.045
5.350,-0.020,-0.045
5.352,0.005,-0.040
5.354,-0.025,-0.035
5.356,-0.115,-0.035
5.358,-0.165,-0.035
5.360,-0.230,-0.040
5.362,-0.245,-0.045
5.364,-0.205,-0.050
5.366,-0.170,-0.055
5.368,-0.115,-0.060
5.370,-0.025,-0.060
5.372,-0.005,-0.055
5.374,-0.060,-0.050
5.376,-0.145,-0.045
5.378,-0.165,-0.035
5.380,-0.235,-0.035
5.382,-0.250,-0.030
5.384,-0.230,-0.035
5.386,-0.135,-0.035
5.388,-0.095,-0.040
5.390,-0.005,-0.035
5.392,0.005,-0.030
5.394,0.015,-0.020
5.396,-0.065,-0.005
5.398,-0.120,0.015
5.400,-0.200,0.030
5.402,-0.160,0.040
5.404,-0.105,0.040
5.406,-0.035,0.035
5.408,-0.035,0.025
5.410,0.030,0.005
5.412,-0.010,-0.010
5.414,-0.020,-0.025
5.416,-0.120,-0.035
5.418,-0.125,-0.040
5.420,-0.260,-0.035
5.422,-0.235,-0.025
5.424,-0.170,-0.020
5.426,-0.065,-0.010
5.428,-0.065,-0.005
5.430,0.040,-0.005
5.432,0.010,-0.015
5.434,-0.050,-0.020
5.436,-0.100,-0.030
5.438,-0.145,-0.035
5.440,-0.260,-0.040
5.442,-0.245,-0.040
5.444,-0.210,-0.035
5.446,-0.140,-0.035
5.448,-0.070,-0.030
5.450,0.040,-0.030
5.452,0.010,-0.035
5.454,-0.085,-0.045
5.456,-0.145,-0.055
5.458,-0.185,-0.065
5.460,-0.290,-0.070
5.462,-0.275,-0.075
5.464,-0.200,-0.075
5.466,-0.170,-0.075
5.468,-0.130,-0.070
5.470,-0.015,-0.060
5.472,-0.020,-0.060
5.474,-0.095,-0.055
5.476,-0.120,-0.055
5.478,-0.155,-0.060
5.480,-0.290,-0.060
5.482,-0.250,-0.065
5.484,-0.230,-0.070
5.486,-0.160,-0.070
5.488,-0.110,-0.065
5.490,-0.035,-0.065
5.492,-0.065,-0.060
5.494,-0.070,-0.060
5.496,-0.120,-0.060
5.498,-0.185,-0.060
5.500,-0.280,-0.060
5.502,-0.270,-0.060
5.504,-0.190,-0.065
5.506,-0.110,-0.065
5.508,-0.110,-0.065
5.510,-0.045,-0.075
5.512,-0.060,-0.085
5.514,-0.135,-0.105
5.516,-0.275,-0.130
5.518,-0.325,-0.155
5.520,-0.395,-0.185
5.522,-0.420,-0.200
5.524,-0.360,-0.210
5.526,-0.295,-0.195
5.528,-0.195,-0.165
5.530,-0.050,-0.110
5.532,-0.010,-0.030
5.534,0.035,0.070
5.536,0.050,0.185
5.538,0.210,0.315
5.540,0.270,0.450
5.542,0.425,0.595
5.544,0.590,0.740
5.546,0.825,0.875
5.548,1.015,1.000
5.550,1.210,1.105
5.552,1.255,1.180
5.554,1.240,1.220
5.556,1.150,1.215
5.558,1.050,1.160
5.560,0.845,1.065
5.562,0.690,0.930
5.564,0.615,0.765
5.566,0.490,0.595
5.568,0.365,0.425
5.570,0.270,0.280
5.572,0.120,0.160
5.574,-0.015,0.075
5.576,-0.095,0.025
5.578,-0.170,0.000
5.580,-0.225,-0.010
5.582,-0.180,-0.010
5.584,-0.160,-0.015
5.586,-0.125,-0.025
5.588,-0.090,-0.040
5.590,-0.040,-0.060
5.592,-0.075,-0.085
5.594,-0.160,-0.100
5.596,-0.195,-0.110
5.598,-0.245,-0.110
5.600,-0.305,-0.100
5.602,-0.275,-0.090
5.604,-0.210,-0.080
5.606,-0.145,-0.070
5.608,-0.100,-0.075
5.610,-0.045,-0.080
5.612,-0.085,-0.095
5.614,-0.205,-0.110
5.616,-0.260,-0.120
5.618,-0.290,-0.130
5.620,-0.315,-0.130
5.622,-0.260,-0.130
5.624,-0.190,-0.120
5.626,-0.215,-0.110
5.628,-0.135,-0.105
5.630,-0.075,-0.100
5.632,-0.080,-0.105
5.634,-0.155,-0.110
5.636,-0.220,-0.115
5.638,-0.275,-0.125
5.640,-0.320,-0.130
5.642,-0.310,-0.130
5.644,-0.255,-0.130
5.646,-0.190,-0.130
5.648,-0.120,-0.125
5.650,-0.100,-0.125
5.652,-0.080,-0.120
5.654,-0.185,-0.115
5.656,-0.225,-0.110
5.658,-0.280,-0.100
5.660,-0.295,-0.085
5.662,-0.280,-0.075
5.664,-0.135,-0.060
5.666,-0.085,-0.045
5.668,-0.030,-0.040
5.670,-0.025,-0.040
5.672,-0.090,-0.045
5.674,-0.125,-0.055
5.676,-0.190,-0.070
5.678,-0.300,-0.090
5.680,-0.315,-0.100
5.682,-0.290,-0.110
5.684,-0.265,-0.110
5.686,-0.175,-0.105
5.688,-0.045,-0.090
5.690,-0.025,-0.080
5.692,-0.035,-0.065
5.694,-0.110,-0.055
5.696,-0.170,-0.045
5.698,-0.290,-0.045
5.700,-0.270,-0.050
5.702,-0.255,-0.055
5.704,-0.180,-0.060
5.706,-0.110,-0.065
5.708,-0.025,-0.065
5.710,-0.035,-0.060
5.712,-0.040,-0.055
5.714,-0.115,-0.045
5.716,-0.170,-0.035
5.718,-0.270,-0.030
5.720,-0.230,-0.025
5.722,-0.200,-0.025
5.724,-0.140,-0.025
5.726,-0.115,-0.030
5.728,-0.030,-0.035
5.730,-0.040,-0.040
5.732,-0.060,-0.045
5.734,-0.120,-0.040
5.736,-0.150,-0.035
5.738,-0.260,-0.030
5.740,-0.215,-0.020
5.742,-0.155,-0.010
5.744,-0.095,0.000
5.746,-0.095,0.010
5.748,0.060,0.010
5.750,0.035,0.015
5.752,-0.025,0.015
5.754,-0.095,0.015
5.756,-0.135,0.015
5.758,-0.240,0.020
5.760,-0.155,0.025
5.762,-0.110,0.030
5.764,-0.035,0.035
5.766,0.005,0.035
5.768,0.080,0.040
5.770,0.025,0.040
5.772,0.000,0.040
5.774,-0.080,0.040
5.776,-0.080,0.040
5.778,-0.175,0.040
5.780,-0.165,0.045
5.782,-0.120,0.045
5.784,-0.025,0.050
5.786,0.015,0.055
5.788,0.105,0.060
5.790,0.105,0.060
5.792,0.015,0.060
5.794,-0.075,0.055
5.796,-0.100,0.050
5.798,-0.180,0.050
5.800,-0.155,0.050
5.802,-0.090,0.050
5.804,-0.020,0.050
5.806,-0.010,0.050
5.808,0.095,0.050
5.810,0.065,0.045
5.812,0.025,0.040
5.814,-0.095,0.030
5.816,-0.145,0.020
5.818,-0.225,0.005
5.820,-0.210,-0.010
5.822,-0.140,-0.015
5.824,-0.055,-0.025
5.826,-0.070,-0.030
5.828,0.005,-0.030
5.830,-0.025,-0.030
5.832,-0.090,-0.030
5.834,-0.120,-0.035
5.836,-0.170,-0.035
5.838,-0.280,-0.040
5.840,-0.270,-0.045
5.842,-0.200,-0.050
5.844,-0.110,-0.055
5.846,-0.080,-0.055
5.848,-0.010,-0.055
5.850,-0.025,-0.055
5.852,-0.090,-0.050
5.854,-0.160,-0.050
5.856,-0.220,-0.050
5.858,-0.270,-0.050
5.860,-0.240,-0.050
5.862,-0.180,-0.050
5.864,-0.125,-0.055
5.866,-0.060,-0.055
5.868,-0.030,-0.055
5.870,-0.075,-0.060
5.872,-0.095,-0.060
5.874,-0.170,-0.065
5.876,-0.235,-0.075
5.878,-0.315,-0.075
5.880,-0.285,-0.080
5.882,-0.215,-0.080
5.884,-0.125,-0.075
5.886,-0.065,-0.065
5.888,-0.020,-0.060
5.890,-0.055,-0.050
5.892,-0.110,-0.045
5.894,-0.125,-0.040
5.896,-0.185,-0.045
5.898,-0.330,-0.055
5.900,-0.315,-0.070
5.902,-0.230,-0.080
5.904,-0.180,-0.095
5.906,-0.150,-0.100
5.908,-0.050,-0.100
5.910,-0.050,-0.095
5.912,-0.120,-0.085
5.914,-0.180,-0.075
5.916,-0.225,-0.065
5.918,-0.285,-0.055
5.920,-0.265,-0.050
5.922,-0.165,-0.055
5.924,-0.150,-0.060
5.926,-0.105,-0.070
5.928,-0.040,-0.075
5.930,-0.095,-0.080
5.932,-0.145,-0.085
5.934,-0.180,-0.080
5.936,-0.240,-0.070
5.938,-0.280,-0.060
5.940,-0.260,-0.050
5.942,-0.145,-0.040
5.944,-0.110,-0.030
5.946,-0.020,-0.030
5.948,-0.060,-0.030
5.950,-0.030,-0.035
5.952,-0.090,-0.045
5.954,-0.170,-0.050
5.956,-0.275,-0.060
5.958,-0.290,-0.065
5.960,-0.260,-0.070
5.962,-0.180,-0.070
5.964,-0.135,-0.070
5.966,-0.045,-0.065
5.968,-0.055,-0.060
5.970,-0.055,-0.060
5.972,-0.095,-0.055
5.974,-0.160,-0.055
5.976,-0.270,-0.060
5.978,-0.285,-0.065
5.980,-0.250,-0.070
5.982,-0.185,-0.070
5.984,-0.115,-0.070
5.986,-0.040,-0.070
5.988,-0.075,-0.060
5.990,-0.060,-0.050
5.992,-0.135,-0.040
5.994,-0.170,-0.030
5.996,-0.255,-0.025
5.998,-0.210,-0.020
6.000,-0.180,-0.025
6.002,-0.110,-0.030
6.004,-0.115,-0.040
6.006,-0.050,-0.050
6.008,-0.070,-0.060
6.010,-0.080,-0.065
6.012,-0.145,-0.060
6.014,-0.195,-0.055
6.016,-0.260,-0.050
6.018,-0.240,-0.040
6.020,-0.250,-0.030
6.022,-0.125,-0.025
6.024,-0.065,-0.025
6.026,0.005,-0.025
6.028,-0.040,-0.030
6.030,-0.055,-0.035
6.032,-0.115,-0.035
6.034,-0.120,-0.030
6.036,-0.225,-0.025
6.038,-0.215,-0.015
6.040,-0.190,0.000
6.042,-0.095,0.010
6.044,-0.055,0.020
6.046,0.065,0.025
6.048,0.040,0.030
6.050,-0.015,0.025
6.052,-0.105,0.020
6.054,-0.115,0.005
6.056,-0.240,-0.005
6.058,-0.265,-0.020
6.060,-0.215,-0.035
6.062,-0.155,-0.045
6.064,-0.130,-0.055
6.066,-0.010,-0.065
6.068,0.000,-0.070
6.070,-0.125,-0.075
6.072,-0.185,-0.075
6.074,-0.210,-0.070
6.076,-0.295,-0.070
6.078,-0.270,-0.065
6.080,-0.210,-0.060
6.082,-0.150,-0.055
6.084,-0.125,-0.055
6.086,-0.050,-0.055
6.088,-0.065,-0.060
6.090,-0.120,-0.065
6.092,-0.175,-0.070
6.094,-0.195,-0.075
6.096,-0.290,-0.075
6.098,-0.250,-0.070
6.100,-0.190,-0.065
6.102,-0.165,-0.060
6.104,-0.145,-0.055
6.106,-0.045,-0.055
6.108,-0.100,-0.055
6.110,-0.140,-0.060
6.112,-0.180,-0.070
6.114,-0.190,-0.080
6.116,-0.265,-0.085
6.118,-0.290,-0.085
6.120,-0.225,-0.085
6.122,-0.175,-0.085
6.124,-0.115,-0.080
6.126,-0.060,-0.075
6.128,-0.055,-0.080
6.130,-0.105,-0.090
6.132,-0.250,-0.105
6.134,-0.275,-0.125
6.136,-0.380,-0.145
6.138,-0.405,-0.165
6.140,-0.395,-0.175
6.142,-0.280,-0.170
6.144,-0.205,-0.145
6.146,-0.065,-0.100
6.148,-0.030,-0.030
6.150,0.005,0.060
6.152,0.075,0.165
6.154,0.165,0.290
6.156,0.235,0.425
6.158,0.360,0.565
6.160,0.580,0.705
6.162,0.775,0.840
6.164,0.935,0.960
6.166,1.110,1.055
6.168,1.160,1.115
6.170,1.125,1.130
6.172,1.040,1.105
6.174,0.900,1.035
6.176,0.715,0.925
6.178,0.560,0.780
6.180,0.435,0.620
6.182,0.305,0.455
6.184,0.200,0.300
6.186,0.110,0.170
6.188,0.005,0.065
6.190,-0.065,0.000
6.192,-0.120,-0.035
6.194,-0.215,-0.050
6.196,-0.275,-0.050
6.198,-0.245,-0.045
6.200,-0.230,-0.040
6.202,-0.140,-0.045
6.204,-0.120,-0.055
6.206,-0.065,-0.070
6.208,-0.105,-0.090
6.210,-0.180,-0.105
6.212,-0.220,-0.115
6.214,-0.315,-0.115
6.216,-0.305,-0.115
6.218,-0.260,-0.105
6.220,-0.195,-0.095
6.222,-0.210,-0.090
6.224,-0.120,-0.090
6.226,-0.100,-0.095
6.228,-0.130,-0.100
6.230,-0.215,-0.110
6.232,-0.225,-0.115
6.234,-0.330,-0.120
6.236,-0.325,-0.115
6.238,-0.285,-0.115
6.240,-0.225,-0.105
6.242,-0.160,-0.095
6.244,-0.110,-0.090
6.246,-0.070,-0.085
6.248,-0.100,-0.085
6.250,-0.185,-0.085
6.252,-0.245,-0.090
6.254,-0.310,-0.095
6.256,-0.315,-0.095
6.258,-0.295,-0.090
6.260,-0.185,-0.085
6.262,-0.100,-0.080
6.264,-0.035,-0.070
6.266,-0.045,-0.065
6.268,-0.100,-0.060
6.270,-0.165,-0.060
6.272,-0.185,-0.060
6.274,-0.310,-0.065
6.276,-0.320,-0.075
6.278,-0.300,-0.080
6.280,-0.195,-0.085
6.282,-0.150,-0.085
6.284,-0.065,-0.085
6.286,-0.055,-0.080
6.288,-0.125,-0.070
6.290,-0.130,-0.065
6.292,-0.180,-0.060
6.294,-0.275,-0.055
6.296,-0.275,-0.055
6.298,-0.270,-0.060
6.300,-0.190,-0.060
6.302,-0.130,-0.065
6.304,-0.045,-0.065
6.306,-0.045,-0.065
6.308,-0.075,-0.065
6.310,-0.170,-0.065
6.312,-0.205,-0.060
6.314,-0.280,-0.055
6.316,-0.275,-0.050
6.318,-0.220,-0.050
6.320,-0.160,-0.045
6.322,-0.120,-0.045
6.324,-0.025,-0.045
6.326,-0.045,-0.040
6.328,-0.065,-0.040
6.330,-0.165,-0.040
6.332,-0.165,-0.040
6.334,-0.240,-0.040
6.336,-0.245,-0.040
6.338,-0.250,-0.040
6.340,-0.155,-0.045
6.342,-0.110,-0.045
6.344,-0.005,-0.045
6.346,-0.060,-0.045
6.348,-0.080,-0.040
6.350,-0.130,-0.035
6.352,-0.135,-0.030
6.354,-0.220,-0.020
6.356,-0.200,-0.010
6.358,-0.185,0.005
6.360,-0.130,0.015
6.362,-0.075,0.025
6.364,0.070,0.035
6.366,0.055,0.040
6.368,0.000,0.045
6.370,-0.080,0.045
6.372,-0.110,0.040
6.374,-0.195,0.035
6.376,-0.165,0.030
6.378,-0.150,0.025
6.380,-0.080,0.020
6.382,-0.005,0.020
6.384,0.060,0.025
6.386,0.070,0.030
6.388,0.030,0.045
6.390,-0.070,0.060
6.392,-0.100,0.070
6.394,-0.170,0.085
6.396,-0.105,0.090
6.398,-0.075,0.095
6.400,-0.040,0.090
6.402,0.005,0.085
6.404,0.085,0.075
6.406,0.070,0.065
6.408,0.015,0.055
6.410,-0.075,0.050
6.412,-0.105,0.045
6.414,-0.185,0.045
6.416,-0.180,0.045
6.418,-0.120,0.045
6.420,-0.035,0.045
6.422,0.045,0.045
6.424,0.090,0.050
6.426,0.075,0.055
6.428,0.010,0.055
6.430,-0.110,0.060
6.432,-0.130,0.060
6.434,-0.205,0.060
6.436,-0.190,0.055
6.438,-0.145,0.045
6.440,-0.070,0.030
6.442,-0.020,0.015
6.444,0.005,-0.005
6.446,0.005,-0.025
6.448,-0.090,-0.035
6.450,-0.155,-0.045
6.452,-0.220,-0.045
6.454,-0.270,-0.045
6.456,-0.265,-0.040
6.458,-0.180,-0.030
6.460,-0.110,-0.025
6.462,-0.060,-0.025
6.464,-0.055,-0.025
6.466,-0.065,-0.035
6.468,-0.130,-0.045
6.470,-0.180,-0.055
6.472,-0.240,-0.065
6.474,-0.350,-0.075
6.476,-0.235,-0.075
6.478,-0.205,-0.075
6.480,-0.165,-0.070
6.482,-0.105,-0.065
6.484,-0.050,-0.060
6.486,-0.060,-0.055
6.488,-0.145,-0.050
6.490,-0.175,-0.050
6.492,-0.225,-0.055
6.494,-0.290,-0.055
6.496,-0.265,-0.055
6.498,-0.190,-0.060
6.500,-0.165,-0.055
6.502,-0.060,-0.055
6.504,0.010,-0.055
6.506,-0.045,-0.055
6.508,-0.145,-0.055
6.510,-0.195,-0.055
6.512,-0.285,-0.055
6.514,-0.290,-0.060
6.516,-0.270,-0.060
6.518,-0.200,-0.065
6.520,-0.150,-0.070
6.522,-0.090,-0.070
6.524,-0.045,-0.070
6.526,-0.055,-0.070
6.528,-0.135,-0.070
6.530,-0.200,-0.070
6.532,-0.255,-0.070
6.534,-0.305,-0.070
6.536,-0.310,-0.065
6.538,-0.210,-0.065
6.540,-0.140,-0.060
6.542,-0.075,-0.060
6.544,-0.045,-0.060
6.546,-0.065,-0.055
6.548,-0.155,-0.055
6.550,-0.200,-0.060
6.552,-0.275,-0.060
6.554,-0.260,-0.060
6.556,-0.230,-0.060
6.558,-0.180,-0.060
6.560,-0.175,-0.060
6.562,-0.075,-0.060
6.564,-0.040,-0.060
6.566,-0.065,-0.060
6.568,-0.165,-0.060
6.570,-0.195,-0.060
6.572,-0.285,-0.065
6.574,-0.285,-0.065
6.576,-0.260,-0.065
6.578,-0.210,-0.065
6.580,-0.135,-0.065
6.582,-0.040,-0.065
6.584,-0.060,-0.065
6.586,-0.105,-0.060
6.588,-0.175,-0.060
6.590,-0.205,-0.055
6.592,-0.260,-0.050
6.594,-0.255,-0.045
6.596,-0.250,-0.045
6.598,-0.135,-0.040
6.600,-0.125,-0.040
6.602,-0.020,-0.040
6.604,-0.045,-0.040
6.606,-0.040,-0.040
6.608,-0.140,-0.035
6.610,-0.170,-0.030
6.612,-0.255,-0.025
6.614,-0.240,-0.025
6.616,-0.195,-0.020
6.618,-0.130,-0.015
6.620,-0.120,-0.015
6.622,0.010,-0.015
6.624,-0.010,-0.020
6.626,-0.030,-0.020
6.628,-0.115,-0.025
6.630,-0.180,-0.025
6.632,-0.300,-0.025
6.634,-0.230,-0.025
6.636,-0.190,-0.020
6.638,-0.110,-0.020
6.640,-0.090,-0.015
6.642,-0.005,-0.015
6.644,-0.015,-0.010
6.646,-0.060,-0.010
6.648,-0.110,-0.005
6.650,-0.140,-0.005
6.652,-0.220,0.005
6.654,-0.180,0.010
6.656,-0.155,0.020
6.658,-0.065,0.025
6.660,-0.065,0.030
6.662,0.040,0.025
6.664,0.025,0.020
6.666,-0.045,0.010
6.668,-0.100,-0.010
6.670,-0.150,-0.025
6.672,-0.275,-0.040
6.674,-0.275,-0.055
6.676,-0.240,-0.065
6.678,-0.180,-0.070
6.680,-0.125,-0.070
6.682,-0.035,-0.070
6.684,-0.075,-0.065
6.686,-0.130,-0.065
6.688,-0.205,-0.070
6.690,-0.245,-0.075
6.692,-0.330,-0.080
6.694,-0.275,-0.085
6.696,-0.245,-0.085
6.698,-0.175,-0.085
6.700,-0.135,-0.075
6.702,-0.040,-0.060
6.704,-0.005,-0.050
6.706,-0.080,-0.035
6.708,-0.150,-0.025
6.710,-0.160,-0.020
6.712,-0.255,-0.020
6.714,-0.265,-0.025
6.716,-0.200,-0.035
6.718,-0.140,-0.040
6.720,-0.120,-0.050
6.722,-0.035,-0.050
6.724,-0.050,-0.050
6.726,-0.110,-0.050
6.728,-0.145,-0.045
6.730,-0.235,-0.040
6.732,-0.255,-0.040
6.734,-0.240,-0.040
6.736,-0.210,-0.045
6.738,-0.170,-0.050
6.740,-0.120,-0.065
6.742,-0.100,-0.080
6.744,-0.100,-0.095
6.746,-0.170,-0.115
6.748,-0.280,-0.135
6.750,-0.340,-0.150
6.752,-0.390,-0.160
6.754,-0.405,-0.165
6.756,-0.340,-0.155
6.758,-0.215,-0.135
6.760,-0.090,-0.100
6.762,-0.010,-0.050
6.764,0.025,0.025
6.766,0.055,0.115
6.768,0.105,0.220
6.770,0.175,0.340
6.772,0.255,0.470
6.774,0.390,0.600
6.776,0.600,0.725
6.778,0.800,0.840
6.780,0.960,0.930
6.782,1.085,1.000
6.784,1.095,1.040
6.786,1.050,1.045
6.788,0.905,1.010
6.790,0.740,0.940
6.792,0.610,0.835
6.794,0.475,0.705
6.796,0.370,0.555
6.798,0.285,0.405
6.800,0.185,0.260
6.802,0.100,0.135
6.804,-0.010,0.040
6.806,-0.110,-0.030
6.808,-0.165,-0.065
6.810,-0.245,-0.080
6.812,-0.270,-0.075
6.814,-0.245,-0.060
6.816,-0.150,-0.045
6.818,-0.140,-0.035
6.820,-0.070,-0.035
6.822,-0.050,-0.040
6.824,-0.080,-0.050
6.826,-0.165,-0.065
6.828,-0.210,-0.080
6.830,-0.280,-0.090
6.832,-0.275,-0.090
6.834,-0.305,-0.095
6.836,-0.210,-0.090
6.838,-0.140,-0.090
6.840,-0.080,-0.090
6.842,-0.045,-0.095
6.844,-0.100,-0.095
6.846,-0.215,-0.100
6.848,-0.270,-0.100
6.850,-0.320,-0.095
6.852,-0.290,-0.090
6.854,-0.260,-0.085
6.856,-0.180,-0.080
6.858,-0.120,-0.080
6.860,-0.080,-0.080
6.862,-0.145,-0.090
6.864,-0.160,-0.100
6.866,-0.210,-0.115
6.868,-0.245,-0.130
6.870,-0.340,-0.135
6.872,-0.345,-0.140
6.874,-0.310,-0.135
6.876,-0.205,-0.125
6.878,-0.145,-0.110
6.880,-0.040,-0.095
6.882,-0.065,-0.080
6.884,-0.100,-0.070
6.886,-0.165,-0.065
6.888,-0.205,-0.065
6.890,-0.300,-0.075
6.892,-0.295,-0.080
6.894,-0.280,-0.090
6.896,-0.190,-0.095
6.898,-0.150,-0.100
6.900,-0.090,-0.105
6.902,-0.095,-0.100
6.904,-0.130,-0.090
6.906,-0.180,-0.085
6.908,-0.190,-0.070
6.910,-0.285,-0.060
6.912,-0.245,-0.055
6.914,-0.225,-0.045
6.916,-0.130,-0.045
6.918,-0.100,-0.050
6.920,-0.060,-0.055
6.922,-0.100,-0.065
6.924,-0.115,-0.075
6.926,-0.180,-0.080
6.928,-0.195,-0.085
6.930,-0.315,-0.085
6.932,-0.275,-0.080
6.934,-0.215,-0.075
6.936,-0.145,-0.065
6.938,-0.125,-0.055
6.940,-0.030,-0.050
6.942,-0.055,-0.045
6.944,-0.120,-0.050
6.946,-0.190,-0.055
6.948,-0.230,-0.060
6.950,-0.300,-0.070
6.952,-0.265,-0.070
6.954,-0.185,-0.065
6.956,-0.090,-0.060
6.958,-0.085,-0.050
6.960,-0.015,-0.035
6.962,-0.070,-0.020
6.964,-0.060,-0.010
6.966,-0.135,-0.005
6.968,-0.170,-0.005
6.970,-0.245,-0.005
6.972,-0.205,-0.005
6.974,-0.145,-0.010
6.976,-0.100,-0.005
6.978,-0.060,0.000
6.980,0.030,0.010
6.982,0.030,0.020
6.984,0.000,0.035
6.986,-0.075,0.045
6.988,-0.095,0.050
6.990,-0.165,0.050
6.992,-0.170,0.050
6.994,-0.140,0.045
6.996,-0.070,0.040
6.998,-0.030,0.040
7.000,0.065,0.040
7.002,0.080,0.040
7.004,0.020,0.050
7.006,-0.020,0.055
7.008,-0.100,0.065
7.010,-0.155,0.075
7.012,-0.180,0.080
7.014,-0.105,0.080
7.016,-0.060,0.075
7.018,0.010,0.070
7.020,0.090,0.065
7.022,0.080,0.055
7.024,0.030,0.055
7.026,-0.055,0.050
7.028,-0.115,0.050
7.030,-0.180,0.050
7.032,-0.180,0.050
7.034,-0.115,0.050
7.036,-0.045,0.050
7.038,0.045,0.045
7.040,0.065,0.040
7.042,0.025,0.035
7.044,-0.020,0.030
7.046,-0.090,0.030
7.048,-0.145,0.030
7.050,-0.165,0.035
7.052,-0.150,0.035
7.054,-0.100,0.040
7.056,-0.055,0.045
7.058,-0.010,0.045
7.060,0.055,0.035
7.062,0.010,0.025
7.064,-0.085,0.010
7.066,-0.145,-0.005
7.068,-0.190,-0.025
7.070,-0.255,-0.040
7.072,-0.260,-0.055
7.074,-0.180,-0.065
7.076,-0.160,-0.070
7.078,-0.105,-0.070
7.080,-0.050,-0.075
7.082,-0.040,-0.075
7.084,-0.135,-0.075
7.086,-0.185,-0.075
7.088,-0.270,-0.080
7.090,-0.305,-0.080
7.092,-0.280,-0.080
7.094,-0.205,-0.080
7.096,-0.135,-0.075
7.098,-0.080,-0.070
7.100,-0.020,-0.060
7.102,-0.045,-0.055
7.104,-0.135,-0.050
7.106,-0.195,-0.045
7.108,-0.260,-0.050
7.110,-0.290,-0.055
7.112,-0.260,-0.065
7.114,-0.175,-0.075
7.116,-0.150,-0.080
7.118,-0.090,-0.090
7.120,-0.060,-0.090
7.122,-0.130,-0.085
7.124,-0.150,-0.080
7.126,-0.175,-0.070
7.128,-0.275,-0.060
7.130,-0.265,-0.045
7.132,-0.195,-0.040
7.134,-0.140,-0.030
7.136,-0.110,-0.030
7.138,-0.035,-0.030
7.140,-0.015,-0.030
7.142,-0.045,-0.030
7.144,-0.115,-0.035
7.146,-0.175,-0.035
7.148,-0.245,-0.035
7.150,-0.250,-0.040
7.152,-0.220,-0.040
7.154,-0.140,-0.045
7.156,-0.135,-0.055
7.158,-0.065,-0.060
7.160,-0.070,-0.070
7.162,-0.105,-0.080
7.164,-0.170,-0.090
7.166,-0.200,-0.095
7.168,-0.310,-0.090
7.170,-0.290,-0.090
7.172,-0.280,-0.080
7.174,-0.180,-0.075
7.176,-0.135,-0.065
7.178,-0.045,-0.060
7.180,-0.050,-0.060
7.182,-0.075,-0.060
7.184,-0.115,-0.065
7.186,-0.195,-0.070
7.188,-0.305,-0.070
7.190,-0.280,-0.075
7.192,-0.250,-0.070
7.194,-0.170,-0.065
7.196,-0.100,-0.060
7.198,-0.040,-0.060
7.200,-0.050,-0.055
7.202,-0.070,-0.060
7.204,-0.160,-0.065
7.206,-0.195,-0.070
7.208,-0.320,-0.080
7.210,-0.295,-0.085
7.212,-0.250,-0.085
7.214,-0.150,-0.085
7.216,-0.140,-0.075
7.218,-0.025,-0.065
7.220,-0.025,-0.050
7.222,-0.040,-0.040
7.224,-0.125,-0.030
7.226,-0.170,-0.025
7.228,-0.260,-0.020
7.230,-0.240,-0.025
7.232,-0.190,-0.030
7.234,-0.105,-0.035
7.236,-0.065,-0.040
7.238,0.015,-0.035
7.240,-0.045,-0.035
7.242,-0.055,-0.025
7.244,-0.125,-0.020
7.246,-0.135,-0.010
7.248,-0.215,-0.005
7.250,-0.230,-0.005
7.252,-0.205,-0.005
7.254,-0.095,-0.005
7.256,-0.090,-0.015
7.258,-0.015,-0.020
7.260,0.040,-0.020
7.262,-0.020,-0.025
7.264,-0.095,-0.025
7.266,-0.135,-0.020
7.268,-0.250,-0.020
7.270,-0.240,-0.015
7.272,-0.205,-0.015
7.274,-0.100,-0.015
7.276,-0.050,-0.020
7.278,0.000,-0.025
7.280,-0.010,-0.030
7.282,-0.050,-0.035
7.284,-0.135,-0.040
7.286,-0.185,-0.040
7.288,-0.285,-0.045
7.290,-0.275,-0.050
7.292,-0.225,-0.050
7.294,-0.065,-0.050
7.296,-0.090,-0.055
7.298,-0.030,-0.050
7.300,-0.025,-0.050
7.302,-0.090,-0.045
7.304,-0.120,-0.040
7.306,-0.190,-0.040
7.308,-0.260,-0.040
7.310,-0.245,-0.040
7.312,-0.210,-0.045
7.314,-0.135,-0.055
7.316,-0.140,-0.070
7.318,-0.070,-0.080
7.320,-0.065,-0.090
7.322,-0.120,-0.095
7.324,-0.190,-0.095
7.326,-0.240,-0.090
7.328,-0.320,-0.085
7.330,-0.275,-0.075
7.332,-0.215,-0.065
7.334,-0.140,-0.055
7.336,-0.080,-0.055
7.338,-0.060,-0.055
7.340,-0.090,-0.065
7.342,-0.135,-0.070
7.344,-0.200,-0.070
7.346,-0.250,-0.070
7.348,-0.280,-0.065
7.350,-0.260,-0.060
7.352,-0.160,-0.050
7.354,-0.110,-0.050
7.356,-0.065,-0.055
7.358,-0.065,-0.070
7.360,-0.140,-0.100
7.362,-0.250,-0.140
7.364,-0.365,-0.180
7.366,-0.415,-0.210
7.368,-0.465,-0.230
7.370,-0.400,-0.215
7.372,-0.285,-0.175
7.374,-0.180,-0.100
7.376,-0.015,0.000
7.378,0.180,0.130
7.380,0.275,0.270
7.382,0.375,0.415
7.384,0.445,0.555
7.386,0.520,0.685
7.388,0.610,0.805
7.390,0.745,0.910
7.392,0.915,1.000
7.394,1.075,1.065
7.396,1.190,1.110
7.398,1.210,1.125
7.400,1.130,1.105
7.402,0.955,1.045
7.404,0.785,0.945
7.406,0.595,0.810
7.408,0.450,0.650
7.410,0.275,0.485
7.412,0.125,0.320
7.414,0.045,0.180
7.416,0.030,0.070
7.418,0.000,-0.005
7.420,-0.025,-0.040
7.422,-0.100,-0.050
7.424,-0.145,-0.040
7.426,-0.235,-0.030
7.428,-0.265,-0.020
7.430,-0.265,-0.020
7.432,-0.175,-0.035
7.434,-0.140,-0.060
7.436,-0.055,-0.090
7.438,-0.070,-0.110
7.440,-0.095,-0.125
7.442,-0.175,-0.125
7.444,-0.200,-0.115
7.446,-0.280,-0.095
7.448,-0.295,-0.080
7.450,-0.230,-0.070
7.452,-0.200,-0.070
7.454,-0.185,-0.080
7.456,-0.105,-0.095
7.458,-0.105,-0.115
7.460,-0.115,-0.135
7.462,-0.210,-0.145
7.464,-0.265,-0.145
7.466,-0.360,-0.140
7.468,-0.335,-0.125
7.470,-0.315,-0.105
7.472,-0.185,-0.090
7.474,-0.140,-0.080
7.476,-0.045,-0.075
7.478,-0.075,-0.075
7.480,-0.090,-0.085
7.482,-0.180,-0.095
7.484,-0.190,-0.105
7.486,-0.330,-0.115
7.488,-0.330,-0.115
7.490,-0.300,-0.115
7.492,-0.195,-0.110
7.494,-0.165,-0.110
7.496,-0.080,-0.105
7.498,-0.095,-0.105
7.500,-0.120,-0.105
7.502,-0.170,-0.105
7.504,-0.200,-0.110
7.506,-0.320,-0.110
7.508,-0.325,-0.105
7.510,-0.265,-0.105
7.512,-0.230,-0.100
7.514,-0.140,-0.095
7.516,-0.035,-0.090
7.518,-0.080,-0.085
7.520,-0.085,-0.085
7.522,-0.180,-0.080
7.524,-0.195,-0.075
7.526,-0.310,-0.070
7.528,-0.280,-0.065
7.530,-0.215,-0.060
7.532,-0.150,-0.055
7.534,-0.090,-0.055
7.536,-0.055,-0.055
7.538,-0.095,-0.060
7.540,-0.100,-0.065
7.542,-0.180,-0.070
7.544,-0.210,-0.080
7.546,-0.285,-0.085
7.548,-0.265,-0.090
7.550,-0.235,-0.090
7.552,-0.230,-0.085
7.554,-0.110,-0.075
7.556,-0.035,-0.065
7.558,-0.055,-0.055
7.560,-0.110,-0.045
7.562,-0.170,-0.035
7.564,-0.165,-0.025
7.566,-0.240,-0.020
7.568,-0.195,-0.015
7.570,-0.115,-0.015
7.572,-0.080,-0.015
7.574,-0.025,-0.020
7.576,0.015,-0.025
7.578,-0.065,-0.030
7.580,-0.085,-0.030
7.582,-0.180,-0.035
7.584,-0.200,-0.035
7.586,-0.245,-0.030
7.588,-0.185,-0.030
7.590,-0.155,-0.020
7.592,-0.080,-0.015
7.594,-0.050,-0.005
7.596,0.020,0.005
7.598,0.005,0.015
7.600,-0.050,0.025
7.602,-0.080,0.030
7.604,-0.095,0.040
7.606,-0.170,0.045
7.608,-0.120,0.050
7.610,-0.075,0.050
7.612,-0.025,0.050
7.614,-0.030,0.050
7.616,0.030,0.050
7.618,0.070,0.050
7.620,0.020,0.050
7.622,-0.070,0.050
7.624,-0.135,0.050
7.626,-0.180,0.055
7.628,-0.130,0.055
7.630,-0.070,0.055
7.632,-0.005,0.055
7.634,0.015,0.055
7.636,0.070,0.050
7.638,0.065,0.050
7.640,-0.015,0.045
7.642,-0.065,0.040
7.644,-0.105,0.040
7.646,-0.160,0.040
7.648,-0.130,0.040
7.650,-0.060,0.045
7.652,-0.050,0.045
7.654,-0.025,0.045
7.656,0.035,0.040
7.658,0.020,0.035
7.660,0.000,0.025
7.662,-0.080,0.020
7.664,-0.165,0.010
7.666,-0.185,0.000
7.668,-0.240,0.000
7.670,-0.135,-0.005
7.672,-0.055,-0.005
7.674,-0.010,-0.005
7.676,0.005,-0.005
7.678,-0.025,-0.005
7.680,-0.115,-0.010
7.682,-0.190,-0.015
7.684,-0.235,-0.025
7.686,-0.280,-0.035
7.688,-0.210,-0.045
7.690,-0.165,-0.055
7.692,-0.110,-0.060
7.694,-0.035,-0.065
7.696,-0.045,-0.065
7.698,-0.080,-0.065
7.700,-0.150,-0.060
7.702,-0.205,-0.060
7.704,-0.240,-0.060
7.706,-0.255,-0.060
7.708,-0.245,-0.065
7.710,-0.205,-0.065
7.712,-0.130,-0.065
7.714,-0.070,-0.065
7.716,-0.050,-0.065
7.718,-0.060,-0.060
7.720,-0.115,-0.060
7.722,-0.150,-0.055
7.724,-0.260,-0.045
7.726,-0.240,-0.040
7.728,-0.240,-0.040
7.730,-0.160,-0.035
7.732,-0.105,-0.035
7.734,-0.050,-0.035
7.736,-0.035,-0.040
7.738,-0.080,-0.045
7.740,-0.135,-0.050
7.742,-0.210,-0.055
7.744,-0.300,-0.060
7.746,-0.260,-0.060
7.748,-0.235,-0.065
7.750,-0.180,-0.065
7.752,-0.100,-0.060
7.754,0.005,-0.055
7.756,-0.050,-0.050
7.758,-0.055,-0.045
7.760,-0.125,-0.045
7.762,-0.210,-0.045
7.764,-0.285,-0.045
7.766,-0.280,-0.050
7.768,-0.230,-0.060
7.770,-0.185,-0.065
7.772,-0.175,-0.070
7.774,-0.035,-0.070
7.776,-0.030,-0.070
7.778,-0.060,-0.070
7.780,-0.100,-0.065
7.782,-0.165,-0.065
7.784,-0.290,-0.060
7.786,-0.280,-0.060
7.788,-0.235,-0.065
7.790,-0.160,-0.070
7.792,-0.115,-0.075
7.794,-0.050,-0.080
7.796,-0.100,-0.080
7.798,-0.085,-0.080
7.800,-0.180,-0.080
7.802,-0.185,-0.080
7.804,-0.290,-0.075
7.806,-0.280,-0.075
7.808,-0.250,-0.075
7.810,-0.185,-0.075
7.812,-0.140,-0.075
7.814,-0.040,-0.080
7.816,-0.080,-0.080
7.818,-0.085,-0.080
7.820,-0.170,-0.075
7.822,-0.175,-0.065
7.824,-0.275,-0.055
7.826,-0.295,-0.040
7.828,-0.210,-0.025
7.830,-0.110,-0.010
7.832,-0.040,0.000
7.834,0.065,0.005
7.836,0.050,0.010
7.838,-0.015,0.005
7.840,-0.120,0.000
7.842,-0.170,-0.015
7.844,-0.260,-0.025
7.846,-0.285,-0.040
7.848,-0.255,-0.050
7.850,-0.150,-0.060
7.852,-0.115,-0.065
7.854,-0.020,-0.065
7.856,-0.010,-0.060
7.858,-0.080,-0.055
7.860,-0.145,-0.050
7.862,-0.165,-0.045
7.864,-0.270,-0.045
7.866,-0.255,-0.040
7.868,-0.235,-0.045
7.870,-0.170,-0.045
7.872,-0.145,-0.050
7.874,-0.020,-0.050
7.876,-0.005,-0.045
7.878,-0.020,-0.040
7.880,-0.115,-0.035
7.882,-0.185,-0.020
7.884,-0.215,-0.010
7.886,-0.175,0.005
7.888,-0.115,0.015
7.890,-0.055,0.020
7.892,-0.045,0.025
7.894,0.020,0.025
7.896,0.005,0.020
7.898,-0.030,0.015
7.900,-0.080,0.015
7.902,-0.150,0.010
7.904,-0.200,0.010
7.906,-0.200,0.015
7.908,-0.130,0.015
7.910,-0.070,0.015
7.912,-0.030,0.015
7.914,-0.005,0.010
7.916,-0.015,0.005
7.918,-0.065,-0.005
7.920,-0.150,-0.020
7.922,-0.225,-0.035
7.924,-0.280,-0.050
7.926,-0.265,-0.060
7.928,-0.200,-0.065
7.930,-0.110,-0.070
7.932,-0.085,-0.070
7.934,-0.035,-0.070
7.936,-0.020,-0.065
7.938,-0.100,-0.060
7.940,-0.175,-0.055
7.942,-0.245,-0.050
7.944,-0.315,-0.050
7.946,-0.260,-0.050
7.948,-0.205,-0.055
7.950,-0.120,-0.055
7.952,-0.055,-0.060
7.954,0.015,-0.055
7.956,-0.050,-0.055
7.958,-0.115,-0.050
7.960,-0.170,-0.050
7.962,-0.220,-0.045
7.964,-0.275,-0.045
7.966,-0.275,-0.050
7.968,-0.180,-0.055
7.970,-0.140,-0.065
7.972,-0.105,-0.075
7.974,-0.060,-0.085
7.976,-0.085,-0.095
7.978,-0.140,-0.100
7.980,-0.205,-0.100
7.982,-0.325,-0.100
7.984,-0.315,-0.095
7.986,-0.270,-0.095
7.988,-0.190,-0.100
7.990,-0.145,-0.105
7.992,-0.135,-0.120
7.994,-0.100,-0.140
7.996,-0.165,-0.160
7.998,-0.285,-0.175
8.000,-0.360,-0.185
8.002,-0.415,-0.185
8.004,-0.375,-0.165
8.006,-0.285,-0.125
8.008,-0.140,-0.060
8.010,-0.035,0.025
8.012,0.150,0.130
8.014,0.295,0.255
8.016,0.435,0.390
8.018,0.455,0.530
8.020,0.525,0.675
8.022,0.565,0.810
8.024,0.810,0.940
8.026,0.930,1.045
8.028,1.100,1.125
8.030,1.165,1.175
8.032,1.230,1.185
8.034,1.240,1.155
8.036,1.100,1.090
8.038,0.870,0.985
8.040,0.715,0.855
8.042,0.485,0.700
8.044,0.320,0.545
8.046,0.170,0.390
8.048,0.075,0.255
8.050,0.025,0.140
8.052,0.035,0.055
8.054,0.010,0.000
8.056,-0.025,-0.030
8.058,-0.130,-0.035
8.060,-0.155,-0.035
8.062,-0.230,-0.025
8.064,-0.235,-0.020
8.066,-0.200,-0.015
8.068,-0.125,-0.020
8.070,-0.100,-0.030
8.072,-0.015,-0.045
8.074,-0.035,-0.065
8.076,-0.090,-0.080
8.078,-0.185,-0.095
8.080,-0.260,-0.105
8.082,-0.355,-0.115
8.084,-0.330,-0.115
8.086,-0.300,-0.120
8.088,-0.205,-0.120
8.090,-0.170,-0.115
8.092,-0.070,-0.115
8.094,-0.075,-0.115
8.096,-0.120,-0.115
8.098,-0.180,-0.110
8.100,-0.225,-0.110
8.102,-0.340,-0.105
8.104,-0.310,-0.100
8.106,-0.265,-0.100
8.108,-0.165,-0.095
8.110,-0.135,-0.090
8.112,-0.045,-0.085
8.114,-0.055,-0.085
8.116,-0.095,-0.085
8.118,-0.180,-0.085
8.120,-0.225,-0.090
8.122,-0.350,-0.095
8.124,-0.320,-0.100
8.126,-0.255,-0.100
8.128,-0.180,-0.105
8.130,-0.150,-0.110
8.132,-0.050,-0.115
8.134,-0.095,-0.115
8.136,-0.150,-0.115
8.138,-0.235,-0.115
8.140,-0.280,-0.110
8.142,-0.360,-0.110
8.144,-0.295,-0.105
8.146,-0.240,-0.100
8.148,-0.180,-0.095
8.150,-0.145,-0.090
8.152,-0.050,-0.085
8.154,-0.050,-0.085
8.156,-0.135,-0.085
8.158,-0.205,-0.085
8.160,-0.210,-0.085
8.162,-0.315,-0.085
8.164,-0.280,-0.085
8.166,-0.240,-0.085
8.168,-0.165,-0.080
8.170,-0.125,-0.075
8.172,-0.025,-0.070
8.174,-0.050,-0.070
8.176,-0.095,-0.065
8.178,-0.145,-0.065
8.180,-0.185,-0.065
8.182,-0.265,-0.065
8.184,-0.265,-0.065
8.186,-0.240,-0.065
8.188,-0.120,-0.060
8.190,-0.125,-0.060
8.192,-0.045,-0.055
8.194,-0.065,-0.055
8.196,-0.075,-0.050
8.198,-0.090,-0.045
8.200,-0.170,-0.045
8.202,-0.275,-0.045
8.204,-0.255,-0.040
8.206,-0.180,-0.040
8.208,-0.115,-0.040
8.210,-0.055,-0.040
8.212,0.010,-0.035
8.214,-0.030,-0.035
8.216,-0.110,-0.030
8.218,-0.180,-0.030
8.220,-0.180,-0.025
8.222,-0.245,-0.020
8.224,-0.200,-0.015
8.226,-0.145,-0.010
8.228,-0.040,0.000
8.230,-0.005,0.005
8.232,0.045,0.015
8.234,0.040,0.020
8.236,-0.025,0.025
8.238,-0.080,0.035
8.240,-0.125,0.040
8.242,-0.170,0.045
8.244,-0.130,0.045
8.246,-0.070,0.050
8.248,0.015,0.055
8.250,0.055,0.055
8.252,0.100,0.060
8.254,0.055,0.060
8.256,-0.005,0.060
8.258,-0.055,0.060
8.260,-0.140,0.060
8.262,-0.175,0.055
8.264,-0.110,0.055
8.266,-0.070,0.055
8.268,0.005,0.050
8.270,0.040,0.050
8.272,0.075,0.050
8.274,0.035,0.050
8.276,-0.045,0.050
8.278,-0.055,0.050
8.280,-0.125,0.045
8.282,-0.175,0.040
8.284,-0.155,0.035
8.286,-0.080,0.030
8.288,-0.055,0.025
8.290,0.030,0.025
8.292,0.095,0.020
8.294,0.055,0.020
8.296,-0.060,0.015
8.298,-0.120,0.010
8.300,-0.230,0.005
8.302,-0.245,-0.005
8.304,-0.210,-0.010
8.306,-0.120,-0.020
8.308,-0.085,-0.025
8.310,0.015,-0.025
8.312,0.045,-0.025
8.314,0.005,-0.020
8.316,-0.080,-0.015
8.318,-0.110,-0.010
8.320,-0.215,-0.010
8.322,-0.230,-0.015
8.324,-0.250,-0.030
8.326,-0.225,-0.045
8.328,-0.150,-0.065
8.330,-0.050,-0.085
8.332,-0.045,-0.100
8.334,-0.105,-0.105
8.336,-0.150,-0.105
8.338,-0.220,-0.095
8.340,-0.310,-0.085
8.342,-0.280,-0.070
8.344,-0.200,-0.055
8.346,-0.150,-0.045
8.348,-0.105,-0.045
8.350,-0.045,-0.045
8.352,-0.060,-0.055
8.354,-0.065,-0.060
8.356,-0.135,-0.065
8.358,-0.185,-0.070
8.360,-0.270,-0.065
8.362,-0.230,-0.060
8.364,-0.190,-0.050
8.366,-0.150,-0.040
8.368,-0.130,-0.035
8.370,-0.060,-0.035
8.372,-0.040,-0.040
8.374,-0.035,-0.045
8.376,-0.115,-0.055
8.378,-0.180,-0.065
8.380,-0.310,-0.070
8.382,-0.255,-0.075
8.384,-0.275,-0.075
8.386,-0.185,-0.070
8.388,-0.120,-0.060
8.390,-0.025,-0.055
8.392,-0.015,-0.050
8.394,-0.080,-0.050
8.396,-0.160,-0.055
8.398,-0.195,-0.060
8.400,-0.275,-0.070
8.402,-0.280,-0.085
8.404,-0.235,-0.090
8.406,-0.150,-0.095
8.408,-0.145,-0.095
8.410,-0.055,-0.085
8.412,-0.040,-0.075
8.414,-0.095,-0.060
8.416,-0.145,-0.045
8.418,-0.130,-0.035
8.420,-0.245,-0.035
8.422,-0.255,-0.035
8.424,-0.250,-0.045
8.426,-0.150,-0.055
8.428,-0.115,-0.065
8.430,-0.030,-0.075
8.432,-0.070,-0.080
8.434,-0.080,-0.080
8.436,-0.155,-0.070
8.438,-0.175,-0.060
8.440,-0.285,-0.050
8.442,-0.250,-0.040
8.444,-0.180,-0.030
8.446,-0.120,-0.030
8.448,-0.085,-0.035
8.450,-0.030,-0.045
8.452,-0.025,-0.055
8.454,-0.050,-0.060
8.456,-0.175,-0.065
8.458,-0.215,-0.060
8.460,-0.280,-0.055
8.462,-0.225,-0.045
8.464,-0.165,-0.030
8.466,-0.105,-0.020
8.468,-0.055,-0.015
8.470,0.000,-0.010
8.472,-0.005,-0.020
8.474,-0.075,-0.030
8.476,-0.150,-0.040
8.478,-0.215,-0.055
8.480,-0.270,-0.065
8.482,-0.255,-0.075
8.484,-0.185,-0.075
8.486,-0.170,-0.075
8.488,-0.090,-0.065
8.490,-0.015,-0.060
8.492,-0.025,-0.050
8.494,-0.090,-0.040
8.496,-0.150,-0.035
8.498,-0.190,-0.035
8.500,-0.210,-0.035
8.502,-0.220,-0.035
8.504,-0.195,-0.035
8.506,-0.125,-0.035
8.508,-0.020,-0.035
8.510,0.040,-0.035
8.512,-0.025,-0.035
8.514,-0.070,-0.035
8.516,-0.115,-0.035
8.518,-0.170,-0.035
8.520,-0.255,-0.040
8.522,-0.250,-0.050
8.524,-0.215,-0.060
8.526,-0.140,-0.065
8.528,-0.085,-0.070
8.530,-0.050,-0.075
8.532,-0.085,-0.070
8.534,-0.095,-0.060
8.536,-0.125,-0.050
8.538,-0.150,-0.030
8.540,-0.200,-0.015
8.542,-0.200,0.000
8.544,-0.090,0.010
8.546,-0.060,0.020
8.548,-0.040,0.020
8.550,0.030,0.015
8.552,0.005,0.010
8.554,-0.070,0.005
8.556,-0.115,0.000
8.558,-0.165,-0.005
8.560,-0.155,0.000
8.562,-0.160,0.005
8.564,-0.105,0.010
8.566,-0.070,0.020
8.568,0.010,0.020
8.570,0.020,0.020
8.572,-0.005,0.020
8.574,-0.070,0.010
8.576,-0.150,0.000
8.578,-0.175,-0.010
8.580,-0.200,-0.020
8.582,-0.190,-0.025
8.584,-0.165,-0.030
8.586,-0.110,-0.035
8.588,-0.015,-0.035
8.590,-0.030,-0.040
8.592,-0.030,-0.040
8.594,-0.100,-0.045
8.596,-0.150,-0.050
8.598,-0.240,-0.055
8.600,-0.250,-0.060
8.602,-0.250,-0.060
8.604,-0.180,-0.065
8.606,-0.115,-0.060
8.608,-0.025,-0.060
8.610,-0.010,-0.055
8.612,-0.020,-0.050
8.614,-0.105,-0.045
8.616,-0.175,-0.040
8.618,-0.270,-0.040
8.620,-0.240,-0.040
8.622,-0.175,-0.040
8.624,-0.150,-0.040
8.626,-0.115,-0.045
8.628,-0.025,-0.045
8.630,-0.040,-0.045
8.632,-0.015,-0.050
8.634,-0.130,-0.050
8.636,-0.210,-0.050
8.638,-0.260,-0.055
8.640,-0.230,-0.055
8.642,-0.210,-0.060
8.644,-0.145,-0.060
8.646,-0.125,-0.055
8.648,-0.025,-0.055
8.650,-0.025,-0.055
8.652,-0.080,-0.055
8.654,-0.170,-0.060
8.656,-0.190,-0.070
8.658,-0.315,-0.085
8.660,-0.315,-0.100
8.662,-0.300,-0.115
8.664,-0.240,-0.130
8.666,-0.215,-0.135
8.668,-0.090,-0.130
8.670,-0.110,-0.105
8.672,-0.070,-0.060
8.674,-0.100,0.010
8.676,-0.025,0.100
8.678,0.040,0.210
8.680,0.180,0.335
8.682,0.325,0.470
8.684,0.510,0.610
8.686,0.740,0.740
8.688,0.945,0.855
8.690,1.000,0.945
8.692,1.055,1.010
8.694,1.010,1.040
8.696,0.960,1.035
8.698,0.820,0.995
8.700,0.720,0.915
8.702,0.640,0.805
8.704,0.600,0.675
8.706,0.450,0.530
8.708,0.360,0.380
8.710,0.215,0.245
8.712,0.040,0.130
8.714,-0.110,0.035
8.716,-0.180,-0.025
8.718,-0.250,-0.055
8.720,-0.245,-0.065
8.722,-0.180,-0.060
8.724,-0.110,-0.045
8.726,-0.045,-0.030
8.728,0.040,-0.020
8.730,0.020,-0.025
8.732,-0.095,-0.035
8.734,-0.185,-0.050
8.736,-0.245,-0.070
8.738,-0.315,-0.090
8.740,-0.265,-0.100
8.742,-0.245,-0.105
8.744,-0.170,-0.100
8.746,-0.085,-0.095
8.748,0.000,-0.085
8.750,-0.055,-0.080
8.752,-0.090,-0.075
8.754,-0.180,-0.075
8.756,-0.240,-0.085
8.758,-0.350,-0.090
8.760,-0.305,-0.100
8.762,-0.210,-0.105
8.764,-0.170,-0.105
8.766,-0.165,-0.100
8.768,-0.035,-0.090
8.770,-0.045,-0.080
8.772,-0.085,-0.065
8.774,-0.100,-0.050
8.776,-0.205,-0.040
8.778,-0.250,-0.035
8.780,-0.210,-0.030
8.782,-0.180,-0.035
8.784,-0.120,-0.040
8.786,-0.080,-0.050
8.788,-0.045,-0.055
8.790,-0.060,-0.060
8.792,-0.075,-0.065
8.794,-0.155,-0.065
8.796,-0.205,-0.065
8.798,-0.255,-0.060
8.800,-0.270,-0.060
8.802,-0.190,-0.060
8.804,-0.150,-0.060
8.806,-0.080,-0.060
8.808,-0.040,-0.065
8.810,-0.065,-0.070
8.812,-0.120,-0.070
8.814,-0.165,-0.070
8.816,-0.230,-0.070
8.818,-0.255,-0.065
8.820,-0.225,-0.060
8.822,-0.150,-0.055
8.824,-0.095,-0.050
8.826,-0.070,-0.050
8.828,-0.025,-0.050
8.830,-0.040,-0.050
8.832,-0.105,-0.055
8.834,-0.190,-0.060
8.836,-0.240,-0.065
8.838,-0.270,-0.065
8.840,-0.230,-0.070
8.842,-0.180,-0.070
8.844,-0.110,-0.065
8.846,-0.035,-0.060
8.848,0.005,-0.055
8.850,-0.010,-0.045
8.852,-0.065,-0.035
8.854,-0.105,-0.030
8.856,-0.190,-0.020
8.858,-0.230,-0.015
8.860,-0.185,-0.010
8.862,-0.120,-0.010
8.864,-0.065,-0.005
8.866,-0.010,-0.005
8.868,0.010,0.000
8.870,0.010,0.000
8.872,-0.055,0.000
8.874,-0.135,0.000
8.876,-0.175,0.000
8.878,-0.190,0.000
8.880,-0.165,-0.005
8.882,-0.110,-0.005
8.884,-0.035,-0.005
8.886,0.020,0.000
8.888,0.025,0.005
8.890,0.030,0.010
8.892,-0.040,0.020
8.894,-0.095,0.030
8.896,-0.160,0.045
8.898,-0.135,0.055
8.900,-0.090,0.065
8.902,0.025,0.070
8.904,0.055,0.075
8.906,0.060,0.075
8.908,0.110,0.075
8.910,0.085,0.070
8.912,-0.005,0.070
8.914,-0.040,0.070
8.916,-0.155,0.070
8.918,-0.115,0.070
8.920,-0.100,0.075
8.922,-0.005,0.075
8.924,0.040,0.080
8.926,0.130,0.080
8.928,0.110,0.085
8.930,0.055,0.085
8.932,-0.020,0.085
8.934,-0.060,0.080
8.936,-0.125,0.075
8.938,-0.095,0.075
8.940,-0.095,0.070
8.942,-0.010,0.060
8.944,0.040,0.055
8.946,0.090,0.050
8.948,0.050,0.045
8.950,0.040,0.040
8.952,-0.015,0.040
8.954,-0.075,0.040
8.956,-0.160,0.040
8.958,-0.125,0.045
8.960,-0.120,0.050
8.962,-0.070,0.050
8.964,-0.020,0.050
8.966,0.075,0.040
8.968,0.065,0.030
8.970,-0.020,0.015
8.972,-0.095,0.000
8.974,-0.125,-0.015
8.976,-0.230,-0.020
8.978,-0.205,-0.025
8.980,-0.150,-0.020
8.982,-0.055,-0.015
8.984,-0.015,-0.010
8.986,0.045,-0.010
8.988,-0.010,-0.010
8.990,-0.090,-0.020
8.992,-0.165,-0.030
8.994,-0.180,-0.050
8.996,-0.290,-0.065
8.998,-0.275,-0.075
9.000,-0.195,-0.080
9.002,-0.105,-0.080
9.004,-0.065,-0.065
9.006,0.000,-0.050
9.008,-0.055,-0.035
9.010,-0.035,-0.025
9.012,-0.110,-0.020
9.014,-0.200,-0.020
9.016,-0.275,-0.030
9.018,-0.255,-0.040
9.020,-0.230,-0.055
9.022,-0.155,-0.070
9.024,-0.065,-0.075
9.026,-0.020,-0.075
9.028,0.000,-0.065
9.030,-0.035,-0.055
9.032,-0.140,-0.040
9.034,-0.185,-0.030
9.036,-0.265,-0.025
9.038,-0.215,-0.025
9.040,-0.180,-0.030
9.042,-0.115,-0.035
9.044,-0.085,-0.045
9.046,-0.030,-0.055
9.048,0.005,-0.060
9.050,-0.055,-0.065
9.052,-0.170,-0.065
9.054,-0.185,-0.060
9.056,-0.275,-0.060
9.058,-0.265,-0.060
9.060,-0.195,-0.060
9.062,-0.100,-0.060
9.064,-0.075,-0.065
9.066,-0.015,-0.065
9.068,0.000,-0.065
9.070,-0.090,-0.065
9.072,-0.150,-0.065
9.074,-0.195,-0.060
9.076,-0.250,-0.055
9.078,-0.250,-0.050
9.080,-0.215,-0.050
9.082,-0.115,-0.050
9.084,-0.065,-0.055
9.086,-0.015,-0.060
9.088,-0.030,-0.070
9.090,-0.110,-0.075
9.092,-0.155,-0.075
9.094,-0.215,-0.075
9.096,-0.250,-0.075
9.098,-0.235,-0.070
9.100,-0.195,-0.065
9.102,-0.115,-0.060
9.104,-0.065,-0.055
9.106,-0.020,-0.055
9.108,-0.050,-0.050
9.110,-0.080,-0.050
9.112,-0.160,-0.050
9.114,-0.190,-0.050
9.116,-0.210,-0.050
9.118,-0.185,-0.045
9.120,-0.120,-0.045
9.122,-0.090,-0.040
9.124,-0.080,-0.040
9.126,-0.025,-0.040
9.128,-0.025,-0.040
9.130,-0.095,-0.040
9.132,-0.150,-0.045
9.134,-0.225,-0.045
9.136,-0.200,-0.045
9.138,-0.190,-0.040
9.140,-0.155,-0.040
9.142,-0.085,-0.035
9.144,-0.035,-0.035
9.146,-0.015,-0.035
9.148,-0.045,-0.035
9.150,-0.095,-0.040
9.152,-0.150,-0.045
9.154,-0.240,-0.050
9.156,-0.235,-0.055
9.158,-0.205,-0.060
9.160,-0.130,-0.065
9.162,-0.055,-0.065
9.164,-0.055,-0.065
9.166,-0.030,-0.060
9.168,-0.055,-0.050
9.170,-0.090,-0.045
9.172,-0.160,-0.040
9.174,-0.215,-0.040
9.176,-0.200,-0.040
9.178,-0.205,-0.045
9.180,-0.165,-0.055
9.182,-0.125,-0.060
9.184,-0.065,-0.065
9.186,-0.045,-0.070
9.188,-0.050,-0.070
9.190,-0.095,-0.065
9.192,-0.140,-0.055
9.194,-0.225,-0.045
9.196,-0.220,-0.035
9.198,-0.190,-0.030
9.200,-0.100,-0.025
9.202,-0.055,-0.025
9.204,-0.030,-0.025
9.206,-0.020,-0.030
9.208,-0.040,-0.040
9.210,-0.130,-0.045
9.212,-0.160,-0.055
9.214,-0.245,-0.060
9.216,-0.255,-0.065
9.218,-0.235,-0.065
9.220,-0.180,-0.065
9.222,-0.100,-0.060
9.224,0.010,-0.055
9.226,0.010,-0.050
9.228,-0.045,-0.040
9.230,-0.105,-0.035
9.232,-0.120,-0.025
9.234,-0.200,-0.020
9.236,-0.215,-0.015
9.238,-0.190,-0.015
9.240,-0.130,-0.015
9.242,-0.085,-0.020
9.244,0.015,-0.025
9.246,-0.020,-0.035
9.248,-0.045,-0.040
9.250,-0.105,-0.040
9.252,-0.170,-0.040
9.254,-0.210,-0.035
9.256,-0.160,-0.020
9.258,-0.125,-0.005
9.260,-0.050,0.010
9.262,-0.030,0.020
9.264,0.090,0.025
9.266,0.055,0.025
9.268,-0.025,0.015
9.270,-0.135,0.000
9.272,-0.170,-0.020
9.274,-0.220,-0.040
9.276,-0.250,-0.060
9.278,-0.225,-0.070
9.280,-0.150,-0.080
9.282,-0.115,-0.080
9.284,0.005,-0.070
9.286,-0.005,-0.065
9.288,-0.050,-0.055
9.290,-0.140,-0.045
9.292,-0.190,-0.045
9.294,-0.240,-0.045
9.296,-0.220,-0.045
9.298,-0.165,-0.050
9.300,-0.110,-0.055
9.302,-0.115,-0.055
9.304,-0.025,-0.055
9.306,-0.035,-0.055
9.308,-0.085,-0.055
9.310,-0.165,-0.055
9.312,-0.240,-0.055
9.314,-0.270,-0.060
9.316,-0.250,-0.065
9.318,-0.195,-0.075
9.320,-0.095,-0.080
9.322,-0.105,-0.085
9.324,-0.035,-0.090
9.326,-0.085,-0.090
9.328,-0.115,-0.090
9.330,-0.170,-0.085
9.332,-0.200,-0.080
9.334,-0.270,-0.075
9.336,-0.270,-0.070
9.338,-0.195,-0.070
9.340,-0.110,-0.075
9.342,-0.095,-0.080
9.344,-0.035,-0.095
9.346,-0.070,-0.110
9.348,-0.200,-0.135
9.350,-0.305,-0.155
9.352,-0.330,-0.170
9.354,-0.380,-0.180
9.356,-0.335,-0.170
9.358,-0.245,-0.145
9.360,-0.170,-0.090
9.362,-0.075,-0.015
9.364,0.115,0.090
9.366,0.235,0.210
9.368,0.355,0.345
9.370,0.445,0.485
9.372,0.515,0.630
9.374,0.585,0.760
9.376,0.755,0.875
9.378,0.880,0.970
9.380,0.990,1.035
9.382,1.130,1.075
9.384,1.185,1.075
9.386,1.110,1.045
9.388,0.945,0.985
9.390,0.795,0.890
9.392,0.625,0.775
9.394,0.420,0.640
9.396,0.255,0.495
9.398,0.185,0.360
9.400,0.120,0.235
9.402,0.085,0.130
9.404,0.085,0.050
9.406,0.025,-0.005
9.408,-0.075,-0.035
9.410,-0.150,-0.045
9.412,-0.215,-0.050
9.414,-0.265,-0.045
9.416,-0.215,-0.040
9.418,-0.180,-0.040
9.420,-0.105,-0.045
9.422,-0.055,-0.055
9.424,-0.005,-0.065
9.426,-0.040,-0.080
9.428,-0.140,-0.090
9.430,-0.220,-0.095
9.432,-0.285,-0.100
9.434,-0.350,-0.105
9.436,-0.260,-0.105
9.438,-0.215,-0.100
9.440,-0.160,-0.095
9.442,-0.050,-0.090
9.444,-0.010,-0.080
9.446,-0.020,-0.075
9.448,-0.100,-0.070
9.450,-0.170,-0.065
9.452,-0.260,-0.065
9.454,-0.265,-0.070
9.456,-0.255,-0.080
9.458,-0.230,-0.090
9.460,-0.180,-0.100
9.462,-0.095,-0.105
9.464,-0.075,-0.110
9.466,-0.090,-0.105
9.468,-0.175,-0.095
9.470,-0.150,-0.080
9.472,-0.245,-0.070
9.474,-0.245,-0.060
9.476,-0.200,-0.055
9.478,-0.145,-0.055
9.480,-0.135,-0.060
9.482,-0.050,-0.070
9.484,-0.020,-0.075
9.486,-0.075,-0.085
9.488,-0.110,-0.085
9.490,-0.175,-0.085
9.492,-0.260,-0.080
9.494,-0.305,-0.080
9.496,-0.245,-0.075
9.498,-0.155,-0.075
9.500,-0.150,-0.080
9.502,-0.035,-0.080
9.504,-0.055,-0.085
9.506,-0.055,-0.085
9.508,-0.105,-0.080
9.510,-0.145,-0.075
9.512,-0.250,-0.065
9.514,-0.220,-0.055
9.516,-0.230,-0.045
9.518,-0.190,-0.045
9.520,-0.150,-0.045
9.522,-0.065,-0.055
9.524,-0.015,-0.070
9.526,-0.030,-0.080
9.528,-0.145,-0.090
9.530,-0.195,-0.090
9.532,-0.290,-0.085
9.534,-0.250,-0.075
9.536,-0.200,-0.060
9.538,-0.135,-0.050
9.540,-0.100,-0.040
9.542,0.025,-0.035
9.544,-0.005,-0.035
9.546,-0.060,-0.040
9.548,-0.110,-0.045
9.550,-0.130,-0.055
9.552,-0.255,-0.055
9.554,-0.230,-0.050
9.556,-0.180,-0.045
9.558,-0.095,-0.035
9.560,-0.070,-0.025
9.562,0.025,-0.020
9.564,0.010,-0.020
9.566,-0.050,-0.020
9.568,-0.105,-0.025
9.570,-0.145,-0.030
9.572,-0.225,-0.030
9.574,-0.195,-0.025
9.576,-0.145,-0.015
9.578,-0.030,0.000
9.580,-0.025,0.015
9.582,0.115,0.035
9.584,0.080,0.045
9.586,-0.015,0.050
9.588,-0.070,0.050
9.590,-0.090,0.045
9.592,-0.155,0.035
9.594,-0.150,0.030
9.596,-0.090,0.025
9.598,-0.005,0.030
9.600,0.060,0.035
9.602,0.115,0.045
9.604,0.100,0.060
9.606,0.065,0.070
9.608,-0.005,0.075
9.610,-0.020,0.080
9.612,-0.130,0.080
9.614,-0.115,0.075
9.616,-0.090,0.070
9.618,-0.005,0.065
9.620,0.045,0.060
9.622,0.110,0.060
9.624,0.090,0.060
9.626,0.020,0.060
9.628,-0.040,0.065
9.630,-0.055,0.065
9.632,-0.100,0.065
9.634,-0.110,0.065
9.636,-0.070,0.060
9.638,-0.040,0.055
9.640,0.015,0.050
9.642,0.100,0.040
9.644,0.070,0.035
9.646,0.010,0.030
9.648,-0.095,0.025
9.650,-0.135,0.020
9.652,-0.155,0.020
9.654,-0.150,0.015
9.656,-0.100,0.015
9.658,-0.025,0.015
9.660,-0.005,0.015
9.662,0.060,0.010
9.664,0.025,0.005
9.666,-0.045,0.000
9.668,-0.130,-0.010
9.670,-0.190,-0.015
9.672,-0.255,-0.025
9.674,-0.195,-0.025
9.676,-0.135,-0.030
9.678,-0.080,-0.030
9.680,-0.035,-0.030
9.682,-0.025,-0.030
9.684,-0.025,-0.035
9.686,-0.065,-0.035
9.688,-0.120,-0.045
9.690,-0.210,-0.055
9.692,-0.300,-0.065
9.694,-0.265,-0.080
9.696,-0.215,-0.090
9.698,-0.145,-0.095
9.700,-0.080,-0.100
9.702,-0.025,-0.095
9.704,-0.015,-0.085
9.706,-0.090,-0.075
9.708,-0.160,-0.065
9.710,-0.220,-0.050
9.712,-0.260,-0.045
9.714,-0.225,-0.040
9.716,-0.180,-0.040
9.718,-0.120,-0.045
9.720,-0.030,-0.050
9.722,-0.005,-0.055
9.724,-0.050,-0.060
9.726,-0.115,-0.060
9.728,-0.155,-0.060
9.730,-0.235,-0.060
9.732,-0.255,-0.055
9.734,-0.195,-0.050
9.736,-0.160,-0.045
9.738,-0.090,-0.045
9.740,-0.015,-0.045
9.742,-0.010,-0.050
9.744,0.010,-0.055
9.746,-0.120,-0.060
9.748,-0.170,-0.065
9.750,-0.270,-0.070
9.752,-0.300,-0.070
9.754,-0.250,-0.075
9.756,-0.210,-0.075
9.758,-0.150,-0.070
9.760,-0.030,-0.070
9.762,0.000,-0.065
9.764,-0.025,-0.060
9.766,-0.125,-0.060
9.768,-0.195,-0.055
9.770,-0.255,-0.055
9.772,-0.260,-0.055
9.774,-0.200,-0.060
9.776,-0.150,-0.060
9.778,-0.130,-0.060
9.780,-0.010,-0.065
9.782,-0.035,-0.060
9.784,-0.050,-0.060
9.786,-0.110,-0.055
9.788,-0.130,-0.055
9.790,-0.220,-0.050
9.792,-0.220,-0.045
9.794,-0.210,-0.040
9.796,-0.170,-0.045
9.798,-0.155,-0.045
9.800,-0.045,-0.050
9.802,-0.035,-0.055
9.804,-0.045,-0.060
9.806,-0.115,-0.065
9.808,-0.175,-0.065
9.810,-0.295,-0.065
9.812,-0.260,-0.065
9.814,-0.250,-0.060
9.816,-0.120,-0.050
9.818,-0.085,-0.045
9.820,0.005,-0.040
9.822,-0.010,-0.040
9.824,-0.045,-0.040
9.826,-0.095,-0.045
9.828,-0.145,-0.045
9.830,-0.275,-0.050
9.832,-0.225,-0.050
9.834,-0.200,-0.055
9.836,-0.165,-0.055
9.838,-0.115,-0.055
9.840,-0.045,-0.060
9.842,-0.060,-0.060
9.844,-0.075,-0.065
9.846,-0.125,-0.065
9.848,-0.145,-0.070
9.850,-0.225,-0.065
9.852,-0.240,-0.065
9.854,-0.195,-0.060
9.856,-0.135,-0.055
9.858,-0.120,-0.050
9.860,-0.015,-0.050
9.862,-0.035,-0.050
9.864,-0.090,-0.050
9.866,-0.185,-0.055
9.868,-0.150,-0.055
9.870,-0.230,-0.055
9.872,-0.215,-0.055
9.874,-0.200,-0.050
9.876,-0.115,-0.040
9.878,-0.085,-0.030
9.880,0.025,-0.025
9.882,0.000,-0.020
9.884,-0.060,-0.020
9.886,-0.105,-0.025
9.888,-0.165,-0.030
9.890,-0.260,-0.035
9.892,-0.230,-0.040
9.894,-0.130,-0.045
9.896,-0.095,-0.040
9.898,-0.090,-0.040
9.900,0.015,-0.035
9.902,-0.040,-0.035
9.904,-0.115,-0.035
9.906,-0.130,-0.045
9.908,-0.135,-0.050
9.910,-0.235,-0.060
9.912,-0.285,-0.070
9.914,-0.225,-0.075
9.916,-0.120,-0.075
9.918,-0.075,-0.070
9.920,0.000,-0.060
9.922,-0.050,-0.045
9.924,-0.085,-0.035
9.926,-0.105,-0.025
9.928,-0.155,-0.020
9.930,-0.230,-0.020
9.932,-0.215,-0.025
9.934,-0.160,-0.025
9.936,-0.080,-0.030
9.938,-0.060,-0.035
9.940,0.020,-0.030
9.942,0.030,-0.030
9.944,-0.020,-0.025
9.946,-0.105,-0.020
9.948,-0.155,-0.020
9.950,-0.245,-0.020
9.952,-0.255,-0.025
9.954,-0.180,-0.030
9.956,-0.125,-0.035
9.958,-0.070,-0.040
9.960,0.000,-0.040
9.962,0.020,-0.030
9.964,-0.015,-0.020
9.966,-0.095,-0.010
9.968,-0.145,0.000
9.970,-0.180,0.010
9.972,-0.150,0.015
9.974,-0.100,0.010
9.976,-0.080,0.005
9.978,-0.025,-0.005
9.980,-0.005,-0.020
9.982,-0.020,-0.030
9.984,-0.040,-0.040
9.986,-0.155,-0.045
9.988,-0.210,-0.045
9.990,-0.265,-0.045
9.992,-0.235,-0.045
9.994,-0.175,-0.045
9.996,-0.045,-0.050
9.998,-0.030,-0.055
