'Elapsed time','ECG I','ECG I filtered'
'seconds','mV','mV'
0.000,-0.305,-0.150
0.002,-0.305,-0.060
0.004,-0.160,0.000
0.006,-0.065,0.050
0.008,0.005,0.075
0.010,0.015,0.075
0.012,0.015,0.060
0.014,-0.125,0.030
0.016,-0.385,0.000
0.018,-0.265,-0.025
0.020,-0.075,-0.035
0.022,-0.200,-0.040
0.024,-0.280,-0.035
0.026,-0.245,-0.025
0.028,-0.085,-0.020
0.030,-0.050,-0.020
0.032,-0.090,-0.025
0.034,-0.130,-0.035
0.036,-0.280,-0.050
0.038,-0.415,-0.065
0.040,-0.305,-0.075
0.042,-0.275,-0.080
0.044,-0.330,-0.075
0.046,-0.235,-0.070
0.048,-0.050,-0.065
0.050,-0.040,-0.065
0.052,-0.160,-0.065
0.054,-0.200,-0.070
0.056,-0.320,-0.080
0.058,-0.360,-0.085
0.060,-0.300,-0.085
0.062,-0.380,-0.080
0.064,-0.255,-0.070
0.066,-0.105,-0.055
0.068,-0.090,-0.040
0.070,-0.095,-0.030
0.072,0.060,-0.025
0.074,-0.200,-0.025
0.076,-0.220,-0.030
0.078,-0.415,-0.040
0.080,-0.330,-0.055
0.082,-0.280,-0.065
0.084,-0.220,-0.075
0.086,-0.160,-0.080
0.088,-0.040,-0.080
0.090,-0.155,-0.080
0.092,-0.200,-0.080
0.094,-0.215,-0.075
0.096,-0.170,-0.075
0.098,-0.385,-0.070
0.100,-0.360,-0.065
0.102,-0.215,-0.055
0.104,-0.225,-0.050
0.106,-0.235,-0.040
0.108,-0.060,-0.035
0.110,-0.055,-0.030
0.112,-0.130,-0.030
0.114,-0.195,-0.035
0.116,-0.260,-0.045
0.118,-0.380,-0.050
0.120,-0.275,-0.060
0.122,-0.330,-0.060
0.124,-0.185,-0.060
0.126,-0.175,-0.055
0.128,-0.045,-0.045
0.130,-0.075,-0.040
0.132,-0.165,-0.040
0.134,-0.200,-0.040
0.136,-0.160,-0.050
0.138,-0.390,-0.060
0.140,-0.350,-0.070
0.142,-0.280,-0.075
0.144,-0.170,-0.080
0.146,-0.185,-0.075
0.148,-0.065,-0.070
0.150,-0.095,-0.060
0.152,-0.155,-0.050
0.154,-0.140,-0.040
0.156,-0.210,-0.035
0.158,-0.375,-0.035
0.160,-0.390,-0.035
0.162,-0.235,-0.040
0.164,-0.150,-0.040
0.166,-0.130,-0.045
0.168,-0.105,-0.040
0.170,-0.030,-0.040
0.172,-0.075,-0.035
0.174,-0.175,-0.030
0.176,-0.270,-0.030
0.178,-0.370,-0.030
0.180,-0.330,-0.040
0.182,-0.280,-0.050
0.184,-0.215,-0.055
0.186,-0.180,-0.065
0.188,-0.060,-0.070
0.190,-0.035,-0.070
0.192,-0.145,-0.065
0.194,-0.255,-0.060
0.196,-0.270,-0.055
0.198,-0.350,-0.055
0.200,-0.330,-0.055
0.202,-0.300,-0.060
0.204,-0.220,-0.065
0.206,-0.110,-0.070
0.208,-0.125,-0.075
0.210,-0.110,-0.075
0.212,-0.175,-0.075
0.214,-0.175,-0.065
0.216,-0.245,-0.055
0.218,-0.285,-0.045
0.220,-0.325,-0.035
0.222,-0.180,-0.025
0.224,-0.225,-0.025
0.226,-0.120,-0.030
0.228,-0.050,-0.035
0.230,-0.065,-0.040
0.232,-0.135,-0.050
0.234,-0.230,-0.055
0.236,-0.285,-0.060
0.238,-0.330,-0.060
0.240,-0.355,-0.060
0.242,-0.305,-0.060
0.244,-0.120,-0.060
0.246,-0.180,-0.060
0.248,-0.065,-0.060
0.250,-0.070,-0.060
0.252,-0.155,-0.060
0.254,-0.175,-0.055
0.256,-0.370,-0.050
0.258,-0.280,-0.045
0.260,-0.310,-0.035
0.262,-0.315,-0.025
0.264,-0.130,-0.025
0.266,-0.065,-0.025
0.268,-0.015,-0.025
0.270,-0.070,-0.035
0.272,-0.160,-0.045
0.274,-0.240,-0.055
0.276,-0.340,-0.065
0.278,-0.335,-0.070
0.280,-0.330,-0.070
0.282,-0.225,-0.065
0.284,-0.210,-0.055
0.286,-0.095,-0.045
0.288,0.020,-0.035
0.290,-0.055,-0.025
0.292,-0.205,-0.015
0.294,-0.145,-0.010
0.296,-0.195,-0.010
0.298,-0.280,-0.010
0.300,-0.345,-0.010
0.302,-0.225,-0.015
0.304,-0.145,-0.015
0.306,0.000,-0.015
0.308,-0.015,-0.010
0.310,-0.055,-0.010
0.312,-0.105,-0.005
0.314,-0.200,-0.005
0.316,-0.265,0.000
0.318,-0.210,0.000
0.320,-0.280,-0.005
0.322,-0.200,-0.010
0.324,-0.085,-0.020
0.326,-0.010,-0.030
0.328,0.030,-0.035
0.330,-0.130,-0.045
0.332,-0.235,-0.055
0.334,-0.265,-0.060
0.336,-0.335,-0.065
0.338,-0.210,-0.070
0.340,-0.345,-0.075
0.342,-0.285,-0.075
0.344,-0.190,-0.075
0.346,-0.090,-0.080
0.348,-0.100,-0.080
0.350,-0.100,-0.080
0.352,-0.140,-0.080
0.354,-0.220,-0.080
0.356,-0.355,-0.075
0.358,-0.360,-0.070
0.360,-0.355,-0.065
0.362,-0.200,-0.060
0.364,-0.105,-0.055
0.366,-0.055,-0.055
0.368,-0.120,-0.060
0.370,-0.200,-0.070
0.372,-0.170,-0.080
0.374,-0.190,-0.085
0.376,-0.385,-0.095
0.378,-0.370,-0.090
0.380,-0.260,-0.075
0.382,-0.170,-0.050
0.384,-0.075,-0.005
0.386,0.045,0.060
0.388,0.050,0.140
0.390,0.050,0.235
0.392,0.235,0.330
0.394,0.350,0.430
0.396,0.415,0.525
0.398,0.445,0.605
0.400,0.440,0.660
0.402,0.425,0.695
0.404,0.600,0.700
0.406,0.620,0.675
0.408,0.610,0.625
0.410,0.605,0.550
0.412,0.305,0.460
0.414,0.325,0.355
0.416,0.025,0.255
0.418,-0.200,0.160
0.420,-0.275,0.075
0.422,-0.240,0.010
0.424,-0.105,-0.035
0.426,-0.085,-0.060
0.428,-0.115,-0.070
0.430,-0.070,-0.065
0.432,-0.145,-0.055
0.434,-0.225,-0.040
0.436,-0.305,-0.035
0.438,-0.355,-0.035
0.440,-0.350,-0.040
0.442,-0.190,-0.050
0.444,-0.110,-0.065
0.446,-0.095,-0.080
0.448,-0.065,-0.090
0.450,-0.070,-0.090
0.452,-0.255,-0.080
0.454,-0.255,-0.065
0.456,-0.335,-0.045
0.458,-0.335,-0.030
0.460,-0.155,-0.015
0.462,-0.050,-0.005
0.464,-0.070,-0.010
0.466,-0.035,-0.015
0.468,-0.100,-0.030
0.470,-0.210,-0.040
0.472,-0.275,-0.055
0.474,-0.150,-0.060
0.476,-0.285,-0.055
0.478,-0.375,-0.050
0.480,-0.145,-0.045
0.482,-0.130,-0.035
0.484,-0.155,-0.030
0.486,-0.075,-0.035
0.488,-0.085,-0.045
0.490,-0.150,-0.055
0.492,-0.170,-0.070
0.494,-0.300,-0.085
0.496,-0.325,-0.090
0.498,-0.300,-0.085
0.500,-0.180,-0.075
0.502,-0.225,-0.060
0.504,-0.180,-0.045
0.506,0.045,-0.025
0.508,0.035,-0.010
0.510,-0.165,-0.005
0.512,-0.155,-0.005
0.514,-0.190,-0.010
0.516,-0.300,-0.020
0.518,-0.300,-0.030
0.520,-0.195,-0.040
0.522,-0.065,-0.040
0.524,-0.075,-0.035
0.526,-0.080,-0.025
0.528,-0.040,-0.010
0.530,-0.075,0.005
0.532,-0.130,0.015
0.534,-0.205,0.020
0.536,-0.320,0.020
0.538,-0.150,0.015
0.540,-0.135,0.005
0.542,-0.125,-0.010
0.544,-0.010,-0.020
0.546,-0.075,-0.025
0.548,-0.080,-0.025
0.550,-0.135,-0.015
0.552,-0.125,0.000
0.554,-0.210,0.015
0.556,-0.170,0.035
0.558,-0.175,0.045
0.560,-0.100,0.050
0.562,-0.050,0.045
0.564,-0.045,0.040
0.566,0.030,0.025
0.568,0.060,0.015
0.570,-0.090,0.010
0.572,-0.250,0.010
0.574,-0.190,0.020
0.576,-0.130,0.040
0.578,-0.065,0.060
0.580,-0.110,0.080
0.582,-0.065,0.100
0.584,0.110,0.110
0.586,0.070,0.115
0.588,0.115,0.115
0.590,0.040,0.110
0.592,-0.055,0.105
0.594,-0.145,0.100
0.596,-0.140,0.100
0.598,-0.160,0.100
0.600,-0.030,0.100
0.602,0.015,0.105
0.604,0.105,0.115
0.606,0.230,0.120
0.608,0.075,0.125
0.610,-0.045,0.130
0.612,-0.020,0.140
0.614,-0.075,0.150
0.616,-0.060,0.165
0.618,0.015,0.180
0.620,0.125,0.190
0.622,0.165,0.200
0.624,0.220,0.200
0.626,0.085,0.195
0.628,0.150,0.185
0.630,0.115,0.165
0.632,-0.045,0.145
0.634,-0.135,0.125
0.636,-0.095,0.115
0.638,-0.050,0.110
0.640,0.015,0.110
0.642,0.010,0.120
0.644,0.155,0.130
0.646,0.090,0.140
0.648,0.155,0.145
0.650,0.040,0.145
0.652,-0.070,0.135
0.654,-0.110,0.120
0.656,-0.140,0.100
0.658,-0.140,0.075
0.660,-0.045,0.055
0.662,-0.020,0.035
0.664,0.030,0.025
0.666,0.000,0.015
0.668,0.020,0.015
0.670,-0.130,0.010
0.672,-0.195,0.010
0.674,-0.180,0.010
0.676,-0.220,0.005
0.678,-0.165,0.000
0.680,-0.040,-0.005
0.682,-0.115,-0.010
0.684,-0.060,-0.015
0.686,-0.035,-0.020
0.688,0.035,-0.020
0.690,-0.040,-0.025
0.692,-0.280,-0.030
0.694,-0.325,-0.035
0.696,-0.265,-0.040
0.698,-0.215,-0.040
0.700,-0.125,-0.045
0.702,-0.120,-0.040
0.704,0.000,-0.035
0.706,-0.040,-0.030
0.708,-0.125,-0.025
0.710,-0.085,-0.020
0.712,-0.105,-0.020
0.714,-0.290,-0.020
0.716,-0.280,-0.025
0.718,-0.235,-0.035
0.720,-0.115,-0.040
0.722,-0.035,-0.050
0.724,-0.015,-0.060
0.726,-0.175,-0.060
0.728,-0.125,-0.060
0.730,-0.120,-0.060
0.732,-0.165,-0.055
0.734,-0.280,-0.045
0.736,-0.230,-0.040
0.738,-0.240,-0.035
0.740,-0.180,-0.035
0.742,-0.135,-0.040
0.744,-0.015,-0.045
0.746,-0.060,-0.050
0.748,-0.065,-0.060
0.750,-0.165,-0.065
0.752,-0.310,-0.070
0.754,-0.280,-0.070
0.756,-0.210,-0.065
0.758,-0.235,-0.060
0.760,-0.145,-0.050
0.762,-0.130,-0.045
0.764,-0.005,-0.035
0.766,-0.060,-0.030
0.768,-0.030,-0.025
0.770,-0.140,-0.025
0.772,-0.245,-0.025
0.774,-0.265,-0.025
0.776,-0.180,-0.025
0.778,-0.155,-0.025
0.780,-0.110,-0.020
0.782,-0.060,-0.015
0.784,0.040,-0.015
0.786,-0.135,-0.015
0.788,-0.020,-0.020
0.790,-0.105,-0.030
0.792,-0.225,-0.035
0.794,-0.295,-0.045
0.796,-0.285,-0.050
0.798,-0.195,-0.055
0.800,-0.075,-0.050
0.802,-0.070,-0.045
0.804,-0.015,-0.035
0.806,-0.045,-0.025
0.808,-0.025,-0.020
0.810,-0.170,-0.015
0.812,-0.195,-0.020
0.814,-0.185,-0.030
0.816,-0.285,-0.045
0.818,-0.240,-0.055
0.820,-0.145,-0.065
0.822,-0.055,-0.070
0.824,-0.060,-0.070
0.826,-0.085,-0.060
0.828,-0.115,-0.050
0.830,-0.105,-0.035
0.832,-0.145,-0.025
0.834,-0.240,-0.020
0.836,-0.265,-0.020
0.838,-0.185,-0.025
0.840,-0.095,-0.035
0.842,0.010,-0.040
0.844,-0.040,-0.050
0.846,-0.030,-0.050
0.848,-0.150,-0.050
0.850,-0.130,-0.040
0.852,-0.190,-0.025
0.854,-0.200,-0.010
0.856,-0.165,0.000
0.858,-0.140,0.005
0.860,-0.095,0.005
0.862,-0.070,0.000
0.864,0.075,-0.010
0.866,0.030,-0.025
0.868,-0.205,-0.040
0.870,-0.220,-0.050
0.872,-0.290,-0.060
0.874,-0.145,-0.055
0.876,-0.220,-0.050
0.878,-0.155,-0.040
0.880,-0.135,-0.030
0.882,-0.040,-0.025
0.884,0.020,-0.020
0.886,-0.015,-0.020
0.888,-0.025,-0.030
0.890,-0.230,-0.040
0.892,-0.240,-0.050
0.894,-0.260,-0.060
0.896,-0.260,-0.060
0.898,-0.200,-0.060
0.900,-0.095,-0.050
0.902,0.025,-0.040
0.904,0.005,-0.030
0.906,-0.060,-0.020
0.908,-0.055,-0.015
0.910,-0.130,-0.015
0.912,-0.295,-0.020
0.914,-0.235,-0.030
0.916,-0.225,-0.040
0.918,-0.090,-0.045
0.920,-0.140,-0.050
0.922,-0.085,-0.050
0.924,0.015,-0.040
0.926,-0.020,-0.030
0.928,-0.040,-0.020
0.930,-0.190,-0.010
0.932,-0.250,-0.010
0.934,-0.265,-0.010
0.936,-0.100,-0.015
0.938,-0.010,-0.025
0.940,-0.175,-0.040
0.942,-0.015,-0.050
0.944,0.020,-0.060
0.946,-0.085,-0.060
0.948,-0.110,-0.055
0.950,-0.165,-0.050
0.952,-0.315,-0.035
0.954,-0.250,-0.025
0.956,-0.110,-0.015
0.958,-0.075,-0.005
0.960,-0.060,0.000
0.962,-0.025,0.000
0.964,0.085,0.000
0.966,-0.015,0.000
0.968,-0.160,-0.005
0.970,-0.170,-0.005
0.972,-0.150,0.000
0.974,-0.175,0.000
0.976,-0.150,0.005
0.978,-0.045,0.010
0.980,-0.045,0.015
0.982,0.080,0.020
0.984,-0.005,0.020
0.986,-0.020,0.020
0.988,-0.100,0.015
0.990,-0.065,0.010
0.992,-0.150,0.000
0.994,-0.150,-0.010
0.996,-0.250,-0.020
0.998,-0.130,-0.030
1.000,-0.045,-0.035
1.002,-0.015,-0.040
1.004,-0.020,-0.045
1.006,-0.030,-0.045
1.008,-0.035,-0.045
1.010,-0.110,-0.045
1.012,-0.335,-0.045
1.014,-0.335,-0.045
1.016,-0.220,-0.045
1.018,-0.080,-0.050
1.020,-0.030,-0.050
1.022,0.060,-0.050
1.024,0.010,-0.050
1.026,-0.125,-0.050
1.028,-0.140,-0.045
1.030,-0.210,-0.045
1.032,-0.290,-0.050
1.034,-0.210,-0.060
1.036,-0.205,-0.070
1.038,-0.155,-0.085
1.040,-0.160,-0.100
1.042,-0.070,-0.110
1.044,-0.045,-0.105
1.046,-0.080,-0.085
1.048,-0.195,-0.040
1.050,-0.155,0.025
1.052,-0.145,0.105
1.054,0.000,0.205
1.056,0.185,0.315
1.058,0.465,0.425
1.060,0.655,0.525
1.062,0.770,0.610
1.064,0.700,0.675
1.066,0.690,0.715
1.068,0.530,0.725
1.070,0.425,0.705
1.072,0.505,0.660
1.074,0.505,0.585
1.076,0.465,0.495
1.078,0.350,0.395
1.080,0.240,0.285
1.082,0.210,0.180
1.084,0.045,0.085
1.086,-0.105,0.005
1.088,-0.240,-0.050
1.090,-0.335,-0.090
1.092,-0.235,-0.105
1.094,-0.245,-0.100
1.096,-0.155,-0.090
1.098,-0.125,-0.070
1.100,-0.100,-0.050
1.102,0.065,-0.035
1.104,0.040,-0.030
1.106,-0.140,-0.025
1.108,-0.100,-0.025
1.110,-0.190,-0.030
1.112,-0.260,-0.035
1.114,-0.200,-0.035
1.116,-0.120,-0.040
1.118,-0.020,-0.040
1.120,-0.025,-0.040
1.122,-0.030,-0.045
1.124,-0.085,-0.050
1.126,-0.050,-0.060
1.128,-0.085,-0.070
1.130,-0.365,-0.075
1.132,-0.265,-0.080
1.134,-0.220,-0.080
1.136,-0.140,-0.070
1.138,-0.060,-0.060
1.140,0.065,-0.045
1.142,-0.010,-0.030
1.144,0.085,-0.020
1.146,-0.105,-0.020
1.148,-0.210,-0.020
1.150,-0.275,-0.030
1.152,-0.285,-0.040
1.154,-0.260,-0.050
1.156,-0.120,-0.055
1.158,0.020,-0.055
1.160,0.010,-0.045
1.162,0.075,-0.035
1.164,0.050,-0.015
1.166,-0.020,0.000
1.168,-0.100,0.010
1.170,-0.185,0.015
1.172,-0.210,0.015
1.174,-0.225,0.005
1.176,-0.100,-0.010
1.178,-0.040,-0.025
1.180,0.025,-0.035
1.182,0.040,-0.045
1.184,-0.035,-0.045
1.186,-0.100,-0.045
1.188,-0.150,-0.035
1.190,-0.185,-0.020
1.192,-0.155,-0.005
1.194,-0.150,0.010
1.196,-0.100,0.020
1.198,0.035,0.030
1.200,0.055,0.035
1.202,0.100,0.035
1.204,0.060,0.035
1.206,-0.055,0.025
1.208,0.000,0.015
1.210,-0.145,0.005
1.212,-0.300,-0.005
1.214,-0.335,-0.015
1.216,-0.045,-0.025
1.218,-0.025,-0.025
1.220,0.175,-0.025
1.222,-0.005,-0.020
1.224,-0.005,-0.015
1.226,-0.070,-0.005
1.228,-0.055,0.010
1.230,-0.170,0.020
1.232,-0.220,0.030
1.234,-0.085,0.040
1.236,0.010,0.045
1.238,0.005,0.050
1.240,0.145,0.060
1.242,0.145,0.065
1.244,0.065,0.070
1.246,-0.045,0.080
1.248,-0.060,0.085
1.250,-0.030,0.095
1.252,-0.095,0.100
1.254,0.055,0.105
1.256,0.040,0.105
1.258,0.015,0.105
1.260,0.195,0.110
1.262,0.120,0.110
1.264,0.120,0.110
1.266,0.110,0.115
1.268,0.005,0.120
1.270,-0.080,0.125
1.272,-0.040,0.130
1.274,0.040,0.135
1.276,0.145,0.140
1.278,0.105,0.145
1.280,0.190,0.145
1.282,0.180,0.150
1.284,0.165,0.155
1.286,0.145,0.160
1.288,0.050,0.165
1.290,-0.040,0.165
1.292,-0.010,0.170
1.294,0.020,0.170
1.296,0.170,0.170
1.298,0.120,0.165
1.300,0.205,0.165
1.302,0.260,0.160
1.304,0.170,0.155
1.306,0.090,0.155
1.308,0.100,0.150
1.310,-0.015,0.145
1.312,-0.175,0.135
1.314,-0.030,0.125
1.316,0.005,0.105
1.318,0.170,0.085
1.320,0.185,0.065
1.322,0.085,0.045
1.324,0.020,0.035
1.326,-0.050,0.025
1.328,-0.060,0.025
1.330,-0.225,0.030
1.332,-0.120,0.035
1.334,-0.135,0.045
1.336,0.095,0.045
1.338,0.080,0.045
1.340,0.050,0.035
1.342,0.030,0.015
1.344,-0.025,-0.010
1.346,-0.110,-0.040
1.348,-0.210,-0.065
1.350,-0.340,-0.085
1.352,-0.280,-0.095
1.354,-0.190,-0.100
1.356,-0.085,-0.090
1.358,-0.015,-0.080
1.360,0.010,-0.065
1.362,0.065,-0.050
1.364,-0.135,-0.045
1.366,-0.100,-0.045
1.368,-0.240,-0.050
1.370,-0.270,-0.055
1.372,-0.270,-0.070
1.374,-0.195,-0.080
1.376,-0.140,-0.090
1.378,-0.080,-0.095
1.380,0.010,-0.090
1.382,0.015,-0.085
1.384,-0.060,-0.080
1.386,-0.200,-0.080
1.388,-0.195,-0.075
1.390,-0.230,-0.080
1.392,-0.310,-0.085
1.394,-0.295,-0.095
1.396,-0.080,-0.105
1.398,-0.020,-0.110
1.400,-0.045,-0.110
1.402,-0.085,-0.105
1.404,-0.240,-0.100
1.406,-0.155,-0.090
1.408,-0.095,-0.080
1.410,-0.270,-0.075
1.412,-0.250,-0.075
1.414,-0.125,-0.075
1.416,-0.145,-0.080
1.418,0.050,-0.085
1.420,-0.080,-0.090
1.422,-0.055,-0.095
1.424,-0.060,-0.090
1.426,-0.210,-0.085
1.428,-0.260,-0.080
1.430,-0.215,-0.075
1.432,-0.200,-0.075
1.434,-0.165,-0.085
1.436,-0.140,-0.095
1.438,-0.030,-0.105
1.440,-0.135,-0.115
1.442,-0.085,-0.115
1.444,-0.050,-0.110
1.446,-0.175,-0.100
1.448,-0.290,-0.075
1.450,-0.250,-0.055
1.452,-0.120,-0.035
1.454,-0.080,-0.025
1.456,-0.060,-0.025
1.458,0.085,-0.035
1.460,-0.060,-0.055
1.462,-0.095,-0.080
1.464,-0.130,-0.100
1.466,-0.140,-0.110
1.468,-0.275,-0.115
1.470,-0.280,-0.105
1.472,-0.155,-0.090
1.474,-0.165,-0.065
1.476,-0.130,-0.050
1.478,0.045,-0.040
1.480,0.060,-0.035
1.482,-0.060,-0.045
1.484,-0.125,-0.060
1.486,-0.210,-0.080
1.488,-0.340,-0.090
1.490,-0.240,-0.100
1.492,-0.125,-0.100
1.494,-0.060,-0.090
1.496,-0.105,-0.075
1.498,0.015,-0.065
1.500,-0.035,-0.055
1.502,-0.095,-0.050
1.504,-0.100,-0.055
1.506,-0.165,-0.065
1.508,-0.255,-0.080
1.510,-0.335,-0.095
1.512,-0.210,-0.105
1.514,-0.125,-0.110
1.516,-0.010,-0.105
1.518,0.045,-0.100
1.520,0.035,-0.085
1.522,-0.110,-0.075
1.524,-0.245,-0.065
1.526,-0.195,-0.060
1.528,-0.240,-0.060
1.530,-0.175,-0.065
1.532,-0.195,-0.070
1.534,-0.140,-0.070
1.536,-0.060,-0.070
1.538,0.030,-0.070
1.540,-0.040,-0.070
1.542,-0.040,-0.065
1.544,-0.040,-0.060
1.546,-0.190,-0.055
1.548,-0.225,-0.055
1.550,-0.260,-0.055
1.552,-0.120,-0.055
1.554,-0.125,-0.055
1.556,-0.090,-0.060
1.558,0.035,-0.060
1.560,-0.035,-0.065
1.562,-0.100,-0.065
1.564,-0.035,-0.070
1.566,-0.155,-0.075
1.568,-0.320,-0.080
1.570,-0.290,-0.085
1.572,-0.115,-0.090
1.574,-0.180,-0.085
1.576,-0.100,-0.080
1.578,0.090,-0.070
1.580,0.030,-0.060
1.582,-0.045,-0.045
1.584,-0.120,-0.035
1.586,-0.165,-0.025
1.588,-0.200,-0.025
1.590,-0.140,-0.025
1.592,-0.130,-0.030
1.594,-0.055,-0.040
1.596,-0.110,-0.045
1.598,0.025,-0.050
1.600,-0.030,-0.055
1.602,-0.045,-0.050
1.604,-0.030,-0.045
1.606,-0.080,-0.040
1.608,-0.200,-0.035
1.610,-0.240,-0.040
1.612,-0.140,-0.045
1.614,-0.110,-0.055
1.616,-0.140,-0.070
1.618,0.035,-0.085
1.620,-0.080,-0.100
1.622,-0.150,-0.110
1.624,-0.145,-0.115
1.626,-0.160,-0.110
1.628,-0.205,-0.105
1.630,-0.285,-0.100
1.632,-0.230,-0.090
1.634,-0.180,-0.090
1.636,0.000,-0.090
1.638,0.010,-0.100
1.640,-0.075,-0.110
1.642,-0.160,-0.115
1.644,-0.250,-0.120
1.646,-0.205,-0.120
1.648,-0.285,-0.115
1.650,-0.240,-0.100
1.652,-0.175,-0.090
1.654,-0.130,-0.080
1.656,0.035,-0.075
1.658,0.045,-0.075
1.660,-0.055,-0.085
1.662,-0.165,-0.100
1.664,-0.235,-0.110
1.666,-0.345,-0.115
1.668,-0.265,-0.105
1.670,-0.225,-0.080
1.672,-0.160,-0.030
1.674,0.010,0.040
1.676,0.165,0.130
1.678,0.410,0.230
1.680,0.445,0.335
1.682,0.510,0.435
1.684,0.555,0.525
1.686,0.385,0.590
1.688,0.375,0.625
1.690,0.380,0.630
1.692,0.590,0.605
1.694,0.540,0.545
1.696,0.730,0.465
1.698,0.535,0.360
1.700,0.195,0.250
1.702,0.175,0.140
1.704,-0.100,0.035
1.706,-0.335,-0.050
1.708,-0.405,-0.115
1.710,-0.340,-0.155
1.712,-0.185,-0.175
1.714,-0.140,-0.180
1.716,-0.110,-0.170
1.718,-0.030,-0.150
1.720,-0.040,-0.135
1.722,-0.160,-0.120
1.724,-0.225,-0.110
1.726,-0.320,-0.105
1.728,-0.230,-0.105
1.730,-0.240,-0.105
1.732,-0.225,-0.100
1.734,-0.110,-0.100
1.736,-0.010,-0.090
1.738,0.000,-0.085
1.740,0.005,-0.075
1.742,0.025,-0.070
1.744,-0.125,-0.065
1.746,-0.320,-0.065
1.748,-0.255,-0.065
1.750,-0.205,-0.070
1.752,-0.170,-0.070
1.754,-0.115,-0.070
1.756,0.020,-0.070
1.758,0.045,-0.060
1.760,-0.010,-0.055
1.762,-0.085,-0.045
1.764,-0.110,-0.040
1.766,-0.225,-0.040
1.768,-0.190,-0.040
1.770,-0.175,-0.045
1.772,-0.175,-0.050
1.774,-0.075,-0.055
1.776,0.110,-0.060
1.778,0.005,-0.060
1.780,-0.060,-0.055
1.782,-0.155,-0.045
1.784,-0.115,-0.040
1.786,-0.105,-0.035
1.788,-0.080,-0.035
1.790,-0.145,-0.035
1.792,-0.275,-0.045
1.794,-0.085,-0.055
1.796,0.035,-0.070
1.798,0.030,-0.080
1.800,-0.065,-0.085
1.802,-0.125,-0.085
1.804,-0.090,-0.075
1.806,-0.225,-0.065
1.808,-0.230,-0.055
1.810,-0.170,-0.045
1.812,-0.100,-0.035
1.814,-0.085,-0.030
1.816,0.000,-0.030
1.818,0.130,-0.035
1.820,0.020,-0.035
1.822,-0.050,-0.035
1.824,-0.085,-0.035
1.826,-0.200,-0.030
1.828,-0.240,-0.025
1.830,-0.170,-0.015
1.832,-0.070,-0.005
1.834,-0.005,0.005
1.836,0.135,0.010
1.838,0.160,0.015
1.840,0.010,0.015
1.842,-0.085,0.015
1.844,-0.085,0.010
1.846,-0.130,0.005
1.848,-0.115,0.005
1.850,-0.070,0.000
1.852,-0.120,0.005
1.854,-0.020,0.010
1.856,0.095,0.015
1.858,0.140,0.030
1.860,0.105,0.040
1.862,0.080,0.055
1.864,-0.040,0.065
1.866,-0.160,0.075
1.868,-0.090,0.075
1.870,-0.095,0.075
1.872,0.005,0.075
1.874,0.015,0.075
1.876,0.250,0.075
1.878,0.375,0.075
1.880,0.065,0.085
1.882,0.000,0.095
1.884,-0.070,0.110
1.886,-0.040,0.130
1.888,0.105,0.145
1.890,0.035,0.155
1.892,0.070,0.160
1.894,0.110,0.165
1.896,0.255,0.165
1.898,0.255,0.165
1.900,0.190,0.160
1.902,0.170,0.165
1.904,-0.045,0.170
1.906,-0.010,0.175
1.908,0.120,0.185
1.910,0.175,0.190
1.912,0.135,0.195
1.914,0.185,0.200
1.916,0.245,0.195
1.918,0.255,0.185
1.920,0.195,0.175
1.922,0.155,0.165
1.924,0.030,0.155
1.926,-0.025,0.140
1.928,-0.020,0.130
1.930,-0.020,0.120
1.932,0.035,0.105
1.934,0.170,0.095
1.936,0.225,0.080
1.938,0.255,0.065
1.940,0.035,0.050
1.942,-0.130,0.040
1.944,-0.110,0.035
1.946,-0.125,0.030
1.948,-0.125,0.025
1.950,-0.055,0.025
1.952,0.080,0.020
1.954,0.075,0.015
1.956,0.120,0.010
1.958,0.115,0.000
1.960,-0.035,-0.010
1.962,-0.220,-0.020
1.964,-0.180,-0.030
1.966,-0.140,-0.035
1.968,-0.185,-0.040
1.970,-0.185,-0.045
1.972,-0.040,-0.045
1.974,0.015,-0.045
1.976,0.045,-0.050
1.978,0.070,-0.050
1.980,-0.170,-0.050
1.982,-0.095,-0.055
1.984,-0.190,-0.055
1.986,-0.220,-0.055
1.988,-0.220,-0.055
1.990,-0.125,-0.055
1.992,-0.085,-0.060
1.994,0.040,-0.065
1.996,0.100,-0.070
1.998,-0.125,-0.075
2.000,-0.055,-0.075
2.002,-0.120,-0.080
2.004,-0.215,-0.075
2.006,-0.235,-0.075
2.008,-0.235,-0.070
2.010,-0.120,-0.065
2.012,-0.090,-0.065
2.014,0.015,-0.070
2.016,0.035,-0.075
2.018,0.055,-0.085
2.020,-0.195,-0.090
2.022,-0.225,-0.100
2.024,-0.215,-0.105
2.026,-0.275,-0.110
2.028,-0.250,-0.110
2.030,-0.160,-0.105
2.032,-0.055,-0.105
2.034,0.040,-0.100
2.036,-0.075,-0.095
2.038,-0.045,-0.095
2.040,-0.075,-0.095
2.042,-0.090,-0.090
2.044,-0.350,-0.085
2.046,-0.340,-0.080
2.048,-0.105,-0.070
2.050,-0.090,-0.065
2.052,-0.075,-0.055
2.054,0.115,-0.050
2.056,-0.030,-0.045
2.058,-0.080,-0.045
2.060,-0.190,-0.040
2.062,-0.125,-0.040
2.064,-0.095,-0.040
2.066,-0.020,-0.040
2.068,-0.185,-0.040
2.070,-0.185,-0.040
2.072,-0.100,-0.045
2.074,0.030,-0.045
2.076,0.110,-0.045
2.078,0.015,-0.050
2.080,-0.160,-0.050
2.082,-0.110,-0.050
2.084,-0.275,-0.045
2.086,-0.225,-0.045
2.088,-0.015,-0.040
2.090,-0.075,-0.040
2.092,-0.105,-0.040
2.094,0.010,-0.045
2.096,0.095,-0.050
2.098,-0.040,-0.055
2.100,-0.195,-0.060
2.102,-0.155,-0.065
2.104,-0.165,-0.065
2.106,-0.195,-0.060
2.108,-0.160,-0.055
2.110,-0.110,-0.045
2.112,-0.080,-0.035
2.114,0.055,-0.030
2.116,0.115,-0.025
2.118,-0.005,-0.025
2.120,-0.130,-0.030
2.122,-0.140,-0.040
2.124,-0.220,-0.050
2.126,-0.165,-0.060
2.128,-0.115,-0.065
2.130,-0.165,-0.070
2.132,-0.080,-0.070
2.134,0.080,-0.065
2.136,0.020,-0.055
2.138,-0.075,-0.050
2.140,-0.105,-0.040
2.142,-0.120,-0.035
2.144,-0.185,-0.035
2.146,-0.235,-0.035
2.148,-0.095,-0.040
2.150,-0.025,-0.045
2.152,-0.070,-0.055
2.154,-0.040,-0.065
2.156,0.000,-0.070
2.158,0.005,-0.070
2.160,-0.130,-0.065
2.162,-0.080,-0.055
2.164,-0.280,-0.045
2.166,-0.305,-0.030
2.168,-0.110,-0.015
2.170,0.025,-0.010
2.172,0.085,-0.010
2.174,0.070,-0.010
2.176,0.070,-0.020
2.178,-0.060,-0.035
2.180,-0.125,-0.045
2.182,-0.235,-0.050
2.184,-0.290,-0.055
2.186,-0.200,-0.050
2.188,-0.075,-0.045
2.190,-0.025,-0.035
2.192,-0.060,-0.030
2.194,0.135,-0.020
2.196,0.095,-0.020
2.198,-0.065,-0.020
2.200,-0.140,-0.025
2.202,-0.125,-0.030
2.204,-0.235,-0.040
2.206,-0.260,-0.040
2.208,-0.075,-0.045
2.210,-0.010,-0.040
2.212,-0.010,-0.040
2.214,0.005,-0.035
2.216,-0.045,-0.030
2.218,-0.015,-0.025
2.220,-0.060,-0.020
2.222,-0.155,-0.015
2.224,-0.095,-0.015
2.226,-0.100,-0.010
2.228,-0.180,-0.010
2.230,-0.050,-0.010
2.232,0.015,-0.005
2.234,0.160,-0.010
2.236,0.035,-0.010
2.238,-0.050,-0.015
2.240,-0.050,-0.015
2.242,-0.170,-0.020
2.244,-0.170,-0.020
2.246,-0.125,-0.020
2.248,-0.070,-0.020
2.250,-0.120,-0.020
2.252,0.120,-0.020
2.254,0.060,-0.020
2.256,0.015,-0.025
2.258,-0.135,-0.035
2.260,-0.055,-0.040
2.262,-0.255,-0.045
2.264,-0.195,-0.050
2.266,-0.165,-0.050
2.268,-0.120,-0.050
2.270,-0.070,-0.050
2.272,0.015,-0.050
2.274,0.000,-0.050
2.276,-0.020,-0.055
2.278,-0.070,-0.055
2.280,-0.100,-0.060
2.282,-0.215,-0.060
2.284,-0.185,-0.060
2.286,-0.125,-0.060
2.288,-0.165,-0.060
2.290,-0.120,-0.060
2.292,-0.020,-0.065
2.294,0.050,-0.075
2.296,-0.030,-0.085
2.298,-0.115,-0.100
2.300,-0.240,-0.115
2.302,-0.335,-0.115
2.304,-0.210,-0.095
2.306,-0.235,-0.055
2.308,-0.070,0.010
2.310,0.050,0.100
2.312,0.325,0.210
2.314,0.400,0.325
2.316,0.550,0.440
2.318,0.670,0.545
2.320,0.655,0.630
2.322,0.580,0.690
2.324,0.450,0.715
2.326,0.510,0.710
2.328,0.555,0.675
2.330,0.575,0.615
2.332,0.770,0.535
2.334,0.600,0.440
2.336,0.410,0.335
2.338,0.190,0.230
2.340,0.040,0.130
2.342,-0.260,0.040
2.344,-0.310,-0.030
2.346,-0.170,-0.080
2.348,-0.245,-0.115
2.350,-0.215,-0.125
2.352,0.100,-0.115
2.354,0.015,-0.100
2.356,-0.045,-0.075
2.358,-0.060,-0.055
2.360,-0.120,-0.040
2.362,-0.185,-0.030
2.364,-0.210,-0.025
2.366,-0.230,-0.030
2.368,-0.075,-0.035
2.370,-0.050,-0.040
2.372,0.015,-0.040
2.374,0.040,-0.040
2.376,0.000,-0.035
2.378,-0.005,-0.030
2.380,-0.095,-0.025
2.382,-0.265,-0.025
2.384,-0.150,-0.030
2.386,-0.170,-0.035
2.388,-0.095,-0.045
2.390,-0.070,-0.060
2.392,0.075,-0.070
2.394,-0.075,-0.075
2.396,-0.010,-0.080
2.398,-0.105,-0.075
2.400,-0.135,-0.070
2.402,-0.235,-0.065
2.404,-0.210,-0.055
2.406,-0.120,-0.050
2.408,-0.090,-0.045
2.410,-0.110,-0.040
2.412,0.015,-0.035
2.414,0.105,-0.035
2.416,0.040,-0.035
2.418,-0.055,-0.035
2.420,-0.185,-0.040
2.422,-0.250,-0.040
2.424,-0.195,-0.040
2.426,-0.015,-0.040
2.428,-0.065,-0.040
2.430,-0.145,-0.035
2.432,0.080,-0.030
2.434,0.085,-0.020
2.436,-0.060,-0.010
2.438,0.095,-0.005
2.440,-0.110,0.000
2.442,-0.180,0.000
2.444,-0.215,-0.005
2.446,-0.115,-0.010
2.448,-0.100,-0.020
2.450,-0.040,-0.025
2.452,0.060,-0.025
2.454,0.135,-0.025
2.456,0.060,-0.020
2.458,-0.035,-0.010
2.460,-0.165,0.000
2.462,-0.210,0.005
2.464,-0.150,0.010
2.466,-0.055,0.010
2.468,0.080,0.005
2.470,-0.020,0.000
2.472,0.010,-0.005
2.474,0.215,-0.010
2.476,-0.005,-0.010
2.478,-0.145,-0.010
2.480,-0.130,-0.005
2.482,-0.215,-0.005
2.484,-0.125,-0.005
2.486,-0.050,-0.010
2.488,-0.105,-0.010
2.490,0.020,-0.010
2.492,0.125,-0.010
2.494,0.145,0.000
2.496,0.095,0.015
2.498,0.005,0.035
2.500,-0.065,0.055
2.502,-0.075,0.080
2.504,-0.055,0.100
2.506,0.040,0.110
2.508,0.045,0.115
2.510,0.190,0.110
2.512,0.195,0.105
2.514,0.215,0.095
2.516,0.145,0.085
2.518,0.015,0.080
2.520,-0.105,0.085
2.522,-0.155,0.095
2.524,-0.150,0.110
2.526,0.145,0.130
2.528,0.205,0.150
2.530,0.250,0.165
2.532,0.235,0.180
2.534,0.265,0.190
2.536,0.175,0.195
2.538,0.150,0.200
2.540,0.135,0.195
2.542,-0.030,0.195
2.544,0.095,0.185
2.546,0.145,0.175
2.548,0.135,0.165
2.550,0.090,0.150
2.552,0.160,0.135
2.554,0.290,0.120
2.556,0.150,0.110
2.558,0.030,0.105
2.560,-0.015,0.100
2.562,-0.080,0.105
2.564,-0.015,0.115
2.566,0.025,0.125
2.568,0.145,0.130
2.570,0.155,0.135
2.572,0.165,0.140
2.574,0.255,0.135
2.576,0.165,0.125
2.578,0.080,0.115
2.580,-0.060,0.105
2.582,-0.085,0.090
2.584,-0.095,0.080
2.586,0.025,0.065
2.588,0.010,0.055
2.590,0.125,0.045
2.592,0.140,0.035
2.594,0.115,0.025
2.596,0.040,0.010
2.598,-0.115,0.000
2.600,-0.215,-0.015
2.602,-0.235,-0.025
2.604,-0.200,-0.035
2.606,-0.095,-0.045
2.608,0.025,-0.045
2.610,0.100,-0.045
2.612,0.070,-0.045
2.614,0.005,-0.040
2.616,-0.100,-0.035
2.618,-0.150,-0.030
2.620,-0.280,-0.025
2.622,-0.215,-0.025
2.624,-0.010,-0.025
2.626,0.005,-0.030
2.628,0.015,-0.035
2.630,-0.010,-0.040
2.632,-0.035,-0.050
2.634,-0.035,-0.055
2.636,-0.065,-0.060
2.638,-0.095,-0.065
2.640,-0.215,-0.065
2.642,-0.210,-0.065
2.644,-0.120,-0.060
2.646,-0.060,-0.060
2.648,-0.115,-0.060
2.650,0.065,-0.060
2.652,-0.050,-0.065
2.654,-0.020,-0.070
2.656,-0.085,-0.075
2.658,-0.180,-0.075
2.660,-0.285,-0.075
2.662,-0.185,-0.070
2.664,-0.165,-0.065
2.666,-0.125,-0.055
2.668,0.000,-0.045
2.670,0.110,-0.035
2.672,0.085,-0.025
2.674,-0.015,-0.025
2.676,-0.135,-0.030
2.678,-0.120,-0.035
2.680,-0.210,-0.050
2.682,-0.200,-0.060
2.684,-0.190,-0.070
2.686,-0.100,-0.075
2.688,-0.055,-0.075
2.690,0.020,-0.070
2.692,-0.010,-0.065
2.694,0.060,-0.055
2.696,-0.125,-0.050
2.698,-0.125,-0.045
2.700,-0.190,-0.045
2.702,-0.135,-0.050
2.704,-0.210,-0.055
2.706,-0.115,-0.060
2.708,-0.020,-0.065
2.710,0.060,-0.065
2.712,0.000,-0.065
2.714,0.075,-0.065
2.716,-0.075,-0.065
2.718,-0.170,-0.065
2.720,-0.225,-0.065
2.722,-0.205,-0.065
2.724,-0.200,-0.070
2.726,-0.140,-0.070
2.728,-0.135,-0.070
2.730,0.130,-0.065
2.732,0.045,-0.055
2.734,0.020,-0.050
2.736,-0.020,-0.035
2.738,-0.150,-0.030
2.740,-0.160,-0.020
2.742,-0.150,-0.015
2.744,-0.125,-0.015
2.746,-0.080,-0.015
2.748,0.040,-0.020
2.750,0.025,-0.020
2.752,0.100,-0.025
2.754,0.055,-0.030
2.756,-0.100,-0.030
2.758,-0.150,-0.035
2.760,-0.165,-0.035
2.762,-0.170,-0.040
2.764,-0.195,-0.045
2.766,-0.040,-0.050
2.768,-0.005,-0.060
2.770,0.050,-0.060
2.772,-0.045,-0.065
2.774,0.000,-0.060
2.776,-0.080,-0.055
2.778,-0.145,-0.045
2.780,-0.250,-0.035
2.782,-0.190,-0.030
2.784,-0.120,-0.030
2.786,0.020,-0.035
2.788,0.020,-0.045
2.790,0.130,-0.060
2.792,0.125,-0.075
2.794,-0.210,-0.090
2.796,-0.185,-0.095
2.798,-0.205,-0.095
2.800,-0.230,-0.090
2.802,-0.165,-0.075
2.804,-0.135,-0.060
2.806,-0.070,-0.045
2.808,0.120,-0.030
2.810,0.100,-0.025
2.812,0.090,-0.025
2.814,-0.095,-0.030
2.816,-0.175,-0.035
2.818,-0.170,-0.040
2.820,-0.110,-0.045
2.822,-0.175,-0.050
2.824,-0.085,-0.045
2.826,-0.055,-0.045
2.828,0.015,-0.040
2.830,0.025,-0.035
2.832,0.100,-0.030
2.834,-0.005,-0.030
2.836,-0.050,-0.035
2.838,-0.215,-0.040
2.840,-0.210,-0.040
2.842,-0.230,-0.045
2.844,-0.135,-0.050
2.846,0.090,-0.055
2.848,0.090,-0.055
2.850,-0.025,-0.055
2.852,-0.025,-0.055
2.854,-0.070,-0.055
2.856,-0.055,-0.055
2.858,-0.155,-0.050
2.860,-0.150,-0.050
2.862,-0.225,-0.050
2.864,-0.145,-0.045
2.866,-0.085,-0.040
2.868,0.130,-0.035
2.870,0.120,-0.025
2.872,0.060,-0.020
2.874,-0.180,-0.010
2.876,-0.020,-0.005
2.878,-0.110,0.005
2.880,-0.195,0.010
2.882,-0.075,0.015
2.884,-0.015,0.015
2.886,0.060,0.010
2.888,0.085,0.010
2.890,0.090,0.000
2.892,0.110,-0.005
2.894,-0.135,-0.010
2.896,-0.075,-0.015
2.898,-0.125,-0.015
2.900,-0.150,-0.015
2.902,-0.135,-0.015
2.904,-0.125,-0.015
2.906,0.020,-0.015
2.908,0.055,-0.020
2.910,0.040,-0.030
2.912,0.010,-0.040
2.914,-0.020,-0.055
2.916,-0.135,-0.065
2.918,-0.225,-0.070
2.920,-0.240,-0.075
2.922,-0.165,-0.075
2.924,-0.045,-0.070
2.926,-0.055,-0.065
2.928,0.025,-0.060
2.930,0.005,-0.060
2.932,-0.055,-0.060
2.934,-0.050,-0.060
2.936,-0.025,-0.060
2.938,-0.210,-0.065
2.940,-0.285,-0.070
2.942,-0.175,-0.075
2.944,-0.085,-0.080
2.946,-0.055,-0.090
2.948,-0.100,-0.100
2.950,0.015,-0.110
2.952,0.005,-0.115
2.954,-0.130,-0.120
2.956,-0.170,-0.115
2.958,-0.250,-0.090
2.960,-0.195,-0.045
2.962,-0.145,0.020
2.964,0.000,0.105
2.966,0.220,0.210
2.968,0.455,0.325
2.970,0.675,0.440
2.972,0.725,0.550
2.974,0.740,0.640
2.976,0.670,0.700
2.978,0.520,0.735
2.980,0.470,0.735
2.982,0.530,0.705
2.984,0.750,0.645
2.986,0.570,0.565
2.988,0.670,0.475
2.990,0.615,0.375
2.992,0.385,0.275
2.994,0.075,0.180
2.996,-0.140,0.095
2.998,-0.270,0.030
3.000,-0.260,-0.020
3.002,-0.120,-0.050
3.004,-0.010,-0.070
3.006,0.035,-0.070
3.008,0.065,-0.065
3.010,0.015,-0.055
3.012,-0.010,-0.045
3.014,-0.085,-0.040
3.016,-0.125,-0.040
3.018,-0.180,-0.040
3.020,-0.250,-0.050
3.022,-0.205,-0.060
3.024,-0.030,-0.070
3.026,0.030,-0.080
3.028,-0.025,-0.090
3.030,-0.005,-0.090
3.032,-0.040,-0.090
3.034,-0.075,-0.085
3.036,-0.185,-0.075
3.038,-0.250,-0.070
3.040,-0.195,-0.060
3.042,-0.085,-0.055
3.044,-0.030,-0.055
3.046,-0.065,-0.050
3.048,0.010,-0.050
3.050,0.015,-0.050
3.052,-0.015,-0.055
3.054,0.000,-0.055
3.056,-0.105,-0.050
3.058,-0.195,-0.050
3.060,-0.200,-0.045
3.062,-0.150,-0.045
3.064,-0.020,-0.040
3.066,0.065,-0.035
3.068,0.050,-0.035
3.070,0.025,-0.035
3.072,-0.065,-0.035
3.074,-0.020,-0.035
3.076,-0.190,-0.035
3.078,-0.055,-0.035
3.080,-0.240,-0.035
3.082,-0.090,-0.035
3.084,-0.055,-0.040
3.086,0.030,-0.040
3.088,0.060,-0.040
3.090,0.005,-0.040
3.092,-0.040,-0.040
3.094,0.050,-0.040
3.096,-0.190,-0.040
3.098,-0.220,-0.040
3.100,-0.150,-0.035
3.102,0.005,-0.035
3.104,-0.070,-0.030
3.106,0.070,-0.025
3.108,0.100,-0.020
3.110,0.020,-0.015
3.112,0.050,-0.010
3.114,-0.080,-0.010
3.116,-0.165,-0.015
3.118,-0.160,-0.015
3.120,-0.105,-0.020
3.122,-0.025,-0.025
3.124,-0.065,-0.025
3.126,0.150,-0.030
3.128,0.050,-0.030
3.130,0.015,-0.025
3.132,-0.010,-0.020
3.134,-0.050,-0.010
3.136,-0.080,0.000
3.138,-0.170,0.010
3.140,-0.025,0.020
3.142,0.055,0.030
3.144,-0.020,0.035
3.146,0.110,0.040
3.148,0.160,0.040
3.150,0.125,0.040
3.152,0.035,0.040
3.154,-0.040,0.040
3.156,-0.095,0.040
3.158,-0.080,0.040
3.160,-0.040,0.045
3.162,0.055,0.055
3.164,0.060,0.065
3.166,0.170,0.075
3.168,0.235,0.085
3.170,0.165,0.095
3.172,0.075,0.105
3.174,0.055,0.110
3.176,-0.075,0.115
3.178,-0.075,0.120
3.180,0.100,0.120
3.182,0.115,0.120
3.184,0.180,0.120
3.186,0.225,0.120
3.188,0.190,0.125
3.190,0.170,0.125
3.192,0.145,0.130
3.194,0.110,0.135
3.196,-0.005,0.140
3.198,-0.015,0.145
3.200,0.085,0.150
3.202,0.035,0.155
3.204,0.185,0.155
3.206,0.365,0.160
3.208,0.245,0.155
3.210,0.200,0.155
3.212,0.175,0.150
3.214,0.040,0.145
3.216,-0.030,0.140
3.218,-0.045,0.135
3.220,0.045,0.130
3.222,0.125,0.125
3.224,-0.015,0.125
3.226,0.370,0.120
3.228,0.240,0.115
3.230,0.225,0.105
3.232,0.095,0.095
3.234,-0.040,0.080
3.236,-0.160,0.065
3.238,-0.160,0.045
3.240,0.025,0.025
3.242,0.010,0.005
3.244,-0.045,-0.010
3.246,0.105,-0.020
3.248,0.065,-0.025
3.250,0.100,-0.025
3.252,0.045,-0.030
3.254,-0.200,-0.030
3.256,-0.210,-0.030
3.258,-0.115,-0.035
3.260,-0.075,-0.040
3.262,-0.115,-0.050
3.264,-0.070,-0.060
3.266,-0.065,-0.065
3.268,0.045,-0.070
3.270,0.000,-0.070
3.272,-0.035,-0.070
3.274,-0.125,-0.065
3.276,-0.170,-0.060
3.278,-0.165,-0.055
3.280,-0.105,-0.050
3.282,-0.035,-0.045
3.284,-0.035,-0.045
3.286,0.030,-0.045
3.288,-0.010,-0.050
3.290,0.060,-0.055
3.292,-0.065,-0.060
3.294,-0.165,-0.065
3.296,-0.230,-0.065
3.298,-0.220,-0.065
3.300,-0.175,-0.060
3.302,-0.050,-0.055
3.304,-0.025,-0.050
3.306,0.180,-0.040
3.308,0.095,-0.040
3.310,-0.095,-0.035
3.312,-0.050,-0.040
3.314,-0.130,-0.045
3.316,-0.235,-0.055
3.318,-0.275,-0.065
3.320,-0.145,-0.075
3.322,-0.060,-0.085
3.324,0.035,-0.085
3.326,0.050,-0.085
3.328,0.025,-0.080
3.330,-0.170,-0.075
3.332,-0.105,-0.065
3.334,-0.095,-0.060
3.336,-0.270,-0.050
3.338,-0.165,-0.050
3.340,0.010,-0.050
3.342,0.050,-0.050
3.344,-0.080,-0.050
3.346,0.000,-0.050
3.348,0.050,-0.050
3.350,-0.010,-0.045
3.352,-0.125,-0.045
3.354,-0.095,-0.040
3.356,-0.160,-0.040
3.358,-0.210,-0.045
3.360,-0.175,-0.050
3.362,-0.020,-0.060
3.364,0.020,-0.065
3.366,0.010,-0.075
3.368,0.015,-0.075
3.370,-0.085,-0.075
3.372,-0.015,-0.075
3.374,-0.220,-0.065
3.376,-0.275,-0.060
3.378,-0.120,-0.055
3.380,-0.105,-0.050
3.382,-0.100,-0.045
3.384,0.010,-0.040
3.386,0.120,-0.040
3.388,0.105,-0.040
3.390,0.005,-0.035
3.392,-0.110,-0.035
3.394,-0.155,-0.030
3.396,-0.180,-0.030
3.398,-0.155,-0.035
3.400,-0.110,-0.045
3.402,-0.040,-0.055
3.404,0.095,-0.065
3.406,0.005,-0.075
3.408,-0.005,-0.085
3.410,-0.040,-0.085
3.412,-0.100,-0.085
3.414,-0.240,-0.075
3.416,-0.215,-0.065
3.418,-0.115,-0.055
3.420,-0.055,-0.045
3.422,-0.095,-0.035
3.424,0.170,-0.035
3.426,0.040,-0.035
3.428,0.020,-0.035
3.430,0.050,-0.040
3.432,-0.130,-0.040
3.434,-0.205,-0.045
3.436,-0.260,-0.050
3.438,-0.080,-0.055
3.440,-0.140,-0.065
3.442,-0.090,-0.070
3.444,0.020,-0.080
3.446,-0.005,-0.090
3.448,0.055,-0.100
3.450,-0.070,-0.100
3.452,-0.115,-0.100
3.454,-0.350,-0.090
3.456,-0.195,-0.080
3.458,-0.190,-0.065
3.460,-0.070,-0.055
3.462,0.015,-0.045
3.464,0.115,-0.045
3.466,0.000,-0.045
3.468,0.050,-0.050
3.470,0.035,-0.055
3.472,-0.030,-0.060
3.474,-0.250,-0.060
3.476,-0.230,-0.060
3.478,-0.160,-0.060
3.480,-0.120,-0.060
3.482,-0.115,-0.060
3.484,0.060,-0.060
3.486,0.085,-0.065
3.488,0.030,-0.075
3.490,-0.035,-0.080
3.492,-0.290,-0.080
3.494,-0.235,-0.080
3.496,-0.100,-0.075
3.498,-0.170,-0.065
3.500,-0.100,-0.055
3.502,-0.085,-0.050
3.504,0.120,-0.045
3.506,0.115,-0.050
3.508,-0.040,-0.055
3.510,-0.090,-0.065
3.512,-0.120,-0.075
3.514,-0.180,-0.085
3.516,-0.250,-0.085
3.518,-0.190,-0.085
3.520,-0.135,-0.080
3.522,-0.050,-0.070
3.524,0.095,-0.060
3.526,-0.075,-0.045
3.528,0.155,-0.030
3.530,0.105,-0.020
3.532,-0.085,-0.010
3.534,-0.140,-0.005
3.536,-0.210,0.000
3.538,-0.110,0.000
3.540,-0.085,-0.005
3.542,0.055,-0.010
3.544,0.075,-0.020
3.546,0.075,-0.030
3.548,0.115,-0.040
3.550,-0.130,-0.045
3.552,-0.075,-0.050
3.554,-0.125,-0.050
3.556,-0.185,-0.045
3.558,-0.175,-0.040
3.560,-0.075,-0.030
3.562,0.020,-0.020
3.564,0.115,-0.020
3.566,0.120,-0.020
3.568,0.085,-0.030
3.570,0.060,-0.040
3.572,-0.155,-0.060
3.574,-0.510,-0.075
3.576,-0.175,-0.085
3.578,-0.160,-0.095
3.580,-0.045,-0.095
3.582,-0.090,-0.090
3.584,0.075,-0.085
3.586,0.065,-0.075
3.588,-0.010,-0.070
3.590,-0.155,-0.070
3.592,-0.195,-0.070
3.594,-0.180,-0.075
3.596,-0.230,-0.080
3.598,-0.215,-0.085
3.600,-0.040,-0.085
3.602,0.015,-0.080
3.604,0.005,-0.075
3.606,0.065,-0.065
3.608,-0.040,-0.060
3.610,-0.185,-0.055
3.612,-0.095,-0.055
3.614,-0.150,-0.065
3.616,-0.285,-0.075
3.618,-0.145,-0.080
3.620,-0.070,-0.080
3.622,-0.010,-0.065
3.624,0.025,-0.030
3.626,0.120,0.030
3.628,0.135,0.115
3.630,0.075,0.220
3.632,0.235,0.335
3.634,0.350,0.450
3.636,0.620,0.555
3.638,0.725,0.640
3.640,0.735,0.700
3.642,0.720,0.725
3.644,0.755,0.720
3.646,0.710,0.685
3.648,0.635,0.620
3.650,0.585,0.535
3.652,0.430,0.440
3.654,0.180,0.335
3.656,0.130,0.235
3.658,0.080,0.135
3.660,-0.020,0.050
3.662,-0.100,-0.025
3.664,-0.015,-0.080
3.666,-0.005,-0.120
3.668,-0.160,-0.140
3.670,-0.150,-0.145
3.672,-0.225,-0.135
3.674,-0.240,-0.120
3.676,-0.120,-0.100
3.678,-0.140,-0.075
3.680,-0.095,-0.060
3.682,0.035,-0.050
3.684,0.080,-0.045
3.686,0.045,-0.045
3.688,0.005,-0.045
3.690,-0.175,-0.055
3.692,-0.275,-0.055
3.694,-0.130,-0.060
3.696,-0.180,-0.060
3.698,0.015,-0.060
3.700,-0.070,-0.060
3.702,0.015,-0.055
3.704,0.045,-0.055
3.706,-0.080,-0.055
3.708,-0.095,-0.055
3.710,0.055,-0.055
3.712,-0.155,-0.050
3.714,-0.180,-0.045
3.716,-0.210,-0.040
3.718,-0.110,-0.030
3.720,0.005,-0.020
3.722,0.065,-0.015
3.724,0.055,-0.015
3.726,0.185,-0.025
3.728,-0.005,-0.035
3.730,-0.160,-0.050
3.732,-0.195,-0.070
3.734,-0.305,-0.090
3.736,-0.210,-0.100
3.738,-0.115,-0.110
3.740,-0.010,-0.105
3.742,0.065,-0.095
3.744,-0.025,-0.080
3.746,0.020,-0.065
3.748,-0.035,-0.045
3.750,-0.080,-0.030
3.752,-0.090,-0.020
3.754,-0.160,-0.015
3.756,-0.080,-0.015
3.758,-0.105,-0.025
3.760,-0.030,-0.030
3.762,0.015,-0.035
3.764,0.050,-0.040
3.766,0.015,-0.040
3.768,-0.015,-0.035
3.770,0.040,-0.025
3.772,-0.130,-0.020
3.774,-0.225,-0.010
3.776,-0.055,-0.005
3.778,-0.025,-0.005
3.780,-0.125,-0.005
3.782,0.130,-0.010
3.784,0.050,-0.015
3.786,0.025,-0.020
3.788,-0.025,-0.020
3.790,-0.005,-0.020
3.792,-0.120,-0.015
3.794,-0.165,-0.010
3.796,-0.145,-0.005
3.798,0.015,0.005
3.800,0.000,0.010
3.802,0.095,0.015
3.804,0.195,0.025
3.806,0.150,0.030
3.808,-0.025,0.040
3.810,0.000,0.045
3.812,-0.020,0.050
3.814,-0.205,0.060
3.816,0.025,0.060
3.818,0.015,0.060
3.820,0.165,0.060
3.822,0.230,0.060
3.824,0.160,0.060
3.826,0.080,0.060
3.828,-0.100,0.060
3.830,0.015,0.070
3.832,-0.005,0.075
3.834,-0.085,0.090
3.836,0.165,0.100
3.838,0.145,0.115
3.840,0.090,0.120
3.842,0.100,0.130
3.844,0.185,0.135
3.846,0.250,0.135
3.848,0.170,0.135
3.850,0.140,0.140
3.852,0.045,0.140
3.854,-0.045,0.140
3.856,-0.035,0.145
3.858,0.145,0.150
3.860,0.170,0.150
3.862,0.250,0.150
3.864,0.265,0.150
3.866,0.225,0.150
3.868,0.200,0.150
3.870,0.025,0.150
3.872,-0.030,0.150
3.874,0.015,0.155
3.876,0.145,0.155
3.878,0.160,0.160
3.880,0.160,0.155
3.882,0.255,0.150
3.884,0.280,0.140
3.886,0.175,0.125
3.888,0.020,0.110
3.890,0.055,0.095
3.892,-0.010,0.075
3.894,0.005,0.065
3.896,-0.115,0.050
3.898,-0.030,0.045
3.900,0.120,0.035
3.902,0.165,0.030
3.904,0.145,0.025
3.906,0.025,0.015
3.908,-0.030,0.005
3.910,-0.065,-0.005
3.912,-0.150,-0.015
3.914,-0.145,-0.025
3.916,-0.080,-0.030
3.918,0.050,-0.035
3.920,0.020,-0.030
3.922,-0.010,-0.025
3.924,0.070,-0.020
3.926,0.045,-0.020
3.928,-0.035,-0.020
3.930,-0.170,-0.025
3.932,-0.140,-0.040
3.934,-0.155,-0.055
3.936,-0.165,-0.070
3.938,-0.090,-0.085
3.940,0.040,-0.095
3.942,-0.005,-0.095
3.944,-0.090,-0.085
3.946,0.005,-0.070
3.948,-0.055,-0.050
3.950,-0.145,-0.035
3.952,-0.225,-0.020
3.954,-0.120,-0.020
3.956,0.030,-0.025
3.958,-0.035,-0.040
3.960,0.065,-0.060
3.962,-0.035,-0.080
3.964,-0.015,-0.095
3.966,-0.125,-0.105
3.968,-0.165,-0.100
3.970,-0.180,-0.090
3.972,-0.105,-0.070
3.974,-0.185,-0.055
3.976,-0.055,-0.040
3.978,0.020,-0.030
3.980,0.045,-0.030
3.982,0.000,-0.040
3.984,0.000,-0.050
3.986,-0.045,-0.060
3.988,-0.060,-0.065
3.990,-0.050,-0.065
3.992,-0.190,-0.065
3.994,-0.240,-0.060
3.996,-0.100,-0.050
3.998,-0.085,-0.045
4.000,0.095,-0.045
4.002,0.040,-0.050
4.004,-0.010,-0.055
4.006,-0.120,-0.065
4.008,-0.115,-0.075
4.010,-0.115,-0.080
4.012,-0.180,-0.085
4.014,-0.125,-0.080
4.016,-0.090,-0.075
4.018,-0.140,-0.065
4.020,-0.050,-0.055
4.022,0.140,-0.050
4.024,0.105,-0.050
4.026,-0.110,-0.050
4.028,-0.085,-0.050
4.030,-0.230,-0.050
4.032,-0.165,-0.050
4.034,-0.155,-0.050
4.036,-0.045,-0.045
4.038,-0.020,-0.045
4.040,0.125,-0.045
4.042,0.055,-0.050
4.044,-0.070,-0.055
4.046,-0.080,-0.065
4.048,-0.160,-0.070
4.050,-0.180,-0.075
4.052,-0.195,-0.075
4.054,-0.195,-0.070
4.056,-0.040,-0.060
4.058,0.030,-0.045
4.060,0.095,-0.030
4.062,0.025,-0.020
4.064,0.090,-0.010
4.066,-0.035,-0.010
4.068,-0.015,-0.015
4.070,-0.145,-0.025
4.072,-0.270,-0.040
4.074,-0.150,-0.055
4.076,-0.070,-0.065
4.078,-0.020,-0.075
4.080,0.115,-0.080
4.082,-0.005,-0.080
4.084,-0.015,-0.075
4.086,-0.130,-0.065
4.088,-0.140,-0.060
4.090,-0.195,-0.050
4.092,-0.150,-0.045
4.094,-0.070,-0.045
4.096,-0.025,-0.045
4.098,-0.050,-0.050
4.100,-0.010,-0.055
4.102,0.040,-0.060
4.104,0.060,-0.065
4.106,0.010,-0.070
4.108,-0.150,-0.065
4.110,-0.210,-0.065
4.112,-0.205,-0.060
4.114,-0.155,-0.055
4.116,0.040,-0.050
4.118,-0.020,-0.045
4.120,0.080,-0.045
4.122,0.010,-0.045
4.124,-0.040,-0.050
4.126,-0.065,-0.055
4.128,-0.175,-0.055
4.130,-0.150,-0.055
4.132,-0.105,-0.055
4.134,-0.055,-0.050
4.136,-0.140,-0.050
4.138,-0.040,-0.045
4.140,0.070,-0.045
4.142,0.050,-0.045
4.144,0.035,-0.050
4.146,-0.030,-0.055
4.148,-0.240,-0.060
4.150,-0.155,-0.060
4.152,-0.135,-0.060
4.154,-0.115,-0.060
4.156,-0.150,-0.055
4.158,-0.020,-0.050
4.160,0.135,-0.040
4.162,0.060,-0.040
4.164,-0.045,-0.035
4.166,-0.010,-0.040
4.168,-0.040,-0.045
4.170,-0.245,-0.050
4.172,-0.215,-0.050
4.174,-0.125,-0.045
4.176,0.040,-0.040
4.178,0.060,-0.025
4.180,0.120,-0.010
4.182,0.115,0.005
4.184,0.030,0.020
4.186,-0.075,0.025
4.188,-0.055,0.020
4.190,-0.100,0.010
4.192,-0.135,-0.005
4.194,-0.045,-0.020
4.196,-0.100,-0.030
4.198,0.010,-0.040
4.200,0.170,-0.040
4.202,0.155,-0.035
4.204,-0.110,-0.025
4.206,-0.120,-0.020
4.208,-0.135,-0.015
4.210,-0.025,-0.020
4.212,-0.075,-0.030
4.214,-0.185,-0.050
4.216,-0.090,-0.070
4.218,-0.015,-0.085
4.220,-0.005,-0.095
4.222,0.015,-0.095
4.224,-0.050,-0.090
4.226,-0.080,-0.070
4.228,-0.160,-0.055
4.230,-0.170,-0.035
4.232,-0.190,-0.025
4.234,-0.070,-0.030
4.236,-0.045,-0.040
4.238,0.010,-0.060
4.240,0.050,-0.080
4.242,0.080,-0.100
4.244,-0.095,-0.110
4.246,-0.150,-0.110
4.248,-0.210,-0.100
4.250,-0.195,-0.085
4.252,-0.245,-0.065
4.254,-0.105,-0.055
4.256,0.035,-0.050
4.258,0.000,-0.055
4.260,0.055,-0.075
4.262,0.035,-0.090
4.264,-0.065,-0.105
4.266,-0.120,-0.110
4.268,-0.390,-0.090
4.270,-0.180,-0.045
4.272,-0.190,0.020
4.274,0.045,0.110
4.276,0.250,0.210
4.278,0.520,0.315
4.280,0.630,0.415
4.282,0.690,0.505
4.284,0.610,0.570
4.286,0.560,0.615
4.288,0.490,0.635
4.290,0.475,0.625
4.292,0.440,0.595
4.294,0.550,0.545
4.296,0.495,0.470
4.298,0.570,0.385
4.300,0.465,0.290
4.302,0.405,0.190
4.304,0.015,0.100
4.306,-0.245,0.015
4.308,-0.345,-0.050
4.310,-0.195,-0.095
4.312,-0.245,-0.120
4.314,-0.165,-0.130
4.316,-0.080,-0.120
4.318,0.095,-0.105
4.320,0.015,-0.090
4.322,-0.025,-0.075
4.324,-0.035,-0.065
4.326,-0.175,-0.060
4.328,-0.265,-0.065
4.330,-0.220,-0.070
4.332,-0.135,-0.080
4.334,-0.070,-0.085
4.336,-0.065,-0.090
4.338,0.065,-0.085
4.340,-0.035,-0.080
4.342,0.000,-0.075
4.344,-0.035,-0.065
4.346,-0.065,-0.055
4.348,-0.195,-0.050
4.350,-0.200,-0.045
4.352,-0.165,-0.045
4.354,0.045,-0.045
4.356,-0.015,-0.045
4.358,-0.020,-0.045
4.360,0.080,-0.040
4.362,0.040,-0.035
4.364,-0.065,-0.030
4.366,-0.140,-0.025
4.368,-0.145,-0.025
4.370,-0.140,-0.025
4.372,-0.110,-0.030
4.374,-0.125,-0.035
4.376,0.010,-0.040
4.378,0.055,-0.050
4.380,0.105,-0.055
4.382,0.020,-0.055
4.384,-0.085,-0.055
4.386,-0.100,-0.050
4.388,-0.285,-0.045
4.390,-0.190,-0.035
4.392,-0.070,-0.025
4.394,-0.015,-0.020
4.396,0.050,-0.015
4.398,0.120,-0.015
4.400,0.125,-0.015
4.402,0.045,-0.020
4.404,-0.070,-0.025
4.406,-0.125,-0.030
4.408,-0.235,-0.035
4.410,-0.175,-0.040
4.412,-0.130,-0.045
4.414,-0.125,-0.045
4.416,0.135,-0.045
4.418,0.085,-0.040
4.420,0.045,-0.035
4.422,0.000,-0.025
4.424,-0.020,-0.015
4.426,-0.075,0.000
4.428,-0.180,0.010
4.430,-0.075,0.020
4.432,0.010,0.025
4.434,0.025,0.025
4.436,0.120,0.020
4.438,0.180,0.010
4.440,0.025,0.000
4.442,-0.040,-0.005
4.444,-0.025,-0.005
4.446,-0.090,-0.005
4.448,-0.125,0.005
4.450,-0.095,0.020
4.452,-0.065,0.030
4.454,0.145,0.045
4.456,0.115,0.055
4.458,0.120,0.060
4.460,0.170,0.060
4.462,0.105,0.060
4.464,-0.065,0.060
4.466,-0.040,0.065
4.468,-0.045,0.070
4.470,-0.065,0.075
4.472,0.090,0.085
4.474,0.125,0.095
4.476,0.175,0.100
4.478,0.245,0.105
4.480,0.265,0.110
4.482,0.120,0.110
4.484,-0.010,0.115
4.486,-0.045,0.120
4.488,-0.025,0.125
4.490,0.125,0.135
4.492,0.170,0.150
4.494,0.105,0.160
4.496,0.215,0.165
4.498,0.315,0.170
4.500,0.340,0.170
4.502,0.215,0.165
4.504,0.085,0.160
4.506,-0.090,0.155
4.508,-0.030,0.150
4.510,0.090,0.155
4.512,0.135,0.160
4.514,0.185,0.165
4.516,0.280,0.175
4.518,0.320,0.185
4.520,0.305,0.185
4.522,0.235,0.185
4.524,0.185,0.180
4.526,-0.035,0.175
4.528,-0.025,0.165
4.530,0.105,0.150
4.532,0.105,0.145
4.534,0.120,0.135
4.536,0.175,0.125
4.538,0.230,0.115
4.540,0.185,0.100
4.542,0.065,0.085
4.544,0.045,0.065
4.546,0.000,0.045
4.548,-0.060,0.025
4.550,-0.180,0.005
4.552,-0.135,-0.005
4.554,-0.015,-0.015
4.556,0.150,-0.020
4.558,0.090,-0.015
4.560,0.110,-0.015
4.562,-0.010,-0.010
4.564,-0.005,-0.010
4.566,-0.170,-0.015
4.568,-0.175,-0.020
4.570,-0.175,-0.025
4.572,-0.085,-0.040
4.574,0.010,-0.050
4.576,0.065,-0.055
4.578,0.030,-0.065
4.580,-0.015,-0.070
4.582,-0.040,-0.070
4.584,-0.205,-0.070
4.586,-0.175,-0.065
4.588,-0.090,-0.060
4.590,-0.245,-0.055
4.592,-0.015,-0.050
4.594,-0.045,-0.050
4.596,0.000,-0.055
4.598,0.110,-0.060
4.600,0.065,-0.065
4.602,-0.095,-0.070
4.604,-0.225,-0.080
4.606,-0.235,-0.080
4.608,-0.200,-0.080
4.610,-0.190,-0.080
4.612,-0.090,-0.070
4.614,-0.025,-0.065
4.616,0.160,-0.060
4.618,0.015,-0.055
4.620,-0.005,-0.055
4.622,-0.045,-0.060
4.624,-0.150,-0.070
4.626,-0.255,-0.080
4.628,-0.270,-0.090
4.630,-0.215,-0.095
4.632,-0.095,-0.100
4.634,0.025,-0.095
4.636,-0.020,-0.085
4.638,0.040,-0.075
4.640,0.110,-0.070
4.642,-0.085,-0.060
4.644,-0.105,-0.060
4.646,-0.290,-0.070
4.648,-0.285,-0.075
4.650,-0.150,-0.090
4.652,-0.090,-0.100
4.654,-0.070,-0.105
4.656,-0.030,-0.110
4.658,0.020,-0.100
4.660,0.000,-0.095
4.662,-0.040,-0.080
4.664,-0.195,-0.070
4.666,-0.200,-0.060
4.668,-0.125,-0.055
4.670,-0.155,-0.055
4.672,-0.080,-0.060
4.674,-0.060,-0.060
4.676,0.080,-0.060
4.678,-0.045,-0.060
4.680,0.030,-0.050
4.682,0.055,-0.035
4.684,-0.120,-0.020
4.686,-0.160,-0.005
4.688,-0.030,0.005
4.690,-0.095,0.005
4.692,-0.030,0.000
4.694,-0.050,-0.020
4.696,0.095,-0.040
4.698,0.045,-0.060
4.700,0.035,-0.080
4.702,-0.175,-0.095
4.704,-0.180,-0.100
4.706,-0.205,-0.095
4.708,-0.205,-0.085
4.710,-0.090,-0.070
4.712,0.000,-0.055
4.714,0.000,-0.040
4.716,0.060,-0.035
4.718,-0.035,-0.035
4.720,0.020,-0.040
4.722,-0.060,-0.050
4.724,-0.115,-0.060
4.726,-0.185,-0.070
4.728,-0.270,-0.075
4.730,-0.140,-0.070
4.732,-0.020,-0.065
4.734,0.000,-0.055
4.736,0.085,-0.045
4.738,0.040,-0.035
4.740,-0.030,-0.030
4.742,-0.125,-0.035
4.744,-0.120,-0.045
4.746,-0.175,-0.055
4.748,-0.185,-0.065
4.750,-0.110,-0.070
4.752,-0.135,-0.065
4.754,0.020,-0.060
4.756,0.075,-0.045
4.758,0.105,-0.025
4.760,0.025,-0.010
4.762,0.065,0.005
4.764,-0.110,0.010
4.766,-0.145,0.010
4.768,-0.220,0.000
4.770,-0.145,-0.015
4.772,0.105,-0.030
4.774,0.050,-0.040
4.776,0.060,-0.050
4.778,0.000,-0.055
4.780,-0.115,-0.055
4.782,-0.020,-0.050
4.784,-0.185,-0.050
4.786,-0.180,-0.045
4.788,-0.225,-0.045
4.790,-0.150,-0.045
4.792,-0.005,-0.050
4.794,0.090,-0.055
4.796,0.095,-0.060
4.798,0.090,-0.060
4.800,-0.105,-0.055
4.802,-0.165,-0.050
4.804,-0.130,-0.040
4.806,-0.165,-0.030
4.808,-0.170,-0.020
4.810,-0.100,-0.015
4.812,-0.035,-0.015
4.814,0.110,-0.015
4.816,0.090,-0.020
4.818,0.055,-0.025
4.820,-0.025,-0.030
4.822,-0.100,-0.035
4.824,-0.180,-0.035
4.826,-0.155,-0.030
4.828,-0.120,-0.025
4.830,-0.030,-0.015
4.832,0.035,-0.005
4.834,0.115,0.005
4.836,0.105,0.015
4.838,0.065,0.015
4.840,0.095,0.015
4.842,-0.065,0.005
4.844,-0.235,-0.005
4.846,-0.120,-0.020
4.848,-0.060,-0.035
4.850,-0.115,-0.050
4.852,-0.095,-0.060
4.854,0.040,-0.065
4.856,-0.010,-0.070
4.858,0.040,-0.070
4.860,-0.070,-0.065
4.862,-0.105,-0.065
4.864,-0.150,-0.070
4.866,-0.235,-0.070
4.868,-0.205,-0.080
4.870,-0.100,-0.085
4.872,-0.055,-0.085
4.874,0.035,-0.085
4.876,0.050,-0.085
4.878,-0.035,-0.075
4.880,-0.080,-0.070
4.882,-0.095,-0.065
4.884,-0.225,-0.065
4.886,-0.215,-0.075
4.888,-0.150,-0.095
4.890,-0.070,-0.120
4.892,-0.175,-0.140
4.894,-0.045,-0.160
4.896,0.005,-0.165
4.898,-0.150,-0.145
4.900,-0.185,-0.105
4.902,-0.130,-0.045
4.904,-0.125,0.045
4.906,0.080,0.150
4.908,0.160,0.265
4.910,0.390,0.380
4.912,0.550,0.485
4.914,0.830,0.580
4.916,0.860,0.650
4.918,0.730,0.695
4.920,0.680,0.710
4.922,0.505,0.700
4.924,0.445,0.660
4.926,0.490,0.595
4.928,0.570,0.505
4.930,0.445,0.400
4.932,0.370,0.285
4.934,0.365,0.175
4.936,-0.020,0.070
4.938,-0.095,-0.020
4.940,-0.240,-0.090
4.942,-0.265,-0.130
4.944,-0.275,-0.150
4.946,-0.170,-0.145
4.948,-0.125,-0.130
4.950,-0.095,-0.105
4.952,-0.130,-0.075
4.954,0.040,-0.055
4.956,0.080,-0.040
4.958,0.000,-0.035
4.960,-0.110,-0.040
4.962,-0.135,-0.050
4.964,-0.230,-0.065
4.966,-0.175,-0.075
4.968,-0.135,-0.085
4.970,-0.135,-0.090
4.972,-0.045,-0.095
4.974,0.040,-0.095
4.976,0.045,-0.090
4.978,0.045,-0.085
4.980,-0.180,-0.080
4.982,-0.210,-0.075
4.984,-0.215,-0.070
4.986,-0.220,-0.060
4.988,-0.125,-0.055
4.990,0.025,-0.050
4.992,0.075,-0.045
4.994,0.000,-0.040
4.996,0.040,-0.035
4.998,-0.075,-0.030
5.000,0.020,-0.020
5.002,-0.100,-0.015
5.004,-0.220,-0.010
5.006,-0.185,-0.010
5.008,-0.020,-0.005
5.010,0.030,-0.005
5.012,-0.030,-0.010
5.014,0.190,-0.015
5.016,0.120,-0.025
5.018,-0.075,-0.035
5.020,-0.130,-0.040
5.022,-0.165,-0.050
5.024,-0.245,-0.060
5.026,-0.220,-0.060
5.028,-0.070,-0.065
5.030,-0.040,-0.065
5.032,0.010,-0.065
5.034,0.145,-0.060
5.036,-0.020,-0.055
5.038,-0.075,-0.050
5.040,-0.105,-0.045
5.042,-0.080,-0.035
5.044,-0.185,-0.025
5.046,-0.190,-0.020
5.048,-0.015,-0.015
5.050,-0.045,-0.010
5.052,0.060,-0.015
5.054,0.140,-0.020
5.056,0.045,-0.030
5.058,-0.055,-0.040
5.060,-0.065,-0.050
5.062,-0.265,-0.055
5.064,-0.195,-0.055
5.066,-0.115,-0.045
5.068,-0.040,-0.030
5.070,-0.005,-0.010
5.072,0.080,0.010
5.074,0.150,0.035
5.076,0.110,0.050
5.078,0.005,0.060
5.080,0.095,0.060
5.082,-0.075,0.055
5.084,-0.120,0.045
5.086,-0.150,0.035
5.088,-0.005,0.025
5.090,-0.025,0.015
5.092,0.120,0.015
5.094,0.135,0.015
5.096,0.110,0.025
5.098,0.090,0.035
5.100,0.065,0.050
5.102,-0.120,0.065
5.104,-0.095,0.075
5.106,-0.035,0.085
5.108,0.120,0.095
5.110,0.095,0.100
5.112,0.195,0.105
5.114,0.190,0.105
5.116,0.160,0.110
5.118,0.110,0.110
5.120,0.005,0.115
5.122,-0.005,0.120
5.124,0.125,0.130
5.126,0.015,0.140
5.128,0.040,0.150
5.130,0.145,0.165
5.132,0.280,0.175
5.134,0.285,0.185
5.136,0.290,0.195
5.138,0.195,0.195
5.140,0.160,0.190
5.142,0.035,0.185
5.144,0.020,0.170
5.146,0.055,0.155
5.148,0.130,0.140
5.150,0.155,0.125
5.152,0.235,0.120
5.154,0.195,0.115
5.156,0.135,0.120
5.158,0.025,0.130
5.160,0.085,0.135
5.162,-0.070,0.140
5.164,0.105,0.140
5.166,0.065,0.130
5.168,0.115,0.115
5.170,0.075,0.095
5.172,0.130,0.075
5.174,0.115,0.055
5.176,0.105,0.035
5.178,-0.050,0.025
5.180,-0.020,0.015
5.182,-0.045,0.015
5.184,-0.115,0.010
5.186,-0.145,0.005
5.188,-0.060,0.000
5.190,-0.010,-0.010
5.192,0.105,-0.025
5.194,0.065,-0.040
5.196,-0.065,-0.050
5.198,-0.090,-0.060
5.200,-0.015,-0.060
5.202,-0.290,-0.055
5.204,-0.170,-0.045
5.206,-0.220,-0.030
5.208,0.080,-0.020
5.210,0.100,-0.010
5.212,0.005,-0.015
5.214,-0.020,-0.025
5.216,-0.060,-0.040
5.218,-0.085,-0.060
5.220,-0.090,-0.075
5.222,-0.235,-0.085
5.224,-0.245,-0.090
5.226,-0.130,-0.080
5.228,-0.005,-0.065
5.230,-0.075,-0.045
5.232,0.065,-0.030
5.234,0.045,-0.015
5.236,0.010,-0.015
5.238,-0.060,-0.020
5.240,-0.115,-0.035
5.242,-0.250,-0.060
5.244,-0.160,-0.080
5.246,-0.210,-0.100
5.248,-0.110,-0.110
5.250,-0.045,-0.110
5.252,0.025,-0.105
5.254,0.060,-0.095
5.256,-0.095,-0.080
5.258,-0.220,-0.070
5.260,-0.105,-0.060
5.262,-0.210,-0.060
5.264,-0.190,-0.060
5.266,-0.160,-0.065
5.268,-0.125,-0.075
5.270,-0.015,-0.080
5.272,0.055,-0.080
5.274,0.105,-0.075
5.276,-0.060,-0.070
5.278,-0.125,-0.060
5.280,-0.225,-0.055
5.282,-0.165,-0.050
5.284,-0.135,-0.045
5.286,-0.160,-0.050
5.288,-0.075,-0.050
5.290,0.045,-0.055
5.292,0.090,-0.060
5.294,-0.005,-0.060
5.296,-0.090,-0.055
5.298,-0.190,-0.050
5.300,-0.130,-0.045
5.302,-0.195,-0.045
5.304,-0.155,-0.040
5.306,-0.090,-0.045
5.308,-0.055,-0.045
5.310,-0.025,-0.055
5.312,0.005,-0.060
5.314,0.050,-0.065
5.316,-0.020,-0.065
5.318,-0.090,-0.065
5.320,-0.230,-0.060
5.322,-0.225,-0.055
5.324,-0.120,-0.045
5.326,-0.085,-0.040
5.328,-0.095,-0.035
5.330,-0.010,-0.030
5.332,0.125,-0.035
5.334,0.040,-0.035
5.336,-0.010,-0.045
5.338,-0.065,-0.050
5.340,-0.210,-0.060
5.342,-0.200,-0.065
5.344,-0.105,-0.070
5.346,-0.210,-0.070
5.348,-0.135,-0.065
5.350,0.035,-0.060
5.352,0.065,-0.055
5.354,-0.010,-0.050
5.356,-0.030,-0.045
5.358,-0.060,-0.045
5.360,-0.130,-0.050
5.362,-0.265,-0.055
5.364,-0.205,-0.060
5.366,-0.110,-0.065
5.368,0.010,-0.070
5.370,-0.040,-0.065
5.372,-0.055,-0.060
5.374,0.045,-0.055
5.376,0.015,-0.045
5.378,-0.095,-0.040
5.380,-0.170,-0.040
5.382,-0.240,-0.045
5.384,-0.160,-0.055
5.386,-0.140,-0.060
5.388,-0.165,-0.070
5.390,-0.025,-0.075
5.392,0.065,-0.075
5.394,0.135,-0.065
5.396,0.005,-0.055
5.398,-0.125,-0.040
5.400,-0.255,-0.030
5.402,-0.260,-0.025
5.404,-0.105,-0.025
5.406,-0.055,-0.030
5.408,-0.110,-0.040
5.410,0.000,-0.055
5.412,0.130,-0.070
5.414,0.025,-0.080
5.416,-0.040,-0.085
5.418,-0.145,-0.080
5.420,-0.230,-0.075
5.422,-0.210,-0.070
5.424,-0.140,-0.065
5.426,-0.205,-0.060
5.428,-0.070,-0.060
5.430,0.045,-0.060
5.432,0.065,-0.065
5.434,0.005,-0.065
5.436,-0.035,-0.065
5.438,-0.150,-0.065
5.440,-0.220,-0.055
5.442,-0.275,-0.045
5.444,-0.140,-0.040
5.446,-0.035,-0.030
5.448,-0.010,-0.025
5.450,0.050,-0.025
5.452,0.060,-0.025
5.454,-0.030,-0.030
5.456,0.010,-0.030
5.458,-0.120,-0.025
5.460,-0.215,-0.020
5.462,-0.170,-0.015
5.464,-0.180,-0.005
5.466,-0.010,0.000
5.468,0.040,0.005
5.470,0.170,0.005
5.472,0.130,0.005
5.474,0.025,0.000
5.476,-0.035,-0.005
5.478,-0.175,-0.010
5.480,-0.260,-0.010
5.482,-0.110,-0.015
5.484,-0.040,-0.015
5.486,-0.040,-0.015
5.488,-0.030,-0.020
5.490,0.065,-0.025
5.492,0.105,-0.040
5.494,-0.025,-0.050
5.496,-0.045,-0.065
5.498,-0.130,-0.080
5.500,-0.290,-0.085
5.502,-0.295,-0.090
5.504,-0.220,-0.090
5.506,-0.065,-0.085
5.508,0.010,-0.080
5.510,0.000,-0.070
5.512,0.035,-0.065
5.514,-0.060,-0.060
5.516,-0.100,-0.060
5.518,-0.110,-0.060
5.520,-0.265,-0.065
5.522,-0.180,-0.065
5.524,-0.150,-0.070
5.526,-0.135,-0.070
5.528,0.010,-0.075
5.530,-0.070,-0.080
5.532,0.005,-0.090
5.534,-0.045,-0.100
5.536,-0.210,-0.110
5.538,-0.205,-0.120
5.540,-0.265,-0.125
5.542,-0.290,-0.110
5.544,-0.175,-0.085
5.546,-0.055,-0.040
5.548,0.030,0.030
5.550,0.180,0.115
5.552,0.310,0.215
5.554,0.380,0.320
5.556,0.475,0.430
5.558,0.510,0.530
5.560,0.540,0.615
5.562,0.510,0.680
5.564,0.590,0.725
5.566,0.765,0.740
5.568,0.725,0.725
5.570,0.710,0.685
5.572,0.750,0.620
5.574,0.730,0.535
5.576,0.410,0.435
5.578,0.295,0.320
5.580,0.025,0.205
5.582,-0.185,0.095
5.584,-0.195,0.000
5.586,-0.185,-0.075
5.588,-0.260,-0.130
5.590,-0.080,-0.155
5.592,0.005,-0.155
5.594,0.130,-0.135
5.596,-0.110,-0.105
5.598,-0.120,-0.070
5.600,-0.185,-0.040
5.602,-0.285,-0.025
5.604,-0.210,-0.025
5.606,-0.165,-0.035
5.608,0.025,-0.050
5.610,0.140,-0.070
5.612,0.035,-0.090
5.614,-0.065,-0.095
5.616,-0.090,-0.095
5.618,-0.170,-0.085
5.620,-0.275,-0.070
5.622,-0.230,-0.050
5.624,-0.175,-0.040
5.626,-0.110,-0.035
5.628,0.080,-0.040
5.630,0.070,-0.050
5.632,0.060,-0.065
5.634,-0.035,-0.075
5.636,-0.230,-0.085
5.638,-0.275,-0.085
5.640,-0.270,-0.080
5.642,-0.140,-0.065
5.644,-0.045,-0.055
5.646,0.060,-0.040
5.648,-0.015,-0.030
5.650,0.040,-0.025
5.652,0.065,-0.025
5.654,-0.105,-0.025
5.656,-0.030,-0.025
5.658,-0.140,-0.030
5.660,-0.205,-0.030
5.662,-0.220,-0.030
5.664,-0.085,-0.030
5.666,-0.085,-0.035
5.668,-0.030,-0.040
5.670,0.130,-0.045
5.672,0.085,-0.050
5.674,-0.085,-0.055
5.676,-0.140,-0.055
5.678,-0.250,-0.050
5.680,-0.215,-0.040
5.682,-0.100,-0.030
5.684,0.000,-0.020
5.686,-0.040,-0.010
5.688,0.015,-0.005
5.690,0.130,-0.005
5.692,0.000,-0.015
5.694,-0.025,-0.025
5.696,-0.045,-0.040
5.698,-0.210,-0.055
5.700,-0.220,-0.060
5.702,-0.195,-0.065
5.704,-0.090,-0.060
5.706,-0.010,-0.045
5.708,0.055,-0.025
5.710,0.165,-0.005
5.712,0.025,0.015
5.714,0.040,0.035
5.716,-0.110,0.045
5.718,-0.095,0.050
5.720,-0.050,0.045
5.722,-0.050,0.035
5.724,-0.035,0.020
5.726,-0.045,0.005
5.728,0.025,-0.005
5.730,0.095,-0.010
5.732,0.075,-0.010
5.734,0.040,0.000
5.736,-0.090,0.020
5.738,-0.205,0.040
5.740,-0.035,0.060
5.742,-0.080,0.080
5.744,0.065,0.090
5.746,0.105,0.090
5.748,0.150,0.090
5.750,0.105,0.080
5.752,0.150,0.075
5.754,0.135,0.070
5.756,-0.095,0.075
5.758,-0.010,0.085
5.760,0.050,0.095
5.762,-0.085,0.110
5.764,0.050,0.125
5.766,0.085,0.135
5.768,0.330,0.140
5.770,0.185,0.140
5.772,0.105,0.140
5.774,0.110,0.135
5.776,0.175,0.130
5.778,-0.015,0.135
5.780,-0.055,0.140
5.782,0.010,0.145
5.784,0.140,0.155
5.786,0.195,0.160
5.788,0.125,0.160
5.790,0.265,0.160
5.792,0.185,0.155
5.794,0.175,0.150
5.796,0.090,0.145
5.798,-0.035,0.140
5.800,-0.040,0.140
5.802,0.055,0.140
5.804,0.085,0.140
5.806,0.170,0.140
5.808,0.210,0.135
5.810,0.150,0.125
5.812,0.140,0.110
5.814,0.100,0.095
5.816,0.105,0.080
5.818,-0.135,0.065
5.820,-0.155,0.055
5.822,-0.170,0.050
5.824,0.035,0.040
5.826,0.055,0.035
5.828,0.150,0.030
5.830,0.145,0.020
5.832,0.000,0.005
5.834,-0.060,-0.010
5.836,-0.175,-0.025
5.838,-0.180,-0.035
5.840,-0.175,-0.040
5.842,-0.190,-0.040
5.844,-0.100,-0.035
5.846,0.140,-0.025
5.848,0.110,-0.020
5.850,-0.005,-0.010
5.852,-0.025,-0.010
5.854,0.015,-0.015
5.856,-0.160,-0.025
5.858,-0.275,-0.040
5.860,-0.150,-0.055
5.862,-0.105,-0.065
5.864,-0.090,-0.075
5.866,-0.155,-0.075
5.868,0.045,-0.075
5.870,0.065,-0.065
5.872,-0.045,-0.055
5.874,-0.145,-0.045
5.876,-0.115,-0.035
5.878,-0.175,-0.035
5.880,-0.285,-0.035
5.882,-0.070,-0.045
5.884,-0.075,-0.060
5.886,-0.065,-0.075
5.888,-0.020,-0.090
5.890,0.015,-0.095
5.892,-0.080,-0.100
5.894,-0.080,-0.100
5.896,-0.275,-0.090
5.898,-0.295,-0.080
5.900,-0.125,-0.065
5.902,-0.080,-0.060
5.904,-0.090,-0.055
5.906,-0.100,-0.055
5.908,0.025,-0.060
5.910,-0.005,-0.070
5.912,-0.030,-0.075
5.914,-0.050,-0.080
5.916,-0.240,-0.080
5.918,-0.260,-0.075
5.920,-0.190,-0.065
5.922,-0.055,-0.050
5.924,-0.030,-0.040
5.926,-0.075,-0.035
5.928,0.010,-0.030
5.930,0.005,-0.035
5.932,0.055,-0.040
5.934,-0.100,-0.045
5.936,-0.210,-0.050
5.938,-0.240,-0.055
5.940,-0.160,-0.055
5.942,-0.200,-0.055
5.944,-0.145,-0.055
5.946,0.165,-0.050
5.948,0.105,-0.050
5.950,-0.015,-0.050
5.952,-0.220,-0.050
5.954,-0.080,-0.055
5.956,-0.115,-0.055
5.958,-0.210,-0.050
5.960,-0.285,-0.050
5.962,-0.105,-0.040
5.964,-0.035,-0.035
5.966,0.170,-0.030
5.968,0.090,-0.030
5.970,0.035,-0.030
5.972,-0.035,-0.030
5.974,-0.280,-0.040
5.976,-0.375,-0.045
5.978,-0.160,-0.050
5.980,-0.060,-0.055
5.982,-0.095,-0.055
5.984,0.050,-0.055
5.986,0.045,-0.050
5.988,-0.010,-0.050
5.990,-0.040,-0.045
5.992,-0.120,-0.045
5.994,-0.150,-0.050
5.996,-0.185,-0.055
5.998,-0.205,-0.055
6.000,-0.170,-0.060
6.002,-0.075,-0.060
6.004,-0.080,-0.060
6.006,0.045,-0.055
6.008,0.075,-0.045
6.010,-0.015,-0.040
6.012,-0.100,-0.030
6.014,-0.095,-0.025
6.016,-0.180,-0.025
6.018,-0.230,-0.030
6.020,-0.135,-0.035
6.022,-0.120,-0.045
6.024,-0.060,-0.055
6.026,0.005,-0.065
6.028,0.060,-0.070
6.030,0.180,-0.070
6.032,-0.195,-0.065
6.034,-0.135,-0.055
6.036,-0.275,-0.045
6.038,-0.250,-0.035
6.040,-0.070,-0.030
6.042,-0.095,-0.025
6.044,-0.050,-0.030
6.046,0.110,-0.035
6.048,0.100,-0.045
6.050,-0.050,-0.055
6.052,-0.150,-0.065
6.054,-0.180,-0.065
6.056,-0.205,-0.060
6.058,-0.195,-0.055
6.060,-0.190,-0.045
6.062,-0.010,-0.030
6.064,0.030,-0.025
6.066,0.090,-0.020
6.068,0.010,-0.020
6.070,0.050,-0.030
6.072,-0.080,-0.045
6.074,-0.240,-0.060
6.076,-0.230,-0.070
6.078,-0.260,-0.080
6.080,-0.175,-0.085
6.082,-0.085,-0.085
6.084,-0.020,-0.080
6.086,-0.005,-0.070
6.088,0.020,-0.065
6.090,-0.005,-0.055
6.092,-0.045,-0.045
6.094,-0.145,-0.040
6.096,-0.280,-0.035
6.098,-0.185,-0.030
6.100,-0.120,-0.025
6.102,0.010,-0.020
6.104,0.105,-0.010
6.106,0.055,-0.005
6.108,0.090,0.005
6.110,0.135,0.010
6.112,-0.095,0.015
6.114,-0.140,0.015
6.116,-0.095,0.015
6.118,-0.150,0.010
6.120,-0.120,0.005
6.122,-0.080,-0.005
6.124,-0.065,-0.010
6.126,0.120,-0.020
6.128,0.195,-0.025
6.130,0.005,-0.030
6.132,-0.055,-0.030
6.134,-0.215,-0.030
6.136,-0.205,-0.030
6.138,-0.210,-0.035
6.140,-0.100,-0.035
6.142,0.020,-0.040
6.144,0.105,-0.050
6.146,-0.010,-0.060
6.148,-0.075,-0.075
6.150,-0.080,-0.085
6.152,-0.140,-0.090
6.154,-0.200,-0.095
6.156,-0.300,-0.095
6.158,-0.120,-0.085
6.160,-0.145,-0.070
6.162,-0.150,-0.060
6.164,-0.020,-0.045
6.166,0.070,-0.035
6.168,0.040,-0.030
6.170,0.050,-0.035
6.172,-0.085,-0.045
6.174,-0.220,-0.060
6.176,-0.255,-0.080
6.178,-0.250,-0.100
6.180,-0.135,-0.110
6.182,-0.145,-0.110
6.184,-0.040,-0.095
6.186,-0.015,-0.065
6.188,0.095,-0.025
6.190,-0.005,0.035
6.192,-0.015,0.105
6.194,0.025,0.180
6.196,0.150,0.260
6.198,0.195,0.340
6.200,0.470,0.415
6.202,0.575,0.490
6.204,0.705,0.560
6.206,0.720,0.615
6.208,0.650,0.655
6.210,0.625,0.680
6.212,0.600,0.680
6.214,0.535,0.650
6.216,0.465,0.590
6.218,0.465,0.510
6.220,0.345,0.405
6.222,0.360,0.290
6.224,0.210,0.175
6.226,0.015,0.070
6.228,-0.105,-0.015
6.230,-0.240,-0.070
6.232,-0.055,-0.105
6.234,-0.155,-0.115
6.236,-0.285,-0.105
6.238,-0.205,-0.085
6.240,-0.055,-0.065
6.242,-0.070,-0.050
6.244,-0.015,-0.040
6.246,0.115,-0.035
6.248,-0.045,-0.040
6.250,-0.040,-0.050
6.252,-0.075,-0.055
6.254,-0.210,-0.060
6.256,-0.155,-0.060
6.258,-0.185,-0.055
6.260,-0.225,-0.050
6.262,-0.060,-0.050
6.264,0.165,-0.050
6.266,-0.030,-0.050
6.268,-0.035,-0.055
6.270,0.050,-0.060
6.272,-0.115,-0.070
6.274,-0.260,-0.075
6.276,-0.275,-0.080
6.278,-0.235,-0.080
6.280,-0.035,-0.080
6.282,-0.090,-0.075
6.284,-0.025,-0.070
6.286,0.065,-0.060
6.288,0.075,-0.055
6.290,-0.065,-0.045
6.292,-0.060,-0.040
6.294,-0.225,-0.035
6.296,-0.185,-0.030
6.298,-0.155,-0.030
6.300,-0.110,-0.030
6.302,-0.085,-0.030
6.304,0.095,-0.035
6.306,0.055,-0.040
6.308,0.065,-0.045
6.310,-0.060,-0.045
6.312,-0.100,-0.045
6.314,-0.160,-0.045
6.316,-0.230,-0.045
6.318,-0.185,-0.040
6.320,-0.055,-0.040
6.322,-0.055,-0.040
6.324,-0.045,-0.045
6.326,0.115,-0.050
6.328,0.065,-0.050
6.330,-0.045,-0.055
6.332,-0.215,-0.050
6.334,-0.240,-0.040
6.336,-0.260,-0.030
6.338,-0.100,-0.015
6.340,0.055,0.000
6.342,0.055,0.010
6.344,0.065,0.020
6.346,0.155,0.020
6.348,0.135,0.010
6.350,-0.030,0.005
6.352,-0.110,-0.010
6.354,-0.310,-0.020
6.356,-0.260,-0.030
6.358,-0.160,-0.030
6.360,0.140,-0.030
6.362,0.075,-0.030
6.364,0.030,-0.025
6.366,0.060,-0.015
6.368,-0.005,-0.010
6.370,-0.045,-0.005
6.372,-0.135,-0.005
6.374,-0.160,-0.005
6.376,-0.110,-0.005
6.378,-0.100,0.000
6.380,-0.030,0.000
6.382,0.010,0.005
6.384,0.170,0.010
6.386,0.100,0.020
6.388,0.060,0.030
6.390,-0.040,0.040
6.392,-0.115,0.050
6.394,-0.180,0.060
6.396,0.070,0.065
6.398,-0.040,0.075
6.400,0.085,0.085
6.402,0.085,0.090
6.404,0.260,0.100
6.406,0.245,0.110
6.408,0.110,0.120
6.410,0.005,0.135
6.412,-0.025,0.140
6.414,0.055,0.150
6.416,0.065,0.150
6.418,0.110,0.145
6.420,0.090,0.140
6.422,0.100,0.125
6.424,0.215,0.110
6.426,0.220,0.095
6.428,0.080,0.085
6.430,0.095,0.080
6.432,-0.005,0.075
6.434,-0.185,0.075
6.436,-0.045,0.085
6.438,0.085,0.090
6.440,0.090,0.100
6.442,0.110,0.110
6.444,0.185,0.115
6.446,0.220,0.120
6.448,0.235,0.120
6.450,0.090,0.120
6.452,-0.020,0.115
6.454,-0.035,0.110
6.456,0.010,0.105
6.458,0.095,0.095
6.460,-0.015,0.085
6.462,0.055,0.070
6.464,0.190,0.055
6.466,0.135,0.035
6.468,0.020,0.015
6.470,-0.040,-0.005
6.472,-0.150,-0.020
6.474,-0.150,-0.030
6.476,-0.100,-0.035
6.478,-0.070,-0.035
6.480,-0.145,-0.030
6.482,0.010,-0.025
6.484,0.110,-0.015
6.486,0.085,-0.015
6.488,-0.070,-0.015
6.490,0.075,-0.020
6.492,-0.130,-0.030
6.494,-0.255,-0.045
6.496,-0.235,-0.060
6.498,-0.045,-0.070
6.500,-0.120,-0.080
6.502,-0.070,-0.090
6.504,0.010,-0.090
6.506,-0.005,-0.085
6.508,-0.010,-0.075
6.510,-0.085,-0.065
6.512,-0.235,-0.055
6.514,-0.205,-0.055
6.516,-0.190,-0.055
6.518,-0.085,-0.060
6.520,-0.075,-0.070
6.522,0.040,-0.085
6.524,0.025,-0.095
6.526,-0.160,-0.105
6.528,-0.095,-0.105
6.530,-0.040,-0.105
6.532,-0.260,-0.100
6.534,-0.190,-0.090
6.536,-0.155,-0.080
6.538,-0.185,-0.070
6.540,-0.080,-0.070
6.542,0.065,-0.070
6.544,0.020,-0.075
6.546,-0.015,-0.085
6.548,-0.055,-0.095
6.550,-0.075,-0.100
6.552,-0.375,-0.110
6.554,-0.240,-0.110
6.556,-0.125,-0.105
6.558,-0.170,-0.100
6.560,-0.105,-0.090
6.562,0.020,-0.080
6.564,0.140,-0.070
6.566,0.000,-0.065
6.568,-0.050,-0.060
6.570,-0.130,-0.055
6.572,-0.275,-0.050
6.574,-0.175,-0.045
6.576,-0.130,-0.045
6.578,-0.035,-0.040
6.580,-0.045,-0.040
6.582,0.135,-0.045
6.584,0.110,-0.055
6.586,-0.060,-0.065
6.588,-0.085,-0.080
6.590,-0.185,-0.090
6.592,-0.345,-0.100
6.594,-0.235,-0.105
6.596,-0.125,-0.100
6.598,-0.155,-0.085
6.600,-0.070,-0.070
6.602,0.120,-0.050
6.604,0.130,-0.035
6.606,0.025,-0.025
6.608,0.030,-0.020
6.610,-0.170,-0.025
6.612,-0.185,-0.040
6.614,-0.150,-0.055
6.616,-0.150,-0.070
6.618,-0.170,-0.085
6.620,-0.115,-0.090
6.622,0.055,-0.090
6.624,0.000,-0.085
6.626,0.020,-0.070
6.628,-0.050,-0.060
6.630,-0.100,-0.045
6.632,-0.155,-0.030
6.634,-0.185,-0.020
6.636,-0.165,-0.015
6.638,-0.030,-0.010
6.640,-0.015,-0.010
6.642,0.020,-0.015
6.644,0.240,-0.020
6.646,0.080,-0.025
6.648,-0.070,-0.035
6.650,-0.085,-0.045
6.652,-0.345,-0.055
6.654,-0.180,-0.065
6.656,-0.105,-0.075
6.658,-0.080,-0.080
6.660,0.010,-0.080
6.662,0.035,-0.075
6.664,-0.015,-0.065
6.666,-0.085,-0.055
6.668,0.025,-0.045
6.670,-0.140,-0.035
6.672,-0.210,-0.035
6.674,-0.240,-0.045
6.676,-0.135,-0.055
6.678,0.090,-0.075
6.680,-0.060,-0.090
6.682,0.080,-0.100
6.684,-0.045,-0.110
6.686,-0.105,-0.105
6.688,-0.190,-0.095
6.690,-0.100,-0.075
6.692,-0.155,-0.060
6.694,-0.185,-0.040
6.696,-0.080,-0.025
6.698,0.000,-0.020
6.700,-0.010,-0.015
6.702,0.010,-0.020
6.704,0.120,-0.030
6.706,0.155,-0.035
6.708,-0.145,-0.045
6.710,-0.165,-0.050
6.712,-0.150,-0.050
6.714,-0.090,-0.050
6.716,-0.140,-0.050
6.718,-0.030,-0.050
6.720,0.040,-0.055
6.722,0.010,-0.055
6.724,0.045,-0.055
6.726,-0.035,-0.060
6.728,-0.135,-0.065
6.730,-0.100,-0.065
6.732,-0.200,-0.070
6.734,-0.210,-0.075
6.736,-0.235,-0.080
6.738,-0.040,-0.085
6.740,0.025,-0.090
6.742,0.050,-0.090
6.744,-0.060,-0.085
6.746,0.000,-0.075
6.748,-0.150,-0.065
6.750,-0.270,-0.050
6.752,-0.090,-0.030
6.754,-0.045,-0.015
6.756,0.035,-0.005
6.758,0.020,0.000
6.760,0.105,0.000
6.762,0.075,-0.010
6.764,0.075,-0.020
6.766,-0.035,-0.035
6.768,-0.085,-0.045
6.770,-0.215,-0.055
6.772,-0.245,-0.060
6.774,-0.080,-0.055
6.776,-0.055,-0.055
6.778,-0.065,-0.050
6.780,0.060,-0.045
6.782,0.145,-0.045
6.784,0.035,-0.045
6.786,-0.110,-0.050
6.788,-0.105,-0.055
6.790,-0.120,-0.065
6.792,-0.195,-0.075
6.794,-0.150,-0.085
6.796,-0.120,-0.095
6.798,-0.115,-0.105
6.800,-0.020,-0.115
6.802,0.040,-0.115
6.804,-0.140,-0.115
6.806,-0.025,-0.115
6.808,-0.120,-0.110
6.810,-0.250,-0.110
6.812,-0.215,-0.105
6.814,-0.195,-0.110
6.816,-0.095,-0.115
6.818,-0.105,-0.120
6.820,0.010,-0.130
6.822,-0.025,-0.130
6.824,-0.125,-0.125
6.826,-0.130,-0.105
6.828,-0.075,-0.065
6.830,-0.130,-0.010
6.832,-0.035,0.060
6.834,0.070,0.150
6.836,0.180,0.250
6.838,0.475,0.355
6.840,0.560,0.455
6.842,0.705,0.550
6.844,0.770,0.630
6.846,0.855,0.690
6.848,0.800,0.725
6.850,0.455,0.735
6.852,0.600,0.710
6.854,0.525,0.655
6.856,0.590,0.570
6.858,0.575,0.460
6.860,0.535,0.335
6.862,0.330,0.210
6.864,0.120,0.085
6.866,-0.150,-0.020
6.868,-0.340,-0.100
6.870,-0.245,-0.150
6.872,-0.200,-0.165
6.874,-0.235,-0.155
6.876,-0.060,-0.130
6.878,-0.040,-0.095
6.880,0.090,-0.060
6.882,-0.020,-0.030
6.884,-0.095,-0.020
6.886,0.125,-0.025
6.888,-0.045,-0.040
6.890,-0.065,-0.060
6.892,-0.230,-0.080
6.894,-0.355,-0.100
6.896,-0.090,-0.110
6.898,-0.045,-0.110
6.900,0.020,-0.105
6.902,0.105,-0.095
6.904,0.005,-0.090
6.906,-0.065,-0.085
6.908,-0.125,-0.090
6.910,-0.210,-0.100
6.912,-0.345,-0.110
6.914,-0.175,-0.120
6.916,-0.110,-0.130
6.918,-0.090,-0.125
6.920,0.010,-0.120
6.922,0.000,-0.100
6.924,-0.045,-0.080
6.926,-0.140,-0.055
6.928,0.070,-0.040
6.930,-0.135,-0.025
6.932,-0.220,-0.025
6.934,-0.105,-0.025
6.936,-0.035,-0.035
6.938,0.045,-0.045
6.940,0.060,-0.055
6.942,0.145,-0.060
6.944,0.000,-0.060
6.946,-0.110,-0.055
6.948,-0.200,-0.045
6.950,-0.270,-0.035
6.952,-0.055,-0.030
6.954,-0.015,-0.025
6.956,-0.060,-0.025
6.958,0.115,-0.025
6.960,0.090,-0.030
6.962,0.000,-0.030
6.964,0.060,-0.035
6.966,0.005,-0.035
6.968,-0.100,-0.035
6.970,-0.190,-0.030
6.972,-0.165,-0.030
6.974,0.005,-0.030
6.976,-0.005,-0.030
6.978,-0.030,-0.030
6.980,0.090,-0.030
6.982,0.100,-0.025
6.984,0.040,-0.025
6.986,0.050,-0.015
6.988,-0.015,-0.005
6.990,-0.050,0.005
6.992,-0.230,0.015
6.994,0.010,0.025
6.996,0.070,0.030
6.998,0.020,0.030
7.000,0.110,0.025
7.002,0.265,0.020
7.004,0.105,0.020
7.006,0.010,0.015
7.008,-0.145,0.020
7.010,-0.090,0.025
7.012,-0.050,0.035
7.014,-0.015,0.045
7.016,0.105,0.055
7.018,0.165,0.070
7.020,0.225,0.080
7.022,0.175,0.090
7.024,0.165,0.100
7.026,0.140,0.110
7.028,0.085,0.115
7.030,0.015,0.120
7.032,0.035,0.120
7.034,0.065,0.120
7.036,0.130,0.120
7.038,0.145,0.120
7.040,0.220,0.115
7.042,0.300,0.120
7.044,0.200,0.125
7.046,0.210,0.135
7.048,0.020,0.145
7.050,0.015,0.160
7.052,0.100,0.175
7.054,0.195,0.180
7.056,0.180,0.185
7.058,0.300,0.180
7.060,0.320,0.170
7.062,0.250,0.160
7.064,0.105,0.155
7.066,0.110,0.150
7.068,0.110,0.155
7.070,0.145,0.160
7.072,0.105,0.175
7.074,0.210,0.190
7.076,0.140,0.205
7.078,0.290,0.210
7.080,0.425,0.210
7.082,0.305,0.200
7.084,0.230,0.185
7.086,0.070,0.170
7.088,0.015,0.155
7.090,-0.010,0.145
7.092,0.125,0.140
7.094,0.135,0.140
7.096,0.110,0.145
7.098,0.325,0.145
7.100,0.260,0.150
7.102,0.220,0.145
7.104,0.155,0.130
7.106,0.085,0.115
7.108,-0.005,0.095
7.110,-0.005,0.070
7.112,-0.070,0.055
7.114,0.080,0.045
7.116,0.045,0.040
7.118,0.175,0.040
7.120,0.150,0.045
7.122,0.180,0.050
7.124,0.070,0.050
7.126,0.085,0.045
7.128,-0.185,0.035
7.130,-0.065,0.015
7.132,-0.015,-0.005
7.134,0.075,-0.025
7.136,-0.065,-0.040
7.138,0.055,-0.050
7.140,0.095,-0.055
7.142,-0.020,-0.055
7.144,-0.025,-0.055
7.146,0.040,-0.045
7.148,-0.175,-0.040
7.150,-0.195,-0.035
7.152,-0.180,-0.035
7.154,-0.040,-0.035
7.156,0.025,-0.040
7.158,0.095,-0.040
7.160,0.110,-0.045
7.162,0.025,-0.045
7.164,0.080,-0.045
7.166,-0.105,-0.045
7.168,-0.335,-0.045
7.170,-0.115,-0.045
7.172,-0.135,-0.045
7.174,0.050,-0.050
7.176,0.015,-0.050
7.178,0.030,-0.055
7.180,0.005,-0.060
7.182,0.070,-0.065
7.184,-0.080,-0.065
7.186,-0.100,-0.065
7.188,-0.115,-0.060
7.190,-0.220,-0.060
7.192,-0.105,-0.055
7.194,0.030,-0.050
7.196,-0.005,-0.045
7.198,0.095,-0.045
7.200,0.100,-0.045
7.202,0.045,-0.045
7.204,-0.095,-0.045
7.206,-0.115,-0.045
7.208,-0.145,-0.045
7.210,-0.110,-0.045
7.212,-0.060,-0.045
7.214,-0.045,-0.050
7.216,-0.045,-0.055
7.218,0.065,-0.060
7.220,0.100,-0.065
7.222,-0.025,-0.075
7.224,-0.075,-0.075
7.226,-0.110,-0.075
7.228,-0.130,-0.070
7.230,-0.160,-0.060
7.232,-0.065,-0.050
7.234,-0.050,-0.040
7.236,0.085,-0.035
7.238,0.055,-0.030
7.240,0.005,-0.035
7.242,-0.055,-0.045
7.244,-0.040,-0.055
7.246,-0.035,-0.065
7.248,-0.160,-0.070
7.250,-0.085,-0.075
7.252,-0.075,-0.070
7.254,-0.220,-0.065
7.256,-0.010,-0.055
7.258,0.185,-0.050
7.260,-0.010,-0.045
7.262,0.030,-0.040
7.264,-0.055,-0.045
7.266,-0.085,-0.050
7.268,-0.115,-0.060
7.270,-0.190,-0.065
7.272,-0.070,-0.070
7.274,-0.065,-0.075
7.276,-0.020,-0.075
7.278,0.050,-0.070
7.280,-0.015,-0.070
7.282,-0.070,-0.070
7.284,-0.115,-0.075
7.286,-0.030,-0.075
7.288,-0.085,-0.080
7.290,-0.245,-0.085
7.292,-0.165,-0.085
7.294,-0.080,-0.080
7.296,-0.060,-0.075
7.298,0.015,-0.065
7.300,0.230,-0.060
7.302,0.070,-0.050
7.304,-0.115,-0.050
7.306,-0.200,-0.050
7.308,-0.190,-0.060
7.310,-0.155,-0.070
7.312,-0.130,-0.085
7.314,-0.055,-0.100
7.316,-0.005,-0.110
7.318,0.010,-0.115
7.320,0.025,-0.115
7.322,-0.115,-0.110
7.324,-0.110,-0.100
7.326,-0.205,-0.085
7.328,-0.245,-0.070
7.330,-0.140,-0.055
7.332,0.030,-0.045
7.334,0.000,-0.035
7.336,-0.020,-0.035
7.338,0.160,-0.040
7.340,0.045,-0.045
7.342,-0.010,-0.050
7.344,-0.105,-0.055
7.346,-0.160,-0.065
7.348,-0.145,-0.065
7.350,-0.185,-0.065
7.352,-0.065,-0.065
7.354,-0.075,-0.060
7.356,0.110,-0.055
7.358,0.075,-0.045
7.360,0.060,-0.040
7.362,-0.045,-0.035
7.364,-0.030,-0.030
7.366,-0.125,-0.030
7.368,-0.180,-0.030
7.370,-0.205,-0.035
7.372,-0.050,-0.040
7.374,-0.005,-0.050
7.376,0.085,-0.060
7.378,0.155,-0.065
7.380,0.020,-0.075
7.382,-0.100,-0.075
7.384,-0.145,-0.075
7.386,-0.260,-0.075
7.388,-0.120,-0.075
7.390,-0.180,-0.075
7.392,-0.130,-0.080
7.394,-0.080,-0.090
7.396,0.055,-0.105
7.398,0.010,-0.120
7.400,-0.090,-0.135
7.402,-0.190,-0.145
7.404,-0.155,-0.145
7.406,-0.205,-0.140
7.408,-0.205,-0.125
7.410,-0.190,-0.105
7.412,-0.140,-0.085
7.414,-0.085,-0.070
7.416,0.100,-0.060
7.418,0.120,-0.060
7.420,0.070,-0.065
7.422,-0.140,-0.080
7.424,-0.160,-0.090
7.426,-0.270,-0.100
7.428,-0.180,-0.095
7.430,-0.150,-0.070
7.432,-0.035,-0.035
7.434,-0.020,0.025
7.436,0.220,0.095
7.438,0.260,0.180
7.440,0.375,0.270
7.442,0.375,0.365
7.444,0.530,0.450
7.446,0.535,0.530
7.448,0.525,0.595
7.450,0.570,0.640
7.452,0.595,0.655
7.454,0.580,0.645
7.456,0.690,0.605
7.458,0.665,0.535
7.460,0.585,0.440
7.462,0.395,0.330
7.464,0.205,0.210
7.466,-0.070,0.095
7.468,-0.205,-0.005
7.470,-0.300,-0.085
7.472,-0.260,-0.140
7.474,-0.195,-0.165
7.476,0.020,-0.165
7.478,-0.010,-0.150
7.480,0.030,-0.125
7.482,-0.025,-0.095
7.484,-0.190,-0.070
7.486,-0.215,-0.050
7.488,-0.230,-0.045
7.490,-0.055,-0.045
7.492,-0.105,-0.055
7.494,0.020,-0.060
7.496,0.075,-0.070
7.498,0.045,-0.075
7.500,-0.040,-0.075
7.502,-0.100,-0.075
7.504,-0.125,-0.065
7.506,-0.185,-0.055
7.508,-0.225,-0.050
7.510,-0.135,-0.045
7.512,0.000,-0.050
7.514,0.000,-0.055
7.516,0.010,-0.065
7.518,-0.015,-0.080
7.520,-0.035,-0.090
7.522,-0.130,-0.100
7.524,-0.210,-0.105
7.526,-0.200,-0.100
7.528,-0.190,-0.095
7.530,-0.180,-0.080
7.532,-0.120,-0.065
7.534,-0.070,-0.050
7.536,0.080,-0.035
7.538,0.170,-0.030
7.540,0.010,-0.030
7.542,-0.075,-0.040
7.544,-0.135,-0.050
7.546,-0.200,-0.065
7.548,-0.165,-0.080
7.550,-0.270,-0.090
7.552,-0.115,-0.100
7.554,-0.065,-0.100
7.556,0.045,-0.100
7.558,0.035,-0.090
7.560,-0.075,-0.080
7.562,-0.120,-0.065
7.564,-0.150,-0.055
7.566,-0.175,-0.045
7.568,-0.140,-0.035
7.570,-0.110,-0.030
7.572,-0.005,-0.030
7.574,0.040,-0.025
7.576,0.070,-0.025
7.578,0.015,-0.025
7.580,-0.060,-0.020
7.582,-0.065,-0.020
7.584,-0.060,-0.010
7.586,-0.145,-0.005
7.588,-0.075,0.000
7.590,0.005,0.005
7.592,-0.040,0.005
7.594,0.035,0.000
7.596,0.080,-0.010
7.598,0.065,-0.020
7.600,-0.045,-0.030
7.602,-0.085,-0.045
7.604,-0.200,-0.050
7.606,-0.195,-0.050
7.608,-0.150,-0.045
7.610,-0.065,-0.035
7.612,0.000,-0.015
7.614,0.110,0.005
7.616,0.185,0.025
7.618,0.120,0.040
7.620,0.050,0.055
7.622,-0.020,0.060
7.624,-0.170,0.060
7.626,-0.105,0.055
7.628,0.000,0.050
7.630,0.020,0.040
7.632,0.020,0.035
7.634,0.145,0.030
7.636,0.075,0.035
7.638,0.070,0.045
7.640,0.060,0.065
7.642,0.050,0.085
7.644,-0.070,0.105
7.646,0.000,0.130
7.648,0.070,0.150
7.650,0.150,0.160
7.652,0.200,0.170
7.654,0.235,0.170
7.656,0.220,0.165
7.658,0.190,0.150
7.660,0.145,0.140
7.662,0.035,0.125
7.664,-0.100,0.110
7.666,-0.040,0.100
7.668,0.025,0.095
7.670,0.040,0.090
7.672,0.050,0.085
7.674,0.165,0.080
7.676,0.170,0.080
7.678,0.150,0.075
7.680,0.035,0.070
7.682,-0.015,0.065
7.684,-0.135,0.060
7.686,-0.100,0.055
7.688,-0.020,0.050
7.690,0.020,0.045
7.692,0.020,0.040
7.694,0.100,0.025
7.696,0.035,0.015
7.698,0.000,-0.005
7.700,-0.140,-0.025
7.702,-0.070,-0.045
7.704,-0.195,-0.065
7.706,-0.295,-0.080
7.708,-0.225,-0.090
7.710,-0.055,-0.095
7.712,-0.150,-0.095
7.714,0.000,-0.090
7.716,0.000,-0.090
7.718,-0.055,-0.090
7.720,-0.185,-0.095
7.722,-0.215,-0.105
7.724,-0.300,-0.120
7.726,-0.295,-0.140
7.728,-0.275,-0.160
7.730,-0.245,-0.180
7.732,-0.220,-0.195
7.734,-0.170,-0.200
7.736,-0.145,-0.205
7.738,-0.170,-0.200
7.740,-0.155,-0.190
7.742,-0.190,-0.175
7.744,-0.360,-0.165
7.746,-0.340,-0.160
7.748,-0.360,-0.155
7.750,-0.205,-0.160
7.752,-0.175,-0.160
7.754,-0.105,-0.165
7.756,-0.125,-0.175
7.758,-0.175,-0.175
7.760,-0.275,-0.180
7.762,-0.260,-0.180
7.764,-0.345,-0.175
7.766,-0.340,-0.175
7.768,-0.295,-0.170
7.770,-0.175,-0.170
7.772,-0.165,-0.170
7.774,-0.115,-0.175
7.776,-0.160,-0.175
7.778,-0.210,-0.180
7.780,-0.300,-0.180
7.782,-0.315,-0.180
7.784,-0.360,-0.180
7.786,-0.320,-0.185
7.788,-0.300,-0.190
7.790,-0.255,-0.195
7.792,-0.220,-0.205
7.794,-0.185,-0.215
7.796,-0.195,-0.225
7.798,-0.260,-0.230
7.800,-0.315,-0.230
7.802,-0.400,-0.220
7.804,-0.345,-0.205
7.806,-0.430,-0.185
7.808,-0.220,-0.160
7.810,-0.165,-0.130
7.812,-0.120,-0.105
7.814,-0.030,-0.085
7.816,-0.060,-0.075
7.818,-0.140,-0.070
7.820,-0.155,-0.075
7.822,-0.210,-0.080
7.824,-0.295,-0.090
7.826,-0.275,-0.100
7.828,-0.195,-0.105
7.830,-0.170,-0.110
7.832,-0.050,-0.110
7.834,-0.035,-0.110
7.836,-0.110,-0.110
7.838,-0.165,-0.115
7.840,-0.250,-0.120
7.842,-0.315,-0.125
7.844,-0.320,-0.135
7.846,-0.280,-0.140
7.848,-0.260,-0.145
7.850,-0.300,-0.150
7.852,-0.100,-0.155
7.854,-0.010,-0.150
7.856,-0.140,-0.145
7.858,-0.225,-0.140
7.860,-0.280,-0.135
7.862,-0.355,-0.125
7.864,-0.305,-0.120
7.866,-0.230,-0.110
7.868,-0.215,-0.105
7.870,-0.170,-0.095
7.872,-0.100,-0.090
7.874,0.020,-0.080
7.876,0.000,-0.070
7.878,-0.175,-0.065
7.880,-0.175,-0.055
7.882,-0.165,-0.050
7.884,-0.275,-0.045
7.886,-0.295,-0.040
7.888,-0.165,-0.035
7.890,-0.055,-0.030
7.892,0.030,-0.030
7.894,0.015,-0.030
7.896,-0.020,-0.035
7.898,-0.090,-0.040
7.900,-0.160,-0.050
7.902,-0.285,-0.055
7.904,-0.275,-0.065
7.906,-0.285,-0.070
7.908,-0.200,-0.075
7.910,-0.145,-0.075
7.912,-0.040,-0.070
7.914,-0.040,-0.070
7.916,-0.050,-0.060
7.918,-0.100,-0.055
7.920,-0.105,-0.045
7.922,-0.255,-0.040
7.924,-0.270,-0.035
7.926,-0.250,-0.025
7.928,-0.085,-0.020
7.930,-0.065,-0.015
7.932,-0.055,-0.005
7.934,-0.020,0.005
7.936,0.080,0.015
7.938,-0.040,0.025
7.940,-0.100,0.030
7.942,-0.185,0.035
7.944,-0.160,0.035
7.946,-0.185,0.030
7.948,-0.100,0.020
7.950,-0.040,0.005
7.952,-0.020,-0.015
7.954,-0.085,-0.030
7.956,-0.065,-0.045
7.958,-0.140,-0.060
7.960,-0.280,-0.065
7.962,-0.325,-0.065
7.964,-0.155,-0.065
7.966,-0.215,-0.055
7.968,-0.155,-0.050
7.970,-0.095,-0.045
7.972,-0.045,-0.040
7.974,-0.050,-0.040
7.976,-0.095,-0.045
7.978,-0.205,-0.045
7.980,-0.215,-0.050
7.982,-0.270,-0.050
7.984,-0.300,-0.050
7.986,-0.275,-0.040
7.988,-0.080,-0.030
7.990,-0.145,-0.015
7.992,0.045,0.000
7.994,0.105,0.010
7.996,-0.010,0.015
7.998,-0.130,0.015
8.000,-0.235,0.005
8.002,-0.290,-0.010
8.004,-0.255,-0.025
8.006,-0.135,-0.040
8.008,-0.170,-0.040
8.010,-0.135,-0.035
8.012,0.010,-0.005
8.014,0.045,0.035
8.016,0.080,0.095
8.018,0.010,0.165
8.020,0.055,0.240
8.022,0.060,0.320
8.024,0.195,0.390
8.026,0.325,0.450
8.028,0.515,0.495
8.030,0.475,0.530
8.032,0.530,0.545
8.034,0.570,0.550
8.036,0.390,0.535
8.038,0.325,0.505
8.040,0.320,0.460
8.042,0.220,0.405
8.044,0.190,0.335
8.046,0.055,0.250
8.048,0.010,0.165
8.050,-0.065,0.075
8.052,-0.100,-0.005
8.054,-0.230,-0.070
8.056,-0.215,-0.115
8.058,-0.225,-0.140
8.060,-0.235,-0.140
8.062,-0.335,-0.125
8.064,-0.290,-0.095
8.066,-0.215,-0.055
8.068,-0.145,-0.025
8.070,-0.140,0.000
8.072,-0.045,0.015
8.074,-0.055,0.020
8.076,-0.095,0.010
8.078,-0.145,-0.005
8.080,-0.140,-0.020
8.082,-0.270,-0.030
8.084,-0.310,-0.035
8.086,-0.195,-0.030
8.088,-0.115,-0.020
8.090,-0.195,-0.005
8.092,-0.010,0.010
8.094,0.065,0.025
8.096,-0.040,0.040
8.098,-0.090,0.050
8.100,-0.165,0.055
8.102,-0.240,0.055
8.104,-0.180,0.055
8.106,-0.145,0.055
8.108,-0.085,0.055
8.110,-0.030,0.050
8.112,0.050,0.055
8.114,0.025,0.055
8.116,-0.060,0.060
8.118,-0.100,0.065
8.120,-0.150,0.070
8.122,-0.215,0.070
8.124,-0.135,0.075
8.126,-0.110,0.080
8.128,-0.060,0.080
8.130,0.040,0.085
8.132,0.055,0.090
8.134,0.060,0.100
8.136,0.015,0.110
8.138,-0.090,0.125
8.140,-0.185,0.140
8.142,-0.095,0.160
8.144,-0.095,0.175
8.146,0.015,0.185
8.148,0.055,0.195
8.150,0.205,0.200
8.152,0.255,0.200
8.154,0.165,0.200
8.156,0.005,0.190
8.158,-0.050,0.175
8.160,-0.120,0.165
8.162,-0.160,0.150
8.164,-0.180,0.140
8.166,-0.055,0.130
8.168,0.030,0.120
8.170,0.085,0.120
8.172,0.045,0.125
8.174,0.070,0.130
8.176,0.060,0.145
8.178,-0.050,0.160
8.180,-0.175,0.175
8.182,-0.090,0.185
8.184,0.000,0.195
8.186,0.010,0.200
8.188,0.105,0.200
8.190,0.140,0.195
8.192,0.100,0.190
8.194,0.070,0.185
8.196,-0.015,0.185
8.198,-0.050,0.190
8.200,-0.045,0.205
8.202,0.010,0.220
8.204,0.035,0.240
8.206,0.090,0.260
8.208,0.150,0.280
8.210,0.225,0.290
8.212,0.155,0.295
8.214,0.260,0.300
8.216,0.095,0.295
8.218,0.090,0.295
8.220,0.040,0.295
8.222,0.035,0.295
8.224,0.080,0.305
8.226,0.085,0.315
8.228,0.215,0.325
8.230,0.335,0.335
8.232,0.215,0.345
8.234,0.265,0.350
8.236,0.205,0.355
8.238,0.190,0.355
8.240,0.055,0.350
8.242,0.065,0.345
8.244,0.110,0.340
8.246,0.150,0.340
8.248,0.130,0.340
8.250,0.290,0.345
8.252,0.260,0.355
8.254,0.260,0.365
8.256,0.210,0.380
8.258,0.210,0.395
8.260,0.090,0.410
8.262,0.150,0.415
8.264,0.150,0.415
8.266,0.260,0.410
8.268,0.280,0.395
8.270,0.320,0.375
8.272,0.235,0.355
8.274,0.140,0.330
8.276,0.135,0.305
8.278,0.090,0.290
8.280,-0.080,0.280
8.282,-0.040,0.275
8.284,0.090,0.275
8.286,0.115,0.280
8.288,0.165,0.280
8.290,0.160,0.275
8.292,0.185,0.270
8.294,0.190,0.255
8.296,-0.010,0.235
8.298,-0.025,0.210
8.300,-0.115,0.190
8.302,-0.100,0.165
8.304,-0.115,0.150
8.306,-0.075,0.135
8.308,-0.050,0.125
8.310,-0.020,0.120
8.312,0.030,0.120
8.314,-0.010,0.120
8.316,-0.010,0.125
8.318,-0.075,0.130
8.320,-0.200,0.135
8.322,-0.180,0.145
8.324,-0.105,0.160
8.326,-0.010,0.175
8.328,0.050,0.185
8.330,0.130,0.195
8.332,0.085,0.195
8.334,0.045,0.185
8.336,-0.045,0.170
8.338,-0.110,0.145
8.340,-0.240,0.115
8.342,-0.280,0.085
8.344,-0.205,0.055
8.346,-0.185,0.030
8.348,-0.130,0.020
8.350,-0.095,0.015
8.352,-0.065,0.020
8.354,-0.055,0.030
8.356,-0.205,0.050
8.358,-0.160,0.065
8.360,-0.235,0.085
8.362,-0.230,0.095
8.364,-0.190,0.095
8.366,-0.090,0.095
8.368,-0.095,0.085
8.370,0.010,0.075
8.372,-0.045,0.065
8.374,-0.030,0.060
8.376,-0.155,0.055
8.378,-0.260,0.060
8.380,-0.285,0.065
8.382,-0.250,0.080
8.384,-0.205,0.095
8.386,-0.075,0.110
8.388,0.060,0.125
8.390,0.075,0.130
8.392,0.040,0.130
8.394,-0.060,0.125
8.396,-0.145,0.115
8.398,-0.285,0.100
8.400,-0.335,0.085
8.402,-0.210,0.070
8.404,-0.205,0.065
8.406,-0.095,0.060
8.408,-0.030,0.060
8.410,-0.010,0.065
8.412,-0.015,0.075
8.414,-0.070,0.075
8.416,-0.220,0.075
8.418,-0.310,0.070
8.420,-0.275,0.055
8.422,-0.290,0.040
8.424,-0.190,0.025
8.426,-0.165,0.010
8.428,-0.170,0.000
8.430,-0.110,-0.005
8.432,-0.080,0.000
8.434,-0.160,0.010
8.436,-0.225,0.020
8.438,-0.275,0.040
8.440,-0.280,0.055
8.442,-0.225,0.070
8.444,-0.145,0.075
8.446,-0.060,0.080
8.448,-0.055,0.080
8.450,-0.055,0.080
8.452,-0.035,0.075
8.454,-0.140,0.070
8.456,-0.220,0.060
8.458,-0.320,0.050
8.460,-0.285,0.040
8.462,-0.270,0.030
8.464,-0.190,0.020
8.466,-0.180,0.010
8.468,-0.140,0.000
8.470,-0.135,-0.005
8.472,-0.140,-0.005
8.474,-0.220,-0.005
8.476,-0.245,0.000
8.478,-0.355,0.005
8.480,-0.315,0.010
8.482,-0.310,0.005
8.484,-0.225,0.000
8.486,-0.180,-0.015
8.488,-0.150,-0.035
8.490,-0.230,-0.060
8.492,-0.285,-0.080
8.494,-0.410,-0.105
8.496,-0.335,-0.120
8.498,-0.530,-0.125
8.500,-0.405,-0.125
8.502,-0.400,-0.120
8.504,-0.315,-0.105
8.506,-0.290,-0.090
8.508,-0.200,-0.075
8.510,-0.215,-0.060
8.512,-0.200,-0.055
8.514,-0.320,-0.055
8.516,-0.325,-0.060
8.518,-0.400,-0.070
8.520,-0.390,-0.085
8.522,-0.435,-0.095
8.524,-0.340,-0.105
8.526,-0.300,-0.115
8.528,-0.200,-0.115
8.530,-0.205,-0.115
8.532,-0.330,-0.115
8.534,-0.430,-0.110
8.536,-0.365,-0.110
8.538,-0.475,-0.115
8.540,-0.485,-0.115
8.542,-0.420,-0.125
8.544,-0.345,-0.130
8.546,-0.340,-0.140
8.548,-0.260,-0.145
8.550,-0.275,-0.145
8.552,-0.355,-0.150
8.554,-0.455,-0.150
8.556,-0.405,-0.155
8.558,-0.545,-0.165
8.560,-0.510,-0.175
8.562,-0.490,-0.185
8.564,-0.460,-0.205
8.566,-0.420,-0.220
8.568,-0.355,-0.230
8.570,-0.335,-0.235
8.572,-0.365,-0.240
8.574,-0.515,-0.235
8.576,-0.525,-0.230
8.578,-0.575,-0.220
8.580,-0.585,-0.215
8.582,-0.575,-0.215
8.584,-0.435,-0.220
8.586,-0.400,-0.230
8.588,-0.365,-0.235
8.590,-0.360,-0.235
8.592,-0.425,-0.220
8.594,-0.505,-0.190
8.596,-0.450,-0.145
8.598,-0.455,-0.080
8.600,-0.385,-0.005
8.602,-0.210,0.080
8.604,-0.010,0.165
8.606,0.130,0.245
8.608,0.290,0.310
8.610,0.315,0.360
8.612,0.220,0.390
8.614,0.075,0.400
8.616,-0.090,0.385
8.618,-0.090,0.355
8.620,-0.020,0.305
8.622,0.040,0.240
8.624,0.045,0.160
8.626,-0.020,0.075
8.628,-0.130,-0.020
8.630,-0.375,-0.110
8.632,-0.550,-0.195
8.634,-0.615,-0.265
8.636,-0.625,-0.315
8.638,-0.725,-0.345
8.640,-0.655,-0.355
8.642,-0.585,-0.345
8.644,-0.495,-0.320
8.646,-0.430,-0.290
8.648,-0.335,-0.260
8.650,-0.375,-0.235
8.652,-0.475,-0.220
8.654,-0.520,-0.215
8.656,-0.525,-0.220
8.658,-0.625,-0.235
8.660,-0.670,-0.250
8.662,-0.610,-0.265
8.664,-0.440,-0.275
8.666,-0.340,-0.275
8.668,-0.405,-0.275
8.670,-0.410,-0.265
8.672,-0.465,-0.250
8.674,-0.520,-0.240
8.676,-0.605,-0.230
8.678,-0.595,-0.225
8.680,-0.610,-0.220
8.682,-0.505,-0.225
8.684,-0.425,-0.235
8.686,-0.425,-0.250
8.688,-0.400,-0.265
8.690,-0.450,-0.280
8.692,-0.540,-0.290
8.694,-0.560,-0.295
8.696,-0.660,-0.295
8.698,-0.675,-0.290
8.700,-0.680,-0.285
8.702,-0.535,-0.275
8.704,-0.475,-0.260
8.706,-0.425,-0.245
8.708,-0.375,-0.235
8.710,-0.355,-0.230
8.712,-0.465,-0.225
8.714,-0.475,-0.225
8.716,-0.595,-0.230
8.718,-0.635,-0.235
8.720,-0.650,-0.245
8.722,-0.550,-0.250
8.724,-0.525,-0.250
8.726,-0.390,-0.250
8.728,-0.320,-0.245
8.730,-0.365,-0.235
8.732,-0.480,-0.230
8.734,-0.475,-0.220
8.736,-0.615,-0.220
8.738,-0.635,-0.220
8.740,-0.595,-0.220
8.742,-0.445,-0.225
8.744,-0.445,-0.230
8.746,-0.375,-0.230
8.748,-0.370,-0.225
8.750,-0.400,-0.215
8.752,-0.385,-0.205
8.754,-0.455,-0.190
8.756,-0.570,-0.175
8.758,-0.620,-0.160
8.760,-0.490,-0.150
8.762,-0.375,-0.150
8.764,-0.395,-0.150
8.766,-0.300,-0.155
8.768,-0.260,-0.160
8.770,-0.335,-0.165
8.772,-0.425,-0.165
8.774,-0.455,-0.165
8.776,-0.580,-0.160
8.778,-0.515,-0.155
8.780,-0.500,-0.145
8.782,-0.495,-0.140
8.784,-0.445,-0.140
8.786,-0.220,-0.140
8.788,-0.260,-0.135
8.790,-0.310,-0.130
8.792,-0.355,-0.115
8.794,-0.380,-0.095
8.796,-0.445,-0.070
8.798,-0.365,-0.045
8.800,-0.325,-0.025
8.802,-0.310,-0.005
8.804,-0.180,0.000
8.806,-0.185,0.000
8.808,-0.345,-0.015
8.810,-0.300,-0.030
8.812,-0.050,-0.050
8.814,-0.045,-0.065
8.816,-0.655,-0.070
8.818,-0.720,-0.070
8.820,-0.325,-0.055
8.822,-0.240,-0.035
8.824,-0.240,-0.015
8.826,-0.140,0.010
8.828,-0.150,0.025
8.830,-0.170,0.040
8.832,-0.225,0.045
8.834,-0.245,0.050
8.836,-0.320,0.050
8.838,-0.320,0.050
8.840,-0.300,0.050
8.842,-0.215,0.055
8.844,-0.135,0.060
8.846,-0.055,0.060
8.848,-0.080,0.055
8.850,-0.170,0.045
8.852,-0.250,0.030
8.854,-0.340,0.010
8.856,-0.475,-0.010
8.858,-0.440,-0.030
8.860,-0.405,-0.045
8.862,-0.230,-0.050
8.864,-0.285,-0.050
8.866,-0.160,-0.040
8.868,-0.075,-0.030
8.870,-0.220,-0.015
8.872,-0.360,-0.010
8.874,-0.360,-0.005
8.876,-0.430,-0.010
8.878,-0.445,-0.025
8.880,-0.435,-0.040
8.882,-0.230,-0.065
8.884,-0.215,-0.085
8.886,-0.325,-0.105
8.888,-0.390,-0.125
8.890,-0.240,-0.140
8.892,-0.420,-0.150
8.894,-0.510,-0.165
8.896,-0.565,-0.175
8.898,-0.605,-0.185
8.900,-0.540,-0.195
8.902,-0.510,-0.195
8.904,-0.455,-0.195
8.906,-0.295,-0.185
8.908,-0.225,-0.170
8.910,-0.380,-0.155
8.912,-0.400,-0.135
8.914,-0.405,-0.120
8.916,-0.515,-0.110
8.918,-0.495,-0.110
8.920,-0.475,-0.110
8.922,-0.435,-0.115
8.924,-0.330,-0.120
8.926,-0.305,-0.120
8.928,-0.225,-0.110
8.930,-0.270,-0.095
8.932,-0.350,-0.065
8.934,-0.355,-0.035
8.936,-0.490,-0.005
8.938,-0.370,0.015
8.940,-0.195,0.020
8.942,-0.235,0.015
8.944,-0.240,-0.005
8.946,-0.200,-0.035
8.948,-0.185,-0.070
8.950,-0.385,-0.100
8.952,-0.505,-0.125
8.954,-0.445,-0.135
8.956,-0.520,-0.135
8.958,-0.460,-0.125
8.960,-0.390,-0.110
8.962,-0.350,-0.095
8.964,-0.335,-0.080
8.966,-0.220,-0.075
8.968,-0.260,-0.080
8.970,-0.320,-0.090
8.972,-0.390,-0.100
8.974,-0.495,-0.115
8.976,-0.495,-0.125
8.978,-0.470,-0.125
8.980,-0.375,-0.125
8.982,-0.350,-0.115
8.984,-0.275,-0.100
8.986,-0.305,-0.085
8.988,-0.230,-0.070
8.990,-0.320,-0.060
8.992,-0.405,-0.050
8.994,-0.370,-0.050
8.996,-0.445,-0.055
8.998,-0.455,-0.060
9.000,-0.255,-0.070
9.002,-0.410,-0.080
9.004,-0.270,-0.085
9.006,-0.230,-0.090
9.008,-0.200,-0.090
9.010,-0.305,-0.095
9.012,-0.340,-0.090
9.014,-0.535,-0.090
9.016,-0.525,-0.090
9.018,-0.530,-0.090
9.020,-0.345,-0.085
9.022,-0.275,-0.080
9.024,-0.255,-0.075
9.026,-0.195,-0.065
9.028,-0.245,-0.050
9.030,-0.280,-0.040
9.032,-0.320,-0.030
9.034,-0.405,-0.020
9.036,-0.375,-0.020
9.038,-0.345,-0.025
9.040,-0.335,-0.035
9.042,-0.280,-0.050
9.044,-0.185,-0.065
9.046,-0.340,-0.075
9.048,-0.360,-0.085
9.050,-0.370,-0.085
9.052,-0.240,-0.080
9.054,-0.455,-0.065
9.056,-0.420,-0.050
9.058,-0.325,-0.035
9.060,-0.270,-0.020
9.062,-0.260,-0.010
9.064,-0.160,-0.005
9.066,-0.205,-0.005
9.068,-0.255,-0.005
9.070,-0.345,-0.010
9.072,-0.300,-0.015
9.074,-0.380,-0.015
9.076,-0.345,-0.015
9.078,-0.255,-0.010
9.080,-0.275,-0.010
9.082,-0.275,-0.005
9.084,-0.210,-0.005
9.086,-0.210,-0.005
9.088,-0.160,-0.005
9.090,-0.265,0.000
9.092,-0.250,0.005
9.094,-0.390,0.010
9.096,-0.360,0.015
9.098,-0.270,0.025
9.100,-0.225,0.025
9.102,-0.260,0.030
9.104,-0.205,0.025
9.106,-0.035,0.015
9.108,-0.145,0.005
9.110,-0.370,-0.005
9.112,-0.370,-0.010
9.114,-0.305,-0.015
9.116,-0.375,-0.015
9.118,-0.345,-0.010
9.120,-0.240,0.000
9.122,-0.245,0.005
9.124,-0.140,0.010
9.126,-0.170,0.005
9.128,-0.140,0.000
9.130,-0.320,-0.015
9.132,-0.405,-0.030
9.134,-0.420,-0.045
9.136,-0.395,-0.055
9.138,-0.380,-0.065
9.140,-0.310,-0.065
9.142,-0.295,-0.060
9.144,-0.155,-0.050
9.146,-0.240,-0.040
9.148,-0.350,-0.030
9.150,-0.265,-0.025
9.152,-0.255,-0.020
9.154,-0.390,-0.020
9.156,-0.430,-0.020
9.158,-0.395,-0.020
9.160,-0.240,-0.020
9.162,-0.195,-0.025
9.164,-0.220,-0.035
9.166,-0.300,-0.050
9.168,-0.270,-0.065
9.170,-0.290,-0.080
9.172,-0.425,-0.090
9.174,-0.470,-0.100
9.176,-0.480,-0.095
9.178,-0.425,-0.070
9.180,-0.280,-0.035
9.182,-0.220,0.025
9.184,0.030,0.095
9.186,0.060,0.180
9.188,-0.065,0.270
9.190,0.070,0.360
9.192,0.240,0.445
9.194,0.195,0.515
9.196,0.245,0.570
9.198,0.380,0.605
9.200,0.295,0.620
9.202,0.335,0.605
9.204,0.420,0.570
9.206,0.335,0.515
9.208,0.250,0.435
9.210,0.265,0.340
9.212,-0.075,0.235
9.214,-0.285,0.130
9.216,-0.395,0.030
9.218,-0.520,-0.055
9.220,-0.410,-0.120
9.222,-0.400,-0.160
9.224,-0.300,-0.180
9.226,-0.305,-0.180
9.228,-0.320,-0.170
9.230,-0.370,-0.150
9.232,-0.480,-0.130
9.234,-0.475,-0.115
9.236,-0.510,-0.110
9.238,-0.445,-0.105
9.240,-0.325,-0.110
9.242,-0.290,-0.115
9.244,-0.285,-0.120
9.246,-0.365,-0.120
9.248,-0.305,-0.115
9.250,-0.285,-0.110
9.252,-0.360,-0.105
9.254,-0.535,-0.100
9.256,-0.560,-0.095
9.258,-0.370,-0.100
9.260,-0.320,-0.100
9.262,-0.430,-0.110
9.264,-0.200,-0.115
9.266,-0.135,-0.120
9.268,-0.385,-0.125
9.270,-0.370,-0.125
9.272,-0.520,-0.125
9.274,-0.435,-0.125
9.276,-0.465,-0.125
9.278,-0.495,-0.125
9.280,-0.400,-0.125
9.282,-0.285,-0.120
9.284,-0.250,-0.115
9.286,-0.215,-0.105
9.288,-0.285,-0.090
9.290,-0.335,-0.070
9.292,-0.440,-0.050
9.294,-0.360,-0.025
9.296,-0.265,-0.010
9.298,-0.345,0.000
9.300,-0.285,-0.005
9.302,-0.080,-0.015
9.304,-0.180,-0.030
9.306,-0.280,-0.045
9.308,-0.240,-0.055
9.310,-0.320,-0.055
9.312,-0.405,-0.045
9.314,-0.440,-0.025
9.316,-0.340,0.000
9.318,-0.180,0.025
9.320,-0.130,0.045
9.322,-0.135,0.055
9.324,-0.130,0.055
9.326,-0.165,0.045
9.328,-0.205,0.025
9.330,-0.225,0.005
9.332,-0.230,-0.010
9.334,-0.430,-0.020
9.336,-0.330,-0.020
9.338,-0.270,-0.010
9.340,-0.210,0.005
9.342,-0.100,0.020
9.344,-0.090,0.035
9.346,-0.175,0.050
9.348,-0.230,0.060
9.350,-0.190,0.065
9.352,-0.295,0.065
9.354,-0.265,0.070
9.356,-0.130,0.075
9.358,-0.190,0.080
9.360,-0.205,0.090
9.362,0.010,0.095
9.364,-0.020,0.100
9.366,-0.125,0.100
9.368,-0.195,0.100
9.370,-0.200,0.095
9.372,-0.210,0.090
9.374,-0.280,0.095
9.376,-0.210,0.100
9.378,-0.075,0.115
9.380,-0.060,0.135
9.382,0.045,0.155
9.384,0.015,0.170
9.386,0.025,0.185
9.388,-0.050,0.185
9.390,-0.135,0.180
9.392,-0.140,0.170
9.394,-0.300,0.155
9.396,-0.165,0.145
9.398,0.000,0.140
9.400,-0.005,0.145
9.402,0.070,0.160
9.404,0.100,0.185
9.406,0.045,0.205
9.408,-0.110,0.230
9.410,-0.005,0.240
9.412,-0.140,0.245
9.414,-0.130,0.240
9.416,-0.080,0.225
9.418,0.000,0.210
9.420,-0.025,0.195
9.422,0.120,0.180
9.424,0.010,0.175
9.426,0.010,0.170
9.428,-0.110,0.170
9.430,-0.045,0.175
9.432,-0.145,0.170
9.434,-0.205,0.165
9.436,-0.170,0.150
9.438,-0.090,0.135
9.440,-0.060,0.120
9.442,0.005,0.105
9.444,-0.030,0.100
9.446,0.025,0.105
9.448,-0.125,0.115
9.450,-0.195,0.130
9.452,-0.315,0.145
9.454,-0.195,0.155
9.456,0.055,0.155
9.458,-0.015,0.145
9.460,-0.100,0.125
9.462,-0.080,0.095
9.464,-0.125,0.065
9.466,-0.070,0.035
9.468,-0.230,0.010
9.470,-0.335,-0.005
9.472,-0.400,-0.010
9.474,-0.340,-0.010
9.476,-0.280,0.005
9.478,-0.115,0.015
9.480,-0.060,0.030
9.482,-0.095,0.035
9.484,-0.085,0.040
9.486,-0.110,0.035
9.488,-0.190,0.025
9.490,-0.350,0.015
9.492,-0.415,0.005
9.494,-0.300,-0.005
9.496,-0.360,-0.010
9.498,-0.100,-0.015
9.500,-0.110,-0.010
9.502,-0.150,-0.010
9.504,-0.095,-0.005
9.506,-0.165,-0.005
9.508,-0.240,-0.005
9.510,-0.315,-0.010
9.512,-0.375,-0.015
9.514,-0.450,-0.025
9.516,-0.310,-0.040
9.518,-0.220,-0.045
9.520,-0.140,-0.055
9.522,-0.085,-0.055
9.524,-0.175,-0.055
9.526,-0.220,-0.045
9.528,-0.240,-0.040
9.530,-0.345,-0.035
9.532,-0.380,-0.035
9.534,-0.405,-0.035
9.536,-0.275,-0.040
9.538,-0.210,-0.045
9.540,-0.150,-0.045
9.542,-0.190,-0.045
9.544,-0.180,-0.040
9.546,-0.130,-0.025
9.548,-0.140,-0.010
9.550,-0.320,0.010
9.552,-0.390,0.025
9.554,-0.240,0.030
9.556,-0.150,0.030
9.558,-0.220,0.015
9.560,-0.125,-0.005
9.562,0.025,-0.030
9.564,-0.160,-0.050
9.566,-0.280,-0.065
9.568,-0.345,-0.065
9.570,-0.425,-0.060
9.572,-0.375,-0.040
9.574,-0.235,-0.020
9.576,-0.135,0.000
9.578,-0.155,0.015
9.580,-0.120,0.020
9.582,-0.095,0.015
9.584,-0.085,0.000
9.586,-0.255,-0.020
9.588,-0.235,-0.040
9.590,-0.340,-0.050
9.592,-0.355,-0.055
9.594,-0.310,-0.055
9.596,-0.280,-0.045
9.598,-0.230,-0.040
9.600,-0.115,-0.035
9.602,-0.095,-0.030
9.604,-0.175,-0.030
9.606,-0.240,-0.040
9.608,-0.240,-0.045
9.610,-0.385,-0.050
9.612,-0.410,-0.050
9.614,-0.285,-0.045
9.616,-0.220,-0.035
9.618,-0.185,-0.025
9.620,0.055,-0.015
9.622,-0.105,-0.005
9.624,-0.195,-0.005
9.626,-0.265,-0.005
9.628,-0.220,-0.010
9.630,-0.340,-0.020
9.632,-0.340,-0.030
9.634,-0.275,-0.035
9.636,-0.180,-0.035
9.638,-0.165,-0.035
9.640,-0.050,-0.035
9.642,-0.120,-0.035
9.644,-0.160,-0.035
9.646,-0.210,-0.040
9.648,-0.250,-0.050
9.650,-0.360,-0.060
9.652,-0.425,-0.070
9.654,-0.345,-0.080
9.656,-0.245,-0.085
9.658,-0.150,-0.085
9.660,-0.090,-0.080
9.662,-0.130,-0.070
9.664,-0.140,-0.060
9.666,-0.255,-0.050
9.668,-0.320,-0.045
9.670,-0.335,-0.040
9.672,-0.335,-0.040
9.674,-0.290,-0.040
9.676,-0.190,-0.045
9.678,-0.170,-0.045
9.680,-0.095,-0.050
9.682,-0.115,-0.050
9.684,-0.110,-0.045
9.686,-0.260,-0.045
9.688,-0.260,-0.045
9.690,-0.275,-0.045
9.692,-0.340,-0.040
9.694,-0.315,-0.040
9.696,-0.230,-0.040
9.698,-0.180,-0.035
9.700,-0.045,-0.035
9.702,-0.045,-0.030
9.704,-0.155,-0.030
9.706,-0.230,-0.025
9.708,-0.210,-0.025
9.710,-0.380,-0.030
9.712,-0.320,-0.035
9.714,-0.240,-0.040
9.716,-0.155,-0.045
9.718,-0.075,-0.050
9.720,0.020,-0.055
9.722,-0.170,-0.060
9.724,-0.205,-0.065
9.726,-0.210,-0.070
9.728,-0.310,-0.075
9.730,-0.450,-0.085
9.732,-0.445,-0.095
9.734,-0.310,-0.105
9.736,-0.190,-0.110
9.738,-0.130,-0.110
9.740,-0.130,-0.110
9.742,-0.160,-0.100
9.744,-0.210,-0.085
9.746,-0.260,-0.075
9.748,-0.285,-0.065
9.750,-0.325,-0.060
9.752,-0.355,-0.060
9.754,-0.260,-0.070
9.756,-0.240,-0.075
9.758,-0.165,-0.070
9.760,-0.020,-0.055
9.762,-0.070,-0.025
9.764,-0.125,0.025
9.766,-0.050,0.095
9.768,-0.090,0.180
9.770,-0.060,0.270
9.772,0.180,0.365
9.774,0.360,0.450
9.776,0.560,0.520
9.778,0.550,0.570
9.780,0.585,0.600
9.782,0.460,0.610
9.784,0.375,0.595
9.786,0.405,0.565
9.788,0.325,0.515
9.790,0.195,0.445
9.792,0.210,0.365
9.794,0.165,0.280
9.796,0.040,0.185
9.798,-0.020,0.095
9.800,-0.130,0.010
9.802,-0.195,-0.055
9.804,-0.225,-0.100
9.806,-0.240,-0.120
9.808,-0.295,-0.125
9.810,-0.310,-0.105
9.812,-0.340,-0.080
9.814,-0.210,-0.050
9.816,-0.035,-0.020
9.818,-0.140,0.000
9.820,-0.015,0.010
9.822,-0.035,0.015
9.824,-0.065,0.010
9.826,-0.160,0.005
9.828,-0.215,0.005
9.830,-0.255,0.005
9.832,-0.195,0.010
9.834,-0.170,0.015
9.836,-0.155,0.015
9.838,0.050,0.015
9.840,0.045,0.010
9.842,-0.085,0.000
9.844,-0.130,-0.015
9.846,-0.225,-0.035
9.848,-0.325,-0.050
9.850,-0.255,-0.055
9.852,-0.285,-0.055
9.854,-0.205,-0.050
9.856,-0.145,-0.035
9.858,0.010,-0.020
9.860,0.095,-0.005
9.862,-0.025,0.010
9.864,-0.160,0.020
9.866,-0.125,0.025
9.868,-0.210,0.020
9.870,-0.225,0.015
9.872,-0.170,0.010
9.874,-0.105,0.005
9.876,-0.095,0.000
9.878,0.005,-0.005
9.880,0.040,-0.005
9.882,-0.030,-0.010
9.884,-0.150,-0.010
9.886,-0.170,-0.010
9.888,-0.250,-0.010
9.890,-0.255,-0.010
9.892,-0.200,-0.005
9.894,-0.035,0.000
9.896,-0.030,0.010
9.898,0.055,0.025
9.900,0.075,0.045
9.902,0.020,0.065
9.904,-0.135,0.080
9.906,-0.010,0.090
9.908,-0.065,0.095
9.910,-0.165,0.095
9.912,-0.135,0.085
9.914,-0.085,0.075
9.916,-0.020,0.060
9.918,0.045,0.050
9.920,0.065,0.045
9.922,0.130,0.040
9.924,0.075,0.040
9.926,-0.135,0.045
9.928,-0.250,0.050
9.930,-0.220,0.055
9.932,-0.090,0.060
9.934,0.010,0.065
9.936,-0.005,0.065
9.938,0.180,0.065
9.940,0.060,0.065
9.942,0.015,0.065
9.944,-0.035,0.070
9.946,-0.040,0.070
9.948,-0.100,0.075
9.950,-0.110,0.080
9.952,-0.145,0.080
9.954,-0.010,0.080
9.956,0.025,0.080
9.958,0.115,0.075
9.960,0.190,0.080
9.962,0.105,0.085
9.964,-0.040,0.095
9.966,-0.060,0.105
9.968,-0.055,0.120
9.970,-0.055,0.135
9.972,-0.015,0.145
9.974,0.040,0.150
9.976,0.155,0.150
9.978,0.260,0.150
9.980,0.115,0.150
9.982,0.185,0.150
9.984,0.145,0.155
9.986,-0.030,0.165
9.988,0.005,0.180
9.990,0.030,0.195
9.992,0.085,0.205
9.994,0.125,0.215
9.996,0.180,0.215
9.998,0.265,0.215
