'Elapsed time','ECG I','ECG I filtered'
'seconds','mV','mV'
0.000,-0.670,-0.260
0.002,-0.470,-0.125
0.004,-0.420,-0.035
0.006,-0.210,0.040
0.008,-0.195,0.080
0.010,-0.305,0.090
0.012,-0.360,0.070
0.014,-0.415,0.030
0.016,-0.565,-0.005
0.018,-0.565,-0.040
0.020,-0.585,-0.060
0.022,-0.520,-0.060
0.024,-0.360,-0.050
0.026,-0.260,-0.030
0.028,-0.275,-0.010
0.030,-0.380,0.005
0.032,-0.380,0.010
0.034,-0.480,0.010
0.036,-0.580,0.005
0.038,-0.505,-0.010
0.040,-0.515,-0.020
0.042,-0.445,-0.030
0.044,-0.435,-0.040
0.046,-0.285,-0.045
0.048,-0.305,-0.045
0.050,-0.310,-0.045
0.052,-0.510,-0.045
0.054,-0.475,-0.040
0.056,-0.620,-0.030
0.058,-0.650,-0.020
0.060,-0.470,-0.010
0.062,-0.410,0.005
0.064,-0.350,0.015
0.066,-0.245,0.025
0.068,-0.185,0.030
0.070,-0.270,0.025
0.072,-0.390,0.015
0.074,-0.430,0.000
0.076,-0.645,-0.015
0.078,-0.570,-0.025
0.080,-0.525,-0.035
0.082,-0.420,-0.040
0.084,-0.360,-0.035
0.086,-0.310,-0.025
0.088,-0.320,-0.015
0.090,-0.315,-0.005
0.092,-0.330,0.005
0.094,-0.395,0.010
0.096,-0.550,0.015
0.098,-0.605,0.010
0.100,-0.500,0.005
0.102,-0.395,-0.005
0.104,-0.360,-0.010
0.106,-0.315,-0.015
0.108,-0.220,-0.015
0.110,-0.375,-0.010
0.112,-0.420,-0.010
0.114,-0.430,0.000
0.116,-0.540,0.005
0.118,-0.505,0.010
0.120,-0.460,0.010
0.122,-0.365,0.010
0.124,-0.365,0.005
0.126,-0.265,-0.005
0.128,-0.315,-0.015
0.130,-0.345,-0.020
0.132,-0.455,-0.025
0.134,-0.485,-0.025
0.136,-0.555,-0.025
0.138,-0.530,-0.015
0.140,-0.475,-0.010
0.142,-0.410,0.000
0.144,-0.390,0.005
0.146,-0.275,0.005
0.148,-0.220,0.000
0.150,-0.310,-0.005
0.152,-0.430,-0.015
0.154,-0.490,-0.025
0.156,-0.620,-0.030
0.158,-0.570,-0.030
0.160,-0.490,-0.025
0.162,-0.445,-0.015
0.164,-0.350,-0.005
0.166,-0.140,0.000
0.168,-0.200,0.005
0.170,-0.370,0.005
0.172,-0.525,-0.005
0.174,-0.515,-0.010
0.176,-0.585,-0.020
0.178,-0.615,-0.025
0.180,-0.480,-0.025
0.182,-0.410,-0.025
0.184,-0.285,-0.015
0.186,-0.155,-0.005
0.188,-0.275,0.000
0.190,-0.400,0.005
0.192,-0.455,0.000
0.194,-0.495,-0.010
0.196,-0.570,-0.020
0.198,-0.580,-0.030
0.200,-0.505,-0.040
0.202,-0.385,-0.040
0.204,-0.370,-0.040
0.206,-0.265,-0.035
0.208,-0.275,-0.025
0.210,-0.355,-0.015
0.212,-0.395,-0.010
0.214,-0.515,-0.010
0.216,-0.610,-0.020
0.218,-0.585,-0.030
0.220,-0.495,-0.045
0.222,-0.475,-0.060
0.224,-0.415,-0.070
0.226,-0.290,-0.070
0.228,-0.265,-0.070
0.230,-0.370,-0.065
0.232,-0.465,-0.050
0.234,-0.500,-0.040
0.236,-0.660,-0.025
0.238,-0.670,-0.015
0.240,-0.430,-0.005
0.242,-0.345,0.000
0.244,-0.300,0.005
0.246,-0.255,0.010
0.248,-0.235,0.010
0.250,-0.325,0.005
0.252,-0.435,0.005
0.254,-0.575,-0.005
0.256,-0.550,-0.015
0.258,-0.525,-0.025
0.260,-0.495,-0.035
0.262,-0.425,-0.045
0.264,-0.340,-0.050
0.266,-0.350,-0.055
0.268,-0.295,-0.050
0.270,-0.410,-0.040
0.272,-0.440,-0.030
0.274,-0.520,-0.015
0.276,-0.530,-0.005
0.278,-0.550,0.000
0.280,-0.465,0.000
0.282,-0.375,-0.005
0.284,-0.275,-0.015
0.286,-0.270,-0.030
0.288,-0.315,-0.040
0.290,-0.445,-0.045
0.292,-0.505,-0.045
0.294,-0.585,-0.040
0.296,-0.645,-0.030
0.298,-0.480,-0.015
0.300,-0.415,0.000
0.302,-0.310,0.015
0.304,-0.265,0.020
0.306,-0.255,0.025
0.308,-0.310,0.025
0.310,-0.295,0.015
0.312,-0.425,0.010
0.314,-0.610,0.000
0.316,-0.595,-0.010
0.318,-0.440,-0.015
0.320,-0.415,-0.015
0.322,-0.390,-0.010
0.324,-0.255,0.000
0.326,-0.265,0.015
0.328,-0.290,0.030
0.330,-0.275,0.045
0.332,-0.385,0.060
0.334,-0.500,0.070
0.336,-0.455,0.080
0.338,-0.400,0.080
0.340,-0.335,0.080
0.342,-0.310,0.075
0.344,-0.115,0.065
0.346,-0.200,0.055
0.348,-0.305,0.045
0.350,-0.440,0.035
0.352,-0.430,0.025
0.354,-0.535,0.020
0.356,-0.475,0.020
0.358,-0.410,0.020
0.360,-0.375,0.015
0.362,-0.345,0.015
0.364,-0.220,0.015
0.366,-0.305,0.010
0.368,-0.330,0.000
0.370,-0.390,-0.010
0.372,-0.465,-0.020
0.374,-0.555,-0.030
0.376,-0.595,-0.035
0.378,-0.565,-0.045
0.380,-0.415,-0.050
0.382,-0.460,-0.055
0.384,-0.305,-0.055
0.386,-0.300,-0.060
0.388,-0.365,-0.065
0.390,-0.510,-0.070
0.392,-0.520,-0.075
0.394,-0.625,-0.085
0.396,-0.690,-0.090
0.398,-0.535,-0.090
0.400,-0.465,-0.090
0.402,-0.435,-0.085
0.404,-0.485,-0.070
0.406,-0.270,-0.060
0.408,-0.275,-0.040
0.410,-0.385,-0.030
0.412,-0.525,-0.020
0.414,-0.510,-0.015
0.416,-0.565,-0.015
0.418,-0.545,-0.025
0.420,-0.450,-0.035
0.422,-0.390,-0.050
0.424,-0.290,-0.070
0.426,-0.325,-0.090
0.428,-0.425,-0.110
0.430,-0.610,-0.130
0.432,-0.595,-0.150
0.434,-0.710,-0.165
0.436,-0.760,-0.180
0.438,-0.640,-0.180
0.440,-0.540,-0.165
0.442,-0.505,-0.125
0.444,-0.350,-0.060
0.446,-0.195,0.035
0.448,-0.155,0.165
0.450,-0.110,0.320
0.452,0.065,0.490
0.454,0.165,0.670
0.456,0.330,0.845
0.458,0.560,1.000
0.460,0.810,1.125
0.462,1.005,1.215
0.464,1.110,1.265
0.466,0.980,1.270
0.468,0.825,1.230
0.470,0.750,1.150
0.472,0.730,1.040
0.474,0.455,0.900
0.476,0.260,0.745
0.478,-0.035,0.580
0.480,-0.080,0.420
0.482,-0.070,0.270
0.484,-0.160,0.135
0.486,-0.270,0.030
0.488,-0.435,-0.045
0.490,-0.485,-0.095
0.492,-0.555,-0.115
0.494,-0.615,-0.115
0.496,-0.615,-0.100
0.498,-0.535,-0.085
0.500,-0.460,-0.070
0.502,-0.400,-0.060
0.504,-0.290,-0.060
0.506,-0.320,-0.070
0.508,-0.425,-0.085
0.510,-0.510,-0.100
0.512,-0.715,-0.115
0.514,-0.690,-0.120
0.516,-0.610,-0.125
0.518,-0.460,-0.120
0.520,-0.480,-0.115
0.522,-0.375,-0.105
0.524,-0.300,-0.095
0.526,-0.390,-0.085
0.528,-0.460,-0.085
0.530,-0.495,-0.085
0.532,-0.605,-0.085
0.534,-0.645,-0.090
0.536,-0.600,-0.095
0.538,-0.525,-0.095
0.540,-0.495,-0.095
0.542,-0.375,-0.095
0.544,-0.315,-0.090
0.546,-0.350,-0.080
0.548,-0.395,-0.075
0.550,-0.435,-0.065
0.552,-0.575,-0.060
0.554,-0.660,-0.055
0.556,-0.535,-0.055
0.558,-0.520,-0.060
0.560,-0.490,-0.065
0.562,-0.370,-0.070
0.564,-0.325,-0.080
0.566,-0.310,-0.085
0.568,-0.415,-0.090
0.570,-0.485,-0.090
0.572,-0.600,-0.090
0.574,-0.630,-0.085
0.576,-0.565,-0.085
0.578,-0.505,-0.080
0.580,-0.470,-0.080
0.582,-0.370,-0.080
0.584,-0.375,-0.085
0.586,-0.395,-0.090
0.588,-0.420,-0.090
0.590,-0.425,-0.090
0.592,-0.570,-0.090
0.594,-0.600,-0.080
0.596,-0.580,-0.075
0.598,-0.630,-0.065
0.600,-0.365,-0.055
0.602,-0.270,-0.050
0.604,-0.300,-0.045
0.606,-0.355,-0.045
0.608,-0.415,-0.045
0.610,-0.360,-0.050
0.612,-0.590,-0.055
0.614,-0.650,-0.060
0.616,-0.620,-0.065
0.618,-0.450,-0.065
0.620,-0.425,-0.060
0.622,-0.270,-0.055
0.624,-0.320,-0.045
0.626,-0.335,-0.040
0.628,-0.325,-0.030
0.630,-0.470,-0.025
0.632,-0.575,-0.020
0.634,-0.510,-0.020
0.636,-0.565,-0.020
0.638,-0.445,-0.020
0.640,-0.400,-0.020
0.642,-0.275,-0.020
0.644,-0.255,-0.020
0.646,-0.325,-0.020
0.648,-0.360,-0.015
0.650,-0.395,-0.015
0.652,-0.545,-0.010
0.654,-0.525,-0.010
0.656,-0.510,-0.005
0.658,-0.520,-0.005
0.660,-0.345,0.000
0.662,-0.250,0.000
0.664,-0.190,0.000
0.666,-0.255,0.005
0.668,-0.330,0.010
0.670,-0.420,0.010
0.672,-0.560,0.015
0.674,-0.515,0.020
0.676,-0.515,0.025
0.678,-0.400,0.025
0.680,-0.275,0.030
0.682,-0.195,0.035
0.684,-0.210,0.040
0.686,-0.250,0.045
0.688,-0.320,0.050
0.690,-0.390,0.055
0.692,-0.445,0.060
0.694,-0.515,0.065
0.696,-0.380,0.070
0.698,-0.240,0.075
0.700,-0.265,0.075
0.702,-0.180,0.075
0.704,-0.240,0.075
0.706,-0.225,0.080
0.708,-0.260,0.085
0.710,-0.370,0.095
0.712,-0.415,0.105
0.714,-0.350,0.110
0.716,-0.350,0.120
0.718,-0.235,0.120
0.720,-0.260,0.120
0.722,-0.145,0.120
0.724,-0.160,0.115
0.726,-0.215,0.110
0.728,-0.335,0.100
0.730,-0.360,0.095
0.732,-0.375,0.085
0.734,-0.415,0.080
0.736,-0.415,0.070
0.738,-0.335,0.060
0.740,-0.280,0.050
0.742,-0.215,0.040
0.744,-0.240,0.030
0.746,-0.290,0.015
0.748,-0.400,0.005
0.750,-0.560,0.000
0.752,-0.625,-0.010
0.754,-0.470,-0.015
0.756,-0.450,-0.020
0.758,-0.420,-0.025
0.760,-0.300,-0.025
0.762,-0.225,-0.025
0.764,-0.245,-0.030
0.766,-0.430,-0.030
0.768,-0.505,-0.035
0.770,-0.525,-0.035
0.772,-0.470,-0.040
0.774,-0.530,-0.040
0.776,-0.535,-0.045
0.778,-0.430,-0.050
0.780,-0.340,-0.055
0.782,-0.305,-0.055
0.784,-0.275,-0.050
0.786,-0.390,-0.050
0.788,-0.465,-0.045
0.790,-0.560,-0.045
0.792,-0.545,-0.045
0.794,-0.565,-0.050
0.796,-0.515,-0.060
0.798,-0.415,-0.070
0.800,-0.380,-0.090
0.802,-0.265,-0.100
0.804,-0.320,-0.110
0.806,-0.540,-0.115
0.808,-0.645,-0.110
0.810,-0.685,-0.095
0.812,-0.570,-0.075
0.814,-0.440,-0.050
0.816,-0.410,-0.030
0.818,-0.385,-0.020
0.820,-0.300,-0.015
0.822,-0.225,-0.015
0.824,-0.260,-0.025
0.826,-0.430,-0.040
0.828,-0.540,-0.055
0.830,-0.705,-0.070
0.832,-0.575,-0.075
0.834,-0.520,-0.080
0.836,-0.480,-0.080
0.838,-0.460,-0.080
0.840,-0.350,-0.075
0.842,-0.235,-0.075
0.844,-0.260,-0.070
0.846,-0.475,-0.070
0.848,-0.510,-0.065
0.850,-0.585,-0.065
0.852,-0.615,-0.055
0.854,-0.635,-0.050
0.856,-0.415,-0.045
0.858,-0.365,-0.035
0.860,-0.285,-0.035
0.862,-0.320,-0.035
0.864,-0.310,-0.045
0.866,-0.385,-0.050
0.868,-0.450,-0.065
0.870,-0.605,-0.075
0.872,-0.685,-0.080
0.874,-0.600,-0.085
0.876,-0.480,-0.085
0.878,-0.425,-0.080
0.880,-0.305,-0.070
0.882,-0.255,-0.065
0.884,-0.345,-0.060
0.886,-0.395,-0.055
0.888,-0.430,-0.055
0.890,-0.615,-0.055
0.892,-0.580,-0.060
0.894,-0.555,-0.065
0.896,-0.505,-0.065
0.898,-0.400,-0.070
0.900,-0.325,-0.065
0.902,-0.335,-0.065
0.904,-0.330,-0.060
0.906,-0.370,-0.050
0.908,-0.460,-0.045
0.910,-0.590,-0.040
0.912,-0.570,-0.040
0.914,-0.510,-0.040
0.916,-0.455,-0.040
0.918,-0.430,-0.045
0.920,-0.275,-0.055
0.922,-0.330,-0.060
0.924,-0.340,-0.065
0.926,-0.415,-0.070
0.928,-0.520,-0.075
0.930,-0.655,-0.075
0.932,-0.610,-0.070
0.934,-0.515,-0.070
0.936,-0.435,-0.060
0.938,-0.475,-0.055
0.940,-0.275,-0.045
0.942,-0.265,-0.040
0.944,-0.330,-0.030
0.946,-0.370,-0.025
0.948,-0.460,-0.020
0.950,-0.605,-0.020
0.952,-0.545,-0.020
0.954,-0.445,-0.030
0.956,-0.435,-0.035
0.958,-0.420,-0.045
0.960,-0.295,-0.055
0.962,-0.270,-0.065
0.964,-0.360,-0.065
0.966,-0.415,-0.065
0.968,-0.495,-0.055
0.970,-0.605,-0.045
0.972,-0.530,-0.035
0.974,-0.530,-0.025
0.976,-0.400,-0.025
0.978,-0.390,-0.025
0.980,-0.255,-0.030
0.982,-0.245,-0.040
0.984,-0.365,-0.050
0.986,-0.435,-0.060
0.988,-0.490,-0.065
0.990,-0.640,-0.065
0.992,-0.605,-0.060
0.994,-0.460,-0.055
0.996,-0.425,-0.045
0.998,-0.355,-0.040
1.000,-0.245,-0.040
1.002,-0.305,-0.045
1.004,-0.375,-0.055
1.006,-0.490,-0.065
1.008,-0.560,-0.070
1.010,-0.575,-0.080
1.012,-0.605,-0.080
1.014,-0.470,-0.075
1.016,-0.460,-0.060
1.018,-0.410,-0.050
1.020,-0.265,-0.035
1.022,-0.245,-0.025
1.024,-0.355,-0.025
1.026,-0.415,-0.025
1.028,-0.430,-0.035
1.030,-0.545,-0.045
1.032,-0.575,-0.060
1.034,-0.560,-0.070
1.036,-0.575,-0.075
1.038,-0.425,-0.080
1.040,-0.275,-0.075
1.042,-0.290,-0.070
1.044,-0.360,-0.065
1.046,-0.410,-0.055
1.048,-0.540,-0.050
1.050,-0.585,-0.045
1.052,-0.495,-0.045
1.054,-0.445,-0.045
1.056,-0.455,-0.050
1.058,-0.365,-0.055
1.060,-0.350,-0.055
1.062,-0.330,-0.055
1.064,-0.370,-0.055
1.066,-0.415,-0.050
1.068,-0.490,-0.050
1.070,-0.560,-0.045
1.072,-0.540,-0.045
1.074,-0.530,-0.050
1.076,-0.485,-0.055
1.078,-0.350,-0.060
1.080,-0.315,-0.065
1.082,-0.325,-0.075
1.084,-0.460,-0.075
1.086,-0.490,-0.075
1.088,-0.440,-0.070
1.090,-0.575,-0.060
1.092,-0.545,-0.050
1.094,-0.435,-0.040
1.096,-0.370,-0.030
1.098,-0.315,-0.030
1.100,-0.350,-0.035
1.102,-0.375,-0.045
1.104,-0.375,-0.060
1.106,-0.480,-0.070
1.108,-0.575,-0.085
1.110,-0.585,-0.090
1.112,-0.555,-0.090
1.114,-0.445,-0.085
1.116,-0.415,-0.080
1.118,-0.485,-0.065
1.120,-0.260,-0.055
1.122,-0.270,-0.050
1.124,-0.385,-0.045
1.126,-0.535,-0.045
1.128,-0.555,-0.050
1.130,-0.565,-0.050
1.132,-0.505,-0.055
1.134,-0.430,-0.055
1.136,-0.365,-0.050
1.138,-0.290,-0.045
1.140,-0.310,-0.040
1.142,-0.330,-0.040
1.144,-0.390,-0.040
1.146,-0.465,-0.045
1.148,-0.615,-0.050
1.150,-0.550,-0.055
1.152,-0.535,-0.065
1.154,-0.495,-0.070
1.156,-0.375,-0.075
1.158,-0.285,-0.075
1.160,-0.385,-0.070
1.162,-0.300,-0.065
1.164,-0.440,-0.060
1.166,-0.480,-0.060
1.168,-0.635,-0.055
1.170,-0.535,-0.055
1.172,-0.515,-0.055
1.174,-0.405,-0.055
1.176,-0.390,-0.060
1.178,-0.325,-0.060
1.180,-0.305,-0.055
1.182,-0.330,-0.055
1.184,-0.420,-0.050
1.186,-0.445,-0.050
1.188,-0.570,-0.050
1.190,-0.510,-0.050
1.192,-0.515,-0.050
1.194,-0.480,-0.050
1.196,-0.465,-0.050
1.198,-0.420,-0.045
1.200,-0.300,-0.040
1.202,-0.230,-0.035
1.204,-0.285,-0.020
1.206,-0.440,-0.010
1.208,-0.525,0.000
1.210,-0.530,0.005
1.212,-0.460,0.010
1.214,-0.365,0.010
1.216,-0.345,0.010
1.218,-0.225,0.010
1.220,-0.285,0.015
1.222,-0.235,0.020
1.224,-0.315,0.025
1.226,-0.345,0.035
1.228,-0.470,0.045
1.230,-0.450,0.050
1.232,-0.450,0.050
1.234,-0.395,0.045
1.236,-0.320,0.040
1.238,-0.240,0.030
1.240,-0.315,0.020
1.242,-0.165,0.010
1.244,-0.260,0.010
1.246,-0.405,0.015
1.248,-0.615,0.020
1.250,-0.520,0.030
1.252,-0.365,0.040
1.254,-0.370,0.045
1.256,-0.300,0.040
1.258,-0.185,0.030
1.260,-0.235,0.010
1.262,-0.270,-0.015
1.264,-0.490,-0.040
1.266,-0.480,-0.065
1.268,-0.510,-0.080
1.270,-0.635,-0.095
1.272,-0.605,-0.100
1.274,-0.455,-0.095
1.276,-0.470,-0.090
1.278,-0.265,-0.080
1.280,-0.295,-0.070
1.282,-0.360,-0.065
1.284,-0.460,-0.060
1.286,-0.520,-0.055
1.288,-0.595,-0.060
1.290,-0.595,-0.060
1.292,-0.560,-0.065
1.294,-0.415,-0.070
1.296,-0.375,-0.075
1.298,-0.330,-0.080
1.300,-0.350,-0.080
1.302,-0.410,-0.085
1.304,-0.465,-0.085
1.306,-0.460,-0.080
1.308,-0.645,-0.080
1.310,-0.560,-0.085
1.312,-0.545,-0.090
1.314,-0.420,-0.095
1.316,-0.475,-0.110
1.318,-0.370,-0.130
1.320,-0.350,-0.150
1.322,-0.380,-0.175
1.324,-0.620,-0.190
1.326,-0.660,-0.205
1.328,-0.680,-0.205
1.330,-0.735,-0.190
1.332,-0.715,-0.160
1.334,-0.585,-0.115
1.336,-0.295,-0.045
1.338,-0.145,0.045
1.340,-0.030,0.160
1.342,0.000,0.290
1.344,0.075,0.445
1.346,0.180,0.610
1.348,0.265,0.785
1.350,0.480,0.955
1.352,0.650,1.110
1.354,0.930,1.240
1.356,1.135,1.325
1.358,1.165,1.365
1.360,1.200,1.350
1.362,0.955,1.280
1.364,0.820,1.160
1.366,0.605,0.995
1.368,0.335,0.805
1.370,0.000,0.605
1.372,-0.190,0.415
1.374,-0.185,0.240
1.376,-0.195,0.095
1.378,-0.315,-0.010
1.380,-0.335,-0.080
1.382,-0.425,-0.115
1.384,-0.530,-0.125
1.386,-0.635,-0.115
1.388,-0.640,-0.095
1.390,-0.590,-0.070
1.392,-0.395,-0.055
1.394,-0.375,-0.045
1.396,-0.315,-0.045
1.398,-0.270,-0.050
1.400,-0.315,-0.065
1.402,-0.450,-0.080
1.404,-0.520,-0.095
1.406,-0.600,-0.105
1.408,-0.625,-0.105
1.410,-0.540,-0.105
1.412,-0.500,-0.100
1.414,-0.410,-0.090
1.416,-0.345,-0.085
1.418,-0.275,-0.080
1.420,-0.330,-0.080
1.422,-0.370,-0.085
1.424,-0.610,-0.095
1.426,-0.620,-0.105
1.428,-0.605,-0.115
1.430,-0.525,-0.125
1.432,-0.430,-0.125
1.434,-0.540,-0.125
1.436,-0.385,-0.115
1.438,-0.325,-0.100
1.440,-0.335,-0.085
1.442,-0.325,-0.070
1.444,-0.485,-0.055
1.446,-0.555,-0.050
1.448,-0.540,-0.045
1.450,-0.530,-0.050
1.452,-0.470,-0.055
1.454,-0.390,-0.065
1.456,-0.315,-0.075
1.458,-0.325,-0.085
1.460,-0.375,-0.090
1.462,-0.425,-0.090
1.464,-0.545,-0.085
1.466,-0.520,-0.075
1.468,-0.545,-0.065
1.470,-0.545,-0.050
1.472,-0.495,-0.045
1.474,-0.480,-0.040
1.476,-0.230,-0.040
1.478,-0.260,-0.045
1.480,-0.330,-0.055
1.482,-0.420,-0.065
1.484,-0.405,-0.070
1.486,-0.590,-0.080
1.488,-0.640,-0.080
1.490,-0.570,-0.075
1.492,-0.510,-0.065
1.494,-0.380,-0.055
1.496,-0.195,-0.040
1.498,-0.190,-0.030
1.500,-0.375,-0.025
1.502,-0.460,-0.025
1.504,-0.350,-0.025
1.506,-0.565,-0.035
1.508,-0.520,-0.040
1.510,-0.540,-0.045
1.512,-0.410,-0.045
1.514,-0.415,-0.045
1.516,-0.270,-0.040
1.518,-0.225,-0.030
1.520,-0.245,-0.020
1.522,-0.340,-0.015
1.524,-0.425,-0.010
1.526,-0.495,-0.015
1.528,-0.460,-0.025
1.530,-0.545,-0.035
1.532,-0.480,-0.045
1.534,-0.395,-0.050
1.536,-0.290,-0.055
1.538,-0.320,-0.050
1.540,-0.290,-0.040
1.542,-0.290,-0.020
1.544,-0.365,-0.005
1.546,-0.430,0.015
1.548,-0.435,0.025
1.550,-0.430,0.035
1.552,-0.390,0.035
1.554,-0.425,0.035
1.556,-0.275,0.030
1.558,-0.270,0.025
1.560,-0.065,0.030
1.562,-0.305,0.035
1.564,-0.335,0.045
1.566,-0.455,0.060
1.568,-0.395,0.075
1.570,-0.355,0.090
1.572,-0.240,0.095
1.574,-0.255,0.095
1.576,-0.175,0.090
1.578,-0.140,0.080
1.580,-0.255,0.065
1.582,-0.305,0.060
1.584,-0.350,0.055
1.586,-0.370,0.065
1.588,-0.355,0.075
1.590,-0.320,0.095
1.592,-0.255,0.115
1.594,-0.255,0.135
1.596,-0.075,0.155
1.598,0.000,0.165
1.600,-0.130,0.170
1.602,-0.230,0.165
1.604,-0.310,0.160
1.606,-0.320,0.150
1.608,-0.335,0.140
1.610,-0.275,0.130
1.612,-0.275,0.125
1.614,-0.185,0.120
1.616,-0.085,0.120
1.618,-0.085,0.120
1.620,-0.165,0.120
1.622,-0.300,0.120
1.624,-0.345,0.125
1.626,-0.410,0.120
1.628,-0.370,0.120
1.630,-0.275,0.115
1.632,-0.225,0.105
1.634,-0.155,0.095
1.636,-0.115,0.085
1.638,-0.205,0.075
1.640,-0.240,0.070
1.642,-0.350,0.060
1.644,-0.380,0.060
1.646,-0.455,0.055
1.648,-0.445,0.050
1.650,-0.400,0.045
1.652,-0.305,0.035
1.654,-0.265,0.015
1.656,-0.235,0.000
1.658,-0.210,-0.020
1.660,-0.335,-0.040
1.662,-0.505,-0.050
1.664,-0.535,-0.055
1.666,-0.560,-0.055
1.668,-0.450,-0.040
1.670,-0.415,-0.025
1.672,-0.330,-0.005
1.674,-0.335,0.010
1.676,-0.140,0.015
1.678,-0.230,0.015
1.680,-0.355,0.010
1.682,-0.370,-0.010
1.684,-0.515,-0.030
1.686,-0.535,-0.055
1.688,-0.550,-0.070
1.690,-0.465,-0.080
1.692,-0.405,-0.080
1.694,-0.350,-0.070
1.696,-0.330,-0.050
1.698,-0.250,-0.030
1.700,-0.250,-0.010
1.702,-0.370,0.010
1.704,-0.465,0.020
1.706,-0.555,0.020
1.708,-0.470,0.010
1.710,-0.410,-0.005
1.712,-0.330,-0.020
1.714,-0.240,-0.035
1.716,-0.300,-0.050
1.718,-0.310,-0.060
1.720,-0.345,-0.060
1.722,-0.450,-0.055
1.724,-0.580,-0.050
1.726,-0.500,-0.040
1.728,-0.510,-0.030
1.730,-0.485,-0.025
1.732,-0.350,-0.025
1.734,-0.240,-0.025
1.736,-0.195,-0.030
1.738,-0.305,-0.035
1.740,-0.365,-0.040
1.742,-0.435,-0.045
1.744,-0.515,-0.045
1.746,-0.495,-0.045
1.748,-0.475,-0.045
1.750,-0.390,-0.045
1.752,-0.450,-0.045
1.754,-0.315,-0.045
1.756,-0.290,-0.045
1.758,-0.260,-0.045
1.760,-0.335,-0.040
1.762,-0.410,-0.040
1.764,-0.550,-0.035
1.766,-0.485,-0.030
1.768,-0.460,-0.025
1.770,-0.425,-0.020
1.772,-0.305,-0.020
1.774,-0.315,-0.025
1.776,-0.285,-0.030
1.778,-0.225,-0.035
1.780,-0.370,-0.045
1.782,-0.380,-0.045
1.784,-0.525,-0.050
1.786,-0.530,-0.045
1.788,-0.575,-0.040
1.790,-0.470,-0.030
1.792,-0.235,-0.025
1.794,-0.265,-0.020
1.796,-0.260,-0.020
1.798,-0.295,-0.025
1.800,-0.390,-0.030
1.802,-0.430,-0.035
1.804,-0.515,-0.040
1.806,-0.510,-0.040
1.808,-0.460,-0.035
1.810,-0.425,-0.025
1.812,-0.365,-0.015
1.814,-0.200,-0.010
1.816,-0.225,-0.005
1.818,-0.255,-0.010
1.820,-0.355,-0.015
1.822,-0.405,-0.025
1.824,-0.555,-0.040
1.826,-0.530,-0.050
1.828,-0.530,-0.060
1.830,-0.400,-0.060
1.832,-0.360,-0.055
1.834,-0.290,-0.045
1.836,-0.205,-0.030
1.838,-0.280,-0.020
1.840,-0.370,-0.010
1.842,-0.440,-0.005
1.844,-0.485,-0.005
1.846,-0.400,-0.010
1.848,-0.435,-0.015
1.850,-0.400,-0.020
1.852,-0.400,-0.025
1.854,-0.250,-0.025
1.856,-0.240,-0.025
1.858,-0.285,-0.020
1.860,-0.375,-0.015
1.862,-0.455,-0.015
1.864,-0.500,-0.015
1.866,-0.500,-0.015
1.868,-0.385,-0.025
1.870,-0.330,-0.030
1.872,-0.390,-0.040
1.874,-0.275,-0.045
1.876,-0.310,-0.045
1.878,-0.455,-0.045
1.880,-0.380,-0.040
1.882,-0.335,-0.030
1.884,-0.435,-0.025
1.886,-0.485,-0.020
1.888,-0.465,-0.015
1.890,-0.410,-0.015
1.892,-0.320,-0.020
1.894,-0.225,-0.025
1.896,-0.290,-0.035
1.898,-0.255,-0.040
1.900,-0.375,-0.045
1.902,-0.455,-0.050
1.904,-0.530,-0.050
1.906,-0.580,-0.050
1.908,-0.495,-0.050
1.910,-0.395,-0.045
1.912,-0.290,-0.045
1.914,-0.230,-0.040
1.916,-0.260,-0.040
1.918,-0.295,-0.035
1.920,-0.440,-0.035
1.922,-0.425,-0.030
1.924,-0.505,-0.030
1.926,-0.525,-0.030
1.928,-0.470,-0.035
1.930,-0.430,-0.040
1.932,-0.255,-0.045
1.934,-0.275,-0.050
1.936,-0.275,-0.050
1.938,-0.335,-0.055
1.940,-0.415,-0.055
1.942,-0.505,-0.055
1.944,-0.535,-0.055
1.946,-0.500,-0.050
1.948,-0.455,-0.050
1.950,-0.380,-0.050
1.952,-0.330,-0.050
1.954,-0.305,-0.050
1.956,-0.275,-0.055
1.958,-0.435,-0.060
1.960,-0.375,-0.060
1.962,-0.445,-0.060
1.964,-0.525,-0.060
1.966,-0.535,-0.055
1.968,-0.470,-0.050
1.970,-0.410,-0.045
1.972,-0.360,-0.035
1.974,-0.230,-0.030
1.976,-0.220,-0.020
1.978,-0.340,-0.015
1.980,-0.335,-0.015
1.982,-0.435,-0.015
1.984,-0.510,-0.015
1.986,-0.455,-0.025
1.988,-0.455,-0.035
1.990,-0.375,-0.045
1.992,-0.275,-0.060
1.994,-0.340,-0.070
1.996,-0.365,-0.080
1.998,-0.310,-0.080
2.000,-0.420,-0.075
2.002,-0.425,-0.070
2.004,-0.635,-0.055
2.006,-0.555,-0.045
2.008,-0.355,-0.035
2.010,-0.340,-0.025
2.012,-0.220,-0.020
2.014,-0.265,-0.025
2.016,-0.320,-0.030
2.018,-0.260,-0.040
2.020,-0.345,-0.055
2.022,-0.595,-0.065
2.024,-0.730,-0.075
2.026,-0.510,-0.080
2.028,-0.430,-0.075
2.030,-0.270,-0.070
2.032,-0.235,-0.065
2.034,-0.275,-0.055
2.036,-0.350,-0.045
2.038,-0.370,-0.035
2.040,-0.405,-0.030
2.042,-0.415,-0.030
2.044,-0.500,-0.035
2.046,-0.550,-0.045
2.048,-0.410,-0.055
2.050,-0.345,-0.065
2.052,-0.310,-0.070
2.054,-0.270,-0.075
2.056,-0.380,-0.070
2.058,-0.360,-0.060
2.060,-0.365,-0.050
2.062,-0.495,-0.035
2.064,-0.470,-0.025
2.066,-0.475,-0.015
2.068,-0.360,-0.015
2.070,-0.330,-0.020
2.072,-0.285,-0.030
2.074,-0.250,-0.045
2.076,-0.295,-0.060
2.078,-0.395,-0.070
2.080,-0.435,-0.075
2.082,-0.590,-0.070
2.084,-0.545,-0.065
2.086,-0.410,-0.055
2.088,-0.380,-0.045
2.090,-0.360,-0.035
2.092,-0.195,-0.035
2.094,-0.290,-0.040
2.096,-0.325,-0.055
2.098,-0.425,-0.070
2.100,-0.505,-0.080
2.102,-0.655,-0.090
2.104,-0.560,-0.095
2.106,-0.385,-0.095
2.108,-0.405,-0.085
2.110,-0.335,-0.070
2.112,-0.255,-0.060
2.114,-0.200,-0.045
2.116,-0.335,-0.040
2.118,-0.370,-0.035
2.120,-0.400,-0.035
2.122,-0.530,-0.040
2.124,-0.565,-0.045
2.126,-0.450,-0.045
2.128,-0.365,-0.045
2.130,-0.290,-0.040
2.132,-0.230,-0.035
2.134,-0.150,-0.030
2.136,-0.275,-0.020
2.138,-0.365,-0.020
2.140,-0.410,-0.015
2.142,-0.490,-0.015
2.144,-0.520,-0.015
2.146,-0.445,-0.010
2.148,-0.400,-0.005
2.150,-0.185,0.000
2.152,-0.175,0.010
2.154,-0.175,0.025
2.156,-0.235,0.035
2.158,-0.355,0.045
2.160,-0.365,0.055
2.162,-0.410,0.060
2.164,-0.380,0.060
2.166,-0.325,0.055
2.168,-0.140,0.055
2.170,-0.305,0.050
2.172,-0.275,0.045
2.174,-0.110,0.040
2.176,-0.220,0.035
2.178,-0.280,0.035
2.180,-0.330,0.035
2.182,-0.420,0.030
2.184,-0.425,0.030
2.186,-0.365,0.030
2.188,-0.335,0.025
2.190,-0.375,0.020
2.192,-0.155,0.010
2.194,-0.140,0.005
2.196,-0.205,-0.005
2.198,-0.330,-0.015
2.200,-0.400,-0.025
2.202,-0.535,-0.030
2.204,-0.525,-0.040
2.206,-0.510,-0.045
2.208,-0.360,-0.050
2.210,-0.300,-0.055
2.212,-0.200,-0.065
2.214,-0.240,-0.070
2.216,-0.400,-0.080
2.218,-0.420,-0.090
2.220,-0.445,-0.100
2.222,-0.585,-0.105
2.224,-0.600,-0.110
2.226,-0.540,-0.110
2.228,-0.445,-0.105
2.230,-0.365,-0.100
2.232,-0.205,-0.090
2.234,-0.180,-0.085
2.236,-0.335,-0.075
2.238,-0.485,-0.070
2.240,-0.490,-0.070
2.242,-0.540,-0.065
2.244,-0.575,-0.065
2.246,-0.435,-0.065
2.248,-0.405,-0.070
2.250,-0.315,-0.070
2.252,-0.220,-0.080
2.254,-0.265,-0.090
2.256,-0.350,-0.110
2.258,-0.445,-0.130
2.260,-0.665,-0.160
2.262,-0.740,-0.185
2.264,-0.685,-0.200
2.266,-0.590,-0.210
2.268,-0.485,-0.195
2.270,-0.365,-0.155
2.272,-0.230,-0.090
2.274,-0.150,0.010
2.276,-0.125,0.135
2.278,-0.065,0.285
2.280,-0.010,0.450
2.282,0.120,0.620
2.284,0.315,0.795
2.286,0.640,0.955
2.288,0.865,1.090
2.290,1.190,1.205
2.292,1.160,1.275
2.294,1.140,1.310
2.296,1.010,1.300
2.298,0.795,1.240
2.300,0.730,1.140
2.302,0.580,1.005
2.304,0.510,0.840
2.306,0.315,0.665
2.308,0.150,0.480
2.310,0.010,0.310
2.312,-0.050,0.165
2.314,-0.240,0.050
2.316,-0.445,-0.035
2.318,-0.420,-0.085
2.320,-0.470,-0.110
2.322,-0.515,-0.110
2.324,-0.540,-0.100
2.326,-0.495,-0.085
2.328,-0.365,-0.070
2.330,-0.350,-0.065
2.332,-0.205,-0.065
2.334,-0.290,-0.075
2.336,-0.310,-0.085
2.338,-0.455,-0.095
2.340,-0.500,-0.110
2.342,-0.510,-0.120
2.344,-0.510,-0.130
2.346,-0.635,-0.135
2.348,-0.445,-0.135
2.350,-0.350,-0.135
2.352,-0.260,-0.125
2.354,-0.320,-0.115
2.356,-0.320,-0.100
2.358,-0.395,-0.090
2.360,-0.525,-0.080
2.362,-0.480,-0.070
2.364,-0.480,-0.070
2.366,-0.380,-0.080
2.368,-0.445,-0.090
2.370,-0.340,-0.100
2.372,-0.235,-0.110
2.374,-0.325,-0.120
2.376,-0.360,-0.120
2.378,-0.430,-0.115
2.380,-0.540,-0.105
2.382,-0.560,-0.090
2.384,-0.470,-0.075
2.386,-0.360,-0.065
2.388,-0.345,-0.060
2.390,-0.255,-0.060
2.392,-0.270,-0.065
2.394,-0.310,-0.070
2.396,-0.380,-0.080
2.398,-0.405,-0.085
2.400,-0.515,-0.085
2.402,-0.540,-0.080
2.404,-0.445,-0.075
2.406,-0.380,-0.070
2.408,-0.385,-0.070
2.410,-0.255,-0.070
2.412,-0.240,-0.070
2.414,-0.305,-0.075
2.416,-0.425,-0.085
2.418,-0.420,-0.085
2.420,-0.570,-0.090
2.422,-0.500,-0.090
2.424,-0.440,-0.085
2.426,-0.395,-0.080
2.428,-0.330,-0.070
2.430,-0.220,-0.065
2.432,-0.215,-0.060
2.434,-0.310,-0.055
2.436,-0.420,-0.055
2.438,-0.410,-0.055
2.440,-0.445,-0.055
2.442,-0.435,-0.060
2.444,-0.425,-0.060
2.446,-0.405,-0.060
2.448,-0.345,-0.060
2.450,-0.200,-0.055
2.452,-0.180,-0.055
2.454,-0.320,-0.055
2.456,-0.360,-0.050
2.458,-0.385,-0.045
2.460,-0.415,-0.035
2.462,-0.405,-0.030
2.464,-0.410,-0.020
2.466,-0.325,-0.010
2.468,-0.250,-0.005
2.470,-0.215,-0.005
2.472,-0.155,-0.010
2.474,-0.210,-0.015
2.476,-0.405,-0.025
2.478,-0.445,-0.030
2.480,-0.370,-0.040
2.482,-0.450,-0.040
2.484,-0.390,-0.035
2.486,-0.360,-0.025
2.488,-0.230,-0.010
2.490,-0.190,0.010
2.492,-0.120,0.025
2.494,-0.165,0.040
2.496,-0.265,0.050
2.498,-0.320,0.055
2.500,-0.355,0.060
2.502,-0.365,0.065
2.504,-0.285,0.065
2.506,-0.165,0.065
2.508,-0.225,0.070
2.510,-0.060,0.075
2.512,-0.075,0.085
2.514,-0.195,0.090
2.516,-0.190,0.095
2.518,-0.295,0.100
2.520,-0.345,0.100
2.522,-0.370,0.100
2.524,-0.260,0.095
2.526,-0.200,0.095
2.528,-0.090,0.095
2.530,0.010,0.095
2.532,-0.105,0.100
2.534,-0.115,0.105
2.536,-0.145,0.115
2.538,-0.290,0.125
2.540,-0.305,0.135
2.542,-0.260,0.145
2.544,-0.215,0.150
2.546,-0.170,0.155
2.548,-0.010,0.155
2.550,-0.020,0.145
2.552,-0.040,0.135
2.554,-0.085,0.125
2.556,-0.205,0.110
2.558,-0.370,0.095
2.560,-0.325,0.080
2.562,-0.285,0.075
2.564,-0.270,0.070
2.566,-0.260,0.075
2.568,-0.185,0.085
2.570,0.035,0.095
2.572,-0.030,0.100
2.574,-0.190,0.105
2.576,-0.170,0.105
2.578,-0.305,0.100
2.580,-0.380,0.085
2.582,-0.390,0.065
2.584,-0.305,0.045
2.586,-0.225,0.030
2.588,-0.125,0.015
2.590,-0.165,0.005
2.592,-0.150,0.005
2.594,-0.215,0.000
2.596,-0.345,0.000
2.598,-0.460,-0.005
2.600,-0.445,-0.010
2.602,-0.445,-0.020
2.604,-0.350,-0.030
2.606,-0.315,-0.045
2.608,-0.215,-0.055
2.610,-0.160,-0.060
2.612,-0.170,-0.060
2.614,-0.220,-0.055
2.616,-0.330,-0.050
2.618,-0.525,-0.045
2.620,-0.625,-0.045
2.622,-0.410,-0.050
2.624,-0.325,-0.060
2.626,-0.330,-0.075
2.628,-0.275,-0.085
2.630,-0.295,-0.095
2.632,-0.295,-0.095
2.634,-0.245,-0.085
2.636,-0.330,-0.070
2.638,-0.460,-0.050
2.640,-0.415,-0.030
2.642,-0.440,-0.015
2.644,-0.350,-0.010
2.646,-0.330,-0.015
2.648,-0.175,-0.025
2.650,-0.165,-0.045
2.652,-0.240,-0.065
2.654,-0.350,-0.080
2.656,-0.400,-0.090
2.658,-0.455,-0.085
2.660,-0.470,-0.075
2.662,-0.455,-0.060
2.664,-0.300,-0.040
2.666,-0.240,-0.025
2.668,-0.210,-0.015
2.670,-0.230,-0.015
2.672,-0.255,-0.020
2.674,-0.340,-0.030
2.676,-0.310,-0.045
2.678,-0.455,-0.060
2.680,-0.525,-0.075
2.682,-0.355,-0.080
2.684,-0.325,-0.085
2.686,-0.395,-0.080
2.688,-0.350,-0.075
2.690,-0.255,-0.065
2.692,-0.215,-0.060
2.694,-0.260,-0.050
2.696,-0.310,-0.040
2.698,-0.465,-0.035
2.700,-0.420,-0.030
2.702,-0.300,-0.030
2.704,-0.320,-0.030
2.706,-0.330,-0.035
2.708,-0.215,-0.040
2.710,-0.240,-0.050
2.712,-0.290,-0.060
2.714,-0.385,-0.070
2.716,-0.330,-0.075
2.718,-0.470,-0.085
2.720,-0.460,-0.085
2.722,-0.375,-0.085
2.724,-0.385,-0.080
2.726,-0.280,-0.075
2.728,-0.230,-0.065
2.730,-0.235,-0.060
2.732,-0.250,-0.050
2.734,-0.370,-0.040
2.736,-0.310,-0.035
2.738,-0.415,-0.030
2.740,-0.410,-0.025
2.742,-0.370,-0.025
2.744,-0.230,-0.020
2.746,-0.270,-0.020
2.748,-0.135,-0.025
2.750,-0.270,-0.030
2.752,-0.260,-0.035
2.754,-0.255,-0.040
2.756,-0.350,-0.045
2.758,-0.435,-0.050
2.760,-0.445,-0.055
2.762,-0.435,-0.055
2.764,-0.350,-0.055
2.766,-0.350,-0.050
2.768,-0.320,-0.045
2.770,-0.035,-0.040
2.772,-0.165,-0.035
2.774,-0.300,-0.030
2.776,-0.345,-0.030
2.778,-0.425,-0.030
2.780,-0.500,-0.030
2.782,-0.440,-0.035
2.784,-0.335,-0.040
2.786,-0.120,-0.045
2.788,-0.060,-0.050
2.790,-0.230,-0.050
2.792,-0.255,-0.045
2.794,-0.295,-0.040
2.796,-0.395,-0.030
2.798,-0.445,-0.025
2.800,-0.370,-0.015
2.802,-0.340,-0.010
2.804,-0.365,-0.010
2.806,-0.155,-0.015
2.808,-0.130,-0.025
2.810,-0.140,-0.040
2.812,-0.305,-0.050
2.814,-0.375,-0.060
2.816,-0.455,-0.065
2.818,-0.400,-0.070
2.820,-0.425,-0.065
2.822,-0.385,-0.060
2.824,-0.360,-0.055
2.826,-0.205,-0.050
2.828,-0.150,-0.050
2.830,-0.160,-0.050
2.832,-0.235,-0.055
2.834,-0.395,-0.055
2.836,-0.505,-0.060
2.838,-0.495,-0.060
2.840,-0.390,-0.055
2.842,-0.280,-0.050
2.844,-0.260,-0.040
2.846,-0.190,-0.035
2.848,-0.145,-0.030
2.850,-0.150,-0.035
2.852,-0.260,-0.040
2.854,-0.395,-0.050
2.856,-0.500,-0.065
2.858,-0.505,-0.075
2.860,-0.390,-0.080
2.862,-0.295,-0.085
2.864,-0.335,-0.080
2.866,-0.180,-0.070
2.868,-0.095,-0.055
2.870,-0.230,-0.040
2.872,-0.295,-0.030
2.874,-0.330,-0.025
2.876,-0.415,-0.030
2.878,-0.370,-0.040
2.880,-0.360,-0.060
2.882,-0.380,-0.080
2.884,-0.425,-0.095
2.886,-0.290,-0.105
2.888,-0.210,-0.110
2.890,-0.210,-0.100
2.892,-0.275,-0.085
2.894,-0.275,-0.065
2.896,-0.410,-0.040
2.898,-0.455,-0.025
2.900,-0.350,-0.015
2.902,-0.345,-0.015
2.904,-0.240,-0.025
2.906,-0.185,-0.040
2.908,-0.230,-0.060
2.910,-0.165,-0.075
2.912,-0.280,-0.090
2.914,-0.365,-0.095
2.916,-0.435,-0.095
2.918,-0.450,-0.090
2.920,-0.485,-0.085
2.922,-0.385,-0.075
2.924,-0.300,-0.070
2.926,-0.115,-0.070
2.928,-0.155,-0.065
2.930,-0.235,-0.065
2.932,-0.285,-0.060
2.934,-0.350,-0.055
2.936,-0.425,-0.045
2.938,-0.440,-0.035
2.940,-0.315,-0.025
2.942,-0.245,-0.015
2.944,-0.280,-0.015
2.946,-0.135,-0.025
2.948,-0.155,-0.035
2.950,-0.240,-0.055
2.952,-0.305,-0.075
2.954,-0.280,-0.090
2.956,-0.520,-0.105
2.958,-0.475,-0.110
2.960,-0.470,-0.110
2.962,-0.435,-0.100
2.964,-0.315,-0.085
2.966,-0.100,-0.070
2.968,-0.125,-0.055
2.970,-0.275,-0.045
2.972,-0.235,-0.035
2.974,-0.360,-0.030
2.976,-0.405,-0.025
2.978,-0.305,-0.020
2.980,-0.330,-0.020
2.982,-0.300,-0.020
2.984,-0.280,-0.025
2.986,-0.160,-0.025
2.988,-0.165,-0.030
2.990,-0.205,-0.035
2.992,-0.280,-0.040
2.994,-0.325,-0.050
2.996,-0.395,-0.055
2.998,-0.450,-0.060
3.000,-0.440,-0.065
3.002,-0.290,-0.065
3.004,-0.260,-0.065
3.006,-0.160,-0.060
3.008,-0.170,-0.060
3.010,-0.220,-0.055
3.012,-0.390,-0.055
3.014,-0.345,-0.055
3.016,-0.385,-0.055
3.018,-0.405,-0.050
3.020,-0.340,-0.050
3.022,-0.270,-0.050
3.024,-0.250,-0.050
3.026,-0.175,-0.050
3.028,-0.180,-0.055
3.030,-0.230,-0.055
3.032,-0.280,-0.060
3.034,-0.320,-0.065
3.036,-0.465,-0.065
3.038,-0.435,-0.065
3.040,-0.345,-0.065
3.042,-0.285,-0.060
3.044,-0.225,-0.055
3.046,-0.145,-0.055
3.048,-0.095,-0.050
3.050,-0.185,-0.050
3.052,-0.370,-0.055
3.054,-0.380,-0.055
3.056,-0.470,-0.060
3.058,-0.460,-0.065
3.060,-0.250,-0.065
3.062,-0.300,-0.060
3.064,-0.200,-0.055
3.066,-0.135,-0.050
3.068,-0.110,-0.040
3.070,-0.160,-0.030
3.072,-0.240,-0.025
3.074,-0.330,-0.020
3.076,-0.420,-0.025
3.078,-0.420,-0.030
3.080,-0.370,-0.035
3.082,-0.315,-0.050
3.084,-0.235,-0.060
3.086,-0.125,-0.070
3.088,-0.185,-0.075
3.090,-0.240,-0.080
3.092,-0.285,-0.080
3.094,-0.330,-0.075
3.096,-0.435,-0.065
3.098,-0.440,-0.055
3.100,-0.415,-0.045
3.102,-0.250,-0.035
3.104,-0.125,-0.030
3.106,-0.140,-0.030
3.108,-0.060,-0.025
3.110,-0.190,-0.025
3.112,-0.310,-0.030
3.114,-0.365,-0.030
3.116,-0.330,-0.025
3.118,-0.390,-0.025
3.120,-0.350,-0.015
3.122,-0.200,-0.010
3.124,-0.205,0.000
3.126,-0.160,0.010
3.128,0.005,0.025
3.130,-0.040,0.035
3.132,-0.235,0.045
3.134,-0.325,0.050
3.136,-0.325,0.060
3.138,-0.260,0.065
3.140,-0.170,0.065
3.142,-0.145,0.070
3.144,-0.030,0.070
3.146,0.025,0.065
3.148,-0.045,0.065
3.150,-0.125,0.060
3.152,-0.210,0.055
3.154,-0.300,0.050
3.156,-0.345,0.040
3.158,-0.325,0.035
3.160,-0.295,0.030
3.162,-0.210,0.025
3.164,-0.010,0.020
3.166,0.025,0.015
3.168,-0.100,0.005
3.170,-0.285,0.000
3.172,-0.275,-0.005
3.174,-0.325,-0.010
3.176,-0.380,-0.015
3.178,-0.365,-0.020
3.180,-0.290,-0.030
3.182,-0.210,-0.045
3.184,-0.110,-0.055
3.186,-0.185,-0.070
3.188,-0.215,-0.085
3.190,-0.335,-0.100
3.192,-0.355,-0.110
3.194,-0.480,-0.115
3.196,-0.480,-0.120
3.198,-0.435,-0.115
3.200,-0.275,-0.105
3.202,-0.250,-0.090
3.204,-0.180,-0.080
3.206,-0.150,-0.065
3.208,-0.125,-0.055
3.210,-0.190,-0.045
3.212,-0.285,-0.040
3.214,-0.465,-0.040
3.216,-0.385,-0.040
3.218,-0.375,-0.045
3.220,-0.345,-0.055
3.222,-0.290,-0.065
3.224,-0.130,-0.080
3.226,-0.125,-0.100
3.228,-0.245,-0.120
3.230,-0.375,-0.140
3.232,-0.370,-0.160
3.234,-0.535,-0.180
3.236,-0.620,-0.195
3.238,-0.525,-0.195
3.240,-0.410,-0.185
3.242,-0.410,-0.155
3.244,-0.140,-0.100
3.246,-0.160,-0.020
3.248,0.025,0.085
3.250,0.025,0.220
3.252,0.095,0.375
3.254,0.225,0.545
3.256,0.430,0.725
3.258,0.570,0.900
3.260,0.845,1.065
3.262,1.135,1.200
3.264,1.310,1.295
3.266,1.315,1.345
3.268,1.215,1.345
3.270,1.110,1.290
3.272,0.970,1.185
3.274,0.675,1.045
3.276,0.535,0.880
3.278,0.375,0.700
3.280,0.230,0.525
3.282,0.150,0.360
3.284,0.090,0.215
3.286,0.035,0.095
3.288,-0.145,0.010
3.290,-0.275,-0.055
3.292,-0.360,-0.090
3.294,-0.510,-0.110
3.296,-0.470,-0.115
3.298,-0.390,-0.110
3.300,-0.325,-0.100
3.302,-0.305,-0.090
3.304,-0.135,-0.085
3.306,-0.010,-0.075
3.308,-0.215,-0.075
3.310,-0.285,-0.070
3.312,-0.285,-0.075
3.314,-0.460,-0.080
3.316,-0.505,-0.085
3.318,-0.455,-0.090
3.320,-0.305,-0.095
3.322,-0.215,-0.095
3.324,-0.120,-0.090
3.326,-0.115,-0.090
3.328,-0.210,-0.085
3.330,-0.310,-0.085
3.332,-0.375,-0.080
3.334,-0.505,-0.085
3.336,-0.405,-0.090
3.338,-0.395,-0.095
3.340,-0.270,-0.100
3.342,-0.235,-0.105
3.344,-0.155,-0.110
3.346,-0.195,-0.110
3.348,-0.195,-0.105
3.350,-0.285,-0.095
3.352,-0.345,-0.085
3.354,-0.470,-0.075
3.356,-0.405,-0.070
3.358,-0.315,-0.060
3.360,-0.240,-0.055
3.362,-0.210,-0.055
3.364,-0.090,-0.055
3.366,-0.155,-0.055
3.368,-0.180,-0.060
3.370,-0.265,-0.060
3.372,-0.355,-0.065
3.374,-0.455,-0.075
3.376,-0.440,-0.085
3.378,-0.340,-0.095
3.380,-0.280,-0.105
3.382,-0.205,-0.115
3.384,-0.225,-0.125
3.386,-0.250,-0.125
3.388,-0.300,-0.120
3.390,-0.295,-0.105
3.392,-0.350,-0.085
3.394,-0.380,-0.065
3.396,-0.310,-0.045
3.398,-0.255,-0.025
3.400,-0.200,-0.015
3.402,-0.150,-0.010
3.404,-0.100,-0.015
3.406,-0.135,-0.030
3.408,-0.225,-0.040
3.410,-0.290,-0.055
3.412,-0.385,-0.065
3.414,-0.415,-0.070
3.416,-0.380,-0.070
3.418,-0.275,-0.065
3.420,-0.260,-0.055
3.422,-0.095,-0.045
3.424,-0.055,-0.040
3.426,-0.060,-0.035
3.428,-0.200,-0.035
3.430,-0.320,-0.035
3.432,-0.380,-0.035
3.434,-0.360,-0.035
3.436,-0.305,-0.030
3.438,-0.265,-0.025
3.440,-0.180,-0.020
3.442,-0.135,-0.015
3.444,-0.035,-0.015
3.446,-0.110,-0.020
3.448,-0.245,-0.025
3.450,-0.280,-0.040
3.452,-0.360,-0.050
3.454,-0.330,-0.055
3.456,-0.400,-0.055
3.458,-0.305,-0.040
3.460,-0.140,-0.025
3.462,-0.020,0.000
3.464,0.025,0.030
3.466,-0.040,0.050
3.468,-0.105,0.065
3.470,-0.180,0.075
3.472,-0.280,0.070
3.474,-0.240,0.055
3.476,-0.205,0.040
3.478,-0.180,0.030
3.480,-0.270,0.020
3.482,-0.100,0.025
3.484,-0.050,0.035
3.486,0.110,0.055
3.488,-0.015,0.080
3.490,-0.135,0.100
3.492,-0.245,0.120
3.494,-0.255,0.130
3.496,-0.185,0.130
3.498,-0.080,0.125
3.500,-0.015,0.115
3.502,0.135,0.105
3.504,0.015,0.100
3.506,-0.015,0.100
3.508,-0.020,0.105
3.510,-0.110,0.110
3.512,-0.195,0.115
3.514,-0.225,0.125
3.516,-0.165,0.130
3.518,-0.100,0.130
3.520,-0.015,0.130
3.522,0.070,0.125
3.524,0.030,0.125
3.526,-0.005,0.125
3.528,0.010,0.130
3.530,-0.070,0.135
3.532,-0.190,0.140
3.534,-0.150,0.140
3.536,-0.175,0.135
3.538,-0.055,0.125
3.540,-0.035,0.110
3.542,0.055,0.095
3.544,-0.055,0.075
3.546,-0.040,0.055
3.548,-0.115,0.040
3.550,-0.195,0.035
3.552,-0.315,0.030
3.554,-0.280,0.030
3.556,-0.150,0.035
3.558,-0.205,0.035
3.560,-0.155,0.030
3.562,-0.065,0.025
3.564,0.010,0.020
3.566,-0.100,0.005
3.568,-0.190,-0.005
3.570,-0.250,-0.010
3.572,-0.345,-0.020
3.574,-0.365,-0.020
3.576,-0.280,-0.020
3.578,-0.195,-0.020
3.580,-0.170,-0.020
3.582,-0.090,-0.025
3.584,-0.095,-0.030
3.586,-0.105,-0.035
3.588,-0.225,-0.045
3.590,-0.235,-0.055
3.592,-0.330,-0.060
3.594,-0.520,-0.060
3.596,-0.455,-0.055
3.598,-0.165,-0.050
3.600,-0.150,-0.035
3.602,-0.025,-0.020
3.604,-0.025,-0.010
3.606,-0.065,0.005
3.608,-0.190,0.010
3.610,-0.240,0.010
3.612,-0.360,0.000
3.614,-0.315,-0.010
3.616,-0.340,-0.025
3.618,-0.250,-0.045
3.620,-0.140,-0.060
3.622,-0.065,-0.075
3.624,-0.130,-0.080
3.626,-0.185,-0.080
3.628,-0.265,-0.075
3.630,-0.325,-0.065
3.632,-0.405,-0.050
3.634,-0.325,-0.035
3.636,-0.285,-0.025
3.638,-0.215,-0.015
3.640,-0.180,-0.010
3.642,-0.040,-0.015
3.644,-0.085,-0.020
3.646,-0.135,-0.025
3.648,-0.230,-0.035
3.650,-0.290,-0.040
3.652,-0.370,-0.050
3.654,-0.380,-0.055
3.656,-0.285,-0.055
3.658,-0.205,-0.055
3.660,-0.155,-0.055
3.662,-0.060,-0.055
3.664,-0.060,-0.050
3.666,-0.220,-0.045
3.668,-0.340,-0.040
3.670,-0.300,-0.035
3.672,-0.315,-0.035
3.674,-0.250,-0.030
3.676,-0.260,-0.025
3.678,-0.175,-0.025
3.680,-0.140,-0.025
3.682,-0.080,-0.025
3.684,-0.130,-0.030
3.686,-0.215,-0.030
3.688,-0.215,-0.030
3.690,-0.265,-0.035
3.692,-0.330,-0.035
3.694,-0.340,-0.035
3.696,-0.310,-0.035
3.698,-0.200,-0.035
3.700,-0.115,-0.040
3.702,-0.075,-0.040
3.704,-0.115,-0.045
3.706,-0.230,-0.050
3.708,-0.260,-0.050
3.710,-0.345,-0.055
3.712,-0.365,-0.055
3.714,-0.360,-0.050
3.716,-0.160,-0.040
3.718,-0.225,-0.030
3.720,-0.205,-0.020
3.722,-0.025,-0.010
3.724,-0.065,0.000
3.726,-0.130,0.005
3.728,-0.230,0.005
3.730,-0.330,0.000
3.732,-0.355,-0.005
3.734,-0.295,-0.015
3.736,-0.245,-0.030
3.738,-0.135,-0.040
3.740,-0.105,-0.045
3.742,-0.105,-0.045
3.744,-0.110,-0.040
3.746,-0.250,-0.030
3.748,-0.225,-0.020
3.750,-0.300,-0.010
3.752,-0.325,0.000
3.754,-0.295,0.005
3.756,-0.205,0.010
3.758,-0.125,0.005
3.760,-0.080,0.000
3.762,-0.045,-0.010
3.764,-0.065,-0.020
3.766,-0.170,-0.030
3.768,-0.275,-0.040
3.770,-0.385,-0.050
3.772,-0.390,-0.050
3.774,-0.290,-0.050
3.776,-0.265,-0.050
3.778,-0.155,-0.040
3.780,-0.215,-0.035
3.782,0.000,-0.025
3.784,-0.045,-0.020
3.786,-0.150,-0.015
3.788,-0.225,-0.015
3.790,-0.375,-0.020
3.792,-0.355,-0.020
3.794,-0.340,-0.025
3.796,-0.245,-0.030
3.798,-0.115,-0.035
3.800,-0.010,-0.035
3.802,-0.055,-0.030
3.804,-0.095,-0.025
3.806,-0.170,-0.020
3.808,-0.205,-0.020
3.810,-0.345,-0.020
3.812,-0.330,-0.025
3.814,-0.355,-0.035
3.816,-0.335,-0.040
3.818,-0.185,-0.050
3.820,-0.030,-0.050
3.822,-0.030,-0.050
3.824,-0.125,-0.045
3.826,-0.210,-0.040
3.828,-0.235,-0.035
3.830,-0.370,-0.035
3.832,-0.345,-0.035
3.834,-0.290,-0.040
3.836,-0.235,-0.050
3.838,-0.235,-0.060
3.840,-0.095,-0.065
3.842,-0.155,-0.065
3.844,-0.110,-0.060
3.846,-0.250,-0.045
3.848,-0.145,-0.030
3.850,-0.310,-0.010
3.852,-0.340,0.000
3.854,-0.250,0.005
3.856,-0.205,0.000
3.858,-0.160,-0.010
3.860,-0.040,-0.025
3.862,-0.125,-0.040
3.864,-0.115,-0.055
3.866,-0.145,-0.070
3.868,-0.290,-0.070
3.870,-0.445,-0.070
3.872,-0.445,-0.060
3.874,-0.235,-0.050
3.876,-0.210,-0.040
3.878,-0.215,-0.035
3.880,-0.100,-0.030
3.882,-0.035,-0.030
3.884,-0.040,-0.035
3.886,-0.190,-0.035
3.888,-0.235,-0.035
3.890,-0.370,-0.035
3.892,-0.340,-0.035
3.894,-0.270,-0.035
3.896,-0.280,-0.035
3.898,-0.220,-0.035
3.900,-0.045,-0.035
3.902,-0.090,-0.035
3.904,-0.080,-0.035
3.906,-0.130,-0.040
3.908,-0.245,-0.040
3.910,-0.375,-0.045
3.912,-0.365,-0.045
3.914,-0.320,-0.050
3.916,-0.275,-0.055
3.918,-0.180,-0.055
3.920,-0.090,-0.055
3.922,-0.055,-0.055
3.924,-0.145,-0.055
3.926,-0.235,-0.050
3.928,-0.280,-0.040
3.930,-0.290,-0.035
3.932,-0.290,-0.025
3.934,-0.360,-0.020
3.936,-0.170,-0.020
3.938,-0.140,-0.020
3.940,-0.050,-0.025
3.942,-0.070,-0.030
3.944,-0.105,-0.035
3.946,-0.185,-0.035
3.948,-0.295,-0.035
3.950,-0.390,-0.035
3.952,-0.365,-0.030
3.954,-0.270,-0.030
3.956,-0.210,-0.030
3.958,-0.110,-0.030
3.960,-0.040,-0.035
3.962,-0.020,-0.045
3.964,-0.145,-0.050
3.966,-0.210,-0.055
3.968,-0.375,-0.060
3.970,-0.400,-0.060
3.972,-0.370,-0.050
3.974,-0.240,-0.040
3.976,-0.175,-0.030
3.978,-0.100,-0.025
3.980,-0.035,-0.020
3.982,-0.080,-0.020
3.984,-0.165,-0.030
3.986,-0.205,-0.040
3.988,-0.315,-0.050
3.990,-0.395,-0.055
3.992,-0.355,-0.060
3.994,-0.275,-0.060
3.996,-0.255,-0.050
3.998,-0.090,-0.035
4.000,0.015,-0.020
4.002,-0.015,-0.010
4.004,-0.145,0.000
4.006,-0.160,0.005
4.008,-0.285,0.000
4.010,-0.390,-0.010
4.012,-0.340,-0.025
4.014,-0.305,-0.035
4.016,-0.130,-0.045
4.018,-0.095,-0.050
4.020,-0.060,-0.050
4.022,-0.135,-0.040
4.024,-0.180,-0.030
4.026,-0.175,-0.020
4.028,-0.270,-0.010
4.030,-0.275,-0.005
4.032,-0.300,-0.010
4.034,-0.305,-0.015
4.036,-0.210,-0.025
4.038,-0.085,-0.040
4.040,-0.035,-0.045
4.042,-0.040,-0.050
4.044,-0.175,-0.050
4.046,-0.220,-0.040
4.048,-0.330,-0.030
4.050,-0.360,-0.020
4.052,-0.340,-0.015
4.054,-0.170,-0.010
4.056,-0.135,-0.015
4.058,-0.085,-0.020
4.060,-0.050,-0.035
4.062,-0.070,-0.045
4.064,-0.155,-0.055
4.066,-0.255,-0.055
4.068,-0.360,-0.050
4.070,-0.380,-0.040
4.072,-0.285,-0.020
4.074,-0.245,-0.005
4.076,-0.155,0.010
4.078,0.020,0.025
4.080,0.050,0.035
4.082,-0.020,0.035
4.084,-0.140,0.030
4.086,-0.210,0.025
4.088,-0.290,0.020
4.090,-0.255,0.015
4.092,-0.260,0.020
4.094,-0.210,0.025
4.096,-0.110,0.035
4.098,0.040,0.050
4.100,0.035,0.060
4.102,0.070,0.070
4.104,-0.020,0.075
4.106,-0.135,0.080
4.108,-0.370,0.075
4.110,-0.275,0.070
4.112,-0.145,0.065
4.114,-0.120,0.065
4.116,-0.055,0.060
4.118,0.095,0.060
4.120,0.030,0.065
4.122,-0.015,0.065
4.124,-0.145,0.060
4.126,-0.180,0.050
4.128,-0.295,0.035
4.130,-0.285,0.020
4.132,-0.175,-0.005
4.134,-0.225,-0.025
4.136,-0.130,-0.045
4.138,0.005,-0.060
4.140,-0.110,-0.065
4.142,-0.245,-0.060
4.144,-0.280,-0.055
4.146,-0.195,-0.045
4.148,-0.310,-0.030
4.150,-0.340,-0.020
4.152,-0.270,-0.020
4.154,-0.240,-0.020
4.156,-0.140,-0.025
4.158,0.005,-0.030
4.160,-0.075,-0.040
4.162,-0.105,-0.050
4.164,-0.230,-0.055
4.166,-0.240,-0.060
4.168,-0.425,-0.060
4.170,-0.365,-0.060
4.172,-0.305,-0.060
4.174,-0.250,-0.065
4.176,-0.190,-0.070
4.178,0.005,-0.075
4.180,-0.135,-0.080
4.182,-0.230,-0.085
4.184,-0.220,-0.090
4.186,-0.245,-0.095
4.188,-0.505,-0.100
4.190,-0.405,-0.105
4.192,-0.365,-0.115
4.194,-0.290,-0.125
4.196,-0.235,-0.140
4.198,-0.180,-0.155
4.200,-0.190,-0.165
4.202,-0.250,-0.165
4.204,-0.375,-0.140
4.206,-0.415,-0.095
4.208,-0.425,-0.020
4.210,-0.160,0.085
4.212,0.090,0.220
4.214,0.275,0.380
4.216,0.455,0.560
4.218,0.770,0.740
4.220,0.875,0.915
4.222,0.975,1.075
4.224,1.130,1.205
4.226,1.175,1.305
4.228,1.085,1.355
4.230,1.035,1.360
4.232,1.105,1.315
4.234,1.030,1.220
4.236,1.030,1.090
4.238,1.110,0.930
4.240,0.780,0.745
4.242,0.395,0.555
4.244,0.020,0.375
4.246,-0.060,0.215
4.248,-0.250,0.080
4.250,-0.410,-0.020
4.252,-0.375,-0.090
4.254,-0.345,-0.125
4.256,-0.260,-0.140
4.258,-0.080,-0.140
4.260,-0.115,-0.125
4.262,-0.175,-0.110
4.264,-0.260,-0.095
4.266,-0.390,-0.085
4.268,-0.365,-0.080
4.270,-0.415,-0.075
4.272,-0.415,-0.080
4.274,-0.135,-0.080
4.276,-0.140,-0.085
4.278,-0.115,-0.085
4.280,-0.090,-0.085
4.282,-0.170,-0.085
4.284,-0.280,-0.085
4.286,-0.360,-0.085
4.288,-0.340,-0.090
4.290,-0.435,-0.090
4.292,-0.310,-0.090
4.294,-0.250,-0.090
4.296,-0.130,-0.095
4.298,-0.095,-0.095
4.300,-0.085,-0.095
4.302,-0.225,-0.095
4.304,-0.225,-0.085
4.306,-0.425,-0.080
4.308,-0.395,-0.070
4.310,-0.280,-0.060
4.312,-0.220,-0.055
4.314,-0.185,-0.060
4.316,-0.080,-0.065
4.318,-0.100,-0.080
4.320,-0.215,-0.100
4.322,-0.220,-0.115
4.324,-0.275,-0.125
4.326,-0.435,-0.125
4.328,-0.430,-0.115
4.330,-0.330,-0.095
4.332,-0.190,-0.070
4.334,-0.235,-0.045
4.336,0.000,-0.020
4.338,-0.005,-0.005
4.340,-0.100,-0.005
4.342,-0.170,-0.015
4.344,-0.250,-0.035
4.346,-0.395,-0.060
4.348,-0.400,-0.085
4.350,-0.390,-0.100
4.352,-0.360,-0.110
4.354,-0.135,-0.105
4.356,-0.080,-0.090
4.358,-0.115,-0.075
4.360,-0.180,-0.055
4.362,-0.180,-0.045
4.364,-0.190,-0.040
4.366,-0.335,-0.040
4.368,-0.305,-0.045
4.370,-0.280,-0.050
4.372,-0.295,-0.060
4.374,-0.190,-0.060
4.376,-0.045,-0.055
4.378,-0.015,-0.045
4.380,-0.110,-0.035
4.382,-0.175,-0.020
4.384,-0.175,-0.015
4.386,-0.270,-0.010
4.388,-0.265,-0.015
4.390,-0.290,-0.020
4.392,-0.260,-0.030
4.394,-0.245,-0.035
4.396,-0.005,-0.040
4.398,-0.085,-0.040
4.400,-0.060,-0.035
4.402,-0.210,-0.030
4.404,-0.190,-0.020
4.406,-0.250,-0.015
4.408,-0.250,-0.010
4.410,-0.280,-0.010
4.412,-0.195,-0.015
4.414,-0.125,-0.020
4.416,-0.020,-0.025
4.418,-0.130,-0.030
4.420,-0.020,-0.025
4.422,-0.185,-0.015
4.424,-0.160,0.000
4.426,-0.280,0.015
4.428,-0.270,0.030
4.430,-0.160,0.045
4.432,-0.055,0.055
4.434,-0.045,0.060
4.436,0.060,0.065
4.438,-0.020,0.065
4.440,-0.005,0.060
4.442,-0.050,0.065
4.444,-0.065,0.070
4.446,-0.205,0.075
4.448,-0.190,0.085
4.450,-0.130,0.100
4.452,-0.075,0.110
4.454,-0.015,0.115
4.456,0.100,0.120
4.458,0.130,0.120
4.460,0.030,0.120
4.462,-0.045,0.115
4.464,-0.030,0.115
4.466,-0.145,0.120
4.468,-0.165,0.125
4.470,-0.280,0.135
4.472,0.020,0.145
4.474,0.100,0.155
4.476,0.150,0.160
4.478,0.130,0.165
4.480,0.050,0.165
4.482,0.070,0.165
4.484,-0.050,0.160
4.486,-0.200,0.155
4.488,-0.100,0.145
4.490,-0.015,0.140
4.492,-0.025,0.140
4.494,0.030,0.135
4.496,0.075,0.135
4.498,0.150,0.130
4.500,0.080,0.125
4.502,-0.055,0.115
4.504,-0.100,0.100
4.506,-0.200,0.085
4.508,-0.270,0.060
4.510,-0.175,0.040
4.512,-0.110,0.015
4.514,-0.110,0.000
4.516,-0.030,-0.010
4.518,-0.005,-0.010
4.520,-0.065,-0.005
4.522,-0.125,0.005
4.524,-0.225,0.015
4.526,-0.310,0.030
4.528,-0.210,0.035
4.530,-0.135,0.030
4.532,-0.150,0.015
4.534,-0.080,-0.005
4.536,-0.005,-0.030
4.538,-0.040,-0.055
4.540,-0.210,-0.075
4.542,-0.355,-0.090
4.544,-0.385,-0.090
4.546,-0.220,-0.080
4.548,-0.305,-0.060
4.550,-0.265,-0.040
4.552,-0.080,-0.020
4.554,-0.050,-0.010
4.556,-0.060,-0.010
4.558,-0.075,-0.020
4.560,-0.205,-0.035
4.562,-0.240,-0.055
4.564,-0.315,-0.075
4.566,-0.370,-0.090
4.568,-0.230,-0.095
4.570,-0.300,-0.095
4.572,-0.245,-0.090
4.574,-0.205,-0.080
4.576,-0.090,-0.070
4.578,-0.110,-0.065
4.580,-0.175,-0.060
4.582,-0.215,-0.060
4.584,-0.300,-0.060
4.586,-0.340,-0.060
4.588,-0.285,-0.055
4.590,-0.105,-0.045
4.592,-0.170,-0.035
4.594,-0.120,-0.030
4.596,-0.085,-0.025
4.598,-0.185,-0.025
4.600,-0.095,-0.035
4.602,-0.115,-0.050
4.604,-0.185,-0.070
4.606,-0.390,-0.090
4.608,-0.425,-0.105
4.610,-0.275,-0.105
4.612,-0.185,-0.100
4.614,-0.210,-0.085
4.616,-0.200,-0.060
4.618,-0.065,-0.035
4.620,-0.040,-0.015
4.622,-0.050,-0.005
4.624,-0.155,-0.005
4.626,-0.220,-0.015
4.628,-0.355,-0.030
4.630,-0.335,-0.055
4.632,-0.195,-0.080
4.634,-0.170,-0.095
4.636,-0.275,-0.110
4.638,-0.140,-0.110
4.640,-0.150,-0.110
4.642,-0.170,-0.100
4.644,-0.145,-0.090
4.646,-0.235,-0.080
4.648,-0.355,-0.070
4.650,-0.310,-0.060
4.652,-0.275,-0.055
4.654,-0.255,-0.055
4.656,-0.125,-0.050
4.658,-0.085,-0.055
4.660,-0.105,-0.060
4.662,-0.155,-0.065
4.664,-0.195,-0.070
4.666,-0.125,-0.080
4.668,-0.355,-0.085
4.670,-0.330,-0.085
4.672,-0.270,-0.085
4.674,-0.195,-0.075
4.676,-0.230,-0.065
4.678,-0.095,-0.055
4.680,-0.025,-0.045
4.682,-0.005,-0.045
4.684,-0.130,-0.045
4.686,-0.280,-0.055
4.688,-0.385,-0.065
4.690,-0.350,-0.080
4.692,-0.250,-0.085
4.694,-0.255,-0.090
4.696,-0.185,-0.085
4.698,-0.030,-0.075
4.700,0.000,-0.060
4.702,-0.050,-0.040
4.704,-0.115,-0.030
4.706,-0.200,-0.020
4.708,-0.330,-0.025
4.710,-0.315,-0.030
4.712,-0.320,-0.045
4.714,-0.140,-0.060
4.716,-0.220,-0.075
4.718,-0.060,-0.085
4.720,0.035,-0.085
4.722,-0.130,-0.080
4.724,-0.175,-0.075
4.726,-0.240,-0.065
4.728,-0.340,-0.060
4.730,-0.340,-0.060
4.732,-0.285,-0.065
4.734,-0.215,-0.075
4.736,-0.120,-0.085
4.738,-0.010,-0.095
4.740,-0.135,-0.105
4.742,-0.145,-0.105
4.744,-0.275,-0.095
4.746,-0.250,-0.085
4.748,-0.335,-0.070
4.750,-0.275,-0.055
4.752,-0.260,-0.040
4.754,-0.135,-0.030
4.756,-0.170,-0.030
4.758,-0.010,-0.035
4.760,0.010,-0.045
4.762,-0.135,-0.055
4.764,-0.130,-0.070
4.766,-0.275,-0.080
4.768,-0.370,-0.090
4.770,-0.375,-0.090
4.772,-0.335,-0.090
4.774,-0.270,-0.085
4.776,-0.155,-0.080
4.778,0.010,-0.075
4.780,0.005,-0.070
4.782,-0.110,-0.065
4.784,-0.145,-0.060
4.786,-0.265,-0.060
4.788,-0.370,-0.060
4.790,-0.365,-0.065
4.792,-0.265,-0.070
4.794,-0.210,-0.070
4.796,-0.125,-0.080
4.798,-0.075,-0.085
4.800,-0.020,-0.090
4.802,-0.165,-0.095
4.804,-0.165,-0.100
4.806,-0.250,-0.100
4.808,-0.415,-0.100
4.810,-0.345,-0.095
4.812,-0.280,-0.090
4.814,-0.245,-0.080
4.816,-0.150,-0.070
4.818,0.065,-0.065
4.820,0.005,-0.055
4.822,-0.090,-0.055
4.824,-0.230,-0.055
4.826,-0.290,-0.060
4.828,-0.330,-0.070
4.830,-0.295,-0.080
4.832,-0.275,-0.095
4.834,-0.165,-0.105
4.836,-0.175,-0.115
4.838,-0.060,-0.120
4.840,-0.115,-0.120
4.842,-0.165,-0.120
4.844,-0.295,-0.115
4.846,-0.315,-0.105
4.848,-0.325,-0.095
4.850,-0.260,-0.090
4.852,-0.260,-0.085
4.854,-0.200,-0.080
4.856,-0.165,-0.080
4.858,-0.005,-0.080
4.860,-0.110,-0.085
4.862,-0.150,-0.085
4.864,-0.160,-0.085
4.866,-0.290,-0.085
4.868,-0.340,-0.085
4.870,-0.305,-0.085
4.872,-0.295,-0.085
4.874,-0.180,-0.080
4.876,-0.075,-0.080
4.878,-0.040,-0.075
4.880,-0.070,-0.070
4.882,-0.080,-0.065
4.884,-0.125,-0.060
4.886,-0.320,-0.050
4.888,-0.390,-0.040
4.890,-0.325,-0.030
4.892,-0.045,-0.025
4.894,-0.025,-0.015
4.896,-0.045,-0.010
4.898,-0.005,-0.005
4.900,0.025,-0.005
4.902,-0.060,-0.005
4.904,-0.135,-0.005
4.906,-0.285,-0.010
4.908,-0.210,-0.010
4.910,-0.180,-0.010
4.912,-0.160,-0.010
4.914,-0.105,-0.010
4.916,-0.020,-0.010
4.918,-0.010,-0.010
4.920,-0.005,-0.005
4.922,-0.025,-0.005
4.924,-0.100,-0.005
4.926,-0.265,-0.005
4.928,-0.235,-0.015
4.930,-0.190,-0.025
4.932,-0.150,-0.035
4.934,-0.205,-0.055
4.936,-0.055,-0.075
4.938,-0.010,-0.095
4.940,-0.115,-0.115
4.942,-0.225,-0.130
4.944,-0.285,-0.140
4.946,-0.425,-0.145
4.948,-0.335,-0.145
4.950,-0.305,-0.140
4.952,-0.180,-0.130
4.954,-0.180,-0.115
4.956,-0.120,-0.105
4.958,-0.070,-0.090
4.960,-0.060,-0.085
4.962,-0.115,-0.080
4.964,-0.185,-0.080
4.966,-0.345,-0.085
4.968,-0.280,-0.095
4.970,-0.340,-0.105
4.972,-0.250,-0.115
4.974,-0.120,-0.125
4.976,-0.095,-0.130
4.978,-0.205,-0.135
4.980,-0.110,-0.130
4.982,-0.155,-0.125
4.984,-0.145,-0.120
4.986,-0.360,-0.115
4.988,-0.345,-0.115
4.990,-0.300,-0.120
4.992,-0.260,-0.135
4.994,-0.225,-0.155
4.996,-0.125,-0.180
4.998,-0.165,-0.205
5.000,-0.290,-0.220
5.002,-0.355,-0.230
5.004,-0.325,-0.220
5.006,-0.420,-0.190
5.008,-0.355,-0.135
5.010,-0.250,-0.055
5.012,-0.015,0.045
5.014,0.080,0.165
5.016,0.340,0.305
5.018,0.540,0.455
5.020,0.650,0.610
5.022,0.725,0.765
5.024,0.850,0.910
5.026,0.855,1.040
5.028,1.005,1.140
5.030,1.030,1.195
5.032,1.050,1.210
5.034,1.060,1.165
5.036,1.215,1.075
5.038,1.135,0.935
5.040,0.890,0.770
5.042,0.510,0.580
5.044,0.170,0.395
5.046,-0.160,0.220
5.048,-0.270,0.075
5.050,-0.280,-0.035
5.052,-0.225,-0.115
5.054,-0.165,-0.165
5.056,-0.050,-0.190
5.058,-0.170,-0.195
5.060,-0.220,-0.195
5.062,-0.260,-0.190
5.064,-0.305,-0.180
5.066,-0.400,-0.170
5.068,-0.400,-0.160
5.070,-0.250,-0.150
5.072,-0.215,-0.135
5.074,-0.100,-0.125
5.076,-0.040,-0.115
5.078,-0.070,-0.110
5.080,-0.150,-0.105
5.082,-0.135,-0.105
5.084,-0.255,-0.105
5.086,-0.350,-0.110
5.088,-0.360,-0.115
5.090,-0.210,-0.115
5.092,-0.170,-0.115
5.094,-0.060,-0.115
5.096,-0.085,-0.115
5.098,-0.110,-0.115
5.100,-0.160,-0.115
5.102,-0.195,-0.115
5.104,-0.250,-0.110
5.106,-0.275,-0.110
5.108,-0.280,-0.110
5.110,-0.240,-0.105
5.112,-0.250,-0.105
5.114,-0.095,-0.105
5.116,-0.095,-0.110
5.118,-0.015,-0.115
5.120,-0.040,-0.120
5.122,-0.185,-0.130
5.124,-0.260,-0.135
5.126,-0.405,-0.135
5.128,-0.375,-0.130
5.130,-0.270,-0.120
5.132,-0.130,-0.105
5.134,-0.060,-0.090
5.136,0.090,-0.075
5.138,0.035,-0.065
5.140,-0.105,-0.060
5.142,-0.215,-0.065
5.144,-0.230,-0.075
5.146,-0.300,-0.095
5.148,-0.235,-0.110
5.150,-0.245,-0.125
5.152,-0.250,-0.135
5.154,-0.150,-0.130
5.156,0.025,-0.120
5.158,0.025,-0.105
5.160,-0.050,-0.085
5.162,-0.115,-0.065
5.164,-0.195,-0.050
5.166,-0.205,-0.040
5.168,-0.255,-0.045
5.170,-0.260,-0.055
5.172,-0.105,-0.070
5.174,0.020,-0.085
5.176,0.065,-0.095
5.178,-0.050,-0.100
5.180,-0.140,-0.095
5.182,-0.285,-0.075
5.184,-0.225,-0.050
5.186,-0.115,-0.020
5.188,-0.115,0.005
5.190,-0.100,0.025
5.192,-0.065,0.035
5.194,0.140,0.030
5.196,0.165,0.015
5.198,-0.015,-0.010
5.200,-0.055,-0.040
5.202,-0.075,-0.065
5.204,-0.260,-0.085
5.206,-0.245,-0.090
5.208,-0.240,-0.085
5.210,-0.225,-0.070
5.212,-0.105,-0.050
5.214,0.040,-0.025
5.216,0.200,-0.005
5.218,0.050,0.010
5.220,-0.020,0.020
5.222,0.025,0.025
5.224,-0.125,0.025
5.226,-0.105,0.025
5.228,-0.155,0.025
5.230,-0.135,0.035
5.232,-0.130,0.040
5.234,0.235,0.055
5.236,0.215,0.065
5.238,0.130,0.075
5.240,0.020,0.080
5.242,0.125,0.085
5.244,-0.085,0.085
5.246,-0.060,0.085
5.248,-0.025,0.080
5.250,-0.060,0.080
5.252,0.010,0.075
5.254,0.220,0.075
5.256,0.275,0.080
5.258,0.205,0.085
5.260,0.060,0.090
5.262,0.015,0.100
5.264,-0.100,0.115
5.266,-0.145,0.125
5.268,0.040,0.140
5.270,0.175,0.155
5.272,0.205,0.165
5.274,0.335,0.170
5.276,0.285,0.170
5.278,0.230,0.170
5.280,0.080,0.165
5.282,0.025,0.160
5.284,0.015,0.155
5.286,0.120,0.150
5.288,0.040,0.150
5.290,0.115,0.145
5.292,0.195,0.145
5.294,0.285,0.145
5.296,0.280,0.140
5.298,0.155,0.135
5.300,0.040,0.125
5.302,0.020,0.115
5.304,-0.030,0.105
5.306,-0.060,0.095
5.308,-0.015,0.090
5.310,0.075,0.080
5.312,0.055,0.075
5.314,0.220,0.065
5.316,0.155,0.055
5.318,0.095,0.040
5.320,-0.025,0.025
5.322,-0.005,0.005
5.324,-0.135,-0.020
5.326,-0.210,-0.040
5.328,-0.145,-0.055
5.330,-0.125,-0.060
5.332,-0.055,-0.060
5.334,-0.030,-0.055
5.336,0.175,-0.040
5.338,0.105,-0.030
5.340,-0.050,-0.020
5.342,-0.065,-0.015
5.344,-0.165,-0.020
5.346,-0.205,-0.025
5.348,-0.105,-0.040
5.350,-0.030,-0.050
5.352,-0.055,-0.060
5.354,0.055,-0.065
5.356,0.090,-0.070
5.358,0.025,-0.065
5.360,-0.060,-0.055
5.362,-0.055,-0.050
5.364,-0.245,-0.045
5.366,-0.150,-0.045
5.368,-0.120,-0.050
5.370,-0.025,-0.060
5.372,-0.045,-0.070
5.374,0.065,-0.080
5.376,0.040,-0.085
5.378,0.020,-0.085
5.380,-0.065,-0.080
5.382,-0.100,-0.075
5.384,-0.135,-0.075
5.386,-0.215,-0.075
5.388,-0.160,-0.075
5.390,-0.140,-0.085
5.392,0.025,-0.095
5.394,0.000,-0.105
5.396,0.080,-0.115
5.398,0.005,-0.115
5.400,-0.040,-0.110
5.402,-0.170,-0.100
5.404,-0.315,-0.085
5.406,-0.270,-0.070
5.408,-0.065,-0.055
5.410,0.070,-0.040
5.412,0.085,-0.030
5.414,0.215,-0.030
5.416,0.115,-0.030
5.418,0.075,-0.035
5.420,-0.050,-0.035
5.422,-0.140,-0.040
5.424,-0.165,-0.045
5.426,-0.190,-0.045
5.428,-0.075,-0.050
5.430,0.005,-0.055
5.432,0.105,-0.060
5.434,0.165,-0.070
5.436,0.190,-0.080
5.438,-0.015,-0.085
5.440,-0.185,-0.090
5.442,-0.260,-0.095
5.444,-0.220,-0.090
5.446,-0.095,-0.085
5.448,-0.020,-0.075
5.450,0.015,-0.060
5.452,0.100,-0.050
5.454,0.130,-0.040
5.456,0.135,-0.035
5.458,0.075,-0.030
5.460,-0.005,-0.030
5.462,-0.130,-0.030
5.464,-0.120,-0.035
5.466,-0.090,-0.035
5.468,-0.020,-0.040
5.470,0.010,-0.045
5.472,0.135,-0.045
5.474,0.180,-0.045
5.476,0.120,-0.045
5.478,-0.020,-0.040
5.480,0.050,-0.040
5.482,-0.170,-0.035
5.484,-0.125,-0.030
5.486,-0.155,-0.025
5.488,0.010,-0.025
5.490,0.100,-0.020
5.492,0.190,-0.020
5.494,0.235,-0.020
5.496,0.155,-0.015
5.498,0.090,-0.010
5.500,0.000,-0.005
5.502,-0.100,0.005
5.504,-0.075,0.010
5.506,-0.005,0.015
5.508,0.020,0.015
5.510,0.075,0.010
5.512,0.235,-0.005
5.514,0.210,-0.020
5.516,0.150,-0.040
5.518,-0.060,-0.060
5.520,-0.100,-0.075
5.522,-0.180,-0.080
5.524,-0.135,-0.075
5.526,-0.030,-0.060
5.528,0.030,-0.040
5.530,0.120,-0.020
5.532,0.160,0.005
5.534,0.200,0.020
5.536,0.260,0.025
5.538,0.115,0.025
5.540,0.020,0.015
5.542,-0.075,0.000
5.544,-0.050,-0.020
5.546,-0.105,-0.035
5.548,-0.010,-0.045
5.550,0.075,-0.050
5.552,0.120,-0.050
5.554,0.205,-0.040
5.556,0.165,-0.025
5.558,0.090,-0.015
5.560,0.050,0.000
5.562,-0.035,0.005
5.564,0.030,0.005
5.566,-0.065,0.000
5.568,0.015,-0.010
5.570,0.105,-0.025
5.572,0.215,-0.040
5.574,0.140,-0.050
5.576,0.045,-0.060
5.578,0.105,-0.065
5.580,0.045,-0.065
5.582,-0.070,-0.060
5.584,-0.135,-0.050
5.586,-0.140,-0.035
5.588,-0.040,-0.020
5.590,0.205,-0.005
5.592,0.270,0.010
5.594,0.280,0.020
5.596,0.205,0.025
5.598,0.180,0.020
5.600,0.035,0.015
5.602,-0.110,0.005
5.604,-0.040,-0.010
5.606,0.040,-0.025
5.608,0.040,-0.035
5.610,0.070,-0.045
5.612,0.210,-0.045
5.614,0.225,-0.040
5.616,0.180,-0.030
5.618,0.090,-0.020
5.620,0.055,-0.010
5.622,-0.055,-0.005
5.624,-0.110,-0.005
5.626,0.015,-0.010
5.628,0.070,-0.020
5.630,0.145,-0.030
5.632,0.280,-0.040
5.634,0.180,-0.045
5.636,0.155,-0.045
5.638,0.155,-0.045
5.640,0.005,-0.035
5.642,-0.095,-0.030
5.644,-0.095,-0.020
5.646,-0.060,-0.015
5.648,0.195,-0.010
5.650,0.235,-0.010
5.652,0.215,-0.015
5.654,0.180,-0.015
5.656,0.170,-0.010
5.658,0.200,0.000
5.660,0.100,0.015
5.662,-0.015,0.035
5.664,0.000,0.055
5.666,0.155,0.080
5.668,0.285,0.095
5.670,0.330,0.105
5.672,0.345,0.105
5.674,0.355,0.095
5.676,0.295,0.080
5.678,0.225,0.065
5.680,0.070,0.045
5.682,-0.015,0.025
5.684,0.015,0.015
5.686,0.095,0.010
5.688,0.165,0.010
5.690,0.260,0.015
5.692,0.295,0.020
5.694,0.270,0.030
5.696,0.225,0.040
5.698,0.235,0.040
5.700,0.095,0.040
5.702,0.005,0.030
5.704,0.085,0.015
5.706,0.075,-0.005
5.708,0.090,-0.030
5.710,0.140,-0.055
5.712,0.205,-0.075
5.714,0.205,-0.090
5.716,0.105,-0.100
5.718,-0.030,-0.100
5.720,-0.020,-0.090
5.722,-0.015,-0.080
5.724,0.015,-0.065
5.726,0.050,-0.055
5.728,0.115,-0.045
5.730,0.200,-0.040
5.732,0.260,-0.045
5.734,0.270,-0.050
5.736,0.150,-0.055
5.738,0.080,-0.065
5.740,0.030,-0.070
5.742,-0.040,-0.070
5.744,0.010,-0.065
5.746,0.035,-0.060
5.748,0.080,-0.060
5.750,0.230,-0.055
5.752,0.220,-0.060
5.754,0.195,-0.070
5.756,0.100,-0.085
5.758,0.020,-0.105
5.760,-0.030,-0.130
5.762,-0.080,-0.155
5.764,-0.040,-0.175
5.766,-0.030,-0.185
5.768,-0.090,-0.185
5.770,0.030,-0.170
5.772,0.065,-0.130
5.774,0.265,-0.065
5.776,0.295,0.020
5.778,0.300,0.130
5.780,0.375,0.260
5.782,0.505,0.405
5.784,0.665,0.560
5.786,0.845,0.710
5.788,1.115,0.850
5.790,1.285,0.975
5.792,1.405,1.075
5.794,1.570,1.140
5.796,1.470,1.170
5.798,1.245,1.160
5.800,1.125,1.115
5.802,1.160,1.030
5.804,1.070,0.910
5.806,1.035,0.765
5.808,0.860,0.600
5.810,0.615,0.435
5.812,0.515,0.270
5.814,0.310,0.125
5.816,0.175,0.000
5.818,0.060,-0.085
5.820,-0.050,-0.145
5.822,-0.040,-0.170
5.824,-0.060,-0.170
5.826,0.000,-0.155
5.828,0.045,-0.135
5.830,0.185,-0.110
5.832,0.280,-0.090
5.834,0.330,-0.080
5.836,0.160,-0.080
5.838,0.115,-0.080
5.840,-0.010,-0.085
5.842,0.010,-0.085
5.844,0.045,-0.085
5.846,0.120,-0.085
5.848,0.125,-0.080
5.850,0.250,-0.080
5.852,0.305,-0.085
5.854,0.285,-0.095
5.856,0.150,-0.105
5.858,0.105,-0.115
5.860,-0.110,-0.120
5.862,-0.090,-0.120
5.864,-0.060,-0.115
5.866,0.150,-0.105
5.868,0.225,-0.085
5.870,0.365,-0.065
5.872,0.295,-0.045
5.874,0.285,-0.025
5.876,0.270,-0.020
5.878,0.175,-0.020
5.880,0.040,-0.030
5.882,0.055,-0.040
5.884,0.090,-0.060
5.886,0.180,-0.070
5.888,0.220,-0.080
5.890,0.295,-0.085
5.892,0.310,-0.085
5.894,0.195,-0.075
5.896,0.090,-0.065
5.898,0.145,-0.050
5.900,0.140,-0.035
5.902,0.070,-0.025
5.904,0.175,-0.020
5.906,0.245,-0.020
5.908,0.285,-0.020
5.910,0.335,-0.025
5.912,0.345,-0.035
5.914,0.280,-0.045
5.916,0.195,-0.055
5.918,0.130,-0.065
5.920,0.025,-0.070
5.922,0.050,-0.075
5.924,0.115,-0.080
5.926,0.210,-0.080
5.928,0.280,-0.080
5.930,0.345,-0.075
5.932,0.320,-0.065
5.934,0.255,-0.060
5.936,0.185,-0.050
5.938,0.070,-0.040
5.940,0.140,-0.035
5.942,0.150,-0.025
5.944,0.220,-0.020
5.946,0.240,-0.010
5.948,0.335,-0.005
5.950,0.415,0.000
5.952,0.385,0.005
5.954,0.375,0.010
5.956,0.270,0.010
5.958,0.225,0.010
5.960,0.135,0.010
5.962,0.090,0.005
5.964,0.200,0.000
5.966,0.280,-0.010
5.968,0.350,-0.015
5.970,0.415,-0.015
5.972,0.380,-0.015
5.974,0.285,-0.010
5.976,0.270,0.000
5.978,0.275,0.015
5.980,0.180,0.025
5.982,0.215,0.040
5.984,0.235,0.050
5.986,0.360,0.055
5.988,0.445,0.060
5.990,0.475,0.060
5.992,0.495,0.055
5.994,0.425,0.055
5.996,0.295,0.055
5.998,0.280,0.055
6.000,0.230,0.055
6.002,0.145,0.060
6.004,0.195,0.065
6.006,0.385,0.070
6.008,0.515,0.080
6.010,0.655,0.085
6.012,0.535,0.095
6.014,0.455,0.110
6.016,0.420,0.120
6.018,0.325,0.130
6.020,0.255,0.145
6.022,0.285,0.150
6.024,0.445,0.155
6.026,0.460,0.155
6.028,0.610,0.150
6.030,0.665,0.145
6.032,0.535,0.135
6.034,0.495,0.125
6.036,0.445,0.120
6.038,0.260,0.120
6.040,0.270,0.120
6.042,0.285,0.130
6.044,0.445,0.145
6.046,0.575,0.160
6.048,0.695,0.175
6.050,0.660,0.190
6.052,0.580,0.200
6.054,0.570,0.205
6.056,0.515,0.200
6.058,0.370,0.195
6.060,0.305,0.185
6.062,0.370,0.165
6.064,0.440,0.150
6.066,0.485,0.125
6.068,0.545,0.105
6.070,0.575,0.085
6.072,0.535,0.070
6.074,0.345,0.060
6.076,0.290,0.050
6.078,0.190,0.045
6.080,0.285,0.045
6.082,0.305,0.045
6.084,0.370,0.040
6.086,0.440,0.040
6.088,0.445,0.035
6.090,0.410,0.030
6.092,0.450,0.015
6.094,0.350,0.005
6.096,0.280,-0.010
6.098,0.270,-0.025
6.100,0.200,-0.035
6.102,0.175,-0.045
6.104,0.235,-0.050
6.106,0.335,-0.055
6.108,0.445,-0.055
6.110,0.440,-0.055
6.112,0.375,-0.050
6.114,0.340,-0.045
6.116,0.200,-0.040
6.118,0.205,-0.030
6.120,0.240,-0.025
6.122,0.230,-0.025
6.124,0.355,-0.020
6.126,0.375,-0.025
6.128,0.430,-0.030
6.130,0.440,-0.040
6.132,0.420,-0.055
6.134,0.370,-0.065
6.136,0.310,-0.075
6.138,0.155,-0.080
6.140,0.125,-0.080
6.142,0.160,-0.080
6.144,0.215,-0.070
6.146,0.315,-0.065
6.148,0.490,-0.055
6.150,0.490,-0.045
6.152,0.430,-0.040
6.154,0.360,-0.040
6.156,0.315,-0.045
6.158,0.150,-0.055
6.160,0.140,-0.065
6.162,0.220,-0.075
6.164,0.305,-0.085
6.166,0.345,-0.090
6.168,0.440,-0.090
6.170,0.380,-0.090
6.172,0.320,-0.080
6.174,0.355,-0.075
6.176,0.295,-0.065
6.178,0.140,-0.055
6.180,0.140,-0.050
6.182,0.310,-0.045
6.184,0.360,-0.040
6.186,0.355,-0.040
6.188,0.470,-0.045
6.190,0.450,-0.045
6.192,0.465,-0.050
6.194,0.300,-0.050
6.196,0.290,-0.050
6.198,0.195,-0.045
6.200,0.170,-0.045
6.202,0.305,-0.040
6.204,0.370,-0.035
6.206,0.345,-0.035
6.208,0.480,-0.040
6.210,0.495,-0.045
6.212,0.430,-0.050
6.214,0.295,-0.060
6.216,0.260,-0.065
6.218,0.170,-0.070
6.220,0.225,-0.070
6.222,0.255,-0.070
6.224,0.340,-0.070
6.226,0.430,-0.065
6.228,0.435,-0.060
6.230,0.525,-0.060
6.232,0.400,-0.060
6.234,0.335,-0.060
6.236,0.225,-0.065
6.238,0.210,-0.065
6.240,0.200,-0.065
6.242,0.295,-0.065
6.244,0.290,-0.065
6.246,0.400,-0.060
6.248,0.600,-0.060
6.250,0.520,-0.055
6.252,0.445,-0.050
6.254,0.255,-0.045
6.256,0.220,-0.040
6.258,0.180,-0.040
6.260,0.275,-0.035
6.262,0.310,-0.035
6.264,0.445,-0.035
6.266,0.560,-0.035
6.268,0.565,-0.035
6.270,0.475,-0.035
6.272,0.370,-0.035
6.274,0.315,-0.035
6.276,0.225,-0.040
6.278,0.165,-0.045
6.280,0.340,-0.050
6.282,0.330,-0.060
6.284,0.390,-0.065
6.286,0.410,-0.075
6.288,0.495,-0.080
6.290,0.415,-0.080
6.292,0.450,-0.070
6.294,0.315,-0.060
6.296,0.270,-0.045
6.298,0.250,-0.030
6.300,0.345,-0.020
6.302,0.345,-0.010
6.304,0.480,-0.010
6.306,0.525,-0.015
6.308,0.550,-0.030
6.310,0.550,-0.050
6.312,0.375,-0.065
6.314,0.310,-0.080
6.316,0.245,-0.085
6.318,0.145,-0.085
6.320,0.110,-0.075
6.322,0.380,-0.055
6.324,0.480,-0.040
6.326,0.560,-0.020
6.328,0.590,-0.010
6.330,0.525,-0.005
6.332,0.440,-0.010
6.334,0.385,-0.015
6.336,0.250,-0.030
6.338,0.250,-0.040
6.340,0.310,-0.050
6.342,0.365,-0.055
6.344,0.420,-0.060
6.346,0.510,-0.060
6.348,0.495,-0.060
6.350,0.540,-0.060
6.352,0.385,-0.060
6.354,0.355,-0.060
6.356,0.205,-0.065
6.358,0.250,-0.065
6.360,0.270,-0.065
6.362,0.400,-0.065
6.364,0.415,-0.060
6.366,0.525,-0.060
6.368,0.505,-0.060
6.370,0.515,-0.060
6.372,0.395,-0.065
6.374,0.335,-0.070
6.376,0.210,-0.075
6.378,0.265,-0.085
6.380,0.315,-0.085
6.382,0.340,-0.085
6.384,0.435,-0.085
6.386,0.475,-0.080
6.388,0.490,-0.075
6.390,0.390,-0.070
6.392,0.465,-0.070
6.394,0.405,-0.070
6.396,0.280,-0.070
6.398,0.295,-0.070
6.400,0.250,-0.070
6.402,0.320,-0.065
6.404,0.470,-0.060
6.406,0.595,-0.050
6.408,0.545,-0.045
6.410,0.470,-0.040
6.412,0.380,-0.040
6.414,0.410,-0.045
6.416,0.260,-0.060
6.418,0.310,-0.075
6.420,0.235,-0.090
6.422,0.355,-0.100
6.424,0.395,-0.105
6.426,0.520,-0.100
6.428,0.515,-0.090
6.430,0.370,-0.075
6.432,0.475,-0.060
6.434,0.405,-0.045
6.436,0.290,-0.040
6.438,0.255,-0.040
6.440,0.310,-0.040
6.442,0.455,-0.050
6.444,0.450,-0.055
6.446,0.545,-0.060
6.448,0.515,-0.060
6.450,0.495,-0.055
6.452,0.505,-0.045
6.454,0.440,-0.035
6.456,0.295,-0.030
6.458,0.315,-0.025
6.460,0.335,-0.025
6.462,0.390,-0.030
6.464,0.435,-0.040
6.466,0.605,-0.045
6.468,0.550,-0.045
6.470,0.450,-0.035
6.472,0.500,-0.025
6.474,0.420,-0.005
6.476,0.340,0.020
6.478,0.395,0.040
6.480,0.510,0.060
6.482,0.560,0.070
6.484,0.590,0.070
6.486,0.660,0.065
6.488,0.640,0.055
6.490,0.550,0.040
6.492,0.450,0.025
6.494,0.505,0.010
6.496,0.330,0.000
6.498,0.365,-0.010
6.500,0.405,-0.015
6.502,0.420,-0.025
6.504,0.495,-0.030
6.506,0.635,-0.035
6.508,0.560,-0.045
6.510,0.475,-0.050
6.512,0.445,-0.055
6.514,0.290,-0.060
6.516,0.285,-0.065
6.518,0.375,-0.065
6.520,0.375,-0.070
6.522,0.335,-0.075
6.524,0.485,-0.085
6.526,0.600,-0.090
6.528,0.480,-0.100
6.530,0.415,-0.110
6.532,0.365,-0.115
6.534,0.220,-0.120
6.536,0.200,-0.115
6.538,0.350,-0.105
6.540,0.370,-0.095
6.542,0.455,-0.085
6.544,0.470,-0.080
6.546,0.535,-0.080
6.548,0.470,-0.080
6.550,0.440,-0.090
6.552,0.450,-0.100
6.554,0.310,-0.105
6.556,0.240,-0.115
6.558,0.255,-0.110
6.560,0.275,-0.105
6.562,0.420,-0.100
6.564,0.470,-0.090
6.566,0.575,-0.090
6.568,0.540,-0.100
6.570,0.415,-0.120
6.572,0.320,-0.150
6.574,0.175,-0.185
6.576,0.080,-0.220
6.578,0.060,-0.250
6.580,0.200,-0.265
6.582,0.265,-0.250
6.584,0.300,-0.210
6.586,0.510,-0.135
6.588,0.525,-0.030
6.590,0.700,0.095
6.592,0.770,0.245
6.594,0.800,0.400
6.596,0.955,0.560
6.598,1.100,0.720
6.600,1.305,0.865
6.602,1.570,0.995
6.604,1.810,1.105
6.606,1.875,1.190
6.608,1.870,1.235
6.610,1.890,1.245
6.612,1.705,1.210
6.614,1.450,1.130
6.616,1.455,1.015
6.618,1.370,0.865
6.620,1.140,0.690
6.622,0.910,0.510
6.624,0.830,0.340
6.626,0.755,0.185
6.628,0.720,0.065
6.630,0.495,-0.025
6.632,0.295,-0.080
6.634,0.185,-0.105
6.636,0.305,-0.115
6.638,0.345,-0.110
6.640,0.405,-0.100
6.642,0.420,-0.095
6.644,0.475,-0.095
6.646,0.510,-0.100
6.648,0.450,-0.100
6.650,0.360,-0.105
6.652,0.420,-0.105
6.654,0.315,-0.105
6.656,0.315,-0.100
6.658,0.350,-0.095
6.660,0.365,-0.095
6.662,0.400,-0.095
6.664,0.565,-0.100
6.666,0.490,-0.110
6.668,0.400,-0.115
6.670,0.415,-0.125
6.672,0.305,-0.130
6.674,0.230,-0.125
6.676,0.315,-0.120
6.678,0.375,-0.110
6.680,0.420,-0.100
6.682,0.400,-0.090
6.684,0.515,-0.090
6.686,0.565,-0.090
6.688,0.490,-0.100
6.690,0.350,-0.105
6.692,0.365,-0.115
6.694,0.255,-0.120
6.696,0.295,-0.120
6.698,0.325,-0.115
6.700,0.315,-0.105
6.702,0.470,-0.100
6.704,0.640,-0.090
6.706,0.505,-0.085
6.708,0.415,-0.090
6.710,0.405,-0.095
6.712,0.410,-0.100
6.714,0.330,-0.110
6.716,0.250,-0.120
6.718,0.295,-0.120
6.720,0.410,-0.120
6.722,0.390,-0.115
6.724,0.505,-0.105
6.726,0.565,-0.095
6.728,0.505,-0.085
6.730,0.370,-0.075
6.732,0.480,-0.070
6.734,0.365,-0.070
6.736,0.275,-0.070
6.738,0.315,-0.075
6.740,0.405,-0.080
6.742,0.395,-0.085
6.744,0.605,-0.085
6.746,0.590,-0.085
6.748,0.535,-0.080
6.750,0.435,-0.075
6.752,0.355,-0.070
6.754,0.290,-0.060
6.756,0.325,-0.055
6.758,0.335,-0.045
6.760,0.420,-0.040
6.762,0.540,-0.035
6.764,0.705,-0.030
6.766,0.705,-0.025
6.768,0.540,-0.025
6.770,0.430,-0.030
6.772,0.375,-0.035
6.774,0.325,-0.045
6.776,0.310,-0.055
6.778,0.315,-0.065
6.780,0.425,-0.075
6.782,0.565,-0.075
6.784,0.660,-0.075
6.786,0.630,-0.065
6.788,0.475,-0.050
6.790,0.425,-0.040
6.792,0.405,-0.025
6.794,0.350,-0.010
6.796,0.275,-0.005
6.798,0.490,0.000
6.800,0.550,0.000
6.802,0.560,0.000
6.804,0.680,0.000
6.806,0.645,0.005
6.808,0.635,0.015
6.810,0.480,0.025
6.812,0.470,0.035
6.814,0.390,0.045
6.816,0.440,0.055
6.818,0.550,0.060
6.820,0.555,0.055
6.822,0.605,0.050
6.824,0.725,0.045
6.826,0.730,0.040
6.828,0.595,0.035
6.830,0.500,0.040
6.832,0.575,0.055
6.834,0.365,0.075
6.836,0.465,0.095
6.838,0.610,0.115
6.840,0.650,0.130
6.842,0.740,0.140
6.844,0.795,0.140
6.846,0.730,0.130
6.848,0.715,0.120
6.850,0.600,0.105
6.852,0.550,0.095
6.854,0.470,0.085
6.856,0.400,0.085
6.858,0.415,0.090
6.860,0.615,0.105
6.862,0.810,0.115
6.864,0.840,0.130
6.866,0.745,0.145
6.868,0.770,0.150
6.870,0.640,0.150
6.872,0.510,0.140
6.874,0.465,0.125
6.876,0.460,0.105
6.878,0.525,0.085
6.880,0.630,0.070
6.882,0.730,0.055
6.884,0.740,0.050
6.886,0.605,0.045
6.888,0.560,0.050
6.890,0.515,0.050
6.892,0.520,0.050
6.894,0.455,0.045
6.896,0.475,0.040
6.898,0.475,0.025
6.900,0.475,0.005
6.902,0.570,-0.015
6.904,0.640,-0.030
6.906,0.535,-0.040
6.908,0.570,-0.045
6.910,0.500,-0.040
6.912,0.385,-0.030
6.914,0.355,-0.020
6.916,0.340,-0.005
6.918,0.465,0.000
6.920,0.515,0.000
6.922,0.590,-0.010
6.924,0.645,-0.025
6.926,0.585,-0.045
6.928,0.510,-0.060
6.930,0.465,-0.075
6.932,0.275,-0.080
6.934,0.300,-0.080
6.936,0.290,-0.070
6.938,0.280,-0.060
6.940,0.485,-0.045
6.942,0.675,-0.035
6.944,0.620,-0.030
6.946,0.590,-0.025
6.948,0.560,-0.030
6.950,0.470,-0.035
6.952,0.320,-0.040
6.954,0.300,-0.045
6.956,0.335,-0.050
6.958,0.375,-0.050
6.960,0.415,-0.045
6.962,0.665,-0.040
6.964,0.630,-0.035
6.966,0.560,-0.035
6.968,0.495,-0.035
6.970,0.470,-0.040
6.972,0.320,-0.050
6.974,0.305,-0.060
6.976,0.345,-0.070
6.978,0.375,-0.080
6.980,0.385,-0.090
6.982,0.570,-0.090
6.984,0.525,-0.085
6.986,0.610,-0.075
6.988,0.455,-0.060
6.990,0.380,-0.040
6.992,0.380,-0.020
6.994,0.430,-0.005
6.996,0.410,0.005
6.998,0.480,0.010
7.000,0.545,0.005
7.002,0.720,-0.010
7.004,0.525,-0.030
7.006,0.515,-0.055
7.008,0.410,-0.075
7.010,0.385,-0.090
7.012,0.295,-0.100
7.014,0.290,-0.095
7.016,0.355,-0.085
7.018,0.460,-0.065
7.020,0.540,-0.045
7.022,0.605,-0.025
7.024,0.615,-0.010
7.026,0.560,-0.005
7.028,0.460,-0.010
7.030,0.485,-0.020
7.032,0.450,-0.040
7.034,0.280,-0.060
7.036,0.245,-0.080
7.038,0.305,-0.090
7.040,0.455,-0.095
7.042,0.625,-0.090
7.044,0.540,-0.080
7.046,0.445,-0.065
7.048,0.525,-0.050
7.050,0.455,-0.040
7.052,0.345,-0.030
7.054,0.330,-0.025
7.056,0.375,-0.025
7.058,0.500,-0.025
7.060,0.505,-0.030
7.062,0.615,-0.035
7.064,0.630,-0.035
7.066,0.540,-0.035
7.068,0.405,-0.040
7.070,0.420,-0.040
7.072,0.325,-0.040
7.074,0.315,-0.045
7.076,0.285,-0.045
7.078,0.455,-0.045
7.080,0.465,-0.045
7.082,0.625,-0.050
7.084,0.605,-0.050
7.086,0.545,-0.050
7.088,0.445,-0.050
7.090,0.365,-0.055
7.092,0.330,-0.060
7.094,0.255,-0.065
7.096,0.280,-0.065
7.098,0.355,-0.060
7.100,0.535,-0.055
7.102,0.625,-0.050
7.104,0.685,-0.035
7.106,0.585,-0.025
7.108,0.470,-0.015
7.110,0.390,-0.015
7.112,0.305,-0.015
7.114,0.280,-0.025
7.116,0.295,-0.045
7.118,0.395,-0.060
7.120,0.505,-0.075
7.122,0.615,-0.085
7.124,0.525,-0.085
7.126,0.555,-0.075
7.128,0.490,-0.060
7.130,0.400,-0.040
7.132,0.335,-0.020
7.134,0.315,-0.005
7.136,0.360,0.000
7.138,0.530,-0.010
7.140,0.600,-0.025
7.142,0.570,-0.045
7.144,0.520,-0.065
7.146,0.475,-0.085
7.148,0.420,-0.090
7.150,0.310,-0.090
7.152,0.275,-0.080
7.154,0.145,-0.060
7.156,0.470,-0.040
7.158,0.525,-0.025
7.160,0.555,-0.015
7.162,0.570,-0.010
7.164,0.545,-0.015
7.166,0.480,-0.020
7.168,0.395,-0.030
7.170,0.375,-0.040
7.172,0.330,-0.040
7.174,0.405,-0.040
7.176,0.405,-0.035
7.178,0.395,-0.030
7.180,0.560,-0.030
7.182,0.560,-0.035
7.184,0.545,-0.045
7.186,0.455,-0.055
7.188,0.365,-0.065
7.190,0.215,-0.070
7.192,0.295,-0.070
7.194,0.365,-0.060
7.196,0.420,-0.045
7.198,0.540,-0.025
7.200,0.585,-0.005
7.202,0.615,0.005
7.204,0.575,0.005
7.206,0.425,-0.005
7.208,0.490,-0.025
7.210,0.305,-0.045
7.212,0.220,-0.070
7.214,0.285,-0.090
7.216,0.370,-0.105
7.218,0.475,-0.105
7.220,0.540,-0.100
7.222,0.565,-0.090
7.224,0.510,-0.080
7.226,0.410,-0.070
7.228,0.320,-0.065
7.230,0.255,-0.065
7.232,0.325,-0.065
7.234,0.380,-0.070
7.236,0.340,-0.070
7.238,0.370,-0.065
7.240,0.560,-0.060
7.242,0.590,-0.045
7.244,0.680,-0.030
7.246,0.520,-0.015
7.248,0.335,-0.005
7.250,0.235,-0.005
7.252,0.325,-0.010
7.254,0.365,-0.020
7.256,0.420,-0.035
7.258,0.440,-0.050
7.260,0.555,-0.060
7.262,0.560,-0.070
7.264,0.525,-0.070
7.266,0.430,-0.065
7.268,0.350,-0.055
7.270,0.285,-0.045
7.272,0.345,-0.035
7.274,0.415,-0.025
7.276,0.415,-0.015
7.278,0.510,-0.015
7.280,0.550,-0.020
7.282,0.535,-0.025
7.284,0.560,-0.035
7.286,0.425,-0.045
7.288,0.385,-0.055
7.290,0.280,-0.065
7.292,0.255,-0.065
7.294,0.240,-0.065
7.296,0.410,-0.060
7.298,0.440,-0.055
7.300,0.570,-0.045
7.302,0.590,-0.040
7.304,0.575,-0.035
7.306,0.485,-0.030
7.308,0.380,-0.030
7.310,0.255,-0.035
7.312,0.275,-0.045
7.314,0.325,-0.050
7.316,0.380,-0.060
7.318,0.370,-0.065
7.320,0.510,-0.065
7.322,0.630,-0.065
7.324,0.600,-0.065
7.326,0.450,-0.055
7.328,0.380,-0.050
7.330,0.190,-0.045
7.332,0.275,-0.040
7.334,0.350,-0.035
7.336,0.355,-0.035
7.338,0.500,-0.035
7.340,0.590,-0.040
7.342,0.615,-0.040
7.344,0.580,-0.040
7.346,0.405,-0.045
7.348,0.360,-0.045
7.350,0.275,-0.045
7.352,0.270,-0.040
7.354,0.315,-0.040
7.356,0.480,-0.035
7.358,0.505,-0.030
7.360,0.550,-0.025
7.362,0.570,-0.020
7.364,0.545,-0.015
7.366,0.495,-0.010
7.368,0.415,-0.010
7.370,0.310,-0.010
7.372,0.320,-0.010
7.374,0.370,-0.010
7.376,0.410,-0.010
7.378,0.525,-0.005
7.380,0.665,0.000
7.382,0.630,0.015
7.384,0.475,0.030
7.386,0.415,0.050
7.388,0.470,0.065
7.390,0.525,0.080
7.392,0.495,0.085
7.394,0.470,0.085
7.396,0.480,0.080
7.398,0.480,0.065
7.400,0.560,0.050
7.402,0.685,0.040
7.404,0.620,0.030
7.406,0.490,0.030
7.408,0.370,0.035
7.410,0.370,0.040
7.412,0.335,0.045
7.414,0.445,0.045
7.416,0.560,0.040
7.418,0.590,0.030
7.420,0.550,0.015
7.422,0.595,-0.005
7.424,0.390,-0.020
7.426,0.415,-0.035
7.428,0.375,-0.045
7.430,0.315,-0.050
7.432,0.270,-0.045
7.434,0.380,-0.040
7.436,0.455,-0.035
7.438,0.415,-0.035
7.440,0.495,-0.040
7.442,0.555,-0.045
7.444,0.475,-0.060
7.446,0.395,-0.075
7.448,0.295,-0.085
7.450,0.200,-0.095
7.452,0.170,-0.105
7.454,0.220,-0.105
7.456,0.190,-0.100
7.458,0.545,-0.090
7.460,0.635,-0.075
7.462,0.540,-0.060
7.464,0.495,-0.045
7.466,0.435,-0.035
7.468,0.300,-0.030
7.470,0.265,-0.030
7.472,0.275,-0.040
7.474,0.330,-0.055
7.476,0.365,-0.075
7.478,0.455,-0.095
7.480,0.535,-0.125
7.482,0.380,-0.150
7.484,0.240,-0.175
7.486,0.270,-0.195
7.488,0.115,-0.200
7.490,0.150,-0.200
7.492,0.130,-0.180
7.494,0.195,-0.145
7.496,0.320,-0.085
7.498,0.555,0.000
7.500,0.715,0.115
7.502,0.840,0.250
7.504,0.880,0.405
7.506,1.105,0.570
7.508,1.100,0.745
7.510,1.175,0.905
7.512,1.365,1.055
7.514,1.650,1.175
7.516,1.810,1.260
7.518,1.945,1.305
7.520,1.920,1.310
7.522,1.800,1.270
7.524,1.640,1.190
7.526,1.595,1.080
7.528,1.265,0.935
7.530,1.120,0.770
7.532,0.845,0.595
7.534,0.720,0.420
7.536,0.665,0.260
7.538,0.715,0.120
7.540,0.535,0.010
7.542,0.390,-0.060
7.544,0.365,-0.100
7.546,0.280,-0.105
7.548,0.155,-0.090
7.550,0.325,-0.060
7.552,0.370,-0.035
7.554,0.375,-0.015
7.556,0.415,-0.005
7.558,0.570,-0.015
7.560,0.485,-0.035
7.562,0.430,-0.055
7.564,0.400,-0.080
7.566,0.365,-0.095
7.568,0.260,-0.100
7.570,0.215,-0.100
7.572,0.270,-0.085
7.574,0.310,-0.075
7.576,0.320,-0.065
7.578,0.440,-0.065
7.580,0.555,-0.070
7.582,0.480,-0.085
7.584,0.375,-0.100
7.586,0.330,-0.120
7.588,0.110,-0.130
7.590,0.160,-0.130
7.592,0.230,-0.125
7.594,0.290,-0.105
7.596,0.405,-0.085
7.598,0.560,-0.060
7.600,0.580,-0.035
7.602,0.485,-0.025
7.604,0.370,-0.020
7.606,0.340,-0.025
7.608,0.215,-0.040
7.610,0.265,-0.055
7.612,0.270,-0.075
7.614,0.340,-0.090
7.616,0.375,-0.100
7.618,0.500,-0.105
7.620,0.420,-0.100
7.622,0.315,-0.085
7.624,0.345,-0.070
7.626,0.385,-0.055
7.628,0.290,-0.045
7.630,0.310,-0.040
7.632,0.325,-0.040
7.634,0.365,-0.050
7.636,0.325,-0.060
7.638,0.465,-0.070
7.640,0.440,-0.075
7.642,0.445,-0.075
7.644,0.400,-0.070
7.646,0.330,-0.060
7.648,0.215,-0.045
7.650,0.280,-0.030
7.652,0.300,-0.020
7.654,0.460,-0.015
7.656,0.445,-0.020
7.658,0.505,-0.035
7.660,0.485,-0.050
7.662,0.385,-0.065
7.664,0.255,-0.080
7.666,0.305,-0.085
7.668,0.260,-0.080
7.670,0.190,-0.065
7.672,0.360,-0.050
7.674,0.465,-0.030
7.676,0.425,-0.015
7.678,0.515,-0.005
7.680,0.505,0.000
7.682,0.570,-0.005
7.684,0.440,-0.015
7.686,0.285,-0.025
7.688,0.200,-0.035
7.690,0.215,-0.040
7.692,0.325,-0.040
7.694,0.435,-0.035
7.696,0.490,-0.025
7.698,0.570,-0.015
7.700,0.555,-0.005
7.702,0.485,0.000
7.704,0.385,0.005
7.706,0.335,0.010
7.708,0.190,0.015
7.710,0.265,0.025
7.712,0.520,0.030
7.714,0.520,0.040
7.716,0.510,0.050
7.718,0.640,0.055
7.720,0.655,0.060
7.722,0.545,0.055
7.724,0.450,0.055
7.726,0.345,0.045
7.728,0.275,0.035
7.730,0.250,0.030
7.732,0.285,0.030
7.734,0.500,0.030
7.736,0.575,0.040
7.738,0.700,0.055
7.740,0.610,0.070
7.742,0.620,0.090
7.744,0.520,0.105
7.746,0.430,0.120
7.748,0.420,0.130
7.750,0.440,0.140
7.752,0.510,0.145
7.754,0.560,0.145
7.756,0.680,0.145
7.758,0.735,0.140
7.760,0.675,0.140
7.762,0.605,0.135
7.764,0.515,0.130
7.766,0.385,0.125
7.768,0.405,0.120
7.770,0.375,0.120
7.772,0.440,0.120
7.774,0.585,0.125
7.776,0.660,0.140
7.778,0.670,0.155
7.780,0.775,0.170
7.782,0.655,0.185
7.784,0.590,0.195
7.786,0.450,0.195
7.788,0.400,0.185
7.790,0.430,0.160
7.792,0.580,0.130
7.794,0.570,0.090
7.796,0.675,0.055
7.798,0.505,0.020
7.800,0.455,0.000
7.802,0.355,-0.015
7.804,0.295,-0.010
7.806,0.245,0.000
7.808,0.475,0.015
7.810,0.375,0.035
7.812,0.400,0.045
7.814,0.440,0.050
7.816,0.545,0.045
7.818,0.605,0.035
7.820,0.510,0.020
7.822,0.445,0.000
7.824,0.385,-0.020
7.826,0.205,-0.030
7.828,0.230,-0.040
7.830,0.295,-0.040
7.832,0.340,-0.040
7.834,0.395,-0.035
7.836,0.500,-0.035
7.838,0.505,-0.035
7.840,0.400,-0.035
7.842,0.370,-0.040
7.844,0.365,-0.040
7.846,0.220,-0.045
7.848,0.280,-0.040
7.850,0.295,-0.040
7.852,0.350,-0.035
7.854,0.350,-0.030
7.856,0.525,-0.030
7.858,0.485,-0.035
7.860,0.475,-0.040
7.862,0.330,-0.050
7.864,0.300,-0.065
7.866,0.160,-0.070
7.868,0.225,-0.080
7.870,0.285,-0.080
7.872,0.430,-0.075
7.874,0.330,-0.070
7.876,0.300,-0.060
7.878,0.510,-0.050
7.880,0.480,-0.040
7.882,0.360,-0.040
7.884,0.340,-0.040
7.886,0.230,-0.040
7.888,0.220,-0.045
7.890,0.220,-0.045
7.892,0.335,-0.050
7.894,0.450,-0.050
7.896,0.485,-0.055
7.898,0.395,-0.055
7.900,0.385,-0.055
7.902,0.315,-0.060
7.904,0.355,-0.060
7.906,0.245,-0.065
7.908,0.180,-0.065
7.910,0.230,-0.065
7.912,0.300,-0.060
7.914,0.390,-0.050
7.916,0.545,-0.040
7.918,0.510,-0.030
7.920,0.445,-0.020
7.922,0.345,-0.010
7.924,0.330,-0.005
7.926,0.250,-0.010
7.928,0.215,-0.015
7.930,0.220,-0.030
7.932,0.325,-0.045
7.934,0.415,-0.060
7.936,0.475,-0.070
7.938,0.505,-0.080
7.940,0.390,-0.085
7.942,0.335,-0.090
7.944,0.275,-0.085
7.946,0.130,-0.080
7.948,0.130,-0.070
7.950,0.130,-0.055
7.952,0.405,-0.045
7.954,0.435,-0.035
7.956,0.475,-0.025
7.958,0.575,-0.020
7.960,0.480,-0.015
7.962,0.330,-0.020
7.964,0.285,-0.025
7.966,0.165,-0.035
7.968,0.155,-0.050
7.970,0.285,-0.060
7.972,0.265,-0.070
7.974,0.330,-0.075
7.976,0.520,-0.080
7.978,0.470,-0.075
7.980,0.345,-0.070
7.982,0.285,-0.060
7.984,0.305,-0.045
7.986,0.200,-0.035
7.988,0.280,-0.025
7.990,0.230,-0.020
7.992,0.330,-0.015
7.994,0.490,-0.015
7.996,0.580,-0.020
7.998,0.475,-0.025
8.000,0.450,-0.030
8.002,0.345,-0.040
8.004,0.200,-0.045
8.006,0.105,-0.050
8.008,0.165,-0.055
8.010,0.230,-0.060
8.012,0.335,-0.065
8.014,0.470,-0.065
8.016,0.490,-0.060
8.018,0.425,-0.055
8.020,0.380,-0.045
8.022,0.385,-0.030
8.024,0.205,-0.020
8.026,0.235,-0.010
8.028,0.225,-0.005
8.030,0.280,-0.005
8.032,0.335,-0.010
8.034,0.440,-0.025
8.036,0.505,-0.040
8.038,0.440,-0.055
8.040,0.365,-0.065
8.042,0.295,-0.075
8.044,0.215,-0.080
8.046,0.170,-0.075
8.048,0.140,-0.065
8.050,0.200,-0.055
8.052,0.405,-0.045
8.054,0.515,-0.035
8.056,0.495,-0.030
8.058,0.430,-0.025
8.060,0.385,-0.025
8.062,0.270,-0.030
8.064,0.165,-0.035
8.066,0.245,-0.040
8.068,0.175,-0.045
8.070,0.285,-0.050
8.072,0.325,-0.055
8.074,0.455,-0.060
8.076,0.440,-0.065
8.078,0.430,-0.065
8.080,0.335,-0.065
8.082,0.230,-0.065
8.084,0.120,-0.065
8.086,0.200,-0.065
8.088,0.160,-0.060
8.090,0.245,-0.060
8.092,0.240,-0.060
8.094,0.565,-0.055
8.096,0.510,-0.055
8.098,0.420,-0.055
8.100,0.305,-0.055
8.102,0.220,-0.055
8.104,0.105,-0.055
8.106,0.175,-0.055
8.108,0.195,-0.055
8.110,0.325,-0.055
8.112,0.365,-0.060
8.114,0.445,-0.060
8.116,0.375,-0.065
8.118,0.345,-0.070
8.120,0.345,-0.075
8.122,0.275,-0.075
8.124,0.160,-0.080
8.126,0.165,-0.075
8.128,0.175,-0.075
8.130,0.240,-0.070
8.132,0.330,-0.060
8.134,0.360,-0.055
8.136,0.375,-0.050
8.138,0.475,-0.050
8.140,0.320,-0.050
8.142,0.335,-0.055
8.144,0.155,-0.060
8.146,0.175,-0.065
8.148,0.200,-0.075
8.150,0.310,-0.080
8.152,0.220,-0.085
8.154,0.380,-0.085
8.156,0.420,-0.085
8.158,0.375,-0.080
8.160,0.255,-0.075
8.162,0.260,-0.070
8.164,0.200,-0.065
8.166,0.145,-0.065
8.168,0.120,-0.065
8.170,0.185,-0.065
8.172,0.280,-0.065
8.174,0.515,-0.060
8.176,0.470,-0.055
8.178,0.370,-0.050
8.180,0.330,-0.040
8.182,0.305,-0.035
8.184,0.265,-0.030
8.186,0.155,-0.025
8.188,0.210,-0.025
8.190,0.265,-0.035
8.192,0.250,-0.045
8.194,0.430,-0.060
8.196,0.445,-0.070
8.198,0.400,-0.085
8.200,0.235,-0.090
8.202,0.185,-0.095
8.204,0.065,-0.090
8.206,0.140,-0.080
8.208,0.265,-0.070
8.210,0.300,-0.055
8.212,0.265,-0.050
8.214,0.420,-0.040
8.216,0.410,-0.040
8.218,0.405,-0.045
8.220,0.345,-0.045
8.222,0.230,-0.050
8.224,0.140,-0.055
8.226,0.085,-0.055
8.228,0.175,-0.050
8.230,0.255,-0.045
8.232,0.325,-0.045
8.234,0.500,-0.045
8.236,0.455,-0.045
8.238,0.365,-0.055
8.240,0.220,-0.065
8.242,0.180,-0.075
8.244,0.160,-0.080
8.246,0.185,-0.085
8.248,0.145,-0.085
8.250,0.190,-0.080
8.252,0.300,-0.070
8.254,0.425,-0.060
8.256,0.505,-0.050
8.258,0.385,-0.040
8.260,0.255,-0.035
8.262,0.275,-0.030
8.264,0.135,-0.030
8.266,0.145,-0.035
8.268,0.220,-0.035
8.270,0.300,-0.040
8.272,0.370,-0.040
8.274,0.410,-0.045
8.276,0.410,-0.045
8.278,0.320,-0.050
8.280,0.300,-0.055
8.282,0.230,-0.060
8.284,0.060,-0.070
8.286,0.105,-0.085
8.288,0.215,-0.090
8.290,0.235,-0.100
8.292,0.315,-0.100
8.294,0.385,-0.095
8.296,0.400,-0.090
8.298,0.275,-0.080
8.300,0.280,-0.065
8.302,0.215,-0.055
8.304,0.130,-0.050
8.306,0.120,-0.045
8.308,0.230,-0.050
8.310,0.285,-0.055
8.312,0.310,-0.060
8.314,0.360,-0.065
8.316,0.240,-0.070
8.318,0.390,-0.070
8.320,0.355,-0.065
8.322,0.200,-0.055
8.324,0.155,-0.045
8.326,0.180,-0.035
8.328,0.215,-0.025
8.330,0.325,-0.020
8.332,0.385,-0.025
8.334,0.405,-0.030
8.336,0.370,-0.035
8.338,0.330,-0.045
8.340,0.275,-0.055
8.342,0.185,-0.060
8.344,0.150,-0.065
8.346,0.195,-0.060
8.348,0.240,-0.055
8.350,0.175,-0.045
8.352,0.420,-0.030
8.354,0.455,-0.020
8.356,0.480,-0.010
8.358,0.345,0.000
8.360,0.275,0.010
8.362,0.190,0.020
8.364,0.190,0.025
8.366,0.230,0.030
8.368,0.370,0.030
8.370,0.430,0.030
8.372,0.500,0.030
8.374,0.455,0.025
8.376,0.395,0.020
8.378,0.310,0.015
8.380,0.145,0.010
8.382,0.180,0.015
8.384,0.265,0.020
8.386,0.395,0.030
8.388,0.370,0.040
8.390,0.375,0.055
8.392,0.445,0.060
8.394,0.535,0.060
8.396,0.430,0.055
8.398,0.365,0.040
8.400,0.320,0.020
8.402,0.180,0.000
8.404,0.185,-0.020
8.406,0.170,-0.040
8.408,0.220,-0.050
8.410,0.270,-0.055
8.412,0.370,-0.055
8.414,0.380,-0.055
8.416,0.320,-0.050
8.418,0.245,-0.050
8.420,0.230,-0.055
8.422,0.145,-0.060
8.424,0.115,-0.070
8.426,0.155,-0.075
8.428,0.245,-0.085
8.430,0.210,-0.090
8.432,0.295,-0.090
8.434,0.385,-0.090
8.436,0.275,-0.090
8.438,0.260,-0.090
8.440,0.230,-0.090
8.442,0.110,-0.095
8.444,0.095,-0.105
8.446,0.065,-0.110
8.448,0.060,-0.120
8.450,0.205,-0.120
8.452,0.330,-0.115
8.454,0.355,-0.110
8.456,0.260,-0.095
8.458,0.265,-0.085
8.460,0.290,-0.075
8.462,0.115,-0.075
8.464,0.010,-0.085
8.466,0.020,-0.105
8.468,0.180,-0.130
8.470,0.185,-0.160
8.472,0.220,-0.185
8.474,0.120,-0.190
8.476,0.200,-0.175
8.478,0.225,-0.135
8.480,0.260,-0.060
8.482,0.210,0.050
8.484,0.325,0.180
8.486,0.550,0.340
8.488,0.820,0.505
8.490,1.010,0.680
8.492,1.245,0.845
8.494,1.435,0.995
8.496,1.620,1.125
8.498,1.595,1.225
8.500,1.650,1.290
8.502,1.540,1.310
8.504,1.445,1.290
8.506,1.355,1.230
8.508,1.420,1.125
8.510,1.390,0.980
8.512,1.260,0.815
8.514,1.035,0.630
8.516,0.705,0.445
8.518,0.500,0.270
8.520,0.390,0.120
8.522,0.195,0.005
8.524,-0.010,-0.075
8.526,0.010,-0.125
8.528,0.130,-0.140
8.530,0.205,-0.135
8.532,0.245,-0.115
8.534,0.365,-0.090
8.536,0.310,-0.070
8.538,0.255,-0.055
8.540,0.230,-0.050
8.542,0.150,-0.055
8.544,0.095,-0.060
8.546,0.050,-0.070
8.548,0.145,-0.080
8.550,0.265,-0.085
8.552,0.310,-0.090
8.554,0.320,-0.095
8.556,0.325,-0.095
8.558,0.220,-0.095
8.560,0.125,-0.095
8.562,-0.025,-0.095
8.564,0.020,-0.090
8.566,0.180,-0.090
8.568,0.225,-0.085
8.570,0.190,-0.085
8.572,0.335,-0.080
8.574,0.330,-0.080
8.576,0.275,-0.075
8.578,0.185,-0.075
8.580,0.160,-0.075
8.582,0.090,-0.075
8.584,0.035,-0.075
8.586,0.120,-0.075
8.588,0.220,-0.075
8.590,0.330,-0.075
8.592,0.340,-0.075
8.594,0.315,-0.080
8.596,0.280,-0.080
8.598,0.165,-0.085
8.600,0.100,-0.090
8.602,0.040,-0.095
8.604,0.060,-0.095
8.606,0.080,-0.095
8.608,0.215,-0.095
8.610,0.285,-0.085
8.612,0.295,-0.080
8.614,0.285,-0.065
8.616,0.310,-0.055
8.618,0.185,-0.050
8.620,0.180,-0.045
8.622,0.100,-0.045
8.624,0.075,-0.050
8.626,0.160,-0.055
8.628,0.275,-0.065
8.630,0.270,-0.075
8.632,0.325,-0.080
8.634,0.310,-0.085
8.636,0.180,-0.090
8.638,0.170,-0.090
8.640,0.090,-0.085
8.642,0.075,-0.080
8.644,0.050,-0.075
8.646,0.155,-0.070
8.648,0.170,-0.065
8.650,0.350,-0.055
8.652,0.430,-0.045
8.654,0.350,-0.035
8.656,0.310,-0.020
8.658,0.255,-0.005
8.660,0.120,0.010
8.662,0.175,0.020
8.664,0.155,0.020
8.666,0.210,0.020
8.668,0.315,0.010
8.670,0.415,-0.005
8.672,0.385,-0.020
8.674,0.320,-0.040
8.676,0.255,-0.050
8.678,0.180,-0.060
8.680,0.080,-0.065
8.682,0.085,-0.060
8.684,0.120,-0.055
8.686,0.195,-0.045
8.688,0.270,-0.035
8.690,0.295,-0.020
8.692,0.385,0.000
8.694,0.370,0.015
8.696,0.255,0.035
8.698,0.370,0.050
8.700,0.210,0.065
8.702,0.225,0.075
8.704,0.230,0.080
8.706,0.280,0.080
8.708,0.375,0.075
8.710,0.460,0.065
8.712,0.460,0.055
8.714,0.330,0.040
8.716,0.345,0.035
8.718,0.315,0.035
8.720,0.155,0.040
8.722,0.190,0.050
8.724,0.240,0.065
8.726,0.285,0.080
8.728,0.355,0.100
8.730,0.475,0.110
8.732,0.530,0.125
8.734,0.505,0.130
8.736,0.430,0.140
8.738,0.385,0.145
8.740,0.275,0.155
8.742,0.245,0.165
8.744,0.330,0.175
8.746,0.370,0.185
8.748,0.450,0.190
8.750,0.610,0.190
8.752,0.580,0.180
8.754,0.545,0.170
8.756,0.400,0.155
8.758,0.305,0.140
8.760,0.260,0.130
8.762,0.255,0.125
8.764,0.310,0.120
8.766,0.275,0.125
8.768,0.500,0.125
8.770,0.580,0.130
8.772,0.520,0.130
8.774,0.455,0.125
8.776,0.370,0.115
8.778,0.250,0.100
8.780,0.110,0.085
8.782,0.120,0.070
8.784,0.360,0.055
8.786,0.350,0.045
8.788,0.325,0.045
8.790,0.395,0.045
8.792,0.455,0.045
8.794,0.325,0.050
8.796,0.285,0.050
8.798,0.285,0.040
8.800,0.190,0.030
8.802,0.135,0.015
8.804,0.110,-0.005
8.806,0.165,-0.025
8.808,0.165,-0.040
8.810,0.310,-0.055
8.812,0.320,-0.060
8.814,0.210,-0.060
8.816,0.310,-0.055
8.818,0.240,-0.045
8.820,0.045,-0.035
8.822,0.100,-0.020
8.824,0.115,-0.010
8.826,0.150,0.000
8.828,0.280,0.010
8.830,0.410,0.015
8.832,0.420,0.020
8.834,0.370,0.020
8.836,0.270,0.020
8.838,0.155,0.010
8.840,0.180,0.000
8.842,0.055,-0.010
8.844,0.105,-0.025
8.846,0.155,-0.035
8.848,0.290,-0.045
8.850,0.360,-0.055
8.852,0.325,-0.065
8.854,0.245,-0.065
8.856,0.190,-0.065
8.858,0.070,-0.060
8.860,0.015,-0.050
8.862,0.055,-0.045
8.864,0.205,-0.035
8.866,0.225,-0.030
8.868,0.330,-0.025
8.870,0.365,-0.020
8.872,0.275,-0.020
8.874,0.260,-0.025
8.876,0.175,-0.030
8.878,0.125,-0.035
8.880,0.065,-0.040
8.882,0.115,-0.040
8.884,0.180,-0.040
8.886,0.195,-0.040
8.888,0.285,-0.035
8.890,0.310,-0.030
8.892,0.325,-0.025
8.894,0.315,-0.020
8.896,0.230,-0.020
8.898,0.075,-0.025
8.900,0.065,-0.030
8.902,0.025,-0.035
8.904,0.150,-0.040
8.906,0.220,-0.040
8.908,0.345,-0.040
8.910,0.320,-0.035
8.912,0.355,-0.025
8.914,0.210,-0.020
8.916,0.215,-0.015
8.918,0.100,-0.010
8.920,0.095,-0.015
8.922,0.130,-0.025
8.924,0.190,-0.035
8.926,0.165,-0.050
8.928,0.250,-0.060
8.930,0.310,-0.065
8.932,0.275,-0.070
8.934,0.235,-0.065
8.936,0.180,-0.055
8.938,0.100,-0.050
8.940,-0.030,-0.040
8.942,0.055,-0.035
8.944,0.215,-0.035
8.946,0.245,-0.035
8.948,0.270,-0.040
8.950,0.330,-0.045
8.952,0.250,-0.050
8.954,0.220,-0.050
8.956,0.195,-0.045
8.958,0.030,-0.040
8.960,0.095,-0.035
8.962,0.165,-0.030
8.964,0.210,-0.030
8.966,0.150,-0.030
8.968,0.225,-0.035
8.970,0.340,-0.040
8.972,0.265,-0.045
8.974,0.275,-0.045
8.976,0.160,-0.040
8.978,0.105,-0.035
8.980,0.115,-0.025
8.982,0.100,-0.015
8.984,0.175,-0.005
8.986,0.205,-0.005
8.988,0.350,-0.005
8.990,0.310,-0.015
8.992,0.300,-0.025
8.994,0.195,-0.035
8.996,0.180,-0.040
8.998,0.035,-0.040
9.000,0.080,-0.035
9.002,0.125,-0.020
9.004,0.250,-0.005
9.006,0.285,0.005
9.008,0.350,0.010
9.010,0.320,0.010
9.012,0.315,0.005
9.014,0.205,-0.010
9.016,0.205,-0.020
9.018,0.070,-0.035
9.020,0.055,-0.040
9.022,0.115,-0.035
9.024,0.135,-0.030
9.026,0.105,-0.020
9.028,0.390,-0.010
9.030,0.370,0.000
9.032,0.360,0.000
9.034,0.270,-0.005
9.036,0.170,-0.015
9.038,0.030,-0.030
9.040,0.040,-0.040
9.042,-0.020,-0.050
9.044,0.150,-0.055
9.046,0.220,-0.055
9.048,0.345,-0.045
9.050,0.310,-0.035
9.052,0.310,-0.030
9.054,0.265,-0.030
9.056,0.205,-0.035
9.058,0.025,-0.045
9.060,-0.035,-0.055
9.062,-0.005,-0.070
9.064,0.130,-0.080
9.066,0.225,-0.080
9.068,0.290,-0.075
9.070,0.340,-0.065
9.072,0.225,-0.045
9.074,0.185,-0.025
9.076,0.210,-0.010
9.078,0.110,0.000
9.080,0.070,0.005
9.082,0.115,0.000
9.084,0.160,-0.015
9.086,0.205,-0.030
9.088,0.300,-0.050
9.090,0.285,-0.060
9.092,0.230,-0.070
9.094,0.165,-0.075
9.096,0.145,-0.070
9.098,0.060,-0.065
9.100,0.025,-0.055
9.102,-0.050,-0.055
9.104,0.125,-0.050
9.106,0.225,-0.055
9.108,0.290,-0.060
9.110,0.350,-0.065
9.112,0.275,-0.065
9.114,0.140,-0.065
9.116,0.085,-0.060
9.118,0.090,-0.050
9.120,-0.025,-0.035
9.122,0.040,-0.025
9.124,0.230,-0.015
9.126,0.300,-0.015
9.128,0.385,-0.015
9.130,0.345,-0.025
9.132,0.245,-0.035
9.134,0.110,-0.050
9.136,0.020,-0.060
9.138,0.010,-0.065
9.140,0.015,-0.070
9.142,0.065,-0.065
9.144,0.150,-0.065
9.146,0.255,-0.060
9.148,0.410,-0.055
9.150,0.365,-0.055
9.152,0.210,-0.055
9.154,0.045,-0.055
9.156,-0.045,-0.050
9.158,0.080,-0.050
9.160,-0.035,-0.045
9.162,0.145,-0.040
9.164,0.250,-0.035
9.166,0.310,-0.035
9.168,0.330,-0.040
9.170,0.250,-0.040
9.172,0.210,-0.050
9.174,0.100,-0.055
9.176,-0.050,-0.060
9.178,-0.020,-0.065
9.180,0.095,-0.060
9.182,0.185,-0.055
9.184,0.215,-0.045
9.186,0.310,-0.035
9.188,0.360,-0.025
9.190,0.290,-0.015
9.192,0.230,-0.015
9.194,0.175,-0.015
9.196,0.055,-0.025
9.198,-0.015,-0.035
9.200,0.050,-0.045
9.202,0.085,-0.055
9.204,0.180,-0.060
9.206,0.315,-0.060
9.208,0.290,-0.060
9.210,0.285,-0.055
9.212,0.195,-0.050
9.214,0.130,-0.045
9.216,0.060,-0.045
9.218,-0.020,-0.045
9.220,0.090,-0.055
9.222,0.080,-0.065
9.224,0.170,-0.075
9.226,0.270,-0.090
9.228,0.275,-0.095
9.230,0.275,-0.100
9.232,0.065,-0.100
9.234,0.055,-0.095
9.236,-0.095,-0.085
9.238,0.060,-0.070
9.240,0.105,-0.050
9.242,0.230,-0.035
9.244,0.185,-0.025
9.246,0.245,-0.015
9.248,0.360,-0.010
9.250,0.310,-0.010
9.252,0.215,-0.010
9.254,0.100,-0.015
9.256,0.040,-0.020
9.258,0.010,-0.030
9.260,0.080,-0.035
9.262,0.170,-0.040
9.264,0.245,-0.040
9.266,0.290,-0.045
9.268,0.240,-0.045
9.270,0.230,-0.045
9.272,0.175,-0.045
9.274,0.105,-0.045
9.276,-0.025,-0.045
9.278,0.075,-0.045
9.280,0.145,-0.045
9.282,0.135,-0.050
9.284,0.200,-0.050
9.286,0.275,-0.050
9.288,0.295,-0.050
9.290,0.160,-0.050
9.292,0.120,-0.045
9.294,0.155,-0.040
9.296,0.180,-0.030
9.298,0.080,-0.025
9.300,0.105,-0.015
9.302,0.180,-0.015
9.304,0.200,-0.015
9.306,0.315,-0.015
9.308,0.265,-0.020
9.310,0.225,-0.030
9.312,0.125,-0.035
9.314,0.150,-0.035
9.316,0.065,-0.030
9.318,0.100,-0.020
9.320,0.090,0.000
9.322,0.225,0.025
9.324,0.260,0.050
9.326,0.440,0.070
9.328,0.430,0.090
9.330,0.390,0.105
9.332,0.275,0.110
9.334,0.280,0.105
9.336,0.160,0.095
9.338,0.140,0.080
9.340,0.200,0.060
9.342,0.295,0.040
9.344,0.205,0.025
9.346,0.350,0.015
9.348,0.410,0.010
9.350,0.315,0.005
9.352,0.175,0.005
9.354,0.035,0.010
9.356,-0.015,0.010
9.358,0.190,0.010
9.360,0.150,0.010
9.362,0.235,0.010
9.364,0.260,0.010
9.366,0.290,0.005
9.368,0.295,0.000
9.370,0.240,-0.005
9.372,0.260,-0.015
9.374,0.105,-0.030
9.376,-0.020,-0.040
9.378,-0.040,-0.055
9.380,0.070,-0.075
9.382,0.125,-0.090
9.384,0.105,-0.100
9.386,0.235,-0.110
9.388,0.255,-0.120
9.390,0.160,-0.120
9.392,0.000,-0.115
9.394,0.035,-0.105
9.396,0.010,-0.090
9.398,0.025,-0.075
9.400,0.035,-0.060
9.402,0.165,-0.050
9.404,0.165,-0.040
9.406,0.340,-0.035
9.408,0.315,-0.030
9.410,0.235,-0.035
9.412,0.125,-0.040
9.414,0.025,-0.050
9.416,-0.105,-0.065
9.418,-0.025,-0.085
9.420,0.075,-0.110
9.422,0.105,-0.135
9.424,0.125,-0.160
9.426,0.220,-0.180
9.428,0.085,-0.195
9.430,0.015,-0.205
9.432,-0.030,-0.195
9.434,-0.115,-0.165
9.436,-0.100,-0.110
9.438,0.000,-0.030
9.440,0.270,0.080
9.442,0.420,0.215
9.444,0.640,0.365
9.446,0.965,0.530
9.448,1.080,0.705
9.450,1.100,0.870
9.452,1.175,1.025
9.454,1.270,1.155
9.456,1.440,1.255
9.458,1.485,1.315
9.460,1.450,1.330
9.462,1.480,1.295
9.464,1.445,1.210
9.466,1.485,1.085
9.468,1.375,0.930
9.470,1.045,0.750
9.472,0.700,0.565
9.474,0.320,0.385
9.476,0.130,0.225
9.478,0.100,0.090
9.480,0.135,-0.010
9.482,0.120,-0.075
9.484,0.110,-0.105
9.486,0.225,-0.120
9.488,0.205,-0.115
9.490,0.155,-0.100
9.492,0.115,-0.090
9.494,0.000,-0.080
9.496,-0.020,-0.075
9.498,-0.010,-0.075
9.500,0.105,-0.080
9.502,0.130,-0.085
9.504,0.185,-0.090
9.506,0.205,-0.095
9.508,0.170,-0.100
9.510,0.140,-0.105
9.512,0.090,-0.110
9.514,-0.050,-0.115
9.516,-0.080,-0.115
9.518,-0.105,-0.115
9.520,0.060,-0.110
9.522,0.075,-0.100
9.524,0.225,-0.090
9.526,0.250,-0.075
9.528,0.210,-0.065
9.530,0.170,-0.050
9.532,0.100,-0.045
9.534,0.005,-0.050
9.536,-0.035,-0.060
9.538,0.040,-0.075
9.540,0.075,-0.090
9.542,0.050,-0.100
9.544,0.150,-0.110
9.546,0.230,-0.110
9.548,0.235,-0.100
9.550,0.170,-0.085
9.552,0.065,-0.060
9.554,-0.055,-0.040
9.556,0.050,-0.025
9.558,0.065,-0.020
9.560,0.090,-0.020
9.562,0.125,-0.035
9.564,0.210,-0.055
9.566,0.235,-0.075
9.568,0.240,-0.095
9.570,0.095,-0.110
9.572,-0.005,-0.120
9.574,-0.065,-0.115
9.576,-0.020,-0.105
9.578,-0.010,-0.085
9.580,0.120,-0.065
9.582,0.175,-0.050
9.584,0.320,-0.035
9.586,0.265,-0.025
9.588,0.170,-0.030
9.590,0.060,-0.035
9.592,0.125,-0.045
9.594,-0.015,-0.060
9.596,0.045,-0.075
9.598,0.075,-0.085
9.600,0.045,-0.090
9.602,0.080,-0.095
9.604,0.165,-0.090
9.606,0.100,-0.075
9.608,0.150,-0.060
9.610,0.280,-0.045
9.612,0.170,-0.025
9.614,0.075,-0.010
9.616,0.080,0.005
9.618,0.050,0.015
9.620,0.135,0.015
9.622,0.235,0.010
9.624,0.350,0.000
9.626,0.250,-0.015
9.628,0.210,-0.025
9.630,0.185,-0.040
9.632,0.110,-0.050
9.634,0.015,-0.050
9.636,-0.005,-0.045
9.638,0.045,-0.040
9.640,0.170,-0.025
9.642,0.160,-0.010
9.644,0.300,0.000
9.646,0.335,0.010
9.648,0.250,0.015
9.650,0.245,0.015
9.652,0.210,0.005
9.654,0.025,0.000
9.656,0.015,-0.005
9.658,0.050,-0.005
9.660,0.160,0.000
9.662,0.320,0.015
9.664,0.355,0.030
9.666,0.265,0.055
9.668,0.275,0.075
9.670,0.330,0.090
9.672,0.230,0.100
9.674,0.140,0.100
9.676,0.110,0.090
9.678,0.165,0.080
9.680,0.235,0.065
9.682,0.255,0.060
9.684,0.330,0.055
9.686,0.315,0.060
9.688,0.285,0.075
9.690,0.360,0.100
9.692,0.305,0.125
9.694,0.210,0.145
9.696,0.225,0.165
9.698,0.260,0.175
9.700,0.375,0.175
9.702,0.305,0.170
9.704,0.450,0.160
9.706,0.455,0.150
9.708,0.360,0.135
9.710,0.320,0.130
9.712,0.230,0.130
9.714,0.165,0.130
9.716,0.145,0.140
9.718,0.225,0.145
9.720,0.270,0.155
9.722,0.345,0.155
9.724,0.380,0.155
9.726,0.530,0.150
9.728,0.435,0.140
9.730,0.335,0.125
9.732,0.145,0.110
9.734,0.030,0.100
9.736,0.115,0.085
9.738,0.145,0.070
9.740,0.170,0.060
9.742,0.270,0.045
9.744,0.460,0.030
9.746,0.355,0.015
9.748,0.210,0.000
9.750,0.140,-0.010
9.752,0.010,-0.025
9.754,-0.050,-0.030
9.756,-0.010,-0.035
9.758,0.125,-0.035
9.760,0.125,-0.035
9.762,0.170,-0.035
9.764,0.300,-0.035
9.766,0.295,-0.035
9.768,0.200,-0.040
9.770,0.060,-0.050
9.772,-0.015,-0.060
9.774,-0.050,-0.065
9.776,-0.020,-0.070
9.778,0.060,-0.075
9.780,0.155,-0.070
9.782,0.185,-0.065
9.784,0.250,-0.060
9.786,0.215,-0.050
9.788,0.125,-0.045
9.790,0.065,-0.045
9.792,-0.005,-0.050
9.794,-0.030,-0.055
9.796,-0.030,-0.060
9.798,-0.065,-0.070
9.800,0.105,-0.075
9.802,0.240,-0.080
9.804,0.270,-0.080
9.806,0.205,-0.075
9.808,0.145,-0.070
9.810,0.100,-0.065
9.812,-0.080,-0.060
9.814,-0.090,-0.060
9.816,-0.010,-0.060
9.818,0.035,-0.060
9.820,0.160,-0.060
9.822,0.265,-0.060
9.824,0.310,-0.055
9.826,0.215,-0.055
9.828,0.115,-0.055
9.830,0.075,-0.055
9.832,-0.115,-0.060
9.834,-0.125,-0.065
9.836,-0.005,-0.080
9.838,0.095,-0.090
9.840,0.065,-0.100
9.842,0.160,-0.110
9.844,0.235,-0.110
9.846,0.210,-0.110
9.848,0.125,-0.100
9.850,0.035,-0.090
9.852,-0.140,-0.075
9.854,-0.065,-0.060
9.856,0.015,-0.050
9.858,0.100,-0.045
9.860,0.155,-0.040
9.862,0.275,-0.045
9.864,0.235,-0.050
9.866,0.190,-0.060
9.868,0.065,-0.070
9.870,0.080,-0.080
9.872,-0.140,-0.085
9.874,-0.220,-0.090
9.876,-0.060,-0.095
9.878,0.165,-0.095
9.880,0.120,-0.095
9.882,0.220,-0.090
9.884,0.235,-0.080
9.886,0.195,-0.070
9.888,0.040,-0.060
9.890,-0.005,-0.050
9.892,-0.005,-0.040
9.894,-0.040,-0.035
9.896,0.005,-0.035
9.898,0.090,-0.035
9.900,0.120,-0.040
9.902,0.255,-0.050
9.904,0.235,-0.055
9.906,0.170,-0.060
9.908,0.105,-0.060
9.910,0.045,-0.060
9.912,-0.090,-0.060
9.914,-0.030,-0.055
9.916,0.030,-0.055
9.918,0.070,-0.055
9.920,0.190,-0.055
9.922,0.215,-0.060
9.924,0.125,-0.065
9.926,0.155,-0.065
9.928,0.135,-0.065
9.930,0.045,-0.060
9.932,-0.130,-0.050
9.934,-0.010,-0.040
9.936,0.060,-0.030
9.938,0.165,-0.020
9.940,0.200,-0.015
9.942,0.250,-0.015
9.944,0.220,-0.015
9.946,0.165,-0.025
9.948,0.045,-0.035
9.950,0.015,-0.040
9.952,-0.055,-0.050
9.954,-0.050,-0.055
9.956,0.050,-0.055
9.958,0.080,-0.055
9.960,0.170,-0.050
9.962,0.300,-0.045
9.964,0.300,-0.040
9.966,0.140,-0.035
9.968,0.010,-0.035
9.970,0.015,-0.030
9.972,-0.050,-0.035
9.974,-0.030,-0.035
9.976,0.015,-0.040
9.978,0.125,-0.050
9.980,0.150,-0.055
9.982,0.275,-0.065
9.984,0.280,-0.070
9.986,0.125,-0.070
9.988,0.020,-0.070
9.990,-0.040,-0.065
9.992,-0.090,-0.060
9.994,0.000,-0.055
9.996,0.025,-0.050
9.998,0.105,-0.045
