'Elapsed time','ECG I','ECG I filtered'
'seconds','mV','mV'
0.000,-0.065,-0.115
0.002,-0.060,-0.060
0.004,0.090,-0.020
0.006,0.150,0.015
0.008,0.125,0.035
0.010,0.090,0.040
0.012,0.045,0.030
0.014,0.045,0.020
0.016,0.005,0.005
0.018,-0.035,-0.005
0.020,0.010,-0.010
0.022,0.075,-0.010
0.024,0.130,0.000
0.026,0.165,0.010
0.028,0.140,0.020
0.030,0.080,0.025
0.032,0.035,0.025
0.034,-0.015,0.025
0.036,-0.035,0.015
0.038,0.020,0.005
0.040,-0.005,0.000
0.042,0.040,-0.005
0.044,0.130,-0.005
0.046,0.145,-0.005
0.048,0.150,0.000
0.050,0.040,0.005
0.052,0.035,0.005
0.054,0.005,0.000
0.056,-0.050,0.000
0.058,0.015,-0.005
0.060,0.005,-0.010
0.062,0.055,-0.010
0.064,0.110,-0.005
0.066,0.165,0.005
0.068,0.080,0.025
0.070,0.135,0.045
0.072,0.210,0.070
0.074,0.035,0.090
0.076,0.080,0.105
0.078,0.085,0.110
0.080,0.105,0.105
0.082,0.115,0.100
0.084,0.145,0.085
0.086,0.215,0.070
0.088,0.170,0.055
0.090,0.135,0.050
0.092,0.080,0.045
0.094,0.005,0.050
0.096,0.040,0.055
0.098,0.040,0.070
0.100,0.045,0.080
0.102,0.050,0.095
0.104,0.255,0.105
0.106,0.335,0.115
0.108,0.260,0.120
0.110,0.210,0.130
0.112,0.180,0.135
0.114,0.050,0.145
0.116,0.135,0.155
0.118,0.135,0.165
0.120,0.225,0.170
0.122,0.255,0.180
0.124,0.230,0.180
0.126,0.275,0.180
0.128,0.335,0.180
0.130,0.360,0.180
0.132,0.180,0.180
0.134,0.190,0.180
0.136,0.205,0.190
0.138,0.205,0.205
0.140,0.235,0.220
0.142,0.280,0.235
0.144,0.315,0.250
0.146,0.330,0.255
0.148,0.435,0.260
0.150,0.380,0.260
0.152,0.275,0.250
0.154,0.175,0.240
0.156,0.170,0.230
0.158,0.255,0.220
0.160,0.205,0.220
0.162,0.305,0.220
0.164,0.365,0.230
0.166,0.395,0.240
0.168,0.440,0.250
0.170,0.345,0.260
0.172,0.265,0.265
0.174,0.195,0.260
0.176,0.185,0.245
0.178,0.145,0.225
0.180,0.185,0.200
0.182,0.255,0.175
0.184,0.270,0.150
0.186,0.280,0.125
0.188,0.225,0.110
0.190,0.145,0.095
0.192,0.090,0.085
0.194,0.015,0.080
0.196,0.060,0.080
0.198,0.030,0.075
0.200,0.080,0.070
0.202,0.130,0.065
0.204,0.220,0.055
0.206,0.140,0.040
0.208,0.155,0.030
0.210,0.120,0.020
0.212,0.055,0.010
0.214,-0.045,0.005
0.216,-0.115,0.000
0.218,-0.040,-0.005
0.220,0.060,-0.010
0.222,0.080,-0.010
0.224,0.090,-0.015
0.226,0.095,-0.020
0.228,0.045,-0.025
0.230,0.025,-0.030
0.232,-0.065,-0.030
0.234,0.010,-0.035
0.236,-0.050,-0.035
0.238,-0.020,-0.040
0.240,-0.035,-0.040
0.242,0.020,-0.040
0.244,0.075,-0.040
0.246,0.100,-0.045
0.248,0.090,-0.050
0.250,0.030,-0.060
0.252,-0.035,-0.070
0.254,-0.085,-0.075
0.256,-0.095,-0.080
0.258,-0.035,-0.085
0.260,-0.140,-0.085
0.262,-0.090,-0.080
0.264,0.090,-0.075
0.266,0.125,-0.070
0.268,0.055,-0.060
0.270,0.020,-0.055
0.272,-0.030,-0.050
0.274,-0.005,-0.045
0.276,-0.090,-0.045
0.278,-0.075,-0.045
0.280,-0.035,-0.045
0.282,0.005,-0.045
0.284,0.030,-0.045
0.286,0.100,-0.040
0.288,0.105,-0.040
0.290,0.065,-0.035
0.292,-0.005,-0.035
0.294,-0.075,-0.030
0.296,-0.160,-0.030
0.298,-0.150,-0.030
0.300,0.005,-0.035
0.302,0.115,-0.040
0.304,0.090,-0.050
0.306,0.065,-0.060
0.308,0.035,-0.065
0.310,0.005,-0.075
0.312,-0.100,-0.075
0.314,-0.105,-0.075
0.316,-0.175,-0.070
0.318,-0.105,-0.065
0.320,0.025,-0.050
0.322,0.070,-0.040
0.324,0.085,-0.025
0.326,0.135,-0.015
0.328,0.105,-0.010
0.330,0.005,-0.010
0.332,-0.070,-0.010
0.334,-0.045,-0.020
0.336,-0.065,-0.030
0.338,-0.090,-0.040
0.340,-0.025,-0.045
0.342,0.020,-0.055
0.344,0.095,-0.055
0.346,0.045,-0.055
0.348,-0.015,-0.055
0.350,0.035,-0.050
0.352,-0.025,-0.045
0.354,-0.015,-0.040
0.356,-0.100,-0.030
0.358,-0.185,-0.025
0.360,0.075,-0.020
0.362,0.085,-0.010
0.364,0.110,-0.010
0.366,0.130,-0.005
0.368,0.080,-0.005
0.370,0.020,-0.010
0.372,-0.035,-0.020
0.374,-0.055,-0.035
0.376,-0.015,-0.050
0.378,-0.035,-0.070
0.380,-0.095,-0.080
0.382,-0.040,-0.090
0.384,0.050,-0.095
0.386,-0.065,-0.095
0.388,-0.030,-0.085
0.390,0.050,-0.075
0.392,0.010,-0.065
0.394,0.005,-0.055
0.396,-0.095,-0.050
0.398,-0.120,-0.055
0.400,-0.050,-0.060
0.402,-0.040,-0.065
0.404,0.010,-0.075
0.406,0.065,-0.075
0.408,0.060,-0.075
0.410,-0.015,-0.075
0.412,-0.085,-0.065
0.414,-0.130,-0.060
0.416,-0.055,-0.055
0.418,-0.065,-0.055
0.420,-0.065,-0.055
0.422,0.040,-0.060
0.424,0.070,-0.070
0.426,0.010,-0.070
0.428,0.005,-0.075
0.430,-0.110,-0.070
0.432,-0.025,-0.060
0.434,-0.035,-0.050
0.436,-0.020,-0.040
0.438,-0.010,-0.035
0.440,-0.030,-0.040
0.442,0.050,-0.050
0.444,-0.020,-0.065
0.446,0.035,-0.080
0.448,-0.045,-0.095
0.450,-0.045,-0.110
0.452,-0.185,-0.110
0.454,-0.125,-0.110
0.456,-0.075,-0.100
0.458,-0.025,-0.085
0.460,0.000,-0.075
0.462,0.105,-0.070
0.464,0.090,-0.070
0.466,-0.135,-0.075
0.468,-0.100,-0.080
0.470,-0.030,-0.090
0.472,-0.085,-0.095
0.474,-0.150,-0.100
0.476,-0.140,-0.095
0.478,-0.030,-0.085
0.480,0.095,-0.075
0.482,0.050,-0.065
0.484,0.065,-0.055
0.486,-0.060,-0.055
0.488,-0.040,-0.055
0.490,-0.040,-0.060
0.492,-0.040,-0.070
0.494,-0.095,-0.075
0.496,-0.055,-0.080
0.498,-0.030,-0.085
0.500,0.000,-0.085
0.502,0.030,-0.085
0.504,0.020,-0.085
0.506,0.045,-0.090
0.508,-0.050,-0.090
0.510,-0.150,-0.095
0.512,-0.175,-0.095
0.514,-0.135,-0.095
0.516,-0.045,-0.090
0.518,-0.015,-0.085
0.520,0.025,-0.080
0.522,0.010,-0.070
0.524,-0.035,-0.070
0.526,0.055,-0.070
0.528,-0.060,-0.075
0.530,-0.090,-0.085
0.532,-0.055,-0.095
0.534,-0.205,-0.105
0.536,-0.120,-0.110
0.538,-0.095,-0.110
0.540,0.010,-0.105
0.542,0.005,-0.090
0.544,0.070,-0.075
0.546,0.040,-0.055
0.548,-0.030,-0.045
0.550,-0.130,-0.035
0.552,-0.075,-0.030
0.554,-0.055,-0.035
0.556,-0.045,-0.040
0.558,0.005,-0.055
0.560,0.070,-0.065
0.562,0.045,-0.075
0.564,-0.035,-0.085
0.566,-0.065,-0.090
0.568,-0.015,-0.095
0.570,-0.125,-0.095
0.572,-0.170,-0.095
0.574,-0.145,-0.090
0.576,-0.105,-0.085
0.578,-0.015,-0.080
0.580,0.040,-0.070
0.582,0.075,-0.060
0.584,0.100,-0.055
0.586,0.060,-0.050
0.588,-0.015,-0.050
0.590,-0.085,-0.050
0.592,-0.140,-0.055
0.594,-0.155,-0.065
0.596,-0.095,-0.070
0.598,-0.095,-0.075
0.600,0.025,-0.075
0.602,0.115,-0.070
0.604,0.095,-0.065
0.606,-0.045,-0.050
0.608,0.020,-0.035
0.610,-0.075,-0.025
0.612,-0.045,-0.010
0.614,-0.025,0.000
0.616,-0.050,0.005
0.618,-0.025,0.005
0.620,0.105,0.005
0.622,0.125,0.010
0.624,0.160,0.010
0.626,0.130,0.015
0.628,0.110,0.020
0.630,-0.005,0.025
0.632,-0.075,0.030
0.634,-0.070,0.030
0.636,0.020,0.020
0.638,0.070,0.010
0.640,0.075,-0.005
0.642,0.035,-0.025
0.644,0.020,-0.045
0.646,-0.020,-0.070
0.648,-0.040,-0.085
0.650,-0.125,-0.100
0.652,-0.180,-0.110
0.654,-0.140,-0.110
0.656,-0.080,-0.105
0.658,-0.095,-0.095
0.660,0.005,-0.085
0.662,0.010,-0.075
0.664,-0.015,-0.060
0.666,0.005,-0.055
0.668,0.060,-0.050
0.670,-0.060,-0.050
0.672,-0.120,-0.055
0.674,-0.160,-0.060
0.676,-0.085,-0.065
0.678,-0.080,-0.070
0.680,0.010,-0.070
0.682,0.085,-0.070
0.684,0.090,-0.065
0.686,-0.030,-0.060
0.688,-0.150,-0.060
0.690,-0.035,-0.060
0.692,-0.050,-0.065
0.694,-0.125,-0.070
0.696,-0.165,-0.075
0.698,-0.055,-0.080
0.700,0.030,-0.080
0.702,0.045,-0.080
0.704,0.030,-0.075
0.706,0.015,-0.070
0.708,-0.115,-0.060
0.710,-0.110,-0.060
0.712,-0.055,-0.060
0.714,-0.070,-0.065
0.716,-0.100,-0.075
0.718,-0.105,-0.090
0.720,-0.035,-0.100
0.722,-0.070,-0.105
0.724,-0.050,-0.110
0.726,0.030,-0.105
0.728,0.025,-0.100
0.730,-0.090,-0.095
0.732,-0.135,-0.090
0.734,-0.230,-0.085
0.736,-0.135,-0.090
0.738,-0.010,-0.090
0.740,-0.005,-0.100
0.742,-0.060,-0.105
0.744,-0.080,-0.105
0.746,-0.010,-0.100
0.748,-0.045,-0.090
0.750,-0.140,-0.070
0.752,-0.055,-0.035
0.754,-0.015,0.005
0.756,0.090,0.055
0.758,0.170,0.120
0.760,0.255,0.190
0.762,0.295,0.275
0.764,0.445,0.355
0.766,0.560,0.440
0.768,0.640,0.520
0.770,0.605,0.580
0.772,0.585,0.615
0.774,0.625,0.625
0.776,0.590,0.600
0.778,0.635,0.545
0.780,0.500,0.460
0.782,0.400,0.350
0.784,0.340,0.235
0.786,0.120,0.115
0.788,-0.050,0.015
0.790,-0.160,-0.070
0.792,-0.155,-0.125
0.794,-0.225,-0.155
0.796,-0.225,-0.160
0.798,-0.140,-0.150
0.800,0.005,-0.125
0.802,-0.005,-0.100
0.804,0.050,-0.075
0.806,0.045,-0.060
0.808,-0.100,-0.050
0.810,-0.110,-0.045
0.812,-0.105,-0.050
0.814,-0.075,-0.055
0.816,-0.030,-0.060
0.818,0.060,-0.060
0.820,0.035,-0.065
0.822,0.065,-0.065
0.824,-0.040,-0.065
0.826,-0.135,-0.060
0.828,-0.110,-0.060
0.830,-0.095,-0.055
0.832,-0.060,-0.050
0.834,-0.030,-0.040
0.836,-0.030,-0.030
0.838,0.115,-0.015
0.840,0.085,0.000
0.842,0.015,0.015
0.844,-0.060,0.025
0.846,0.065,0.030
0.848,0.015,0.025
0.850,-0.015,0.020
0.852,0.000,0.010
0.854,-0.030,-0.005
0.856,-0.050,-0.020
0.858,-0.010,-0.030
0.860,0.060,-0.035
0.862,0.085,-0.040
0.864,0.040,-0.035
0.866,-0.020,-0.030
0.868,-0.105,-0.030
0.870,-0.095,-0.025
0.872,-0.130,-0.025
0.874,-0.050,-0.025
0.876,0.030,-0.025
0.878,0.065,-0.025
0.880,0.125,-0.020
0.882,0.060,-0.015
0.884,-0.020,-0.005
0.886,-0.030,0.005
0.888,0.005,0.010
0.890,0.000,0.015
0.892,0.000,0.015
0.894,-0.030,0.010
0.896,-0.085,0.010
0.898,0.055,0.010
0.900,0.130,0.010
0.902,0.180,0.015
0.904,0.075,0.025
0.906,0.070,0.040
0.908,0.055,0.050
0.910,0.000,0.055
0.912,-0.055,0.060
0.914,-0.080,0.055
0.916,0.025,0.045
0.918,0.120,0.030
0.920,0.150,0.015
0.922,0.165,0.005
0.924,0.145,0.000
0.926,-0.030,0.005
0.928,-0.035,0.010
0.930,-0.075,0.020
0.932,-0.085,0.030
0.934,0.040,0.045
0.936,0.100,0.050
0.938,0.170,0.055
0.940,0.220,0.060
0.942,0.175,0.065
0.944,0.175,0.070
0.946,-0.010,0.080
0.948,-0.075,0.095
0.950,0.020,0.110
0.952,0.135,0.125
0.954,0.225,0.140
0.956,0.180,0.150
0.958,0.245,0.160
0.960,0.230,0.165
0.962,0.190,0.165
0.964,0.225,0.165
0.966,0.130,0.165
0.968,0.095,0.170
0.970,0.100,0.180
0.972,0.165,0.190
0.974,0.240,0.205
0.976,0.295,0.215
0.978,0.305,0.230
0.980,0.310,0.235
0.982,0.275,0.235
0.984,0.255,0.235
0.986,0.250,0.230
0.988,0.190,0.220
0.990,0.140,0.215
0.992,0.165,0.215
0.994,0.145,0.215
0.996,0.160,0.225
0.998,0.340,0.235
1.000,0.385,0.245
1.002,0.360,0.255
1.004,0.285,0.260
1.006,0.180,0.260
1.008,0.260,0.255
1.010,0.130,0.240
1.012,0.125,0.220
1.014,0.140,0.205
1.016,0.190,0.185
1.018,0.180,0.170
1.020,0.190,0.160
1.022,0.305,0.155
1.024,0.280,0.155
1.026,0.080,0.155
1.028,0.080,0.155
1.030,0.080,0.150
1.032,0.050,0.140
1.034,0.205,0.125
1.036,0.090,0.105
1.038,0.105,0.080
1.040,0.070,0.055
1.042,0.100,0.035
1.044,0.115,0.025
1.046,0.020,0.020
1.048,-0.005,0.025
1.050,-0.090,0.030
1.052,-0.090,0.040
1.054,0.115,0.040
1.056,0.100,0.035
1.058,0.020,0.020
1.060,0.090,0.005
1.062,0.120,-0.020
1.064,-0.065,-0.040
1.066,-0.080,-0.055
1.068,-0.165,-0.065
1.070,-0.175,-0.060
1.072,-0.050,-0.055
1.074,-0.040,-0.045
1.076,0.015,-0.040
1.078,0.080,-0.035
1.080,0.020,-0.040
1.082,-0.070,-0.050
1.084,-0.055,-0.070
1.086,-0.065,-0.085
1.088,-0.200,-0.100
1.090,-0.140,-0.115
1.092,-0.210,-0.115
1.094,-0.155,-0.115
1.096,0.015,-0.105
1.098,-0.035,-0.095
1.100,-0.035,-0.085
1.102,-0.045,-0.075
1.104,-0.020,-0.070
1.106,-0.020,-0.065
1.108,-0.140,-0.060
1.110,-0.125,-0.055
1.112,-0.075,-0.050
1.114,-0.095,-0.050
1.116,-0.040,-0.050
1.118,0.030,-0.055
1.120,0.065,-0.060
1.122,-0.035,-0.075
1.124,-0.115,-0.085
1.126,-0.115,-0.095
1.128,-0.115,-0.105
1.130,-0.215,-0.100
1.132,-0.145,-0.095
1.134,-0.145,-0.080
1.136,-0.045,-0.065
1.138,0.030,-0.050
1.140,0.085,-0.040
1.142,0.065,-0.035
1.144,0.025,-0.040
1.146,-0.140,-0.055
1.148,-0.260,-0.065
1.150,-0.220,-0.080
1.152,-0.065,-0.085
1.154,-0.115,-0.080
1.156,-0.080,-0.070
1.158,0.045,-0.050
1.160,0.135,-0.030
1.162,0.060,-0.005
1.164,-0.010,0.010
1.166,-0.085,0.020
1.168,-0.055,0.020
1.170,-0.125,0.015
1.172,-0.065,0.000
1.174,0.005,-0.020
1.176,0.085,-0.035
1.178,0.090,-0.045
1.180,-0.035,-0.055
1.182,-0.015,-0.060
1.184,-0.025,-0.055
1.186,-0.160,-0.050
1.188,-0.140,-0.045
1.190,-0.195,-0.035
1.192,-0.075,-0.025
1.194,-0.015,-0.020
1.196,0.115,-0.015
1.198,0.065,-0.015
1.200,0.035,-0.010
1.202,0.055,-0.010
1.204,0.005,-0.015
1.206,-0.140,-0.020
1.208,-0.125,-0.025
1.210,-0.120,-0.030
1.212,-0.100,-0.030
1.214,-0.070,-0.035
1.216,0.030,-0.030
1.218,0.070,-0.025
1.220,0.060,-0.015
1.222,0.070,-0.005
1.224,0.020,0.005
1.226,-0.050,0.010
1.228,-0.100,0.010
1.230,-0.135,0.005
1.232,-0.095,-0.005
1.234,-0.015,-0.020
1.236,0.070,-0.040
1.238,0.030,-0.055
1.240,0.015,-0.070
1.242,-0.055,-0.075
1.244,-0.135,-0.075
1.246,-0.150,-0.065
1.248,-0.160,-0.055
1.250,-0.200,-0.040
1.252,-0.045,-0.030
1.254,0.070,-0.025
1.256,0.035,-0.020
1.258,0.100,-0.020
1.260,0.055,-0.030
1.262,-0.055,-0.035
1.264,-0.100,-0.045
1.266,-0.130,-0.045
1.268,-0.180,-0.045
1.270,-0.185,-0.040
1.272,-0.020,-0.035
1.274,0.070,-0.025
1.276,0.020,-0.020
1.278,0.000,-0.020
1.280,0.080,-0.020
1.282,-0.010,-0.030
1.284,-0.055,-0.045
1.286,-0.095,-0.060
1.288,-0.245,-0.070
1.290,-0.160,-0.080
1.292,-0.080,-0.085
1.294,-0.090,-0.075
1.296,-0.095,-0.065
1.298,0.075,-0.045
1.300,0.090,-0.025
1.302,0.065,-0.010
1.304,-0.040,0.005
1.306,-0.105,0.015
1.308,-0.095,0.010
1.310,-0.100,0.005
1.312,-0.060,-0.010
1.314,-0.060,-0.030
1.316,-0.040,-0.045
1.318,0.025,-0.055
1.320,0.035,-0.060
1.322,0.035,-0.060
1.324,-0.060,-0.055
1.326,-0.170,-0.045
1.328,-0.135,-0.040
1.330,-0.145,-0.030
1.332,-0.145,-0.025
1.334,0.050,-0.025
1.336,0.075,-0.030
1.338,-0.010,-0.040
1.340,-0.090,-0.045
1.342,-0.035,-0.050
1.344,-0.055,-0.055
1.346,-0.030,-0.060
1.348,-0.125,-0.060
1.350,-0.170,-0.055
1.352,-0.170,-0.055
1.354,-0.095,-0.050
1.356,-0.025,-0.045
1.358,0.100,-0.040
1.360,0.020,-0.035
1.362,-0.015,-0.030
1.364,-0.070,-0.025
1.366,-0.145,-0.020
1.368,-0.085,-0.015
1.370,-0.095,-0.015
1.372,-0.115,-0.015
1.374,-0.045,-0.015
1.376,0.030,-0.020
1.378,0.065,-0.030
1.380,-0.015,-0.035
1.382,-0.090,-0.040
1.384,-0.045,-0.045
1.386,-0.085,-0.050
1.388,-0.130,-0.045
1.390,-0.150,-0.045
1.392,-0.105,-0.040
1.394,-0.005,-0.035
1.396,0.000,-0.025
1.398,-0.005,-0.020
1.400,0.040,-0.015
1.402,0.005,-0.015
1.404,-0.025,-0.015
1.406,-0.080,-0.020
1.408,-0.095,-0.025
1.410,-0.145,-0.030
1.412,-0.100,-0.040
1.414,-0.025,-0.050
1.416,-0.015,-0.055
1.418,0.000,-0.060
1.420,-0.035,-0.065
1.422,-0.100,-0.060
1.424,-0.170,-0.060
1.426,-0.215,-0.050
1.428,-0.110,-0.045
1.430,-0.010,-0.040
1.432,-0.085,-0.040
1.434,-0.035,-0.035
1.436,0.040,-0.040
1.438,0.015,-0.040
1.440,-0.005,-0.040
1.442,-0.080,-0.045
1.444,-0.125,-0.045
1.446,-0.105,-0.045
1.448,-0.095,-0.045
1.450,-0.115,-0.040
1.452,-0.085,-0.035
1.454,-0.040,-0.035
1.456,0.040,-0.030
1.458,0.105,-0.020
1.460,0.050,-0.015
1.462,-0.030,-0.005
1.464,-0.125,0.005
1.466,-0.200,0.015
1.468,-0.055,0.020
1.470,-0.060,0.020
1.472,0.005,0.015
1.474,0.055,0.005
1.476,0.025,-0.010
1.478,0.070,-0.025
1.480,-0.045,-0.040
1.482,-0.055,-0.050
1.484,-0.095,-0.060
1.486,-0.090,-0.060
1.488,-0.225,-0.055
1.490,-0.235,-0.050
1.492,-0.045,-0.040
1.494,0.080,-0.030
1.496,0.050,-0.020
1.498,0.020,-0.010
1.500,0.025,-0.005
1.502,0.010,0.005
1.504,-0.065,0.015
1.506,-0.115,0.025
1.508,-0.065,0.030
1.510,-0.080,0.035
1.512,0.080,0.035
1.514,0.135,0.030
1.516,0.035,0.025
1.518,0.085,0.010
1.520,0.030,0.000
1.522,-0.065,-0.010
1.524,-0.130,-0.020
1.526,-0.150,-0.020
1.528,-0.120,-0.015
1.530,-0.045,-0.005
1.532,0.010,0.000
1.534,0.050,0.005
1.536,0.065,0.005
1.538,0.035,0.000
1.540,-0.025,-0.015
1.542,-0.145,-0.035
1.544,-0.180,-0.055
1.546,-0.105,-0.075
1.548,-0.165,-0.090
1.550,-0.180,-0.100
1.552,-0.155,-0.100
1.554,-0.030,-0.095
1.556,0.010,-0.085
1.558,-0.005,-0.070
1.560,-0.050,-0.055
1.562,-0.135,-0.040
1.564,-0.140,-0.030
1.566,-0.165,-0.025
1.568,-0.045,-0.025
1.570,-0.025,-0.025
1.572,-0.065,-0.030
1.574,-0.090,-0.035
1.576,0.030,-0.045
1.578,0.000,-0.055
1.580,-0.090,-0.065
1.582,-0.135,-0.075
1.584,-0.205,-0.085
1.586,-0.185,-0.090
1.588,-0.200,-0.095
1.590,-0.145,-0.095
1.592,-0.100,-0.090
1.594,0.010,-0.080
1.596,0.010,-0.075
1.598,-0.065,-0.070
1.600,-0.145,-0.065
1.602,-0.185,-0.065
1.604,-0.070,-0.070
1.606,-0.150,-0.070
1.608,-0.095,-0.080
1.610,-0.160,-0.085
1.612,-0.110,-0.090
1.614,-0.095,-0.090
1.616,-0.025,-0.095
1.618,-0.010,-0.100
1.620,-0.040,-0.100
1.622,-0.200,-0.105
1.624,-0.270,-0.110
1.626,-0.210,-0.110
1.628,-0.215,-0.110
1.630,-0.130,-0.105
1.632,-0.035,-0.100
1.634,-0.045,-0.085
1.636,-0.100,-0.070
1.638,-0.045,-0.045
1.640,-0.005,-0.020
1.642,0.025,0.010
1.644,0.000,0.045
1.646,-0.015,0.090
1.648,0.025,0.145
1.650,0.135,0.215
1.652,0.300,0.290
1.654,0.400,0.370
1.656,0.570,0.450
1.658,0.635,0.525
1.660,0.640,0.580
1.662,0.525,0.615
1.664,0.570,0.615
1.666,0.545,0.585
1.668,0.400,0.530
1.670,0.295,0.445
1.672,0.360,0.345
1.674,0.325,0.240
1.676,0.205,0.140
1.678,0.015,0.045
1.680,-0.090,-0.030
1.682,-0.140,-0.085
1.684,-0.195,-0.120
1.686,-0.280,-0.140
1.688,-0.355,-0.140
1.690,-0.210,-0.130
1.692,-0.090,-0.105
1.694,0.045,-0.080
1.696,0.090,-0.055
1.698,0.045,-0.025
1.700,-0.010,-0.005
1.702,-0.115,0.010
1.704,-0.105,0.010
1.706,-0.085,0.005
1.708,-0.085,-0.010
1.710,-0.085,-0.030
1.712,-0.125,-0.050
1.714,-0.075,-0.070
1.716,0.055,-0.085
1.718,-0.070,-0.090
1.720,-0.175,-0.085
1.722,-0.125,-0.070
1.724,-0.090,-0.050
1.726,-0.085,-0.030
1.728,-0.055,-0.015
1.730,-0.080,-0.005
1.732,-0.035,-0.005
1.734,-0.005,-0.010
1.736,0.125,-0.020
1.738,-0.040,-0.030
1.740,-0.135,-0.040
1.742,-0.085,-0.045
1.744,-0.130,-0.040
1.746,-0.160,-0.035
1.748,-0.205,-0.025
1.750,-0.050,-0.015
1.752,0.055,-0.010
1.754,0.085,-0.010
1.756,0.040,-0.010
1.758,-0.060,-0.015
1.760,-0.050,-0.025
1.762,-0.100,-0.030
1.764,-0.135,-0.030
1.766,-0.085,-0.030
1.768,-0.095,-0.020
1.770,-0.150,-0.015
1.772,0.000,-0.005
1.774,0.035,0.000
1.776,0.100,0.005
1.778,0.050,0.000
1.780,-0.090,-0.005
1.782,-0.040,-0.010
1.784,-0.150,-0.015
1.786,-0.130,-0.015
1.788,-0.055,-0.015
1.790,-0.065,-0.010
1.792,-0.060,-0.005
1.794,0.090,0.005
1.796,0.060,0.010
1.798,0.000,0.020
1.800,-0.030,0.020
1.802,0.005,0.020
1.804,-0.015,0.020
1.806,-0.160,0.015
1.808,-0.150,0.015
1.810,-0.010,0.010
1.812,0.045,0.010
1.814,0.025,0.010
1.816,0.105,0.015
1.818,0.110,0.025
1.820,-0.010,0.035
1.822,-0.025,0.045
1.824,-0.120,0.060
1.826,-0.030,0.075
1.828,0.050,0.090
1.830,0.030,0.100
1.832,0.180,0.115
1.834,0.150,0.125
1.836,0.145,0.130
1.838,0.110,0.130
1.840,0.105,0.130
1.842,0.045,0.130
1.844,-0.015,0.125
1.846,0.060,0.120
1.848,0.045,0.120
1.850,-0.005,0.120
1.852,0.105,0.125
1.854,0.265,0.135
1.856,0.215,0.145
1.858,0.195,0.160
1.860,0.125,0.175
1.862,0.055,0.190
1.864,0.075,0.200
1.866,0.090,0.210
1.868,0.185,0.220
1.870,0.220,0.225
1.872,0.285,0.225
1.874,0.290,0.230
1.876,0.245,0.230
1.878,0.150,0.235
1.880,0.145,0.235
1.882,0.210,0.240
1.884,0.145,0.245
1.886,0.095,0.245
1.888,0.210,0.250
1.890,0.220,0.255
1.892,0.320,0.260
1.894,0.315,0.260
1.896,0.250,0.255
1.898,0.235,0.255
1.900,0.210,0.250
1.902,0.140,0.240
1.904,0.145,0.235
1.906,0.105,0.230
1.908,0.190,0.220
1.910,0.240,0.215
1.912,0.215,0.210
1.914,0.260,0.200
1.916,0.240,0.190
1.918,0.145,0.180
1.920,0.080,0.165
1.922,0.065,0.145
1.924,0.025,0.130
1.926,0.000,0.110
1.928,-0.115,0.095
1.930,0.115,0.080
1.932,0.155,0.065
1.934,0.070,0.060
1.936,0.030,0.055
1.938,0.005,0.050
1.940,0.065,0.045
1.942,-0.025,0.040
1.944,-0.120,0.035
1.946,-0.080,0.030
1.948,-0.050,0.020
1.950,0.025,0.010
1.952,-0.065,0.000
1.954,0.015,-0.015
1.956,0.080,-0.030
1.958,0.035,-0.040
1.960,-0.115,-0.055
1.962,-0.255,-0.065
1.964,-0.260,-0.075
1.966,-0.215,-0.075
1.968,-0.105,-0.075
1.970,0.005,-0.065
1.972,0.010,-0.055
1.974,0.005,-0.045
1.976,0.015,-0.035
1.978,-0.030,-0.030
1.980,-0.200,-0.030
1.982,-0.170,-0.035
1.984,-0.105,-0.045
1.986,-0.145,-0.065
1.988,-0.155,-0.080
1.990,-0.015,-0.090
1.992,-0.085,-0.095
1.994,-0.140,-0.095
1.996,-0.095,-0.085
1.998,-0.175,-0.070
2.000,-0.075,-0.050
2.002,-0.065,-0.035
2.004,-0.070,-0.030
2.006,-0.150,-0.030
2.008,-0.075,-0.040
2.010,-0.105,-0.055
2.012,-0.105,-0.075
2.014,-0.080,-0.090
2.016,-0.090,-0.100
2.018,-0.045,-0.105
2.020,-0.145,-0.100
2.022,-0.205,-0.085
2.024,-0.240,-0.065
2.026,-0.140,-0.050
2.028,-0.110,-0.035
2.030,-0.080,-0.030
2.032,0.000,-0.025
2.034,0.015,-0.035
2.036,-0.025,-0.045
2.038,-0.085,-0.060
2.040,-0.130,-0.070
2.042,-0.180,-0.075
2.044,-0.245,-0.080
2.046,-0.200,-0.075
2.048,-0.115,-0.065
2.050,0.025,-0.050
2.052,0.005,-0.035
2.054,-0.005,-0.025
2.056,-0.045,-0.015
2.058,-0.045,-0.010
2.060,-0.105,-0.015
2.062,-0.150,-0.020
2.064,-0.145,-0.030
2.066,-0.145,-0.040
2.068,-0.105,-0.050
2.070,-0.050,-0.055
2.072,0.005,-0.065
2.074,0.030,-0.065
2.076,-0.050,-0.065
2.078,-0.150,-0.065
2.080,-0.190,-0.060
2.082,-0.135,-0.060
2.084,-0.165,-0.055
2.086,-0.175,-0.055
2.088,-0.160,-0.050
2.090,-0.120,-0.050
2.092,0.015,-0.050
2.094,0.065,-0.045
2.096,-0.015,-0.045
2.098,-0.070,-0.040
2.100,-0.145,-0.040
2.102,-0.190,-0.035
2.104,-0.145,-0.035
2.106,-0.115,-0.035
2.108,-0.060,-0.035
2.110,-0.080,-0.040
2.112,-0.045,-0.045
2.114,0.015,-0.055
2.116,-0.065,-0.055
2.118,-0.100,-0.055
2.120,-0.085,-0.055
2.122,-0.220,-0.050
2.124,-0.145,-0.045
2.126,-0.095,-0.040
2.128,-0.040,-0.035
2.130,-0.055,-0.035
2.132,-0.005,-0.035
2.134,0.040,-0.035
2.136,-0.050,-0.040
2.138,-0.115,-0.040
2.140,-0.180,-0.045
2.142,-0.175,-0.050
2.144,-0.200,-0.055
2.146,-0.145,-0.055
2.148,-0.035,-0.055
2.150,-0.015,-0.050
2.152,-0.010,-0.050
2.154,-0.030,-0.045
2.156,-0.065,-0.045
2.158,-0.155,-0.045
2.160,-0.155,-0.045
2.162,-0.175,-0.050
2.164,-0.125,-0.060
2.166,-0.160,-0.065
2.168,-0.130,-0.075
2.170,-0.095,-0.085
2.172,-0.055,-0.090
2.174,-0.055,-0.095
2.176,-0.035,-0.095
2.178,-0.135,-0.085
2.180,-0.210,-0.080
2.182,-0.235,-0.070
2.184,-0.280,-0.055
2.186,-0.080,-0.050
2.188,-0.010,-0.040
2.190,0.060,-0.035
2.192,0.055,-0.035
2.194,-0.065,-0.030
2.196,-0.095,-0.030
2.198,-0.055,-0.030
2.200,-0.165,-0.035
2.202,-0.150,-0.035
2.204,-0.170,-0.040
2.206,-0.135,-0.045
2.208,-0.065,-0.055
2.210,-0.050,-0.065
2.212,-0.075,-0.080
2.214,-0.070,-0.090
2.216,-0.100,-0.105
2.218,-0.080,-0.110
2.220,-0.235,-0.110
2.222,-0.245,-0.105
2.224,-0.250,-0.100
2.226,-0.155,-0.085
2.228,-0.040,-0.075
2.230,0.010,-0.060
2.232,-0.010,-0.055
2.234,-0.075,-0.050
2.236,-0.080,-0.050
2.238,-0.150,-0.055
2.240,-0.250,-0.060
2.242,-0.170,-0.065
2.244,-0.090,-0.070
2.246,-0.155,-0.075
2.248,-0.090,-0.075
2.250,-0.100,-0.075
2.252,-0.020,-0.070
2.254,0.045,-0.065
2.256,-0.130,-0.065
2.258,-0.200,-0.070
2.260,-0.170,-0.070
2.262,-0.180,-0.075
2.264,-0.240,-0.085
2.266,-0.190,-0.085
2.268,-0.085,-0.085
2.270,-0.050,-0.080
2.272,-0.005,-0.075
2.274,-0.020,-0.060
2.276,-0.090,-0.050
2.278,-0.105,-0.040
2.280,-0.155,-0.035
2.282,-0.160,-0.035
2.284,-0.175,-0.045
2.286,-0.160,-0.060
2.288,-0.130,-0.080
2.290,-0.105,-0.100
2.292,-0.090,-0.110
2.294,-0.160,-0.115
2.296,-0.180,-0.105
2.298,-0.050,-0.090
2.300,-0.175,-0.065
2.302,-0.205,-0.040
2.304,-0.075,-0.015
2.306,-0.030,0.000
2.308,-0.045,0.000
2.310,-0.050,-0.010
2.312,-0.040,-0.030
2.314,-0.060,-0.060
2.316,-0.125,-0.090
2.318,-0.195,-0.115
2.320,-0.200,-0.125
2.322,-0.385,-0.130
2.324,-0.230,-0.115
2.326,-0.090,-0.100
2.328,-0.025,-0.075
2.330,0.030,-0.055
2.332,0.040,-0.035
2.334,-0.035,-0.025
2.336,-0.100,-0.025
2.338,-0.225,-0.030
2.340,-0.195,-0.035
2.342,-0.155,-0.040
2.344,-0.125,-0.050
2.346,-0.095,-0.050
2.348,-0.045,-0.055
2.350,-0.020,-0.055
2.352,-0.045,-0.060
2.354,-0.100,-0.065
2.356,-0.110,-0.070
2.358,-0.120,-0.080
2.360,-0.195,-0.085
2.362,-0.325,-0.080
2.364,-0.325,-0.075
2.366,-0.020,-0.060
2.368,0.090,-0.040
2.370,0.020,-0.020
2.372,-0.015,0.000
2.374,-0.070,0.010
2.376,-0.035,0.005
2.378,-0.060,-0.005
2.380,-0.120,-0.020
2.382,-0.195,-0.040
2.384,-0.130,-0.060
2.386,-0.195,-0.070
2.388,-0.110,-0.075
2.390,-0.045,-0.070
2.392,0.065,-0.055
2.394,0.005,-0.035
2.396,-0.090,-0.015
2.398,-0.080,0.000
2.400,-0.165,0.015
2.402,-0.210,0.015
2.404,-0.155,0.015
2.406,0.050,0.010
2.408,0.095,0.005
2.410,0.040,0.000
2.412,-0.020,0.000
2.414,-0.020,0.000
2.416,-0.065,0.000
2.418,-0.090,0.000
2.420,-0.120,0.000
2.422,-0.095,0.000
2.424,-0.130,-0.005
2.426,-0.095,-0.010
2.428,0.010,-0.015
2.430,0.010,-0.020
2.432,-0.065,-0.020
2.434,-0.050,-0.020
2.436,-0.055,-0.025
2.438,-0.100,-0.025
2.440,-0.095,-0.025
2.442,-0.115,-0.035
2.444,-0.185,-0.040
2.446,-0.235,-0.055
2.448,-0.055,-0.065
2.450,-0.065,-0.075
2.452,-0.090,-0.085
2.454,-0.075,-0.090
2.456,-0.160,-0.090
2.458,-0.170,-0.090
2.460,-0.185,-0.080
2.462,-0.130,-0.075
2.464,-0.165,-0.065
2.466,-0.155,-0.060
2.468,-0.075,-0.055
2.470,-0.010,-0.050
2.472,-0.040,-0.050
2.474,-0.120,-0.055
2.476,-0.200,-0.060
2.478,-0.135,-0.065
2.480,-0.150,-0.070
2.482,-0.150,-0.075
2.484,-0.255,-0.080
2.486,-0.140,-0.085
2.488,-0.030,-0.090
2.490,-0.045,-0.090
2.492,-0.120,-0.090
2.494,-0.200,-0.090
2.496,-0.240,-0.085
2.498,-0.145,-0.080
2.500,-0.185,-0.070
2.502,-0.145,-0.065
2.504,-0.145,-0.055
2.506,-0.030,-0.050
2.508,-0.100,-0.045
2.510,-0.010,-0.050
2.512,-0.015,-0.055
2.514,-0.090,-0.060
2.516,-0.190,-0.075
2.518,-0.185,-0.085
2.520,-0.235,-0.100
2.522,-0.300,-0.105
2.524,-0.240,-0.115
2.526,-0.105,-0.115
2.528,-0.055,-0.110
2.530,-0.055,-0.105
2.532,-0.105,-0.095
2.534,-0.135,-0.075
2.536,-0.160,-0.055
2.538,-0.195,-0.030
2.540,-0.150,0.005
2.542,-0.085,0.050
2.544,0.050,0.105
2.546,0.230,0.170
2.548,0.350,0.245
2.550,0.360,0.330
2.552,0.455,0.420
2.554,0.425,0.510
2.556,0.435,0.590
2.558,0.620,0.650
2.560,0.625,0.685
2.562,0.585,0.685
2.564,0.560,0.655
2.566,0.565,0.590
2.568,0.560,0.500
2.570,0.425,0.395
2.572,0.270,0.275
2.574,0.005,0.160
2.576,-0.140,0.060
2.578,-0.195,-0.025
2.580,-0.230,-0.085
2.582,-0.255,-0.125
2.584,-0.210,-0.140
2.586,-0.115,-0.140
2.588,-0.105,-0.130
2.590,-0.100,-0.115
2.592,-0.065,-0.095
2.594,-0.055,-0.075
2.596,-0.250,-0.055
2.598,-0.270,-0.040
2.600,-0.105,-0.030
2.602,0.015,-0.020
2.604,-0.075,-0.020
2.606,-0.080,-0.020
2.608,-0.020,-0.030
2.610,-0.075,-0.040
2.612,-0.130,-0.045
2.614,-0.090,-0.055
2.616,-0.120,-0.060
2.618,-0.130,-0.060
2.620,-0.160,-0.050
2.622,-0.190,-0.040
2.624,-0.080,-0.030
2.626,-0.025,-0.020
2.628,-0.040,-0.020
2.630,-0.060,-0.025
2.632,-0.055,-0.035
2.634,-0.040,-0.050
2.636,-0.165,-0.065
2.638,-0.240,-0.085
2.640,-0.205,-0.095
2.642,-0.155,-0.095
2.644,-0.180,-0.090
2.646,-0.130,-0.080
2.648,-0.085,-0.065
2.650,0.000,-0.050
2.652,-0.010,-0.040
2.654,-0.095,-0.030
2.656,-0.095,-0.030
2.658,-0.105,-0.030
2.660,-0.145,-0.035
2.662,-0.165,-0.035
2.664,-0.265,-0.030
2.666,-0.140,-0.015
2.668,0.125,-0.005
2.670,0.080,0.015
2.672,0.035,0.025
2.674,-0.025,0.035
2.676,-0.110,0.035
2.678,-0.120,0.030
2.680,-0.140,0.015
2.682,-0.115,0.000
2.684,-0.060,-0.015
2.686,0.045,-0.025
2.688,0.015,-0.020
2.690,-0.065,-0.010
2.692,-0.050,0.005
2.694,-0.055,0.030
2.696,-0.015,0.050
2.698,-0.025,0.065
2.700,-0.030,0.075
2.702,-0.030,0.070
2.704,0.020,0.060
2.706,-0.010,0.045
2.708,0.010,0.035
2.710,0.030,0.025
2.712,-0.035,0.020
2.714,-0.090,0.025
2.716,-0.135,0.035
2.718,-0.060,0.050
2.720,0.005,0.065
2.722,0.020,0.070
2.724,0.115,0.075
2.726,0.040,0.075
2.728,-0.050,0.065
2.730,-0.035,0.065
2.732,0.095,0.060
2.734,0.055,0.070
2.736,-0.055,0.085
2.738,-0.085,0.105
2.740,-0.015,0.130
2.742,0.115,0.155
2.744,0.185,0.175
2.746,0.185,0.185
2.748,0.150,0.190
2.750,0.190,0.185
2.752,0.205,0.180
2.754,0.075,0.175
2.756,0.015,0.175
2.758,0.035,0.180
2.760,0.020,0.195
2.762,0.060,0.215
2.764,0.275,0.235
2.766,0.295,0.255
2.768,0.340,0.265
2.770,0.295,0.265
2.772,0.250,0.255
2.774,0.080,0.240
2.776,0.020,0.225
2.778,0.020,0.215
2.780,0.130,0.210
2.782,0.100,0.210
2.784,0.220,0.225
2.786,0.290,0.245
2.788,0.360,0.265
2.790,0.280,0.285
2.792,0.260,0.300
2.794,0.225,0.305
2.796,0.190,0.305
2.798,0.110,0.300
2.800,0.135,0.285
2.802,0.205,0.270
2.804,0.250,0.255
2.806,0.250,0.245
2.808,0.235,0.230
2.810,0.220,0.220
2.812,0.130,0.210
2.814,0.075,0.200
2.816,0.010,0.190
2.818,0.035,0.175
2.820,0.030,0.160
2.822,0.070,0.150
2.824,0.135,0.135
2.826,0.115,0.125
2.828,0.125,0.110
2.830,0.125,0.095
2.832,0.050,0.080
2.834,-0.060,0.065
2.836,-0.095,0.045
2.838,-0.075,0.030
2.840,-0.145,0.015
2.842,-0.175,0.000
2.844,-0.095,-0.010
2.846,0.100,-0.015
2.848,0.090,-0.015
2.850,-0.055,-0.010
2.852,-0.130,-0.005
2.854,-0.125,0.000
2.856,-0.125,0.000
2.858,-0.165,0.000
2.860,-0.105,-0.005
2.862,-0.075,-0.010
2.864,-0.025,-0.015
2.866,-0.035,-0.025
2.868,-0.075,-0.030
2.870,-0.085,-0.035
2.872,-0.075,-0.035
2.874,-0.115,-0.035
2.876,-0.165,-0.040
2.878,-0.195,-0.045
2.880,-0.205,-0.045
2.882,-0.160,-0.050
2.884,-0.075,-0.055
2.886,-0.055,-0.055
2.888,0.030,-0.055
2.890,-0.060,-0.055
2.892,-0.120,-0.050
2.894,-0.220,-0.045
2.896,-0.225,-0.040
2.898,-0.165,-0.035
2.900,-0.135,-0.035
2.902,-0.100,-0.040
2.904,-0.025,-0.040
2.906,-0.050,-0.045
2.908,-0.045,-0.045
2.910,-0.055,-0.050
2.912,-0.090,-0.050
2.914,-0.130,-0.045
2.916,-0.145,-0.045
2.918,-0.140,-0.045
2.920,-0.180,-0.045
2.922,-0.070,-0.045
2.924,-0.150,-0.050
2.926,-0.165,-0.055
2.928,-0.015,-0.055
2.930,-0.050,-0.055
2.932,-0.115,-0.055
2.934,-0.215,-0.055
2.936,-0.215,-0.055
2.938,-0.140,-0.055
2.940,-0.155,-0.055
2.942,-0.085,-0.055
2.944,-0.050,-0.055
2.946,-0.075,-0.055
2.948,-0.155,-0.055
2.950,-0.135,-0.050
2.952,-0.095,-0.045
2.954,-0.135,-0.035
2.956,-0.160,-0.025
2.958,-0.085,-0.020
2.960,-0.090,-0.015
2.962,-0.100,-0.015
2.964,-0.095,-0.020
2.966,-0.060,-0.025
2.968,-0.015,-0.030
2.970,-0.140,-0.035
2.972,-0.070,-0.040
2.974,-0.065,-0.035
2.976,-0.130,-0.030
2.978,-0.155,-0.025
2.980,-0.180,-0.020
2.982,-0.100,-0.015
2.984,-0.080,-0.020
2.986,-0.080,-0.030
2.988,-0.040,-0.040
2.990,-0.090,-0.055
2.992,-0.175,-0.065
2.994,-0.100,-0.075
2.996,-0.165,-0.075
2.998,-0.210,-0.070
3.000,-0.220,-0.060
3.002,-0.125,-0.050
3.004,-0.105,-0.040
3.006,-0.030,-0.035
3.008,-0.050,-0.035
3.010,0.040,-0.035
3.012,-0.180,-0.045
3.014,-0.140,-0.050
3.016,-0.135,-0.060
3.018,-0.185,-0.060
3.020,-0.175,-0.060
3.022,-0.180,-0.055
3.024,-0.065,-0.050
3.026,-0.020,-0.045
3.028,-0.085,-0.035
3.030,-0.120,-0.035
3.032,-0.055,-0.035
3.034,-0.110,-0.035
3.036,-0.165,-0.040
3.038,-0.165,-0.045
3.040,-0.115,-0.045
3.042,-0.215,-0.045
3.044,-0.120,-0.045
3.046,0.050,-0.045
3.048,-0.015,-0.045
3.050,-0.050,-0.045
3.052,-0.160,-0.050
3.054,-0.255,-0.055
3.056,-0.255,-0.055
3.058,-0.190,-0.060
3.060,-0.160,-0.060
3.062,0.015,-0.055
3.064,-0.030,-0.045
3.066,-0.065,-0.040
3.068,-0.080,-0.025
3.070,-0.125,-0.020
3.072,-0.095,-0.015
3.074,-0.130,-0.015
3.076,-0.150,-0.020
3.078,-0.110,-0.030
3.080,-0.140,-0.040
3.082,-0.150,-0.055
3.084,-0.085,-0.070
3.086,-0.075,-0.085
3.088,-0.150,-0.090
3.090,-0.125,-0.095
3.092,-0.165,-0.095
3.094,-0.260,-0.090
3.096,-0.250,-0.085
3.098,-0.250,-0.080
3.100,-0.090,-0.075
3.102,-0.025,-0.070
3.104,-0.080,-0.065
3.106,-0.135,-0.065
3.108,-0.065,-0.065
3.110,-0.120,-0.065
3.112,-0.225,-0.065
3.114,-0.175,-0.065
3.116,-0.200,-0.070
3.118,-0.215,-0.075
3.120,-0.155,-0.080
3.122,-0.160,-0.080
3.124,-0.100,-0.085
3.126,-0.020,-0.085
3.128,0.020,-0.080
3.130,-0.155,-0.070
3.132,-0.140,-0.060
3.134,-0.250,-0.050
3.136,-0.245,-0.040
3.138,-0.160,-0.030
3.140,-0.070,-0.025
3.142,0.000,-0.030
3.144,-0.015,-0.035
3.146,-0.035,-0.045
3.148,-0.115,-0.055
3.150,-0.175,-0.065
3.152,-0.205,-0.075
3.154,-0.195,-0.085
3.156,-0.195,-0.085
3.158,-0.160,-0.085
3.160,-0.190,-0.080
3.162,-0.075,-0.075
3.164,-0.030,-0.065
3.166,-0.110,-0.060
3.168,-0.055,-0.055
3.170,-0.110,-0.050
3.172,-0.255,-0.050
3.174,-0.180,-0.050
3.176,-0.145,-0.045
3.178,-0.080,-0.045
3.180,-0.115,-0.050
3.182,-0.140,-0.050
3.184,-0.035,-0.050
3.186,-0.055,-0.050
3.188,-0.060,-0.055
3.190,-0.100,-0.060
3.192,-0.215,-0.060
3.194,-0.235,-0.065
3.196,-0.210,-0.070
3.198,-0.175,-0.075
3.200,-0.160,-0.075
3.202,-0.155,-0.080
3.204,-0.050,-0.085
3.206,-0.025,-0.090
3.208,-0.170,-0.090
3.210,-0.165,-0.090
3.212,-0.175,-0.085
3.214,-0.130,-0.080
3.216,-0.215,-0.070
3.218,-0.200,-0.060
3.220,-0.140,-0.045
3.222,-0.025,-0.035
3.224,0.010,-0.030
3.226,-0.020,-0.025
3.228,-0.060,-0.030
3.230,-0.120,-0.040
3.232,-0.210,-0.050
3.234,-0.280,-0.065
3.236,-0.250,-0.075
3.238,-0.215,-0.085
3.240,-0.140,-0.090
3.242,0.040,-0.085
3.244,-0.040,-0.080
3.246,-0.125,-0.070
3.248,-0.095,-0.060
3.250,-0.130,-0.050
3.252,-0.150,-0.040
3.254,-0.160,-0.035
3.256,-0.240,-0.035
3.258,-0.095,-0.035
3.260,-0.045,-0.035
3.262,-0.030,-0.035
3.264,-0.075,-0.035
3.266,-0.170,-0.035
3.268,-0.100,-0.025
3.270,0.005,-0.020
3.272,-0.135,-0.010
3.274,-0.155,-0.005
3.276,-0.115,0.005
3.278,-0.095,0.010
3.280,0.000,0.010
3.282,0.025,0.010
3.284,-0.055,0.005
3.286,-0.100,-0.005
3.288,-0.100,-0.010
3.290,-0.055,-0.020
3.292,-0.105,-0.030
3.294,-0.125,-0.035
3.296,-0.190,-0.040
3.298,-0.200,-0.040
3.300,-0.115,-0.035
3.302,-0.060,-0.025
3.304,0.030,-0.015
3.306,0.050,-0.005
3.308,-0.020,0.000
3.310,-0.095,0.000
3.312,-0.115,0.000
3.314,-0.170,-0.010
3.316,-0.150,-0.020
3.318,-0.085,-0.035
3.320,-0.170,-0.050
3.322,-0.110,-0.060
3.324,-0.005,-0.070
3.326,-0.020,-0.075
3.328,-0.105,-0.075
3.330,-0.235,-0.070
3.332,-0.205,-0.065
3.334,-0.205,-0.060
3.336,-0.170,-0.055
3.338,-0.165,-0.050
3.340,-0.125,-0.055
3.342,0.040,-0.060
3.344,0.000,-0.065
3.346,-0.180,-0.075
3.348,-0.170,-0.085
3.350,-0.210,-0.090
3.352,-0.180,-0.095
3.354,-0.195,-0.095
3.356,-0.205,-0.095
3.358,-0.170,-0.090
3.360,-0.240,-0.085
3.362,-0.120,-0.080
3.364,0.010,-0.080
3.366,-0.030,-0.075
3.368,-0.065,-0.080
3.370,-0.215,-0.080
3.372,-0.285,-0.085
3.374,-0.240,-0.085
3.376,-0.260,-0.090
3.378,-0.210,-0.090
3.380,-0.030,-0.085
3.382,-0.020,-0.080
3.384,-0.075,-0.075
3.386,-0.075,-0.075
3.388,-0.155,-0.075
3.390,-0.255,-0.080
3.392,-0.225,-0.085
3.394,-0.265,-0.095
3.396,-0.185,-0.100
3.398,-0.165,-0.110
3.400,-0.105,-0.115
3.402,-0.115,-0.115
3.404,-0.165,-0.110
3.406,-0.155,-0.105
3.408,-0.125,-0.095
3.410,-0.095,-0.090
3.412,-0.215,-0.085
3.414,-0.240,-0.080
3.416,-0.305,-0.080
3.418,-0.170,-0.080
3.420,-0.120,-0.080
3.422,-0.095,-0.070
3.424,-0.030,-0.045
3.426,0.010,-0.005
3.428,0.050,0.050
3.430,0.030,0.125
3.432,0.110,0.210
3.434,0.140,0.300
3.436,0.240,0.395
3.438,0.485,0.475
3.440,0.580,0.540
3.442,0.660,0.575
3.444,0.585,0.585
3.446,0.545,0.565
3.448,0.435,0.515
3.450,0.280,0.440
3.452,0.190,0.345
3.454,0.060,0.240
3.456,0.055,0.135
3.458,0.005,0.035
3.460,-0.080,-0.050
3.462,-0.250,-0.115
3.464,-0.245,-0.160
3.466,-0.270,-0.180
3.468,-0.215,-0.185
3.470,-0.190,-0.170
3.472,-0.245,-0.145
3.474,-0.290,-0.115
3.476,-0.200,-0.090
3.478,-0.190,-0.070
3.480,-0.075,-0.060
3.482,-0.010,-0.055
3.484,0.010,-0.050
3.486,-0.055,-0.055
3.488,-0.070,-0.055
3.490,-0.205,-0.055
3.492,-0.275,-0.050
3.494,-0.210,-0.040
3.496,-0.100,-0.030
3.498,-0.060,-0.020
3.500,0.030,-0.015
3.502,0.030,-0.010
3.504,-0.085,-0.015
3.506,-0.100,-0.020
3.508,-0.035,-0.030
3.510,-0.130,-0.040
3.512,-0.160,-0.050
3.514,-0.145,-0.060
3.516,-0.190,-0.065
3.518,-0.125,-0.065
3.520,-0.145,-0.060
3.522,-0.085,-0.050
3.524,0.010,-0.040
3.526,-0.005,-0.030
3.528,-0.065,-0.020
3.530,-0.130,-0.005
3.532,-0.200,0.000
3.534,-0.220,0.005
3.536,-0.105,0.010
3.538,0.015,0.010
3.540,0.030,0.010
3.542,0.045,0.005
3.544,-0.020,0.005
3.546,-0.050,0.000
3.548,-0.030,0.000
3.550,-0.105,0.005
3.552,-0.140,0.005
3.554,-0.090,0.010
3.556,-0.120,0.015
3.558,-0.050,0.015
3.560,0.050,0.015
3.562,0.055,0.015
3.564,0.015,0.015
3.566,-0.015,0.015
3.568,-0.080,0.010
3.570,-0.145,0.010
3.572,-0.115,0.015
3.574,-0.175,0.015
3.576,-0.065,0.020
3.578,0.000,0.025
3.580,0.005,0.030
3.582,0.120,0.035
3.584,0.030,0.040
3.586,0.025,0.040
3.588,-0.005,0.040
3.590,-0.110,0.040
3.592,-0.130,0.040
3.594,-0.065,0.040
3.596,-0.010,0.040
3.598,0.005,0.040
3.600,0.055,0.045
3.602,0.150,0.045
3.604,0.085,0.050
3.606,-0.140,0.055
3.608,-0.055,0.060
3.610,-0.075,0.065
3.612,-0.025,0.075
3.614,0.060,0.080
3.616,0.070,0.090
3.618,0.135,0.100
3.620,0.040,0.110
3.622,0.065,0.115
3.624,0.070,0.120
3.626,0.135,0.130
3.628,0.105,0.135
3.630,0.085,0.140
3.632,0.000,0.145
3.634,0.050,0.150
3.636,0.105,0.155
3.638,0.145,0.165
3.640,0.190,0.170
3.642,0.190,0.180
3.644,0.120,0.190
3.646,0.135,0.200
3.648,0.085,0.210
3.650,0.140,0.220
3.652,0.135,0.225
3.654,0.110,0.230
3.656,0.175,0.235
3.658,0.215,0.235
3.660,0.205,0.235
3.662,0.215,0.235
3.664,0.245,0.235
3.666,0.210,0.235
3.668,0.115,0.235
3.670,0.100,0.240
3.672,0.175,0.245
3.674,0.240,0.250
3.676,0.155,0.255
3.678,0.245,0.255
3.680,0.180,0.255
3.682,0.210,0.255
3.684,0.295,0.250
3.686,0.365,0.240
3.688,0.115,0.235
3.690,0.050,0.225
3.692,0.060,0.215
3.694,0.075,0.205
3.696,0.105,0.195
3.698,0.140,0.185
3.700,0.195,0.175
3.702,0.175,0.160
3.704,0.135,0.145
3.706,0.070,0.130
3.708,0.010,0.120
3.710,-0.055,0.105
3.712,-0.030,0.095
3.714,-0.045,0.085
3.716,-0.015,0.075
3.718,0.110,0.065
3.720,0.065,0.055
3.722,0.040,0.040
3.724,-0.010,0.025
3.726,-0.110,0.005
3.728,-0.105,-0.020
3.730,-0.200,-0.040
3.732,-0.140,-0.055
3.734,-0.065,-0.070
3.736,-0.125,-0.075
3.738,-0.200,-0.075
3.740,-0.080,-0.070
3.742,-0.005,-0.060
3.744,-0.090,-0.050
3.746,-0.075,-0.035
3.748,-0.070,-0.025
3.750,-0.055,-0.020
3.752,-0.185,-0.015
3.754,-0.170,-0.015
3.756,-0.050,-0.020
3.758,-0.015,-0.025
3.760,0.005,-0.030
3.762,-0.015,-0.035
3.764,-0.095,-0.040
3.766,-0.095,-0.040
3.768,-0.115,-0.045
3.770,-0.145,-0.045
3.772,-0.195,-0.045
3.774,-0.185,-0.045
3.776,-0.120,-0.045
3.778,-0.035,-0.045
3.780,-0.020,-0.045
3.782,-0.020,-0.040
3.784,-0.040,-0.040
3.786,-0.095,-0.040
3.788,-0.150,-0.040
3.790,-0.165,-0.045
3.792,-0.210,-0.050
3.794,-0.145,-0.055
3.796,-0.145,-0.060
3.798,-0.025,-0.070
3.800,-0.060,-0.080
3.802,-0.085,-0.085
3.804,-0.045,-0.085
3.806,-0.075,-0.080
3.808,-0.260,-0.075
3.810,-0.330,-0.065
3.812,-0.130,-0.055
3.814,-0.095,-0.045
3.816,-0.025,-0.035
3.818,0.070,-0.030
3.820,0.000,-0.030
3.822,-0.015,-0.035
3.824,-0.050,-0.040
3.826,-0.155,-0.055
3.828,-0.185,-0.065
3.830,-0.190,-0.075
3.832,-0.165,-0.085
3.834,-0.180,-0.085
3.836,-0.140,-0.080
3.838,-0.115,-0.075
3.840,-0.070,-0.060
3.842,0.015,-0.050
3.844,0.055,-0.035
3.846,-0.070,-0.020
3.848,-0.170,-0.010
3.850,-0.215,-0.005
3.852,-0.125,0.000
3.854,-0.075,0.000
3.856,0.025,-0.005
3.858,0.055,-0.010
3.860,0.045,-0.015
3.862,-0.050,-0.025
3.864,-0.135,-0.030
3.866,-0.195,-0.035
3.868,-0.140,-0.035
3.870,-0.135,-0.030
3.872,-0.105,-0.025
3.874,-0.055,-0.020
3.876,-0.055,-0.015
3.878,0.010,-0.010
3.880,0.015,-0.010
3.882,-0.010,-0.015
3.884,-0.085,-0.025
3.886,-0.105,-0.040
3.888,-0.140,-0.060
3.890,-0.225,-0.075
3.892,-0.300,-0.085
3.894,-0.120,-0.090
3.896,-0.025,-0.090
3.898,-0.045,-0.080
3.900,-0.130,-0.070
3.902,-0.100,-0.050
3.904,0.000,-0.035
3.906,-0.050,-0.020
3.908,-0.105,-0.005
3.910,-0.145,-0.005
3.912,-0.160,-0.005
3.914,-0.105,-0.010
3.916,-0.070,-0.020
3.918,-0.030,-0.030
3.920,-0.035,-0.040
3.922,0.025,-0.050
3.924,-0.055,-0.055
3.926,-0.125,-0.055
3.928,-0.190,-0.060
3.930,-0.215,-0.060
3.932,-0.250,-0.060
3.934,-0.135,-0.065
3.936,-0.035,-0.065
3.938,0.000,-0.065
3.940,-0.025,-0.060
3.942,-0.020,-0.055
3.944,-0.055,-0.050
3.946,-0.160,-0.040
3.948,-0.135,-0.035
3.950,-0.120,-0.030
3.952,-0.165,-0.030
3.954,-0.095,-0.035
3.956,-0.080,-0.045
3.958,0.025,-0.060
3.960,-0.020,-0.070
3.962,-0.100,-0.085
3.964,-0.135,-0.095
3.966,-0.170,-0.095
3.968,-0.200,-0.090
3.970,-0.195,-0.075
3.972,-0.115,-0.060
3.974,-0.065,-0.045
3.976,0.050,-0.030
3.978,0.085,-0.020
3.980,-0.010,-0.015
3.982,-0.135,-0.020
3.984,-0.040,-0.030
3.986,-0.185,-0.050
3.988,-0.220,-0.065
3.990,-0.220,-0.080
3.992,-0.150,-0.085
3.994,-0.090,-0.085
3.996,-0.100,-0.075
3.998,-0.075,-0.060
4.000,0.030,-0.040
4.002,0.040,-0.020
4.004,-0.055,-0.010
4.006,-0.165,-0.005
4.008,-0.215,-0.010
4.010,-0.090,-0.030
4.012,-0.035,-0.050
4.014,-0.130,-0.075
4.016,-0.130,-0.100
4.018,-0.075,-0.115
4.020,-0.120,-0.120
4.022,-0.100,-0.115
4.024,-0.150,-0.095
4.026,-0.190,-0.070
4.028,-0.050,-0.040
4.030,-0.080,-0.010
4.032,-0.075,0.005
4.034,-0.090,0.015
4.036,-0.080,0.015
4.038,0.050,0.005
4.040,0.060,-0.010
4.042,-0.035,-0.030
4.044,-0.105,-0.045
4.046,-0.110,-0.055
4.048,-0.175,-0.065
4.050,-0.185,-0.065
4.052,-0.210,-0.060
4.054,-0.090,-0.055
4.056,-0.025,-0.050
4.058,0.010,-0.045
4.060,-0.010,-0.040
4.062,-0.055,-0.040
4.064,-0.150,-0.040
4.066,-0.115,-0.040
4.068,-0.115,-0.040
4.070,-0.075,-0.035
4.072,-0.125,-0.030
4.074,-0.105,-0.025
4.076,0.035,-0.020
4.078,0.020,-0.015
4.080,-0.045,-0.015
4.082,-0.040,-0.020
4.084,-0.100,-0.025
4.086,-0.045,-0.035
4.088,-0.140,-0.040
4.090,-0.185,-0.045
4.092,-0.130,-0.050
4.094,-0.055,-0.050
4.096,-0.055,-0.050
4.098,0.035,-0.045
4.100,-0.065,-0.040
4.102,0.010,-0.035
4.104,-0.025,-0.030
4.106,-0.135,-0.020
4.108,-0.215,-0.015
4.110,-0.140,-0.010
4.112,-0.040,-0.005
4.114,0.075,0.000
4.116,0.060,0.005
4.118,0.025,0.010
4.120,0.035,0.015
4.122,0.015,0.020
4.124,-0.045,0.020
4.126,-0.075,0.025
4.128,-0.100,0.025
4.130,-0.090,0.025
4.132,-0.040,0.020
4.134,0.045,0.010
4.136,0.025,0.000
4.138,0.025,-0.010
4.140,0.030,-0.025
4.142,-0.050,-0.035
4.144,-0.095,-0.045
4.146,-0.200,-0.050
4.148,-0.270,-0.050
4.150,-0.125,-0.045
4.152,-0.025,-0.040
4.154,0.025,-0.030
4.156,-0.005,-0.025
4.158,-0.030,-0.020
4.160,0.005,-0.020
4.162,-0.005,-0.025
4.164,-0.125,-0.035
4.166,-0.160,-0.045
4.168,-0.170,-0.050
4.170,-0.130,-0.055
4.172,-0.075,-0.060
4.174,-0.090,-0.060
4.176,-0.050,-0.055
4.178,-0.015,-0.050
4.180,0.030,-0.045
4.182,0.065,-0.040
4.184,0.035,-0.035
4.186,-0.165,-0.030
4.188,-0.255,-0.025
4.190,-0.275,-0.020
4.192,-0.055,-0.020
4.194,-0.005,-0.015
4.196,0.040,-0.020
4.198,0.045,-0.025
4.200,0.010,-0.030
4.202,-0.070,-0.040
4.204,-0.135,-0.050
4.206,-0.180,-0.055
4.208,-0.160,-0.065
4.210,-0.115,-0.065
4.212,-0.085,-0.060
4.214,-0.045,-0.060
4.216,-0.005,-0.055
4.218,0.035,-0.060
4.220,-0.055,-0.065
4.222,-0.130,-0.080
4.224,-0.200,-0.100
4.226,-0.195,-0.120
4.228,-0.190,-0.135
4.230,-0.300,-0.145
4.232,-0.265,-0.140
4.234,-0.065,-0.125
4.236,0.020,-0.095
4.238,-0.080,-0.055
4.240,0.030,-0.005
4.242,0.105,0.045
4.244,0.010,0.095
4.246,0.055,0.140
4.248,0.070,0.180
4.250,0.140,0.225
4.252,0.195,0.275
4.254,0.320,0.330
4.256,0.520,0.390
4.258,0.590,0.455
4.260,0.585,0.520
4.262,0.565,0.570
4.264,0.570,0.600
4.266,0.490,0.605
4.268,0.430,0.575
4.270,0.495,0.510
4.272,0.445,0.420
4.274,0.295,0.310
4.276,0.220,0.195
4.278,0.075,0.090
4.280,-0.045,0.005
4.282,-0.100,-0.060
4.284,-0.235,-0.100
4.286,-0.195,-0.115
4.288,-0.230,-0.115
4.290,-0.205,-0.105
4.292,-0.180,-0.090
4.294,-0.035,-0.075
4.296,0.070,-0.065
4.298,0.110,-0.050
4.300,-0.035,-0.040
4.302,-0.185,-0.030
4.304,-0.150,-0.015
4.306,-0.035,-0.005
4.308,-0.085,0.005
4.310,-0.005,0.005
4.312,-0.005,0.005
4.314,0.010,-0.005
4.316,0.025,-0.015
4.318,-0.040,-0.030
4.320,-0.115,-0.045
4.322,-0.155,-0.050
4.324,-0.085,-0.050
4.326,-0.035,-0.045
4.328,-0.120,-0.035
4.330,-0.110,-0.025
4.332,-0.015,-0.015
4.334,0.025,-0.010
4.336,0.065,-0.010
4.338,0.085,-0.015
4.340,0.010,-0.025
4.342,-0.105,-0.035
4.344,-0.205,-0.045
4.346,-0.175,-0.055
4.348,-0.175,-0.060
4.350,-0.100,-0.060
4.352,-0.010,-0.060
4.354,0.010,-0.055
4.356,-0.025,-0.050
4.358,0.005,-0.040
4.360,0.080,-0.035
4.362,-0.125,-0.030
4.364,-0.120,-0.020
4.366,-0.140,-0.010
4.368,-0.040,0.000
4.370,-0.030,0.005
4.372,-0.005,0.015
4.374,0.065,0.020
4.376,0.070,0.020
4.378,0.075,0.020
4.380,0.075,0.015
4.382,-0.030,0.015
4.384,-0.095,0.010
4.386,-0.090,0.010
4.388,-0.115,0.010
4.390,-0.020,0.010
4.392,0.005,0.015
4.394,0.035,0.015
4.396,0.125,0.015
4.398,0.020,0.015
4.400,-0.015,0.015
4.402,-0.070,0.010
4.404,-0.020,0.005
4.406,0.005,0.005
4.408,-0.115,0.000
4.410,-0.060,0.000
4.412,-0.035,0.005
4.414,0.060,0.010
4.416,0.100,0.015
4.418,0.070,0.025
4.420,0.085,0.035
4.422,-0.030,0.045
4.424,-0.045,0.060
4.426,0.045,0.075
4.428,0.085,0.090
4.430,0.095,0.105
4.432,0.035,0.115
4.434,0.005,0.125
4.436,0.260,0.125
4.438,0.185,0.125
4.440,0.150,0.120
4.442,0.065,0.110
4.444,-0.015,0.100
4.446,0.030,0.095
4.448,0.005,0.095
4.450,-0.015,0.100
4.452,0.085,0.110
4.454,0.220,0.125
4.456,0.235,0.140
4.458,0.260,0.160
4.460,0.220,0.175
4.462,0.120,0.185
4.464,0.120,0.185
4.466,0.080,0.180
4.468,0.060,0.170
4.470,0.095,0.155
4.472,0.080,0.145
4.474,0.200,0.135
4.476,0.220,0.140
4.478,0.235,0.150
4.480,0.245,0.170
4.482,0.205,0.200
4.484,0.120,0.230
4.486,0.160,0.255
4.488,0.210,0.275
4.490,0.255,0.285
4.492,0.295,0.285
4.494,0.310,0.265
4.496,0.300,0.240
4.498,0.225,0.210
4.500,0.210,0.180
4.502,0.080,0.155
4.504,0.070,0.140
4.506,0.085,0.140
4.508,0.125,0.150
4.510,0.165,0.165
4.512,0.175,0.185
4.514,0.225,0.195
4.516,0.370,0.200
4.518,0.230,0.195
4.520,0.125,0.170
4.522,0.035,0.140
4.524,-0.005,0.100
4.526,-0.035,0.065
4.528,-0.045,0.035
4.530,-0.075,0.015
4.532,0.025,0.005
4.534,0.135,0.010
4.536,0.170,0.015
4.538,0.095,0.025
4.540,0.010,0.035
4.542,-0.010,0.035
4.544,-0.115,0.030
4.546,-0.155,0.015
4.548,-0.100,-0.005
4.550,-0.030,-0.025
4.552,0.090,-0.045
4.554,0.035,-0.055
4.556,-0.045,-0.065
4.558,-0.005,-0.060
4.560,-0.070,-0.060
4.562,-0.195,-0.050
4.564,-0.130,-0.050
4.566,-0.030,-0.050
4.568,-0.160,-0.055
4.570,-0.115,-0.065
4.572,-0.065,-0.075
4.574,0.015,-0.080
4.576,-0.020,-0.085
4.578,-0.025,-0.090
4.580,-0.035,-0.085
4.582,-0.190,-0.080
4.584,-0.140,-0.070
4.586,-0.080,-0.065
4.588,-0.145,-0.065
4.590,-0.140,-0.070
4.592,-0.025,-0.075
4.594,-0.035,-0.080
4.596,-0.010,-0.085
4.598,0.045,-0.085
4.600,-0.115,-0.085
4.602,-0.155,-0.080
4.604,-0.100,-0.075
4.606,-0.120,-0.070
4.608,-0.170,-0.070
4.610,-0.115,-0.070
4.612,-0.030,-0.075
4.614,0.005,-0.080
4.616,-0.030,-0.085
4.618,-0.040,-0.090
4.620,-0.125,-0.095
4.622,-0.115,-0.095
4.624,-0.165,-0.090
4.626,-0.125,-0.080
4.628,-0.145,-0.075
4.630,-0.085,-0.070
4.632,-0.100,-0.070
4.634,0.060,-0.075
4.636,0.010,-0.080
4.638,-0.075,-0.085
4.640,-0.110,-0.090
4.642,-0.155,-0.090
4.644,-0.135,-0.090
4.646,-0.135,-0.080
4.648,-0.145,-0.070
4.650,-0.040,-0.060
4.652,0.050,-0.050
4.654,0.010,-0.045
4.656,0.025,-0.040
4.658,-0.010,-0.040
4.660,-0.080,-0.040
4.662,-0.105,-0.045
4.664,-0.095,-0.045
4.666,-0.120,-0.050
4.668,-0.095,-0.055
4.670,-0.080,-0.055
4.672,-0.060,-0.055
4.674,-0.015,-0.055
4.676,0.090,-0.055
4.678,0.035,-0.050
4.680,-0.105,-0.045
4.682,-0.170,-0.040
4.684,-0.085,-0.035
4.686,-0.120,-0.030
4.688,-0.105,-0.025
4.690,0.065,-0.025
4.692,0.055,-0.025
4.694,-0.040,-0.030
4.696,0.015,-0.040
4.698,-0.015,-0.050
4.700,-0.040,-0.065
4.702,-0.100,-0.075
4.704,-0.190,-0.090
4.706,-0.185,-0.095
4.708,-0.130,-0.100
4.710,-0.075,-0.105
4.712,-0.025,-0.100
4.714,-0.025,-0.095
4.716,-0.075,-0.085
4.718,-0.070,-0.075
4.720,-0.075,-0.065
4.722,-0.055,-0.050
4.724,-0.075,-0.045
4.726,-0.095,-0.035
4.728,-0.035,-0.030
4.730,0.010,-0.030
4.732,-0.040,-0.030
4.734,-0.030,-0.035
4.736,0.055,-0.040
4.738,0.015,-0.050
4.740,-0.105,-0.055
4.742,-0.110,-0.060
4.744,-0.175,-0.065
4.746,-0.065,-0.070
4.748,-0.090,-0.070
4.750,-0.075,-0.070
4.752,-0.025,-0.065
4.754,-0.035,-0.060
4.756,0.010,-0.055
4.758,0.035,-0.050
4.760,-0.005,-0.045
4.762,-0.120,-0.045
4.764,-0.185,-0.045
4.766,-0.115,-0.050
4.768,-0.115,-0.055
4.770,-0.015,-0.060
4.772,0.010,-0.070
4.774,0.015,-0.080
4.776,0.015,-0.085
4.778,-0.080,-0.085
4.780,-0.150,-0.090
4.782,-0.275,-0.085
4.784,-0.160,-0.080
4.786,-0.025,-0.075
4.788,-0.025,-0.070
4.790,0.020,-0.065
4.792,-0.075,-0.060
4.794,-0.005,-0.060
4.796,0.030,-0.060
4.798,0.045,-0.060
4.800,-0.095,-0.060
4.802,-0.175,-0.060
4.804,-0.095,-0.060
4.806,-0.155,-0.065
4.808,-0.140,-0.065
4.810,-0.005,-0.070
4.812,0.000,-0.070
4.814,0.030,-0.070
4.816,-0.045,-0.065
4.818,-0.065,-0.060
4.820,-0.060,-0.050
4.822,-0.005,-0.040
4.824,-0.065,-0.035
4.826,-0.090,-0.030
4.828,-0.115,-0.035
4.830,-0.025,-0.045
4.832,-0.010,-0.060
4.834,-0.035,-0.075
4.836,-0.105,-0.090
4.838,0.000,-0.095
4.840,-0.090,-0.095
4.842,-0.150,-0.080
4.844,-0.135,-0.060
4.846,-0.035,-0.035
4.848,-0.040,-0.010
4.850,0.085,0.005
4.852,0.070,0.015
4.854,0.045,0.010
4.856,0.010,-0.010
4.858,-0.035,-0.035
4.860,-0.085,-0.065
4.862,-0.160,-0.095
4.864,-0.130,-0.120
4.866,-0.255,-0.130
4.868,-0.170,-0.135
4.870,0.025,-0.125
4.872,-0.005,-0.110
4.874,-0.055,-0.090
4.876,-0.030,-0.065
4.878,-0.040,-0.045
4.880,-0.010,-0.030
4.882,-0.095,-0.020
4.884,-0.050,-0.015
4.886,-0.015,-0.020
4.888,0.005,-0.025
4.890,0.005,-0.035
4.892,0.045,-0.045
4.894,-0.065,-0.055
4.896,-0.025,-0.060
4.898,0.000,-0.060
4.900,-0.095,-0.060
4.902,-0.075,-0.055
4.904,-0.040,-0.045
4.906,-0.105,-0.035
4.908,-0.020,-0.020
4.910,0.055,-0.010
4.912,0.135,0.000
4.914,0.140,0.005
4.916,0.055,0.010
4.918,-0.030,0.015
4.920,-0.115,0.015
4.922,-0.025,0.020
4.924,-0.030,0.020
4.926,-0.005,0.020
4.928,-0.005,0.020
4.930,0.155,0.020
4.932,0.090,0.010
4.934,0.065,0.000
4.936,0.005,-0.010
4.938,-0.070,-0.025
4.940,-0.075,-0.040
4.942,-0.070,-0.055
4.944,-0.135,-0.065
4.946,-0.085,-0.075
4.948,0.000,-0.085
4.950,-0.030,-0.090
4.952,-0.050,-0.095
4.954,-0.035,-0.100
4.956,-0.010,-0.105
4.958,-0.055,-0.105
4.960,-0.305,-0.105
4.962,-0.240,-0.095
4.964,-0.050,-0.085
4.966,0.025,-0.075
4.968,0.030,-0.065
4.970,-0.030,-0.060
4.972,0.015,-0.060
4.974,0.055,-0.070
4.976,-0.055,-0.080
4.978,-0.235,-0.100
4.980,-0.165,-0.115
4.982,-0.170,-0.120
4.984,-0.165,-0.120
4.986,-0.090,-0.110
4.988,-0.025,-0.090
4.990,0.015,-0.065
4.992,0.135,-0.040
4.994,0.085,-0.020
4.996,0.015,-0.015
4.998,-0.145,-0.025
5.000,-0.125,-0.050
5.002,-0.125,-0.080
5.004,-0.170,-0.115
5.006,-0.195,-0.145
5.008,-0.100,-0.165
5.010,-0.075,-0.170
5.012,-0.050,-0.160
5.014,-0.025,-0.140
5.016,-0.040,-0.120
5.018,-0.135,-0.100
5.020,-0.155,-0.085
5.022,-0.060,-0.080
5.024,-0.165,-0.085
5.026,-0.150,-0.105
5.028,-0.055,-0.125
5.030,-0.130,-0.150
5.032,-0.085,-0.165
5.034,0.005,-0.175
5.036,-0.080,-0.180
5.038,-0.200,-0.170
5.040,-0.245,-0.150
5.042,-0.280,-0.130
5.044,-0.185,-0.100
5.046,-0.070,-0.065
5.048,0.090,-0.025
5.050,0.155,0.025
5.052,0.235,0.085
5.054,0.250,0.155
5.056,0.285,0.230
5.058,0.265,0.310
5.060,0.335,0.390
5.062,0.405,0.465
5.064,0.590,0.530
5.066,0.575,0.570
5.068,0.665,0.595
5.070,0.755,0.590
5.072,0.700,0.555
5.074,0.585,0.500
5.076,0.420,0.420
5.078,0.235,0.320
5.080,0.100,0.215
5.082,0.035,0.105
5.084,-0.015,0.000
5.086,-0.125,-0.090
5.088,-0.175,-0.160
5.090,-0.130,-0.200
5.092,-0.100,-0.215
5.094,-0.140,-0.200
5.096,-0.170,-0.165
5.098,-0.175,-0.120
5.100,-0.045,-0.070
5.102,0.020,-0.025
5.104,-0.005,0.000
5.106,0.085,0.015
5.108,0.065,0.005
5.110,-0.035,-0.010
5.112,-0.105,-0.035
5.114,0.050,-0.060
5.116,0.075,-0.075
5.118,-0.065,-0.080
5.120,-0.095,-0.075
5.122,-0.100,-0.060
5.124,-0.080,-0.040
5.126,0.010,-0.020
5.128,0.115,0.000
5.130,0.085,0.010
5.132,0.125,0.010
5.134,0.050,0.005
5.136,0.040,0.000
5.138,-0.105,-0.010
5.140,-0.070,-0.020
5.142,0.005,-0.025
5.144,-0.025,-0.025
5.146,-0.020,-0.030
5.148,0.070,-0.030
5.150,0.040,-0.025
5.152,0.050,-0.025
5.154,-0.035,-0.025
5.156,0.015,-0.020
5.158,0.005,-0.015
5.160,-0.015,-0.010
5.162,-0.060,0.000
5.164,0.030,0.015
5.166,0.065,0.020
5.168,0.030,0.025
5.170,0.145,0.025
5.172,0.135,0.020
5.174,0.095,0.010
5.176,-0.010,0.000
5.178,-0.135,-0.010
5.180,-0.160,-0.015
5.182,-0.075,-0.015
5.184,0.095,-0.010
5.186,0.100,0.005
5.188,0.130,0.020
5.190,0.070,0.035
5.192,0.070,0.050
5.194,0.165,0.060
5.196,0.055,0.065
5.198,0.080,0.065
5.200,-0.010,0.060
5.202,0.045,0.055
5.204,0.045,0.050
5.206,0.025,0.050
5.208,0.180,0.050
5.210,0.135,0.050
5.212,0.180,0.055
5.214,0.065,0.055
5.216,-0.005,0.050
5.218,0.055,0.045
5.220,0.005,0.035
5.222,0.005,0.025
5.224,-0.075,0.020
5.226,0.095,0.020
5.228,0.170,0.025
5.230,0.105,0.040
5.232,0.135,0.060
5.234,0.125,0.085
5.236,0.165,0.110
5.238,0.230,0.130
5.240,0.080,0.140
5.242,0.075,0.145
5.244,0.175,0.140
5.246,0.260,0.130
5.248,0.105,0.120
5.250,0.110,0.105
5.252,0.295,0.100
5.254,0.185,0.100
5.256,0.020,0.110
5.258,0.030,0.125
5.260,0.125,0.145
5.262,0.190,0.165
5.264,0.325,0.185
5.266,0.320,0.195
5.268,0.265,0.200
5.270,0.210,0.200
5.272,0.155,0.195
5.274,0.180,0.195
5.276,0.180,0.200
5.278,0.185,0.210
5.280,0.285,0.230
5.282,0.365,0.250
5.284,0.395,0.270
5.286,0.410,0.285
5.288,0.355,0.295
5.290,0.200,0.290
5.292,0.200,0.280
5.294,0.365,0.260
5.296,0.360,0.240
5.298,0.160,0.225
5.300,0.220,0.215
5.302,0.210,0.210
5.304,0.215,0.220
5.306,0.295,0.235
5.308,0.285,0.250
5.310,0.390,0.265
5.312,0.445,0.265
5.314,0.325,0.255
5.316,0.210,0.240
5.318,0.115,0.215
5.320,0.130,0.185
5.322,0.150,0.160
5.324,0.100,0.140
5.326,0.185,0.130
5.328,0.290,0.125
5.330,0.270,0.125
5.332,0.190,0.125
5.334,0.130,0.120
5.336,0.085,0.105
5.338,0.000,0.085
5.340,0.005,0.055
5.342,0.020,0.025
5.344,-0.040,0.000
5.346,0.015,-0.025
5.348,0.130,-0.035
5.350,0.110,-0.035
5.352,0.130,-0.025
5.354,0.015,-0.010
5.356,-0.145,0.000
5.358,-0.050,0.010
5.360,0.030,0.015
5.362,0.000,0.010
5.364,0.035,0.005
5.366,0.130,-0.005
5.368,0.050,-0.015
5.370,0.025,-0.025
5.372,0.025,-0.030
5.374,0.065,-0.030
5.376,-0.035,-0.030
5.378,-0.095,-0.030
5.380,-0.080,-0.030
5.382,0.060,-0.030
5.384,-0.050,-0.030
5.386,-0.005,-0.030
5.388,0.040,-0.035
5.390,0.130,-0.035
5.392,0.065,-0.040
5.394,-0.005,-0.045
5.396,-0.095,-0.050
5.398,-0.100,-0.055
5.400,-0.140,-0.060
5.402,-0.095,-0.070
5.404,-0.020,-0.080
5.406,0.040,-0.085
5.408,0.045,-0.085
5.410,0.015,-0.085
5.412,-0.080,-0.075
5.414,-0.080,-0.070
5.416,-0.045,-0.060
5.418,-0.095,-0.060
5.420,-0.085,-0.060
5.422,-0.120,-0.065
5.424,-0.055,-0.070
5.426,0.140,-0.080
5.428,0.005,-0.090
5.430,0.015,-0.095
5.432,0.000,-0.095
5.434,-0.060,-0.090
5.436,-0.100,-0.075
5.438,-0.090,-0.060
5.440,-0.095,-0.040
5.442,-0.035,-0.030
5.444,0.100,-0.020
5.446,0.115,-0.015
5.448,0.055,-0.020
5.450,0.045,-0.025
5.452,0.025,-0.035
5.454,-0.025,-0.045
5.456,-0.005,-0.060
5.458,-0.105,-0.070
5.460,-0.155,-0.080
5.462,-0.180,-0.085
5.464,0.000,-0.090
5.466,0.015,-0.095
5.468,-0.045,-0.090
5.470,0.030,-0.085
5.472,0.025,-0.075
5.474,0.020,-0.065
5.476,-0.060,-0.050
5.478,-0.100,-0.040
5.480,-0.025,-0.030
5.482,0.030,-0.025
5.484,0.015,-0.025
5.486,0.035,-0.030
5.488,0.045,-0.035
5.490,-0.040,-0.040
5.492,-0.030,-0.045
5.494,0.010,-0.040
5.496,-0.030,-0.035
5.498,0.040,-0.030
5.500,0.030,-0.020
5.502,-0.020,-0.015
5.504,-0.010,-0.015
5.506,0.045,-0.020
5.508,0.075,-0.030
5.510,0.070,-0.050
5.512,-0.050,-0.065
5.514,-0.135,-0.085
5.516,-0.045,-0.095
5.518,-0.110,-0.100
5.520,-0.080,-0.100
5.522,-0.110,-0.095
5.524,-0.055,-0.085
5.526,0.040,-0.075
5.528,0.015,-0.070
5.530,0.050,-0.070
5.532,0.030,-0.070
5.534,-0.130,-0.070
5.536,-0.100,-0.070
5.538,-0.055,-0.075
5.540,-0.035,-0.070
5.542,-0.050,-0.070
5.544,0.000,-0.060
5.546,-0.025,-0.055
5.548,0.100,-0.050
5.550,0.065,-0.045
5.552,0.020,-0.040
5.554,-0.065,-0.035
5.556,-0.175,-0.030
5.558,-0.120,-0.030
5.560,0.075,-0.030
5.562,0.090,-0.030
5.564,0.055,-0.030
5.566,0.055,-0.035
5.568,-0.030,-0.035
5.570,0.035,-0.040
5.572,-0.035,-0.050
5.574,-0.030,-0.055
5.576,-0.120,-0.055
5.578,-0.010,-0.060
5.580,-0.035,-0.060
5.582,-0.055,-0.060
5.584,-0.015,-0.060
5.586,0.085,-0.060
5.588,0.080,-0.060
5.590,-0.005,-0.065
5.592,-0.065,-0.070
5.594,-0.155,-0.075
5.596,-0.145,-0.085
5.598,-0.065,-0.090
5.600,-0.065,-0.090
5.602,-0.045,-0.095
5.604,0.025,-0.090
5.606,0.080,-0.085
5.608,0.005,-0.080
5.610,-0.040,-0.075
5.612,-0.015,-0.070
5.614,-0.080,-0.065
5.616,-0.140,-0.065
5.618,-0.140,-0.070
5.620,-0.010,-0.075
5.622,-0.055,-0.080
5.624,-0.025,-0.085
5.626,0.015,-0.085
5.628,0.105,-0.080
5.630,0.035,-0.075
5.632,-0.100,-0.070
5.634,-0.085,-0.060
5.636,-0.075,-0.055
5.638,-0.085,-0.050
5.640,-0.045,-0.050
5.642,0.080,-0.055
5.644,0.020,-0.060
5.646,-0.020,-0.070
5.648,0.060,-0.080
5.650,-0.010,-0.090
5.652,-0.100,-0.095
5.654,-0.135,-0.095
5.656,-0.125,-0.090
5.658,-0.115,-0.080
5.660,-0.005,-0.070
5.662,0.000,-0.060
5.664,0.000,-0.055
5.666,0.090,-0.055
5.668,0.060,-0.060
5.670,-0.035,-0.070
5.672,-0.135,-0.080
5.674,-0.100,-0.085
5.676,-0.105,-0.085
5.678,-0.145,-0.080
5.680,-0.065,-0.070
5.682,0.055,-0.055
5.684,0.130,-0.040
5.686,0.175,-0.030
5.688,0.085,-0.025
5.690,0.010,-0.030
5.692,-0.035,-0.045
5.694,-0.160,-0.060
5.696,-0.175,-0.075
5.698,-0.170,-0.090
5.700,-0.075,-0.090
5.702,0.010,-0.085
5.704,0.095,-0.065
5.706,0.100,-0.040
5.708,0.130,-0.015
5.710,0.095,0.010
5.712,0.080,0.030
5.714,0.055,0.035
5.716,-0.010,0.035
5.718,-0.070,0.020
5.720,-0.015,0.005
5.722,0.035,-0.015
5.724,0.030,-0.030
5.726,0.110,-0.045
5.728,0.120,-0.045
5.730,0.105,-0.045
5.732,0.000,-0.040
5.734,-0.090,-0.030
5.736,-0.090,-0.020
5.738,-0.080,-0.015
5.740,0.005,-0.015
5.742,0.065,-0.020
5.744,0.090,-0.025
5.746,0.095,-0.035
5.748,0.005,-0.050
5.750,0.000,-0.060
5.752,0.000,-0.065
5.754,-0.135,-0.070
5.756,-0.085,-0.075
5.758,-0.095,-0.070
5.760,-0.005,-0.065
5.762,0.055,-0.060
5.764,0.075,-0.060
5.766,-0.075,-0.060
5.768,0.045,-0.060
5.770,-0.020,-0.070
5.772,-0.100,-0.080
5.774,-0.085,-0.095
5.776,-0.095,-0.105
5.778,-0.030,-0.115
5.780,-0.175,-0.115
5.782,-0.090,-0.110
5.784,0.025,-0.095
5.786,0.110,-0.080
5.788,0.065,-0.060
5.790,-0.035,-0.045
5.792,-0.110,-0.040
5.794,-0.005,-0.040
5.796,-0.075,-0.045
5.798,-0.075,-0.060
5.800,-0.100,-0.075
5.802,-0.085,-0.085
5.804,0.030,-0.095
5.806,0.070,-0.090
5.808,0.120,-0.085
5.810,0.015,-0.070
5.812,-0.090,-0.060
5.814,-0.205,-0.050
5.816,-0.055,-0.050
5.818,-0.065,-0.055
5.820,-0.030,-0.065
5.822,0.010,-0.080
5.824,-0.125,-0.095
5.826,0.015,-0.110
5.828,0.055,-0.115
5.830,0.005,-0.115
5.832,-0.090,-0.115
5.834,-0.200,-0.105
5.836,-0.130,-0.100
5.838,-0.095,-0.090
5.840,-0.090,-0.085
5.842,0.000,-0.075
5.844,-0.015,-0.055
5.846,0.095,-0.030
5.848,0.195,0.010
5.850,0.170,0.070
5.852,0.120,0.140
5.854,0.265,0.225
5.856,0.360,0.320
5.858,0.395,0.415
5.860,0.475,0.500
5.862,0.665,0.570
5.864,0.730,0.615
5.866,0.815,0.630
5.868,0.760,0.615
5.870,0.595,0.570
5.872,0.580,0.495
5.874,0.440,0.395
5.876,0.245,0.290
5.878,0.115,0.180
5.880,-0.035,0.075
5.882,0.065,-0.005
5.884,-0.045,-0.065
5.886,-0.020,-0.100
5.888,0.035,-0.110
5.890,0.055,-0.100
5.892,-0.025,-0.080
5.894,-0.055,-0.055
5.896,-0.080,-0.035
5.898,-0.060,-0.025
5.900,0.035,-0.020
5.902,0.025,-0.030
5.904,0.030,-0.035
5.906,0.070,-0.045
5.908,0.150,-0.045
5.910,0.005,-0.040
5.912,-0.090,-0.035
5.914,-0.035,-0.020
5.916,0.015,-0.005
5.918,-0.005,0.000
5.920,-0.010,0.005
5.922,0.085,0.005
5.924,0.135,0.000
5.926,0.040,-0.010
5.928,0.110,-0.015
5.930,0.060,-0.025
5.932,-0.075,-0.025
5.934,-0.060,-0.030
5.936,-0.035,-0.030
5.938,0.070,-0.035
5.940,-0.015,-0.040
5.942,-0.035,-0.050
5.944,0.060,-0.055
5.946,0.075,-0.060
5.948,-0.025,-0.060
5.950,0.035,-0.050
5.952,-0.060,-0.035
5.954,-0.035,-0.010
5.956,0.040,0.015
5.958,0.080,0.040
5.960,0.105,0.055
5.962,0.170,0.055
5.964,0.155,0.050
5.966,0.130,0.035
5.968,0.010,0.015
5.970,0.030,-0.005
5.972,-0.025,-0.020
5.974,-0.035,-0.025
5.976,-0.030,-0.020
5.978,0.005,-0.010
5.980,0.070,0.005
5.982,0.180,0.020
5.984,0.165,0.030
5.986,0.085,0.035
5.988,0.095,0.035
5.990,0.090,0.025
5.992,0.035,0.015
5.994,-0.100,0.005
5.996,-0.055,0.005
5.998,0.065,0.005
6.000,0.160,0.015
6.002,0.130,0.025
6.004,0.090,0.035
6.006,0.190,0.045
6.008,0.155,0.050
6.010,0.050,0.045
6.012,-0.010,0.040
6.014,-0.035,0.035
6.016,0.005,0.035
6.018,0.110,0.040
6.020,0.060,0.050
6.022,0.175,0.065
6.024,0.240,0.085
6.026,0.360,0.105
6.028,0.210,0.120
6.030,0.165,0.130
6.032,0.045,0.130
6.034,0.005,0.125
6.036,0.030,0.120
6.038,0.180,0.115
6.040,0.195,0.115
6.042,0.255,0.120
6.044,0.245,0.130
6.046,0.235,0.145
6.048,0.310,0.160
6.050,0.215,0.170
6.052,0.065,0.180
6.054,0.145,0.180
6.056,0.165,0.175
6.058,0.120,0.170
6.060,0.165,0.165
6.062,0.325,0.170
6.064,0.295,0.180
6.066,0.350,0.200
6.068,0.370,0.220
6.070,0.325,0.245
6.072,0.240,0.260
6.074,0.145,0.265
6.076,0.215,0.265
6.078,0.240,0.255
6.080,0.315,0.240
6.082,0.405,0.230
6.084,0.330,0.225
6.086,0.335,0.225
6.088,0.390,0.240
6.090,0.230,0.260
6.092,0.280,0.280
6.094,0.315,0.300
6.096,0.295,0.315
6.098,0.300,0.320
6.100,0.305,0.315
6.102,0.330,0.300
6.104,0.380,0.280
6.106,0.395,0.255
6.108,0.310,0.235
6.110,0.255,0.220
6.112,0.195,0.210
6.114,0.145,0.200
6.116,0.145,0.200
6.118,0.170,0.195
6.120,0.220,0.185
6.122,0.250,0.175
6.124,0.300,0.155
6.126,0.330,0.135
6.128,0.225,0.115
6.130,0.135,0.095
6.132,-0.060,0.080
6.134,0.020,0.060
6.136,0.055,0.050
6.138,0.075,0.035
6.140,0.060,0.025
6.142,0.070,0.010
6.144,0.075,0.000
6.146,0.050,-0.010
6.148,0.075,-0.020
6.150,0.050,-0.030
6.152,-0.010,-0.035
6.154,0.005,-0.035
6.156,-0.115,-0.035
6.158,-0.075,-0.035
6.160,-0.005,-0.035
6.162,0.110,-0.040
6.164,0.100,-0.040
6.166,0.125,-0.045
6.168,0.010,-0.045
6.170,-0.030,-0.050
6.172,-0.040,-0.045
6.174,-0.130,-0.045
6.176,-0.080,-0.040
6.178,-0.015,-0.035
6.180,0.125,-0.035
6.182,0.145,-0.035
6.184,0.050,-0.040
6.186,-0.035,-0.050
6.188,-0.060,-0.060
6.190,-0.040,-0.070
6.192,-0.075,-0.080
6.194,-0.065,-0.085
6.196,-0.090,-0.080
6.198,-0.075,-0.075
6.200,-0.045,-0.065
6.202,0.110,-0.050
6.204,0.090,-0.040
6.206,0.060,-0.030
6.208,-0.005,-0.025
6.210,-0.020,-0.030
6.212,-0.095,-0.040
6.214,-0.065,-0.055
6.216,-0.060,-0.070
6.218,-0.060,-0.085
6.220,-0.015,-0.100
6.222,0.045,-0.105
6.224,0.035,-0.105
6.226,-0.070,-0.100
6.228,-0.095,-0.090
6.230,-0.070,-0.075
6.232,-0.085,-0.060
6.234,0.045,-0.045
6.236,0.025,-0.035
6.238,-0.065,-0.025
6.240,0.060,-0.020
6.242,0.095,-0.025
6.244,0.095,-0.030
6.246,0.075,-0.035
6.248,-0.035,-0.045
6.250,-0.105,-0.050
6.252,-0.095,-0.060
6.254,-0.040,-0.065
6.256,-0.025,-0.070
6.258,-0.050,-0.075
6.260,-0.020,-0.075
6.262,0.090,-0.070
6.264,0.115,-0.065
6.266,0.025,-0.055
6.268,-0.075,-0.040
6.270,-0.230,-0.025
6.272,0.005,-0.010
6.274,0.100,0.005
6.276,0.095,0.010
6.278,0.095,0.015
6.280,0.055,0.010
6.282,0.020,0.000
6.284,0.085,-0.020
6.286,0.000,-0.040
6.288,-0.040,-0.060
6.290,-0.065,-0.085
6.292,-0.120,-0.100
6.294,-0.100,-0.110
6.296,-0.080,-0.115
6.298,-0.045,-0.110
6.300,-0.005,-0.105
6.302,-0.035,-0.090
6.304,0.030,-0.075
6.306,-0.025,-0.055
6.308,-0.020,-0.040
6.310,0.055,-0.030
6.312,-0.035,-0.020
6.314,-0.030,-0.015
6.316,-0.005,-0.015
6.318,0.035,-0.015
6.320,0.055,-0.020
6.322,0.130,-0.030
6.324,0.035,-0.040
6.326,-0.010,-0.050
6.328,0.025,-0.060
6.330,-0.115,-0.065
6.332,-0.150,-0.070
6.334,-0.170,-0.075
6.336,-0.040,-0.070
6.338,0.065,-0.065
6.340,0.150,-0.060
6.342,0.060,-0.050
6.344,0.030,-0.045
6.346,-0.060,-0.035
6.348,-0.070,-0.035
6.350,0.000,-0.035
6.352,-0.050,-0.040
6.354,-0.045,-0.050
6.356,0.025,-0.060
6.358,-0.095,-0.070
6.360,-0.050,-0.075
6.362,0.100,-0.080
6.364,0.050,-0.080
6.366,-0.080,-0.075
6.368,-0.045,-0.065
6.370,-0.085,-0.055
6.372,-0.065,-0.045
6.374,-0.060,-0.035
6.376,0.020,-0.030
6.378,0.090,-0.025
6.380,0.080,-0.025
6.382,0.045,-0.030
6.384,0.045,-0.035
6.386,0.060,-0.045
6.388,-0.030,-0.055
6.390,-0.060,-0.060
6.392,-0.115,-0.070
6.394,-0.175,-0.075
6.396,-0.030,-0.075
6.398,0.020,-0.070
6.400,-0.030,-0.065
6.402,0.060,-0.060
6.404,0.110,-0.055
6.406,0.050,-0.050
6.408,-0.060,-0.055
6.410,-0.070,-0.055
6.412,-0.150,-0.060
6.414,-0.095,-0.070
6.416,-0.035,-0.075
6.418,0.005,-0.080
6.420,0.030,-0.080
6.422,0.055,-0.075
6.424,0.010,-0.070
6.426,-0.015,-0.065
6.428,-0.065,-0.055
6.430,-0.040,-0.055
6.432,-0.120,-0.055
6.434,-0.075,-0.060
6.436,0.015,-0.065
6.438,0.055,-0.075
6.440,-0.020,-0.080
6.442,0.005,-0.085
6.444,0.070,-0.085
6.446,-0.090,-0.080
6.448,-0.110,-0.075
6.450,-0.030,-0.065
6.452,-0.055,-0.055
6.454,0.000,-0.050
6.456,-0.045,-0.045
6.458,0.045,-0.045
6.460,0.050,-0.050
6.462,-0.015,-0.055
6.464,0.010,-0.060
6.466,0.035,-0.065
6.468,-0.050,-0.070
6.470,-0.110,-0.075
6.472,-0.125,-0.075
6.474,-0.090,-0.075
6.476,-0.030,-0.070
6.478,0.070,-0.070
6.480,0.045,-0.065
6.482,0.015,-0.060
6.484,-0.020,-0.060
6.486,0.030,-0.060
6.488,-0.020,-0.060
6.490,-0.085,-0.065
6.492,-0.170,-0.070
6.494,-0.065,-0.070
6.496,-0.070,-0.070
6.498,-0.030,-0.065
6.500,0.005,-0.055
6.502,0.130,-0.045
6.504,0.095,-0.030
6.506,-0.010,-0.020
6.508,0.030,-0.005
6.510,-0.020,0.000
6.512,-0.050,0.000
6.514,-0.065,-0.005
6.516,-0.040,-0.015
6.518,0.005,-0.025
6.520,0.125,-0.040
6.522,0.040,-0.045
6.524,0.075,-0.050
6.526,0.095,-0.045
6.528,-0.045,-0.040
6.530,-0.045,-0.025
6.532,-0.090,-0.005
6.534,0.005,0.010
6.536,0.090,0.025
6.538,0.065,0.035
6.540,0.070,0.040
6.542,0.205,0.035
6.544,0.175,0.030
6.546,0.070,0.025
6.548,-0.015,0.015
6.550,-0.050,0.000
6.552,-0.010,-0.010
6.554,0.015,-0.025
6.556,0.000,-0.040
6.558,-0.005,-0.055
6.560,-0.010,-0.075
6.562,0.030,-0.085
6.564,-0.050,-0.095
6.566,-0.070,-0.100
6.568,-0.105,-0.100
6.570,-0.080,-0.090
6.572,-0.055,-0.070
6.574,-0.040,-0.050
6.576,0.015,-0.035
6.578,0.090,-0.020
6.580,0.075,-0.020
6.582,0.055,-0.030
6.584,0.005,-0.045
6.586,-0.090,-0.075
6.588,-0.110,-0.105
6.590,-0.170,-0.130
6.592,-0.150,-0.150
6.594,-0.180,-0.160
6.596,-0.095,-0.155
6.598,-0.045,-0.140
6.600,-0.020,-0.120
6.602,0.055,-0.095
6.604,0.090,-0.070
6.606,0.010,-0.050
6.608,-0.095,-0.040
6.610,-0.175,-0.035
6.612,-0.100,-0.040
6.614,0.010,-0.055
6.616,0.035,-0.065
6.618,0.000,-0.080
6.620,0.040,-0.090
6.622,-0.035,-0.100
6.624,-0.085,-0.105
6.626,-0.030,-0.110
6.628,-0.095,-0.110
6.630,-0.210,-0.110
6.632,-0.145,-0.110
6.634,-0.070,-0.110
6.636,-0.055,-0.105
6.638,-0.070,-0.100
6.640,0.010,-0.095
6.642,0.090,-0.095
6.644,0.065,-0.095
6.646,-0.020,-0.095
6.648,-0.165,-0.100
6.650,-0.170,-0.105
6.652,-0.220,-0.110
6.654,-0.190,-0.115
6.656,-0.075,-0.105
6.658,0.055,-0.085
6.660,0.155,-0.045
6.662,0.120,0.010
6.664,0.225,0.080
6.666,0.180,0.160
6.668,0.185,0.255
6.670,0.265,0.350
6.672,0.435,0.440
6.674,0.615,0.525
6.676,0.715,0.590
6.678,0.745,0.635
6.680,0.800,0.660
6.682,0.815,0.650
6.684,0.720,0.610
6.686,0.545,0.535
6.688,0.380,0.440
6.690,0.265,0.325
6.692,0.165,0.200
6.694,0.050,0.075
6.696,0.000,-0.030
6.698,-0.135,-0.110
6.700,-0.115,-0.165
6.702,-0.085,-0.180
6.704,-0.035,-0.175
6.706,-0.070,-0.145
6.708,-0.030,-0.105
6.710,-0.125,-0.070
6.712,-0.080,-0.045
6.714,-0.030,-0.030
6.716,0.020,-0.030
6.718,0.020,-0.045
6.720,-0.005,-0.060
6.722,-0.090,-0.080
6.724,0.040,-0.085
6.726,0.020,-0.085
6.728,-0.030,-0.075
6.730,-0.095,-0.060
6.732,-0.085,-0.045
6.734,-0.060,-0.035
6.736,0.050,-0.030
6.738,0.075,-0.030
6.740,0.050,-0.040
6.742,-0.005,-0.055
6.744,-0.030,-0.070
6.746,-0.030,-0.085
6.748,-0.020,-0.090
6.750,-0.110,-0.095
6.752,-0.150,-0.095
6.754,-0.075,-0.090
6.756,-0.020,-0.085
6.758,-0.030,-0.085
6.760,0.025,-0.080
6.762,0.025,-0.075
6.764,-0.035,-0.065
6.766,-0.035,-0.055
6.768,-0.075,-0.040
6.770,-0.025,-0.020
6.772,0.045,-0.005
6.774,0.075,0.005
6.776,0.060,0.015
6.778,0.085,0.015
6.780,0.085,0.005
6.782,0.070,-0.005
6.784,0.015,-0.015
6.786,-0.055,-0.030
6.788,-0.085,-0.035
6.790,-0.050,-0.035
6.792,-0.030,-0.035
6.794,-0.010,-0.025
6.796,0.050,-0.020
6.798,0.130,-0.010
6.800,0.130,-0.010
6.802,0.045,-0.010
6.804,0.005,-0.010
6.806,-0.010,-0.015
6.808,-0.025,-0.020
6.810,-0.030,-0.020
6.812,-0.010,-0.020
6.814,0.050,-0.015
6.816,0.125,-0.005
6.818,0.060,0.005
6.820,0.080,0.015
6.822,0.140,0.025
6.824,0.135,0.030
6.826,0.020,0.035
6.828,0.020,0.035
6.830,-0.005,0.035
6.832,-0.050,0.035
6.834,0.055,0.035
6.836,0.160,0.040
6.838,0.185,0.045
6.840,0.150,0.050
6.842,0.190,0.060
6.844,0.055,0.070
6.846,-0.020,0.085
6.848,0.055,0.095
6.850,0.170,0.100
6.852,0.140,0.110
6.854,0.130,0.115
6.856,0.145,0.120
6.858,0.220,0.120
6.860,0.255,0.120
6.862,0.170,0.125
6.864,0.165,0.125
6.866,0.230,0.130
6.868,0.105,0.140
6.870,0.070,0.150
6.872,0.150,0.160
6.874,0.185,0.170
6.876,0.305,0.185
6.878,0.360,0.195
6.880,0.305,0.210
6.882,0.265,0.220
6.884,0.295,0.230
6.886,0.235,0.235
6.888,0.165,0.240
6.890,0.150,0.240
6.892,0.235,0.240
6.894,0.285,0.240
6.896,0.250,0.235
6.898,0.400,0.230
6.900,0.350,0.225
6.902,0.335,0.220
6.904,0.320,0.220
6.906,0.205,0.220
6.908,0.180,0.225
6.910,0.150,0.230
6.912,0.150,0.235
6.914,0.265,0.245
6.916,0.290,0.250
6.918,0.405,0.255
6.920,0.510,0.255
6.922,0.360,0.255
6.924,0.250,0.255
6.926,0.220,0.245
6.928,0.235,0.230
6.930,0.180,0.210
6.932,0.120,0.190
6.934,0.125,0.165
6.936,0.175,0.135
6.938,0.240,0.115
6.940,0.220,0.095
6.942,0.190,0.085
6.944,0.105,0.080
6.946,0.035,0.080
6.948,0.080,0.085
6.950,0.000,0.085
6.952,0.080,0.085
6.954,0.110,0.075
6.956,0.120,0.060
6.958,0.160,0.035
6.960,0.085,0.010
6.962,0.025,-0.015
6.964,-0.050,-0.035
6.966,-0.065,-0.045
6.968,0.015,-0.045
6.970,-0.090,-0.040
6.972,-0.015,-0.030
6.974,0.035,-0.020
6.976,0.055,-0.015
6.978,0.070,-0.020
6.980,0.090,-0.030
6.982,0.015,-0.040
6.984,-0.075,-0.060
6.986,-0.070,-0.070
6.988,-0.140,-0.080
6.990,-0.170,-0.080
6.992,-0.020,-0.075
6.994,0.025,-0.060
6.996,0.060,-0.045
6.998,0.050,-0.035
7.000,0.095,-0.025
7.002,0.020,-0.030
7.004,-0.060,-0.035
7.006,-0.100,-0.050
7.008,-0.110,-0.065
7.010,-0.105,-0.080
7.012,-0.080,-0.090
7.014,-0.065,-0.095
7.016,0.015,-0.095
7.018,0.005,-0.095
7.020,0.010,-0.085
7.022,0.010,-0.080
7.024,-0.065,-0.075
7.026,-0.125,-0.075
7.028,-0.065,-0.075
7.030,-0.090,-0.080
7.032,-0.170,-0.080
7.034,-0.045,-0.080
7.036,0.025,-0.080
7.038,0.085,-0.075
7.040,0.070,-0.070
7.042,0.030,-0.070
7.044,-0.105,-0.065
7.046,-0.110,-0.065
7.048,-0.135,-0.070
7.050,-0.105,-0.070
7.052,-0.025,-0.075
7.054,0.080,-0.075
7.056,0.060,-0.070
7.058,0.020,-0.065
7.060,-0.030,-0.060
7.062,-0.005,-0.050
7.064,-0.090,-0.045
7.066,-0.130,-0.040
7.068,-0.050,-0.040
7.070,-0.005,-0.040
7.072,-0.015,-0.045
7.074,-0.050,-0.050
7.076,0.105,-0.050
7.078,0.055,-0.050
7.080,-0.015,-0.045
7.082,0.000,-0.040
7.084,0.010,-0.035
7.086,-0.040,-0.030
7.088,-0.095,-0.030
7.090,-0.095,-0.035
7.092,-0.080,-0.040
7.094,-0.015,-0.055
7.096,0.125,-0.065
7.098,0.165,-0.075
7.100,-0.005,-0.080
7.102,-0.075,-0.080
7.104,-0.135,-0.075
7.106,-0.055,-0.065
7.108,-0.140,-0.060
7.110,-0.130,-0.060
7.112,-0.050,-0.060
7.114,0.065,-0.070
7.116,0.125,-0.075
7.118,0.020,-0.085
7.120,-0.080,-0.090
7.122,-0.105,-0.090
7.124,-0.080,-0.085
7.126,-0.045,-0.070
7.128,-0.100,-0.060
7.130,-0.035,-0.045
7.132,-0.030,-0.035
7.134,0.045,-0.030
7.136,0.080,-0.030
7.138,0.060,-0.030
7.140,0.040,-0.035
7.142,0.040,-0.040
7.144,-0.075,-0.045
7.146,-0.080,-0.045
7.148,-0.055,-0.045
7.150,-0.065,-0.045
7.152,0.000,-0.050
7.154,0.060,-0.055
7.156,0.080,-0.065
7.158,-0.030,-0.075
7.160,-0.035,-0.090
7.162,-0.110,-0.100
7.164,-0.120,-0.100
7.166,-0.110,-0.100
7.168,-0.105,-0.090
7.170,-0.125,-0.080
7.172,0.025,-0.065
7.174,0.105,-0.055
7.176,0.025,-0.045
7.178,-0.015,-0.040
7.180,0.010,-0.045
7.182,-0.040,-0.050
7.184,-0.055,-0.055
7.186,-0.030,-0.065
7.188,-0.060,-0.070
7.190,-0.085,-0.075
7.192,-0.125,-0.080
7.194,-0.040,-0.085
7.196,0.045,-0.090
7.198,0.020,-0.095
7.200,-0.050,-0.095
7.202,-0.140,-0.100
7.204,-0.095,-0.095
7.206,-0.075,-0.090
7.208,-0.110,-0.080
7.210,-0.035,-0.065
7.212,0.015,-0.050
7.214,0.080,-0.040
7.216,0.080,-0.035
7.218,0.020,-0.035
7.220,-0.070,-0.040
7.222,0.010,-0.050
7.224,-0.110,-0.065
7.226,-0.105,-0.075
7.228,-0.085,-0.085
7.230,-0.090,-0.090
7.232,0.015,-0.085
7.234,-0.050,-0.080
7.236,-0.070,-0.070
7.238,0.090,-0.065
7.240,0.035,-0.060
7.242,-0.065,-0.060
7.244,-0.155,-0.065
7.246,-0.085,-0.075
7.248,-0.145,-0.090
7.250,-0.080,-0.100
7.252,-0.005,-0.105
7.254,0.040,-0.105
7.256,0.055,-0.105
7.258,0.005,-0.095
7.260,-0.050,-0.090
7.262,-0.145,-0.085
7.264,-0.115,-0.085
7.266,-0.170,-0.085
7.268,-0.090,-0.085
7.270,-0.095,-0.090
7.272,-0.015,-0.090
7.274,0.085,-0.090
7.276,0.050,-0.090
7.278,0.010,-0.085
7.280,-0.030,-0.085
7.282,-0.080,-0.080
7.284,-0.070,-0.080
7.286,-0.120,-0.075
7.288,-0.190,-0.075
7.290,-0.070,-0.070
7.292,-0.010,-0.065
7.294,0.045,-0.060
7.296,0.075,-0.050
7.298,0.120,-0.045
7.300,0.100,-0.040
7.302,-0.005,-0.035
7.304,-0.115,-0.035
7.306,-0.100,-0.040
7.308,-0.165,-0.050
7.310,-0.055,-0.060
7.312,0.035,-0.065
7.314,-0.075,-0.070
7.316,0.120,-0.070
7.318,0.110,-0.065
7.320,-0.010,-0.055
7.322,-0.025,-0.045
7.324,-0.055,-0.030
7.326,-0.110,-0.015
7.328,-0.060,-0.005
7.330,-0.015,0.010
7.332,0.075,0.015
7.334,0.095,0.020
7.336,0.210,0.025
7.338,0.195,0.025
7.340,0.110,0.020
7.342,-0.025,0.015
7.344,-0.035,0.010
7.346,-0.025,0.005
7.348,-0.080,0.000
7.350,-0.055,-0.005
7.352,-0.010,-0.010
7.354,0.135,-0.010
7.356,0.105,-0.010
7.358,0.110,-0.010
7.360,0.140,-0.010
7.362,0.010,-0.010
7.364,-0.075,-0.020
7.366,-0.055,-0.030
7.368,-0.095,-0.045
7.370,-0.170,-0.060
7.372,-0.165,-0.070
7.374,0.060,-0.080
7.376,0.135,-0.085
7.378,0.015,-0.080
7.380,0.040,-0.075
7.382,0.005,-0.065
7.384,-0.045,-0.055
7.386,-0.065,-0.050
7.388,-0.090,-0.045
7.390,-0.175,-0.045
7.392,-0.040,-0.045
7.394,-0.010,-0.050
7.396,0.070,-0.050
7.398,0.090,-0.050
7.400,0.060,-0.050
7.402,0.020,-0.045
7.404,-0.050,-0.035
7.406,-0.100,-0.025
7.408,-0.055,-0.020
7.410,-0.030,-0.020
7.412,0.015,-0.025
7.414,0.085,-0.035
7.416,0.050,-0.055
7.418,0.000,-0.075
7.420,-0.045,-0.095
7.422,-0.155,-0.110
7.424,-0.180,-0.125
7.426,-0.115,-0.130
7.428,-0.150,-0.125
7.430,-0.110,-0.120
7.432,0.035,-0.105
7.434,-0.050,-0.085
7.436,-0.020,-0.065
7.438,0.060,-0.050
7.440,0.075,-0.040
7.442,0.060,-0.035
7.444,-0.055,-0.035
7.446,-0.080,-0.050
7.448,-0.150,-0.070
7.450,-0.075,-0.090
7.452,-0.115,-0.115
7.454,-0.070,-0.135
7.456,-0.075,-0.145
7.458,-0.050,-0.155
7.460,-0.075,-0.150
7.462,-0.135,-0.135
7.464,-0.205,-0.110
7.466,-0.140,-0.080
7.468,-0.110,-0.040
7.470,0.075,0.010
7.472,0.215,0.065
7.474,0.220,0.130
7.476,0.335,0.200
7.478,0.335,0.280
7.480,0.375,0.365
7.482,0.455,0.445
7.484,0.545,0.520
7.486,0.605,0.580
7.488,0.675,0.620
7.490,0.700,0.635
7.492,0.620,0.620
7.494,0.670,0.570
7.496,0.675,0.495
7.498,0.485,0.400
7.500,0.290,0.290
7.502,0.095,0.175
7.504,-0.045,0.065
7.506,-0.145,-0.030
7.508,-0.140,-0.105
7.510,-0.060,-0.155
7.512,-0.045,-0.180
7.514,-0.130,-0.180
7.516,-0.115,-0.165
7.518,-0.145,-0.130
7.520,-0.130,-0.090
7.522,-0.025,-0.050
7.524,0.105,-0.015
7.526,0.020,0.005
7.528,0.015,0.015
7.530,0.030,0.010
7.532,-0.065,-0.010
7.534,0.020,-0.030
7.536,0.100,-0.055
7.538,0.015,-0.070
7.540,-0.090,-0.080
7.542,-0.145,-0.080
7.544,-0.060,-0.070
7.546,-0.065,-0.050
7.548,-0.030,-0.030
7.550,0.130,-0.015
7.552,0.045,-0.005
7.554,0.075,0.000
7.556,0.075,0.000
7.558,0.020,-0.005
7.560,0.015,-0.020
7.562,-0.090,-0.030
7.564,-0.100,-0.035
7.566,-0.010,-0.035
7.568,0.010,-0.035
7.570,0.045,-0.025
7.572,0.100,-0.015
7.574,0.085,-0.005
7.576,0.060,0.010
7.578,0.040,0.015
7.580,-0.010,0.015
7.582,-0.050,0.015
7.584,-0.055,0.005
7.586,-0.030,-0.010
7.588,-0.005,-0.025
7.590,0.080,-0.040
7.592,0.055,-0.050
7.594,0.065,-0.060
7.596,0.045,-0.060
7.598,-0.050,-0.050
7.600,-0.040,-0.040
7.602,-0.125,-0.020
7.604,-0.150,0.000
7.606,0.045,0.020
7.608,0.120,0.030
7.610,0.135,0.040
7.612,0.155,0.040
7.614,0.170,0.035
7.616,0.065,0.025
7.618,0.060,0.015
7.620,-0.100,0.010
7.622,-0.020,0.005
7.624,0.050,0.005
7.626,-0.025,0.010
7.628,0.010,0.015
7.630,0.045,0.025
7.632,0.125,0.035
7.634,0.135,0.045
7.636,0.120,0.050
7.638,0.120,0.055
7.640,0.045,0.060
7.642,0.045,0.065
7.644,0.045,0.065
7.646,0.050,0.065
7.648,0.095,0.070
7.650,0.110,0.070
7.652,0.175,0.070
7.654,0.225,0.065
7.656,0.095,0.070
7.658,0.115,0.070
7.660,0.015,0.075
7.662,0.050,0.080
7.664,0.060,0.095
7.666,0.170,0.105
7.668,0.155,0.125
7.670,0.210,0.140
7.672,0.270,0.155
7.674,0.270,0.165
7.676,0.255,0.175
7.678,0.195,0.185
7.680,0.130,0.190
7.682,0.205,0.195
7.684,0.145,0.200
7.686,0.235,0.210
7.688,0.225,0.225
7.690,0.220,0.240
7.692,0.295,0.255
7.694,0.455,0.265
7.696,0.430,0.270
7.698,0.320,0.270
7.700,0.205,0.265
7.702,0.175,0.255
7.704,0.190,0.245
7.706,0.180,0.235
7.708,0.245,0.230
7.710,0.365,0.230
7.712,0.375,0.235
7.714,0.380,0.240
7.716,0.330,0.250
7.718,0.265,0.255
7.720,0.170,0.255
7.722,0.115,0.255
7.724,0.235,0.250
7.726,0.285,0.240
7.728,0.290,0.235
7.730,0.275,0.230
7.732,0.365,0.235
7.734,0.365,0.240
7.736,0.315,0.250
7.738,0.240,0.250
7.740,0.230,0.250
7.742,0.160,0.235
7.744,0.135,0.215
7.746,0.165,0.180
7.748,0.170,0.145
7.750,0.165,0.110
7.752,0.160,0.080
7.754,0.130,0.065
7.756,0.085,0.060
7.758,0.055,0.065
7.760,0.125,0.080
7.762,0.090,0.095
7.764,0.030,0.100
7.766,0.040,0.100
7.768,0.120,0.080
7.770,0.210,0.055
7.772,0.100,0.020
7.774,0.080,-0.015
7.776,-0.035,-0.045
7.778,-0.080,-0.060
7.780,-0.080,-0.060
7.782,-0.120,-0.055
7.784,-0.035,-0.035
7.786,0.025,-0.020
7.788,0.030,-0.005
7.790,0.070,0.000
7.792,0.120,-0.005
7.794,-0.005,-0.020
7.796,0.010,-0.045
7.798,0.020,-0.065
7.800,-0.090,-0.085
7.802,-0.200,-0.100
7.804,-0.150,-0.105
7.806,-0.100,-0.100
7.808,-0.070,-0.095
7.810,-0.045,-0.080
7.812,0.045,-0.065
7.814,0.090,-0.055
7.816,0.095,-0.045
7.818,-0.065,-0.040
7.820,-0.120,-0.040
7.822,-0.115,-0.035
7.824,-0.020,-0.035
7.826,0.000,-0.035
7.828,-0.020,-0.035
7.830,0.035,-0.035
7.832,0.025,-0.035
7.834,0.030,-0.040
7.836,-0.020,-0.040
7.838,-0.040,-0.040
7.840,-0.020,-0.040
7.842,-0.080,-0.040
7.844,-0.025,-0.035
7.846,0.005,-0.030
7.848,0.050,-0.020
7.850,0.090,-0.020
7.852,0.050,-0.015
7.854,0.060,-0.020
7.856,0.035,-0.025
7.858,-0.070,-0.035
7.860,-0.055,-0.045
7.862,-0.075,-0.050
7.864,-0.055,-0.060
7.866,-0.075,-0.060
7.868,0.005,-0.055
7.870,-0.025,-0.045
7.872,0.055,-0.035
7.874,0.090,-0.025
7.876,0.070,-0.020
7.878,0.005,-0.020
7.880,-0.045,-0.020
7.882,-0.070,-0.025
7.884,-0.095,-0.030
7.886,-0.055,-0.040
7.888,0.025,-0.040
7.890,0.055,-0.040
7.892,0.025,-0.035
7.894,0.025,-0.025
7.896,0.080,-0.020
7.898,0.065,-0.015
7.900,-0.025,-0.015
7.902,-0.080,-0.020
7.904,-0.115,-0.035
7.906,-0.070,-0.045
7.908,0.020,-0.060
7.910,-0.055,-0.070
7.912,-0.025,-0.070
7.914,0.055,-0.060
7.916,0.070,-0.045
7.918,0.000,-0.025
7.920,0.015,-0.005
7.922,-0.030,0.010
7.924,-0.085,0.015
7.926,-0.055,0.015
7.928,0.045,0.000
7.930,0.105,-0.020
7.932,0.095,-0.040
7.934,0.045,-0.060
7.936,-0.100,-0.075
7.938,-0.175,-0.075
7.940,-0.125,-0.070
7.942,-0.060,-0.055
7.944,0.025,-0.040
7.946,-0.005,-0.025
7.948,0.060,-0.015
7.950,0.065,-0.010
7.952,0.040,-0.015
7.954,0.015,-0.025
7.956,-0.045,-0.035
7.958,-0.070,-0.050
7.960,-0.060,-0.060
7.962,-0.095,-0.065
7.964,-0.100,-0.070
7.966,-0.090,-0.065
7.968,0.020,-0.065
7.970,0.055,-0.065
7.972,0.075,-0.065
7.974,0.085,-0.065
7.976,-0.045,-0.070
7.978,-0.175,-0.080
7.980,-0.195,-0.085
7.982,-0.165,-0.090
7.984,-0.045,-0.090
7.986,0.030,-0.090
7.988,0.095,-0.090
7.990,-0.025,-0.080
7.992,-0.045,-0.070
7.994,-0.045,-0.065
7.996,-0.050,-0.055
7.998,-0.010,-0.050
8.000,-0.020,-0.045
8.002,-0.100,-0.045
8.004,-0.115,-0.045
8.006,0.005,-0.050
8.008,0.055,-0.055
8.010,0.120,-0.060
8.012,-0.010,-0.060
8.014,0.010,-0.060
8.016,-0.120,-0.060
8.018,-0.090,-0.060
8.020,-0.035,-0.060
8.022,-0.070,-0.060
8.024,-0.125,-0.065
8.026,-0.110,-0.075
8.028,0.005,-0.080
8.030,0.050,-0.090
8.032,0.060,-0.100
8.034,-0.040,-0.100
8.036,-0.270,-0.095
8.038,-0.070,-0.080
8.040,-0.065,-0.065
8.042,-0.085,-0.050
8.044,0.000,-0.035
8.046,0.030,-0.025
8.048,0.020,-0.025
8.050,0.020,-0.030
8.052,0.080,-0.045
8.054,-0.030,-0.060
8.056,-0.100,-0.075
8.058,-0.160,-0.090
8.060,-0.130,-0.095
8.062,-0.095,-0.090
8.064,-0.030,-0.080
8.066,0.035,-0.070
8.068,0.035,-0.060
8.070,-0.010,-0.055
8.072,0.015,-0.055
8.074,-0.045,-0.060
8.076,-0.005,-0.075
8.078,-0.220,-0.085
8.080,-0.150,-0.100
8.082,-0.095,-0.110
8.084,-0.030,-0.115
8.086,-0.030,-0.115
8.088,-0.035,-0.110
8.090,-0.035,-0.100
8.092,-0.040,-0.085
8.094,-0.060,-0.075
8.096,-0.045,-0.060
8.098,0.030,-0.050
8.100,-0.100,-0.045
8.102,-0.025,-0.035
8.104,-0.030,-0.030
8.106,0.000,-0.030
8.108,0.065,-0.030
8.110,0.030,-0.030
8.112,0.055,-0.030
8.114,0.010,-0.035
8.116,0.000,-0.045
8.118,-0.060,-0.050
8.120,-0.170,-0.055
8.122,-0.110,-0.055
8.124,0.000,-0.055
8.126,-0.025,-0.050
8.128,0.040,-0.045
8.130,0.110,-0.040
8.132,0.115,-0.035
8.134,0.090,-0.030
8.136,-0.060,-0.030
8.138,-0.095,-0.030
8.140,-0.125,-0.035
8.142,-0.140,-0.035
8.144,-0.120,-0.035
8.146,0.055,-0.035
8.148,0.125,-0.035
8.150,0.125,-0.035
8.152,0.130,-0.035
8.154,0.045,-0.040
8.156,-0.195,-0.045
8.158,-0.135,-0.050
8.160,-0.125,-0.060
8.162,-0.045,-0.065
8.164,-0.010,-0.070
8.166,-0.030,-0.070
8.168,0.020,-0.065
8.170,0.045,-0.060
8.172,0.020,-0.050
8.174,0.030,-0.045
8.176,-0.055,-0.040
8.178,-0.135,-0.040
8.180,-0.105,-0.050
8.182,-0.095,-0.060
8.184,-0.020,-0.075
8.186,0.080,-0.095
8.188,-0.065,-0.105
8.190,-0.110,-0.115
8.192,-0.065,-0.120
8.194,-0.045,-0.115
8.196,-0.075,-0.105
8.198,-0.065,-0.090
8.200,-0.090,-0.075
8.202,-0.095,-0.065
8.204,-0.060,-0.060
8.206,-0.100,-0.065
8.208,-0.035,-0.075
8.210,0.090,-0.090
8.212,-0.010,-0.110
8.214,-0.085,-0.125
8.216,-0.130,-0.140
8.218,-0.180,-0.145
8.220,-0.195,-0.140
8.222,-0.170,-0.135
8.224,-0.105,-0.125
8.226,0.000,-0.110
8.228,-0.065,-0.100
8.230,0.005,-0.090
8.232,0.085,-0.090
8.234,-0.030,-0.090
8.236,-0.105,-0.090
8.238,-0.120,-0.090
8.240,-0.250,-0.090
8.242,-0.235,-0.090
8.244,-0.040,-0.085
8.246,0.105,-0.075
8.248,0.075,-0.070
8.250,0.015,-0.065
8.252,0.010,-0.070
8.254,-0.045,-0.080
8.256,-0.145,-0.100
8.258,-0.225,-0.125
8.260,-0.245,-0.145
8.262,-0.215,-0.160
8.264,-0.110,-0.170
8.266,-0.100,-0.165
8.268,0.015,-0.150
8.270,-0.015,-0.115
8.272,-0.055,-0.075
8.274,-0.010,-0.030
8.276,0.070,0.025
8.278,0.085,0.080
8.280,0.100,0.135
8.282,0.160,0.195
8.284,0.245,0.255
8.286,0.395,0.325
8.288,0.545,0.400
8.290,0.650,0.475
8.292,0.695,0.545
8.294,0.605,0.600
8.296,0.670,0.630
8.298,0.595,0.625
8.300,0.470,0.585
8.302,0.420,0.505
8.304,0.445,0.400
8.306,0.365,0.270
8.308,0.270,0.140
8.310,0.115,0.015
8.312,-0.125,-0.090
8.314,-0.200,-0.165
8.316,-0.255,-0.205
8.318,-0.250,-0.215
8.320,-0.240,-0.205
8.322,-0.180,-0.170
8.324,-0.060,-0.130
8.326,0.035,-0.090
8.328,0.090,-0.055
8.330,0.105,-0.030
8.332,0.050,-0.010
8.334,-0.020,-0.005
8.336,-0.020,-0.010
8.338,-0.080,-0.020
8.340,-0.110,-0.035
8.342,-0.025,-0.050
8.344,-0.065,-0.065
8.346,-0.065,-0.080
8.348,0.075,-0.085
8.350,0.075,-0.085
8.352,-0.045,-0.080
8.354,-0.155,-0.065
8.356,-0.095,-0.055
8.358,-0.095,-0.040
8.360,-0.015,-0.025
8.362,0.020,-0.015
8.364,0.035,-0.015
8.366,0.115,-0.015
8.368,0.040,-0.015
8.370,0.030,-0.020
8.372,0.085,-0.025
8.374,-0.030,-0.025
8.376,-0.100,-0.025
8.378,-0.095,-0.030
8.380,0.005,-0.030
8.382,0.010,-0.030
8.384,-0.050,-0.030
8.386,0.020,-0.030
8.388,0.065,-0.030
8.390,0.115,-0.025
8.392,0.110,-0.015
8.394,0.065,-0.005
8.396,-0.010,0.000
8.398,-0.090,0.010
8.400,-0.055,0.010
8.402,-0.070,0.010
8.404,-0.025,0.000
8.406,0.055,-0.010
8.408,0.175,-0.025
8.410,0.120,-0.035
8.412,0.110,-0.040
8.414,-0.040,-0.035
8.416,-0.120,-0.030
8.418,-0.125,-0.015
8.420,-0.050,0.000
8.422,0.090,0.020
8.424,0.110,0.030
8.426,0.120,0.040
8.428,0.080,0.040
8.430,0.055,0.040
8.432,0.110,0.035
8.434,0.060,0.035
8.436,-0.030,0.030
8.438,0.040,0.035
8.440,0.010,0.035
8.442,0.000,0.035
8.444,0.055,0.040
8.446,0.130,0.040
8.448,0.190,0.035
8.450,0.135,0.035
8.452,0.045,0.030
8.454,0.075,0.030
8.456,-0.015,0.030
8.458,-0.025,0.035
8.460,0.015,0.045
8.462,0.020,0.060
8.464,0.105,0.075
8.466,0.180,0.095
8.468,0.360,0.115
8.470,0.275,0.130
8.472,0.165,0.145
8.474,0.080,0.150
8.476,0.105,0.155
8.478,0.055,0.150
8.480,0.035,0.145
8.482,0.085,0.140
8.484,0.240,0.135
8.486,0.335,0.135
8.488,0.335,0.145
8.490,0.195,0.160
8.492,0.075,0.180
8.494,0.245,0.205
8.496,0.240,0.225
8.498,0.180,0.245
8.500,0.160,0.255
8.502,0.255,0.250
8.504,0.330,0.240
8.506,0.320,0.225
8.508,0.265,0.210
8.510,0.340,0.200
8.512,0.310,0.190
8.514,0.140,0.195
8.516,0.155,0.205
8.518,0.075,0.220
8.520,0.275,0.240
8.522,0.335,0.260
8.524,0.270,0.275
8.526,0.385,0.280
8.528,0.415,0.280
8.530,0.380,0.275
8.532,0.295,0.270
8.534,0.210,0.260
8.536,0.175,0.250
8.538,0.190,0.240
8.540,0.185,0.235
8.542,0.295,0.230
8.544,0.310,0.220
8.546,0.325,0.215
8.548,0.300,0.205
8.550,0.215,0.190
8.552,0.115,0.175
8.554,0.155,0.155
8.556,0.115,0.140
8.558,0.055,0.120
8.560,0.020,0.105
8.562,0.160,0.085
8.564,0.185,0.070
8.566,0.140,0.055
8.568,0.130,0.045
8.570,0.060,0.030
8.572,-0.005,0.020
8.574,-0.035,0.010
8.576,-0.060,0.000
8.578,-0.095,-0.010
8.580,-0.065,-0.015
8.582,0.090,-0.020
8.584,0.160,-0.025
8.586,0.095,-0.025
8.588,0.015,-0.025
8.590,-0.085,-0.020
8.592,-0.035,-0.015
8.594,0.035,-0.010
8.596,0.030,-0.005
8.598,-0.050,-0.005
8.600,-0.010,-0.005
8.602,0.015,-0.010
8.604,0.005,-0.015
8.606,0.060,-0.025
8.608,0.065,-0.030
8.610,0.035,-0.035
8.612,-0.050,-0.040
8.614,0.000,-0.045
8.616,-0.095,-0.045
8.618,-0.080,-0.045
8.620,-0.085,-0.045
8.622,-0.020,-0.045
8.624,0.005,-0.045
8.626,0.100,-0.045
8.628,0.080,-0.045
8.630,0.010,-0.045
8.632,-0.060,-0.045
8.634,-0.095,-0.045
8.636,-0.115,-0.050
8.638,-0.140,-0.055
8.640,-0.150,-0.065
8.642,0.025,-0.070
8.644,0.140,-0.080
8.646,0.090,-0.080
8.648,-0.110,-0.080
8.650,-0.035,-0.075
8.652,-0.100,-0.065
8.654,-0.060,-0.055
8.656,-0.085,-0.045
8.658,-0.115,-0.040
8.660,-0.115,-0.035
8.662,0.025,-0.035
8.664,0.130,-0.040
8.666,0.115,-0.045
8.668,0.035,-0.045
8.670,-0.025,-0.045
8.672,-0.080,-0.045
8.674,-0.060,-0.040
8.676,-0.075,-0.040
8.678,-0.060,-0.035
8.680,-0.055,-0.040
8.682,-0.030,-0.045
8.684,0.040,-0.050
8.686,0.075,-0.060
8.688,0.080,-0.065
8.690,-0.050,-0.065
8.692,-0.105,-0.060
8.694,-0.045,-0.050
8.696,-0.050,-0.040
8.698,-0.075,-0.030
8.700,-0.030,-0.020
8.702,0.000,-0.020
8.704,0.130,-0.025
8.706,0.080,-0.035
8.708,0.055,-0.050
8.710,-0.055,-0.065
8.712,-0.130,-0.070
8.714,-0.155,-0.070
8.716,-0.205,-0.065
8.718,-0.035,-0.050
8.720,0.075,-0.030
8.722,0.125,-0.015
8.724,0.110,-0.005
8.726,0.060,-0.005
8.728,-0.020,-0.010
8.730,-0.020,-0.025
8.732,-0.105,-0.040
8.734,-0.060,-0.050
8.736,-0.035,-0.060
8.738,-0.080,-0.055
8.740,0.035,-0.045
8.742,0.045,-0.035
8.744,0.015,-0.015
8.746,0.065,-0.005
8.748,0.100,0.005
8.750,0.090,0.000
8.752,-0.015,-0.005
8.754,-0.100,-0.020
8.756,-0.070,-0.035
8.758,-0.065,-0.045
8.760,-0.015,-0.055
8.762,0.000,-0.060
8.764,0.055,-0.055
8.766,0.090,-0.055
8.768,0.000,-0.050
8.770,-0.045,-0.050
8.772,-0.085,-0.050
8.774,-0.115,-0.055
8.776,-0.135,-0.065
8.778,-0.055,-0.070
8.780,-0.035,-0.075
8.782,0.045,-0.070
8.784,0.025,-0.060
8.786,0.025,-0.045
8.788,-0.020,-0.035
8.790,0.040,-0.020
8.792,0.035,-0.015
8.794,-0.050,-0.020
8.796,-0.045,-0.025
8.798,-0.035,-0.040
8.800,-0.090,-0.060
8.802,-0.025,-0.075
8.804,0.010,-0.085
8.806,0.020,-0.085
8.808,0.035,-0.075
8.810,0.010,-0.065
8.812,-0.040,-0.045
8.814,0.000,-0.030
8.816,-0.075,-0.015
8.818,-0.095,-0.010
8.820,-0.045,-0.015
8.822,0.050,-0.025
8.824,0.075,-0.040
8.826,0.035,-0.055
8.828,0.035,-0.065
8.830,0.025,-0.075
8.832,-0.085,-0.075
8.834,-0.090,-0.075
8.836,-0.105,-0.065
8.838,-0.080,-0.055
8.840,0.015,-0.050
8.842,0.010,-0.045
8.844,0.000,-0.040
8.846,0.045,-0.045
8.848,0.015,-0.050
8.850,0.005,-0.060
8.852,-0.045,-0.070
8.854,-0.115,-0.075
8.856,-0.155,-0.075
8.858,-0.135,-0.070
8.860,-0.045,-0.065
8.862,0.055,-0.055
8.864,0.135,-0.040
8.866,0.085,-0.030
8.868,0.075,-0.020
8.870,0.030,-0.015
8.872,-0.045,-0.020
8.874,-0.075,-0.025
8.876,-0.035,-0.040
8.878,-0.075,-0.055
8.880,-0.130,-0.070
8.882,-0.025,-0.085
8.884,0.085,-0.095
8.886,0.000,-0.100
8.888,-0.050,-0.095
8.890,-0.070,-0.090
8.892,-0.070,-0.075
8.894,-0.035,-0.060
8.896,-0.020,-0.045
8.898,-0.120,-0.030
8.900,-0.035,-0.025
8.902,0.110,-0.020
8.904,0.120,-0.025
8.906,0.025,-0.035
8.908,0.045,-0.050
8.910,-0.025,-0.065
8.912,-0.160,-0.075
8.914,-0.185,-0.090
8.916,-0.070,-0.095
8.918,-0.125,-0.095
8.920,-0.035,-0.090
8.922,0.035,-0.080
8.924,0.110,-0.065
8.926,0.100,-0.050
8.928,-0.015,-0.035
8.930,-0.070,-0.025
8.932,-0.135,-0.020
8.934,-0.055,-0.020
8.936,-0.035,-0.025
8.938,-0.020,-0.035
8.940,-0.020,-0.045
8.942,0.055,-0.055
8.944,0.090,-0.060
8.946,0.095,-0.065
8.948,-0.020,-0.060
8.950,-0.110,-0.055
8.952,-0.095,-0.045
8.954,-0.065,-0.035
8.956,-0.045,-0.025
8.958,-0.015,-0.025
8.960,0.035,-0.030
8.962,0.095,-0.040
8.964,0.050,-0.050
8.966,-0.020,-0.060
8.968,0.025,-0.065
8.970,-0.105,-0.070
8.972,-0.170,-0.075
8.974,-0.095,-0.070
8.976,-0.075,-0.070
8.978,-0.020,-0.065
8.980,0.000,-0.065
8.982,0.070,-0.065
8.984,0.085,-0.070
8.986,0.035,-0.070
8.988,-0.025,-0.070
8.990,-0.115,-0.065
8.992,-0.200,-0.060
8.994,-0.125,-0.050
8.996,-0.020,-0.035
8.998,-0.005,-0.020
9.000,0.145,-0.005
9.002,0.150,0.005
9.004,0.100,0.015
9.006,0.095,0.020
9.008,0.065,0.020
9.010,0.025,0.020
9.012,0.005,0.020
9.014,0.005,0.020
9.016,0.010,0.020
9.018,0.015,0.020
9.020,0.020,0.015
9.022,0.115,0.010
9.024,0.130,0.000
9.026,0.050,-0.015
9.028,0.000,-0.030
9.030,-0.090,-0.045
9.032,-0.125,-0.055
9.034,-0.115,-0.065
9.036,-0.095,-0.075
9.038,-0.065,-0.080
9.040,-0.025,-0.085
9.042,0.065,-0.085
9.044,-0.015,-0.085
9.046,-0.010,-0.085
9.048,0.005,-0.080
9.050,-0.085,-0.080
9.052,-0.130,-0.080
9.054,-0.185,-0.075
9.056,-0.105,-0.070
9.058,-0.010,-0.070
9.060,0.035,-0.070
9.062,0.020,-0.070
9.064,0.050,-0.070
9.066,0.005,-0.075
9.068,-0.025,-0.085
9.070,-0.145,-0.090
9.072,-0.200,-0.095
9.074,-0.105,-0.100
9.076,-0.080,-0.105
9.078,-0.025,-0.105
9.080,-0.050,-0.100
9.082,0.010,-0.095
9.084,0.040,-0.090
9.086,0.010,-0.080
9.088,-0.025,-0.080
9.090,-0.100,-0.080
9.092,-0.175,-0.080
9.094,-0.155,-0.085
9.096,-0.120,-0.090
9.098,-0.055,-0.095
9.100,0.010,-0.095
9.102,0.035,-0.095
9.104,0.000,-0.090
9.106,-0.020,-0.085
9.108,-0.130,-0.085
9.110,-0.065,-0.090
9.112,-0.030,-0.100
9.114,-0.180,-0.115
9.116,-0.215,-0.130
9.118,-0.100,-0.150
9.120,-0.060,-0.165
9.122,-0.025,-0.170
9.124,-0.145,-0.170
9.126,-0.085,-0.155
9.128,-0.125,-0.130
9.130,-0.050,-0.095
9.132,-0.025,-0.050
9.134,-0.030,0.000
9.136,0.040,0.050
9.138,0.185,0.105
9.140,0.320,0.165
9.142,0.310,0.225
9.144,0.320,0.295
9.146,0.395,0.365
9.148,0.425,0.440
9.150,0.575,0.505
9.152,0.660,0.560
9.154,0.640,0.595
9.156,0.650,0.600
9.158,0.620,0.575
9.160,0.595,0.520
9.162,0.480,0.435
9.164,0.350,0.335
9.166,0.155,0.220
9.168,0.205,0.115
9.170,0.075,0.020
9.172,-0.110,-0.055
9.174,-0.155,-0.105
9.176,-0.125,-0.130
9.178,-0.095,-0.135
9.180,-0.035,-0.125
9.182,0.020,-0.110
9.184,0.060,-0.085
9.186,-0.140,-0.060
9.188,-0.005,-0.040
9.190,0.025,-0.025
9.192,-0.020,-0.010
9.194,0.005,0.000
9.196,0.070,0.005
9.198,0.045,0.005
9.200,0.075,0.005
9.202,0.070,-0.005
9.204,0.035,-0.020
9.206,-0.080,-0.035
9.208,0.005,-0.050
9.210,-0.060,-0.065
9.212,-0.080,-0.070
9.214,-0.050,-0.070
9.216,-0.100,-0.065
9.218,-0.010,-0.050
9.220,0.055,-0.035
9.222,0.180,-0.020
9.224,0.055,-0.010
9.226,0.000,-0.010
9.228,0.005,-0.015
9.230,-0.050,-0.030
9.232,-0.095,-0.045
9.234,-0.125,-0.065
9.236,-0.030,-0.075
9.238,-0.050,-0.080
9.240,0.000,-0.070
9.242,0.050,-0.060
9.244,0.135,-0.045
9.246,0.055,-0.030
9.248,-0.025,-0.020
9.250,-0.040,-0.010
9.252,-0.090,-0.010
9.254,-0.105,-0.015
9.256,0.020,-0.015
9.258,0.130,-0.015
9.260,-0.045,-0.010
9.262,0.135,0.005
9.264,0.235,0.020
9.266,0.130,0.035
9.268,0.035,0.045
9.270,-0.055,0.050
9.272,0.000,0.045
9.274,0.050,0.030
9.276,0.035,0.010
9.278,-0.010,-0.005
9.280,0.010,-0.015
9.282,0.070,-0.015
9.284,0.175,-0.010
9.286,0.095,0.010
9.288,0.095,0.025
9.290,0.010,0.045
9.292,0.050,0.055
9.294,0.015,0.055
9.296,-0.040,0.050
9.298,0.055,0.035
9.300,0.090,0.020
9.302,0.075,0.005
9.304,0.160,-0.005
9.306,0.130,-0.005
9.308,0.105,0.005
9.310,0.035,0.020
9.312,0.000,0.040
9.314,0.040,0.060
9.316,0.025,0.075
9.318,0.085,0.085
9.320,0.135,0.090
9.322,0.255,0.095
9.324,0.225,0.095
9.326,0.165,0.100
9.328,0.055,0.105
9.330,0.115,0.110
9.332,0.120,0.120
9.334,0.150,0.125
9.336,0.130,0.135
9.338,0.185,0.135
9.340,0.245,0.140
9.342,0.250,0.140
9.344,0.220,0.140
9.346,0.155,0.140
9.348,0.150,0.145
9.350,0.140,0.150
9.352,0.170,0.160
9.354,0.155,0.175
9.356,0.230,0.190
9.358,0.270,0.205
9.360,0.250,0.220
9.362,0.390,0.235
9.364,0.385,0.245
9.366,0.280,0.255
9.368,0.200,0.255
9.370,0.225,0.260
9.372,0.220,0.260
9.374,0.255,0.255
9.376,0.320,0.250
9.378,0.390,0.245
9.380,0.390,0.245
9.382,0.325,0.240
9.384,0.275,0.235
9.386,0.250,0.235
9.388,0.185,0.230
9.390,0.240,0.230
9.392,0.165,0.225
9.394,0.180,0.225
9.396,0.325,0.225
9.398,0.360,0.225
9.400,0.290,0.225
9.402,0.215,0.220
9.404,0.300,0.220
9.406,0.315,0.215
9.408,0.265,0.210
9.410,0.120,0.200
9.412,0.140,0.185
9.414,0.160,0.165
9.416,0.175,0.140
9.418,0.185,0.110
9.420,0.220,0.080
9.422,0.075,0.050
9.424,0.085,0.025
9.426,0.095,0.010
9.428,0.050,-0.005
9.430,-0.060,-0.005
9.432,-0.065,-0.005
9.434,-0.075,0.000
9.436,0.090,0.010
9.438,0.140,0.020
9.440,0.120,0.025
9.442,0.110,0.025
9.444,0.105,0.020
9.446,0.085,0.010
9.448,0.015,0.000
9.450,-0.105,-0.015
9.452,-0.050,-0.025
9.454,-0.030,-0.040
9.456,0.010,-0.050
9.458,0.070,-0.060
9.460,0.010,-0.070
9.462,-0.005,-0.075
9.464,-0.055,-0.075
9.466,-0.090,-0.075
9.468,-0.145,-0.075
9.470,0.030,-0.070
9.472,-0.045,-0.065
9.474,-0.085,-0.055
9.476,-0.035,-0.050
9.478,0.050,-0.040
9.480,0.035,-0.035
9.482,0.130,-0.030
9.484,0.120,-0.030
9.486,0.000,-0.030
9.488,-0.095,-0.040
9.490,-0.140,-0.050
9.492,-0.135,-0.060
9.494,-0.075,-0.065
9.496,0.055,-0.075
9.498,0.185,-0.080
9.500,0.050,-0.075
9.502,-0.105,-0.075
9.504,-0.040,-0.070
9.506,0.005,-0.065
9.508,-0.120,-0.060
9.510,-0.090,-0.055
9.512,-0.030,-0.055
9.514,-0.045,-0.055
9.516,0.080,-0.060
9.518,0.045,-0.060
9.520,-0.020,-0.055
9.522,-0.055,-0.055
9.524,0.020,-0.050
9.526,0.010,-0.040
9.528,-0.035,-0.035
9.530,-0.045,-0.030
9.532,-0.070,-0.030
9.534,-0.010,-0.030
9.536,0.000,-0.035
9.538,0.080,-0.040
9.540,0.065,-0.045
9.542,0.045,-0.050
9.544,0.005,-0.055
9.546,-0.105,-0.055
9.548,-0.035,-0.055
9.550,-0.075,-0.055
9.552,-0.090,-0.055
9.554,-0.035,-0.055
9.556,0.040,-0.050
9.558,0.000,-0.045
9.560,0.110,-0.040
9.562,0.100,-0.035
9.564,0.090,-0.030
9.566,0.015,-0.025
9.568,-0.080,-0.025
9.570,-0.210,-0.025
9.572,-0.010,-0.035
9.574,-0.020,-0.045
9.576,-0.030,-0.055
9.578,-0.020,-0.065
9.580,0.115,-0.075
9.582,0.060,-0.080
9.584,-0.075,-0.080
9.586,-0.055,-0.075
9.588,-0.055,-0.065
9.590,-0.095,-0.055
9.592,-0.095,-0.050
9.594,-0.045,-0.040
9.596,-0.015,-0.040
9.598,0.075,-0.035
9.600,0.115,-0.040
9.602,0.055,-0.040
9.604,0.000,-0.045
9.606,-0.010,-0.045
9.608,-0.035,-0.045
9.610,-0.105,-0.050
9.612,-0.095,-0.055
9.614,-0.055,-0.060
9.616,-0.015,-0.070
9.618,0.060,-0.080
9.620,-0.010,-0.085
9.622,0.080,-0.085
9.624,-0.065,-0.085
9.626,-0.110,-0.080
9.628,-0.030,-0.070
9.630,-0.110,-0.055
9.632,-0.050,-0.045
9.634,0.090,-0.045
9.636,0.000,-0.045
9.638,-0.020,-0.055
9.640,0.030,-0.070
9.642,0.045,-0.085
9.644,-0.050,-0.100
9.646,-0.130,-0.110
9.648,-0.155,-0.110
9.650,-0.080,-0.100
9.652,-0.035,-0.085
9.654,-0.080,-0.065
9.656,0.025,-0.045
9.658,0.135,-0.035
9.660,0.075,-0.025
9.662,0.040,-0.025
9.664,-0.015,-0.035
9.666,-0.085,-0.045
9.668,-0.125,-0.055
9.670,-0.095,-0.065
9.672,-0.105,-0.075
9.674,0.020,-0.080
9.676,0.080,-0.080
9.678,0.020,-0.075
9.680,0.055,-0.075
9.682,0.030,-0.075
9.684,-0.055,-0.075
9.686,-0.095,-0.075
9.688,-0.070,-0.075
9.690,-0.125,-0.070
9.692,-0.150,-0.060
9.694,0.010,-0.045
9.696,0.065,-0.030
9.698,0.070,-0.015
9.700,0.180,-0.005
9.702,0.075,0.000
9.704,0.065,-0.005
9.706,-0.015,-0.015
9.708,-0.075,-0.035
9.710,-0.150,-0.055
9.712,-0.105,-0.075
9.714,-0.095,-0.090
9.716,-0.015,-0.095
9.718,0.100,-0.090
9.720,0.090,-0.080
9.722,0.040,-0.065
9.724,-0.060,-0.050
9.726,-0.140,-0.040
9.728,-0.110,-0.040
9.730,-0.070,-0.045
9.732,0.070,-0.055
9.734,-0.005,-0.065
9.736,-0.025,-0.075
9.738,0.050,-0.085
9.740,0.005,-0.085
9.742,0.030,-0.075
9.744,-0.055,-0.065
9.746,-0.080,-0.050
9.748,-0.090,-0.035
9.750,-0.010,-0.025
9.752,0.040,-0.020
9.754,0.035,-0.020
9.756,0.070,-0.030
9.758,0.050,-0.045
9.760,-0.035,-0.060
9.762,-0.050,-0.070
9.764,-0.005,-0.085
9.766,-0.070,-0.090
9.768,-0.135,-0.095
9.770,-0.110,-0.090
9.772,-0.055,-0.090
9.774,0.020,-0.080
9.776,0.070,-0.075
9.778,0.075,-0.065
9.780,0.065,-0.055
9.782,-0.030,-0.045
9.784,-0.005,-0.035
9.786,0.015,-0.025
9.788,-0.060,-0.020
9.790,-0.080,-0.015
9.792,-0.070,-0.015
9.794,0.055,-0.020
9.796,0.105,-0.025
9.798,0.095,-0.030
9.800,0.050,-0.040
9.802,0.050,-0.045
9.804,-0.045,-0.045
9.806,-0.070,-0.050
9.808,-0.105,-0.045
9.810,-0.070,-0.040
9.812,-0.030,-0.040
9.814,0.070,-0.035
9.816,0.110,-0.030
9.818,0.055,-0.030
9.820,0.060,-0.030
9.822,0.030,-0.030
9.824,0.025,-0.030
9.826,0.025,-0.025
9.828,-0.045,-0.025
9.830,-0.080,-0.020
9.832,-0.030,-0.020
9.834,0.065,-0.020
9.836,0.110,-0.020
9.838,0.110,-0.020
9.840,0.110,-0.020
9.842,0.010,-0.025
9.844,0.005,-0.025
9.846,0.020,-0.030
9.848,-0.110,-0.030
9.850,-0.110,-0.030
9.852,0.000,-0.030
9.854,0.125,-0.025
9.856,0.095,-0.020
9.858,0.000,-0.010
9.860,0.090,-0.005
9.862,0.140,0.005
9.864,0.055,0.015
9.866,-0.005,0.025
9.868,0.005,0.030
9.870,-0.010,0.035
9.872,0.010,0.035
9.874,0.125,0.035
9.876,0.120,0.030
9.878,0.140,0.020
9.880,0.100,0.010
9.882,0.080,0.000
9.884,0.020,-0.015
9.886,-0.075,-0.025
9.888,-0.105,-0.040
9.890,-0.070,-0.045
9.892,-0.040,-0.055
9.894,-0.005,-0.060
9.896,0.070,-0.060
9.898,0.105,-0.055
9.900,0.035,-0.050
9.902,-0.020,-0.045
9.904,-0.090,-0.040
9.906,0.005,-0.035
9.908,0.010,-0.030
9.910,-0.075,-0.035
9.912,-0.045,-0.040
9.914,0.040,-0.055
9.916,0.005,-0.070
9.918,-0.015,-0.090
9.920,-0.005,-0.100
9.922,-0.010,-0.110
9.924,-0.005,-0.110
9.926,-0.150,-0.105
9.928,-0.180,-0.095
9.930,-0.030,-0.085
9.932,0.025,-0.070
9.934,0.020,-0.065
9.936,-0.020,-0.060
9.938,-0.095,-0.060
9.940,0.015,-0.065
9.942,0.065,-0.070
9.944,0.050,-0.070
9.946,-0.095,-0.070
9.948,-0.090,-0.070
9.950,-0.095,-0.060
9.952,-0.045,-0.050
9.954,0.040,-0.045
9.956,0.060,-0.040
9.958,0.080,-0.040
9.960,0.045,-0.050
9.962,0.015,-0.060
9.964,-0.040,-0.075
9.966,-0.195,-0.090
9.968,-0.150,-0.100
9.970,-0.090,-0.105
9.972,-0.075,-0.105
9.974,-0.005,-0.105
9.976,0.060,-0.100
9.978,0.060,-0.095
9.980,-0.010,-0.095
9.982,-0.100,-0.095
9.984,-0.145,-0.100
9.986,-0.125,-0.105
9.988,-0.170,-0.105
9.990,-0.090,-0.095
9.992,-0.015,-0.075
9.994,0.150,-0.035
9.996,0.210,0.015
9.998,0.240,0.085
