'Elapsed time','ECG I','ECG I filtered'
'seconds','mV','mV'
0.000,0.025,-0.055
0.002,0.070,-0.050
0.004,0.065,-0.050
0.006,0.065,-0.050
0.008,0.035,-0.050
0.010,0.000,-0.050
0.012,-0.030,-0.055
0.014,-0.010,-0.055
0.016,-0.010,-0.055
0.018,0.015,-0.050
0.020,0.065,-0.045
0.022,0.115,-0.040
0.024,0.115,-0.035
0.026,0.100,-0.030
0.028,0.055,-0.030
0.030,0.020,-0.030
0.032,0.005,-0.030
0.034,-0.010,-0.035
0.036,0.000,-0.040
0.038,0.030,-0.045
0.040,0.050,-0.045
0.042,0.085,-0.050
0.044,0.075,-0.055
0.046,0.045,-0.060
0.048,0.030,-0.065
0.050,-0.025,-0.070
0.052,-0.055,-0.075
0.054,-0.045,-0.080
0.056,-0.020,-0.080
0.058,0.020,-0.080
0.060,0.075,-0.075
0.062,0.090,-0.070
0.064,0.080,-0.065
0.066,0.070,-0.060
0.068,0.015,-0.065
0.070,-0.050,-0.070
0.072,-0.085,-0.075
0.074,-0.120,-0.085
0.076,-0.095,-0.085
0.078,-0.010,-0.075
0.080,0.105,-0.060
0.082,0.175,-0.025
0.084,0.230,0.020
0.086,0.245,0.075
0.088,0.235,0.135
0.090,0.230,0.200
0.092,0.280,0.260
0.094,0.340,0.315
0.096,0.440,0.365
0.098,0.520,0.405
0.100,0.560,0.435
0.102,0.605,0.450
0.104,0.615,0.455
0.106,0.590,0.440
0.108,0.515,0.415
0.110,0.420,0.370
0.112,0.330,0.315
0.114,0.265,0.245
0.116,0.175,0.175
0.118,0.105,0.105
0.120,0.090,0.045
0.122,0.095,0.000
0.124,0.120,-0.030
0.126,0.095,-0.045
0.128,0.080,-0.040
0.130,0.070,-0.030
0.132,0.055,-0.015
0.134,0.045,0.000
0.136,0.040,0.010
0.138,0.050,0.010
0.140,0.100,0.005
0.142,0.105,-0.005
0.144,0.105,-0.020
0.146,0.085,-0.030
0.148,0.040,-0.040
0.150,0.000,-0.045
0.152,-0.035,-0.045
0.154,-0.045,-0.050
0.156,0.000,-0.050
0.158,0.020,-0.050
0.160,0.080,-0.050
0.162,0.130,-0.050
0.164,0.110,-0.050
0.166,0.115,-0.050
0.168,0.070,-0.045
0.170,0.015,-0.040
0.172,0.000,-0.035
0.174,0.005,-0.030
0.176,0.015,-0.025
0.178,0.035,-0.025
0.180,0.095,-0.025
0.182,0.110,-0.030
0.184,0.120,-0.035
0.186,0.085,-0.040
0.188,0.055,-0.045
0.190,-0.005,-0.045
0.192,0.000,-0.040
0.194,0.020,-0.035
0.196,0.030,-0.025
0.198,0.055,-0.015
0.200,0.105,-0.010
0.202,0.120,-0.005
0.204,0.135,-0.005
0.206,0.125,-0.005
0.208,0.070,-0.010
0.210,0.025,-0.015
0.212,0.025,-0.020
0.214,0.030,-0.020
0.216,0.035,-0.020
0.218,0.045,-0.020
0.220,0.110,-0.015
0.222,0.150,-0.015
0.224,0.150,-0.010
0.226,0.100,-0.010
0.228,0.070,-0.010
0.230,0.025,-0.015
0.232,0.010,-0.015
0.234,0.005,-0.015
0.236,0.040,-0.015
0.238,0.080,-0.010
0.240,0.155,-0.005
0.242,0.185,0.005
0.244,0.185,0.015
0.246,0.180,0.025
0.248,0.120,0.030
0.250,0.085,0.040
0.252,0.075,0.040
0.254,0.080,0.045
0.256,0.095,0.045
0.258,0.125,0.040
0.260,0.160,0.040
0.262,0.165,0.035
0.264,0.180,0.035
0.266,0.160,0.035
0.268,0.120,0.035
0.270,0.090,0.035
0.272,0.060,0.040
0.274,0.070,0.045
0.276,0.130,0.055
0.278,0.185,0.060
0.280,0.220,0.065
0.282,0.235,0.075
0.284,0.235,0.080
0.286,0.235,0.090
0.288,0.205,0.100
0.290,0.170,0.105
0.292,0.160,0.115
0.294,0.175,0.120
0.296,0.190,0.125
0.298,0.230,0.130
0.300,0.245,0.130
0.302,0.260,0.135
0.304,0.290,0.135
0.306,0.260,0.140
0.308,0.210,0.145
0.310,0.175,0.155
0.312,0.200,0.165
0.314,0.230,0.170
0.316,0.280,0.180
0.318,0.325,0.185
0.320,0.335,0.185
0.322,0.330,0.185
0.324,0.310,0.180
0.326,0.285,0.170
0.328,0.215,0.160
0.330,0.195,0.155
0.332,0.195,0.150
0.334,0.195,0.150
0.336,0.225,0.150
0.338,0.290,0.155
0.340,0.310,0.160
0.342,0.325,0.160
0.344,0.320,0.160
0.346,0.270,0.160
0.348,0.190,0.150
0.350,0.135,0.145
0.352,0.100,0.130
0.354,0.110,0.120
0.356,0.180,0.105
0.358,0.245,0.095
0.360,0.245,0.085
0.362,0.235,0.080
0.364,0.220,0.070
0.366,0.185,0.065
0.368,0.125,0.060
0.370,0.085,0.055
0.372,0.060,0.050
0.374,0.055,0.040
0.376,0.070,0.030
0.378,0.105,0.020
0.380,0.115,0.010
0.382,0.145,0.000
0.384,0.135,-0.005
0.386,0.135,-0.010
0.388,0.090,-0.010
0.390,0.050,-0.015
0.392,0.040,-0.015
0.394,0.025,-0.020
0.396,0.005,-0.025
0.398,0.040,-0.030
0.400,0.090,-0.035
0.402,0.090,-0.035
0.404,0.095,-0.040
0.406,0.105,-0.040
0.408,0.050,-0.035
0.410,0.010,-0.035
0.412,0.005,-0.030
0.414,0.000,-0.025
0.416,0.030,-0.025
0.418,0.080,-0.025
0.420,0.110,-0.025
0.422,0.120,-0.030
0.424,0.095,-0.035
0.426,0.040,-0.045
0.428,-0.010,-0.050
0.430,-0.025,-0.055
0.432,-0.055,-0.060
0.434,-0.035,-0.065
0.436,0.025,-0.065
0.438,0.075,-0.065
0.440,0.085,-0.065
0.442,0.120,-0.060
0.444,0.105,-0.060
0.446,0.075,-0.055
0.448,-0.005,-0.050
0.450,-0.025,-0.045
0.452,-0.020,-0.040
0.454,0.020,-0.030
0.456,0.055,-0.030
0.458,0.090,-0.025
0.460,0.120,-0.025
0.462,0.115,-0.030
0.464,0.085,-0.035
0.466,0.050,-0.040
0.468,-0.035,-0.045
0.470,-0.040,-0.050
0.472,-0.045,-0.050
0.474,-0.020,-0.050
0.476,0.060,-0.045
0.478,0.105,-0.040
0.480,0.130,-0.035
0.482,0.120,-0.030
0.484,0.085,-0.025
0.486,0.055,-0.025
0.488,0.000,-0.025
0.490,-0.020,-0.030
0.492,-0.015,-0.035
0.494,0.005,-0.040
0.496,0.050,-0.040
0.498,0.115,-0.040
0.500,0.125,-0.040
0.502,0.135,-0.035
0.504,0.110,-0.035
0.506,0.055,-0.030
0.508,-0.020,-0.035
0.510,-0.035,-0.040
0.512,-0.050,-0.050
0.514,-0.015,-0.060
0.516,0.015,-0.070
0.518,0.075,-0.075
0.520,0.090,-0.075
0.522,0.065,-0.070
0.524,0.050,-0.055
0.526,0.045,-0.040
0.528,0.060,-0.025
0.530,0.030,-0.010
0.532,0.035,0.000
0.534,0.065,0.005
0.536,0.095,0.005
0.538,0.110,0.000
0.540,0.110,-0.010
0.542,0.110,-0.020
0.544,0.070,-0.030
0.546,0.030,-0.040
0.548,-0.010,-0.045
0.550,-0.025,-0.045
0.552,-0.020,-0.045
0.554,0.030,-0.040
0.556,0.055,-0.040
0.558,0.105,-0.040
0.560,0.115,-0.040
0.562,0.100,-0.045
0.564,0.050,-0.050
0.566,0.020,-0.060
0.568,-0.055,-0.065
0.570,-0.045,-0.070
0.572,-0.025,-0.070
0.574,-0.005,-0.070
0.576,0.035,-0.065
0.578,0.095,-0.060
0.580,0.125,-0.055
0.582,0.110,-0.050
0.584,0.115,-0.040
0.586,0.045,-0.030
0.588,-0.010,-0.025
0.590,-0.010,-0.020
0.592,-0.010,-0.020
0.594,0.015,-0.020
0.596,0.045,-0.020
0.598,0.085,-0.030
0.600,0.080,-0.040
0.602,0.070,-0.050
0.604,0.055,-0.065
0.606,0.015,-0.075
0.608,-0.045,-0.085
0.610,-0.065,-0.085
0.612,-0.055,-0.090
0.614,-0.010,-0.085
0.616,0.045,-0.075
0.618,0.070,-0.065
0.620,0.100,-0.055
0.622,0.105,-0.045
0.624,0.065,-0.040
0.626,0.025,-0.035
0.628,-0.015,-0.030
0.630,-0.050,-0.035
0.632,-0.045,-0.040
0.634,0.015,-0.045
0.636,0.070,-0.055
0.638,0.090,-0.060
0.640,0.095,-0.065
0.642,0.080,-0.065
0.644,0.050,-0.065
0.646,-0.015,-0.060
0.648,-0.065,-0.050
0.650,-0.040,-0.045
0.652,-0.015,-0.030
0.654,0.070,-0.020
0.656,0.120,-0.015
0.658,0.135,-0.010
0.660,0.130,-0.005
0.662,0.120,-0.005
0.664,0.060,-0.005
0.666,0.015,-0.010
0.668,-0.005,-0.015
0.670,0.015,-0.015
0.672,0.035,-0.020
0.674,0.055,-0.020
0.676,0.085,-0.020
0.678,0.100,-0.020
0.680,0.100,-0.020
0.682,0.110,-0.020
0.684,0.065,-0.020
0.686,0.000,-0.020
0.688,0.005,-0.020
0.690,-0.010,-0.025
0.692,0.030,-0.025
0.694,0.050,-0.020
0.696,0.085,-0.020
0.698,0.150,-0.015
0.700,0.140,-0.015
0.702,0.115,-0.010
0.704,0.070,-0.005
0.706,0.015,-0.005
0.708,-0.010,-0.005
0.710,0.020,-0.010
0.712,0.015,-0.015
0.714,0.050,-0.020
0.716,0.070,-0.030
0.718,0.080,-0.035
0.720,0.090,-0.045
0.722,0.060,-0.050
0.724,0.055,-0.055
0.726,-0.040,-0.060
0.728,-0.065,-0.060
0.730,-0.030,-0.060
0.732,-0.030,-0.060
0.734,-0.005,-0.060
0.736,0.045,-0.055
0.738,0.090,-0.055
0.740,0.095,-0.055
0.742,0.080,-0.060
0.744,0.050,-0.060
0.746,-0.010,-0.060
0.748,-0.045,-0.065
0.750,-0.070,-0.065
0.752,-0.035,-0.065
0.754,0.000,-0.065
0.756,0.050,-0.065
0.758,0.075,-0.070
0.760,0.075,-0.070
0.762,0.050,-0.070
0.764,0.020,-0.070
0.766,-0.035,-0.070
0.768,-0.070,-0.070
0.770,-0.065,-0.070
0.772,-0.045,-0.065
0.774,-0.030,-0.060
0.776,0.040,-0.060
0.778,0.075,-0.055
0.780,0.085,-0.055
0.782,0.050,-0.060
0.784,0.025,-0.065
0.786,-0.040,-0.070
0.788,-0.075,-0.075
0.790,-0.070,-0.075
0.792,-0.040,-0.075
0.794,0.000,-0.070
0.796,0.030,-0.070
0.798,0.045,-0.065
0.800,0.080,-0.065
0.802,0.045,-0.065
0.804,-0.005,-0.070
0.806,-0.095,-0.080
0.808,-0.115,-0.090
0.810,-0.100,-0.100
0.812,-0.060,-0.100
0.814,-0.005,-0.090
0.816,0.075,-0.070
0.818,0.120,-0.035
0.820,0.160,0.015
0.822,0.195,0.080
0.824,0.255,0.155
0.826,0.270,0.240
0.828,0.320,0.320
0.830,0.415,0.395
0.832,0.555,0.465
0.834,0.660,0.515
0.836,0.690,0.545
0.838,0.685,0.555
0.840,0.635,0.545
0.842,0.545,0.510
0.844,0.470,0.450
0.846,0.455,0.380
0.848,0.365,0.295
0.850,0.250,0.205
0.852,0.135,0.120
0.854,0.050,0.045
0.856,-0.005,-0.015
0.858,0.045,-0.055
0.860,0.060,-0.080
0.862,0.060,-0.090
0.864,0.035,-0.090
0.866,-0.030,-0.075
0.868,-0.055,-0.060
0.870,-0.045,-0.050
0.872,0.010,-0.035
0.874,0.065,-0.030
0.876,0.080,-0.025
0.878,0.085,-0.025
0.880,0.080,-0.030
0.882,0.030,-0.030
0.884,0.025,-0.035
0.886,0.030,-0.035
0.888,0.015,-0.040
0.890,-0.035,-0.040
0.892,-0.035,-0.035
0.894,0.020,-0.035
0.896,0.065,-0.035
0.898,0.100,-0.030
0.900,0.100,-0.030
0.902,0.070,-0.030
0.904,0.040,-0.025
0.906,0.030,-0.025
0.908,0.020,-0.020
0.910,-0.005,-0.015
0.912,0.000,-0.015
0.914,0.010,-0.010
0.916,0.080,-0.010
0.918,0.110,-0.010
0.920,0.125,-0.010
0.922,0.080,-0.010
0.924,0.030,-0.015
0.926,0.010,-0.015
0.928,0.010,-0.020
0.930,0.005,-0.020
0.932,0.025,-0.015
0.934,0.070,-0.015
0.936,0.115,-0.010
0.938,0.125,-0.005
0.940,0.100,0.000
0.942,0.075,0.000
0.944,0.025,0.005
0.946,-0.010,0.005
0.948,-0.025,0.000
0.950,-0.010,0.000
0.952,0.020,-0.005
0.954,0.075,-0.010
0.956,0.095,-0.010
0.958,0.115,-0.010
0.960,0.110,-0.010
0.962,0.100,-0.005
0.964,0.055,0.000
0.966,0.010,0.005
0.968,-0.005,0.010
0.970,-0.010,0.015
0.972,0.035,0.015
0.974,0.110,0.015
0.976,0.150,0.015
0.978,0.180,0.015
0.980,0.145,0.015
0.982,0.085,0.015
0.984,0.010,0.020
0.986,0.005,0.025
0.988,-0.010,0.035
0.990,0.055,0.045
0.992,0.085,0.050
0.994,0.145,0.060
0.996,0.185,0.065
0.998,0.185,0.070
1.000,0.185,0.070
1.002,0.160,0.070
1.004,0.105,0.065
1.006,0.055,0.065
1.008,0.010,0.060
1.010,0.050,0.060
1.012,0.105,0.065
1.014,0.195,0.065
1.016,0.220,0.070
1.018,0.175,0.080
1.020,0.190,0.085
1.022,0.200,0.090
1.024,0.160,0.095
1.026,0.090,0.100
1.028,0.080,0.100
1.030,0.100,0.100
1.032,0.155,0.100
1.034,0.215,0.105
1.036,0.265,0.110
1.038,0.280,0.120
1.040,0.280,0.130
1.042,0.245,0.145
1.044,0.190,0.165
1.046,0.185,0.180
1.048,0.180,0.190
1.050,0.195,0.200
1.052,0.205,0.205
1.054,0.280,0.205
1.056,0.315,0.195
1.058,0.315,0.190
1.060,0.275,0.180
1.062,0.210,0.170
1.064,0.155,0.160
1.066,0.090,0.155
1.068,0.125,0.150
1.070,0.185,0.150
1.072,0.230,0.150
1.074,0.280,0.155
1.076,0.270,0.155
1.078,0.260,0.155
1.080,0.245,0.155
1.082,0.205,0.150
1.084,0.140,0.145
1.086,0.110,0.130
1.088,0.100,0.115
1.090,0.085,0.100
1.092,0.080,0.080
1.094,0.130,0.060
1.096,0.135,0.045
1.098,0.130,0.030
1.100,0.095,0.025
1.102,0.070,0.020
1.104,0.065,0.025
1.106,0.070,0.030
1.108,0.065,0.035
1.110,0.075,0.045
1.112,0.090,0.050
1.114,0.120,0.055
1.116,0.120,0.050
1.118,0.115,0.045
1.120,0.085,0.035
1.122,0.050,0.020
1.124,0.010,0.005
1.126,-0.035,-0.010
1.128,-0.030,-0.025
1.130,0.000,-0.035
1.132,0.005,-0.040
1.134,0.010,-0.040
1.136,0.060,-0.040
1.138,0.095,-0.040
1.140,0.090,-0.035
1.142,0.025,-0.030
1.144,-0.030,-0.025
1.146,-0.055,-0.025
1.148,-0.025,-0.025
1.150,-0.015,-0.025
1.152,0.000,-0.030
1.154,0.050,-0.030
1.156,0.070,-0.035
1.158,0.050,-0.040
1.160,0.045,-0.040
1.162,0.010,-0.045
1.164,-0.065,-0.045
1.166,-0.090,-0.045
1.168,-0.065,-0.050
1.170,-0.020,-0.050
1.172,0.025,-0.050
1.174,0.065,-0.050
1.176,0.050,-0.050
1.178,0.035,-0.055
1.180,0.020,-0.050
1.182,-0.040,-0.050
1.184,-0.085,-0.050
1.186,-0.070,-0.045
1.188,-0.065,-0.040
1.190,-0.010,-0.040
1.192,0.045,-0.035
1.194,0.070,-0.030
1.196,0.065,-0.025
1.198,0.065,-0.025
1.200,0.050,-0.025
1.202,0.020,-0.025
1.204,-0.010,-0.020
1.206,-0.015,-0.020
1.208,-0.035,-0.020
1.210,0.000,-0.020
1.212,0.055,-0.020
1.214,0.065,-0.015
1.216,0.070,-0.015
1.218,0.070,-0.010
1.220,0.045,-0.010
1.222,0.005,-0.005
1.224,-0.035,-0.005
1.226,-0.045,-0.005
1.228,-0.035,-0.005
1.230,-0.005,-0.005
1.232,0.040,-0.005
1.234,0.065,-0.005
1.236,0.085,-0.010
1.238,0.065,-0.010
1.240,0.040,-0.015
1.242,-0.030,-0.020
1.244,-0.050,-0.030
1.246,-0.050,-0.035
1.248,-0.010,-0.040
1.250,-0.005,-0.050
1.252,-0.020,-0.055
1.254,0.025,-0.055
1.256,0.040,-0.055
1.258,0.055,-0.050
1.260,0.040,-0.045
1.262,0.035,-0.035
1.264,0.020,-0.020
1.266,0.000,-0.010
1.268,-0.010,0.000
1.270,0.005,0.005
1.272,0.055,0.005
1.274,0.080,0.000
1.276,0.095,-0.005
1.278,0.065,-0.015
1.280,0.025,-0.030
1.282,-0.050,-0.040
1.284,-0.070,-0.050
1.286,-0.060,-0.060
1.288,-0.025,-0.060
1.290,0.005,-0.060
1.292,0.050,-0.055
1.294,0.070,-0.050
1.296,0.075,-0.045
1.298,0.050,-0.035
1.300,0.020,-0.030
1.302,-0.015,-0.025
1.304,-0.045,-0.020
1.306,-0.025,-0.020
1.308,-0.030,-0.015
1.310,-0.020,-0.020
1.312,0.050,-0.020
1.314,0.095,-0.020
1.316,0.085,-0.025
1.318,0.045,-0.025
1.320,0.000,-0.030
1.322,-0.050,-0.030
1.324,-0.080,-0.035
1.326,-0.090,-0.040
1.328,-0.030,-0.040
1.330,-0.015,-0.045
1.332,0.045,-0.045
1.334,0.085,-0.045
1.336,0.070,-0.045
1.338,0.055,-0.040
1.340,0.025,-0.030
1.342,-0.030,-0.025
1.344,-0.060,-0.015
1.346,-0.070,-0.015
1.348,-0.050,-0.010
1.350,-0.010,-0.015
1.352,0.030,-0.025
1.354,0.060,-0.035
1.356,0.030,-0.050
1.358,-0.015,-0.060
1.360,-0.025,-0.070
1.362,-0.065,-0.080
1.364,-0.075,-0.080
1.366,-0.075,-0.075
1.368,-0.065,-0.065
1.370,-0.035,-0.050
1.372,0.045,-0.035
1.374,0.080,-0.025
1.376,0.085,-0.015
1.378,0.070,-0.015
1.380,0.030,-0.020
1.382,-0.045,-0.030
1.384,-0.065,-0.040
1.386,-0.100,-0.050
1.388,-0.105,-0.060
1.390,-0.060,-0.065
1.392,0.025,-0.065
1.394,0.080,-0.060
1.396,0.090,-0.050
1.398,0.050,-0.040
1.400,-0.020,-0.030
1.402,-0.055,-0.020
1.404,-0.070,-0.020
1.406,-0.070,-0.020
1.408,-0.045,-0.025
1.410,-0.020,-0.035
1.412,0.025,-0.050
1.414,0.010,-0.060
1.416,0.035,-0.075
1.418,0.000,-0.080
1.420,-0.065,-0.085
1.422,-0.110,-0.090
1.424,-0.125,-0.085
1.426,-0.105,-0.080
1.428,-0.025,-0.075
1.430,0.020,-0.070
1.432,0.055,-0.060
1.434,0.065,-0.050
1.436,0.065,-0.045
1.438,0.025,-0.040
1.440,0.000,-0.035
1.442,-0.040,-0.030
1.444,-0.040,-0.030
1.446,-0.030,-0.030
1.448,-0.015,-0.030
1.450,0.020,-0.030
1.452,0.055,-0.035
1.454,0.045,-0.035
1.456,0.050,-0.035
1.458,0.030,-0.035
1.460,-0.010,-0.035
1.462,-0.045,-0.035
1.464,-0.040,-0.030
1.466,-0.050,-0.030
1.468,-0.025,-0.025
1.470,0.030,-0.025
1.472,0.085,-0.020
1.474,0.110,-0.020
1.476,0.080,-0.015
1.478,0.045,-0.015
1.480,-0.010,-0.015
1.482,-0.065,-0.010
1.484,-0.095,-0.010
1.486,-0.075,-0.010
1.488,-0.030,-0.010
1.490,0.025,-0.010
1.492,0.110,-0.010
1.494,0.125,-0.010
1.496,0.105,-0.010
1.498,0.005,-0.015
1.500,-0.025,-0.015
1.502,-0.055,-0.020
1.504,-0.080,-0.025
1.506,-0.070,-0.030
1.508,-0.060,-0.040
1.510,-0.020,-0.045
1.512,0.015,-0.050
1.514,0.015,-0.055
1.516,0.015,-0.055
1.518,0.030,-0.055
1.520,-0.015,-0.055
1.522,-0.075,-0.055
1.524,-0.115,-0.055
1.526,-0.090,-0.055
1.528,-0.050,-0.060
1.530,-0.035,-0.065
1.532,-0.035,-0.070
1.534,-0.010,-0.075
1.536,0.000,-0.080
1.538,-0.020,-0.085
1.540,-0.075,-0.080
1.542,-0.120,-0.080
1.544,-0.100,-0.075
1.546,-0.090,-0.075
1.548,-0.070,-0.070
1.550,-0.045,-0.070
1.552,-0.005,-0.075
1.554,0.005,-0.080
1.556,-0.015,-0.085
1.558,-0.030,-0.090
1.560,-0.100,-0.095
1.562,-0.155,-0.095
1.564,-0.135,-0.095
1.566,-0.105,-0.095
1.568,-0.070,-0.090
1.570,-0.010,-0.090
1.572,-0.010,-0.090
1.574,-0.015,-0.095
1.576,-0.040,-0.100
1.578,-0.070,-0.110
1.580,-0.140,-0.115
1.582,-0.130,-0.115
1.584,-0.145,-0.115
1.586,-0.110,-0.110
1.588,-0.060,-0.100
1.590,-0.020,-0.095
1.592,-0.010,-0.090
1.594,0.010,-0.085
1.596,-0.030,-0.085
1.598,-0.080,-0.090
1.600,-0.125,-0.095
1.602,-0.140,-0.095
1.604,-0.105,-0.085
1.606,-0.035,-0.060
1.608,0.040,-0.025
1.610,0.125,0.030
1.612,0.195,0.100
1.614,0.235,0.180
1.616,0.320,0.265
1.618,0.410,0.350
1.620,0.450,0.425
1.622,0.500,0.490
1.624,0.535,0.535
1.626,0.560,0.560
1.628,0.580,0.555
1.630,0.580,0.530
1.632,0.540,0.480
1.634,0.475,0.410
1.636,0.370,0.320
1.638,0.250,0.225
1.640,0.070,0.130
1.642,-0.035,0.040
1.644,-0.095,-0.035
1.646,-0.135,-0.090
1.648,-0.120,-0.125
1.650,-0.095,-0.140
1.652,-0.055,-0.135
1.654,-0.010,-0.115
1.656,0.015,-0.085
1.658,0.020,-0.060
1.660,-0.015,-0.035
1.662,-0.035,-0.025
1.664,-0.060,-0.015
1.666,-0.065,-0.020
1.668,-0.060,-0.025
1.670,-0.005,-0.040
1.672,0.030,-0.050
1.674,0.015,-0.060
1.676,0.000,-0.065
1.678,-0.035,-0.065
1.680,-0.080,-0.065
1.682,-0.090,-0.065
1.684,-0.095,-0.065
1.686,-0.070,-0.060
1.688,-0.045,-0.060
1.690,0.010,-0.060
1.692,0.035,-0.060
1.694,0.025,-0.055
1.696,0.015,-0.055
1.698,-0.015,-0.055
1.700,-0.065,-0.050
1.702,-0.085,-0.050
1.704,-0.085,-0.050
1.706,-0.060,-0.055
1.708,-0.030,-0.060
1.710,0.005,-0.060
1.712,0.030,-0.065
1.714,0.025,-0.065
1.716,0.005,-0.065
1.718,-0.025,-0.060
1.720,-0.065,-0.055
1.722,-0.075,-0.050
1.724,-0.050,-0.040
1.726,-0.020,-0.035
1.728,-0.005,-0.030
1.730,0.035,-0.025
1.732,0.055,-0.020
1.734,0.075,-0.020
1.736,0.030,-0.020
1.738,0.010,-0.020
1.740,-0.020,-0.025
1.742,-0.070,-0.030
1.744,-0.090,-0.030
1.746,-0.100,-0.035
1.748,-0.020,-0.035
1.750,0.030,-0.040
1.752,0.045,-0.040
1.754,0.050,-0.035
1.756,-0.010,-0.035
1.758,-0.030,-0.030
1.760,-0.030,-0.025
1.762,-0.025,-0.015
1.764,-0.025,-0.010
1.766,0.000,-0.005
1.768,0.035,0.000
1.770,0.090,0.010
1.772,0.085,0.015
1.774,0.090,0.020
1.776,0.075,0.025
1.778,0.035,0.030
1.780,0.000,0.035
1.782,-0.025,0.040
1.784,-0.010,0.040
1.786,0.020,0.040
1.788,0.055,0.040
1.790,0.110,0.035
1.792,0.120,0.035
1.794,0.105,0.035
1.796,0.050,0.035
1.798,0.020,0.040
1.800,0.035,0.045
1.802,0.045,0.060
1.804,0.070,0.070
1.806,0.095,0.085
1.808,0.135,0.095
1.810,0.190,0.105
1.812,0.185,0.110
1.814,0.165,0.110
1.816,0.145,0.110
1.818,0.100,0.115
1.820,0.085,0.115
1.822,0.080,0.115
1.824,0.105,0.120
1.826,0.150,0.130
1.828,0.175,0.135
1.830,0.190,0.145
1.832,0.225,0.150
1.834,0.195,0.150
1.836,0.170,0.150
1.838,0.160,0.150
1.840,0.120,0.145
1.842,0.120,0.145
1.844,0.160,0.145
1.846,0.185,0.150
1.848,0.225,0.155
1.850,0.235,0.160
1.852,0.255,0.165
1.854,0.240,0.170
1.856,0.185,0.170
1.858,0.160,0.175
1.860,0.140,0.170
1.862,0.110,0.165
1.864,0.130,0.160
1.866,0.160,0.155
1.868,0.200,0.150
1.870,0.230,0.145
1.872,0.215,0.140
1.874,0.180,0.135
1.876,0.145,0.125
1.878,0.065,0.120
1.880,0.045,0.105
1.882,0.030,0.095
1.884,0.030,0.080
1.886,0.045,0.070
1.888,0.115,0.060
1.890,0.130,0.050
1.892,0.120,0.040
1.894,0.100,0.035
1.896,0.075,0.030
1.898,0.015,0.025
1.900,-0.040,0.020
1.902,-0.040,0.015
1.904,-0.050,0.010
1.906,-0.030,0.005
1.908,0.035,0.000
1.910,0.065,-0.005
1.912,0.080,-0.005
1.914,0.035,-0.010
1.916,0.010,-0.010
1.918,-0.030,-0.015
1.920,-0.075,-0.020
1.922,-0.090,-0.025
1.924,-0.090,-0.030
1.926,-0.075,-0.035
1.928,-0.020,-0.040
1.930,0.030,-0.045
1.932,0.025,-0.050
1.934,0.005,-0.055
1.936,-0.035,-0.055
1.938,-0.105,-0.060
1.940,-0.115,-0.060
1.942,-0.105,-0.065
1.944,-0.100,-0.065
1.946,-0.055,-0.065
1.948,-0.010,-0.065
1.950,0.025,-0.065
1.952,0.030,-0.065
1.954,-0.015,-0.060
1.956,-0.035,-0.060
1.958,-0.110,-0.055
1.960,-0.080,-0.050
1.962,-0.080,-0.050
1.964,-0.090,-0.050
1.966,-0.065,-0.055
1.968,-0.005,-0.055
1.970,0.000,-0.060
1.972,0.020,-0.065
1.974,0.005,-0.065
1.976,-0.040,-0.065
1.978,-0.075,-0.065
1.980,-0.085,-0.060
1.982,-0.100,-0.055
1.984,-0.075,-0.050
1.986,-0.040,-0.045
1.988,0.015,-0.045
1.990,0.025,-0.040
1.992,0.010,-0.040
1.994,0.020,-0.040
1.996,-0.030,-0.040
1.998,-0.070,-0.045
2.000,-0.080,-0.045
2.002,-0.095,-0.050
2.004,-0.080,-0.050
2.006,-0.045,-0.055
2.008,-0.015,-0.055
2.010,0.010,-0.055
2.012,0.000,-0.055
2.014,-0.015,-0.055
2.016,-0.030,-0.055
2.018,-0.040,-0.055
2.020,-0.055,-0.050
2.022,-0.050,-0.050
2.024,-0.030,-0.045
2.026,-0.030,-0.040
2.028,-0.020,-0.035
2.030,0.030,-0.030
2.032,0.035,-0.025
2.034,0.015,-0.025
2.036,-0.030,-0.025
2.038,-0.070,-0.025
2.040,-0.095,-0.030
2.042,-0.080,-0.030
2.044,-0.065,-0.035
2.046,-0.030,-0.030
2.048,0.025,-0.030
2.050,0.050,-0.025
2.052,0.055,-0.020
2.054,0.040,-0.015
2.056,0.010,-0.010
2.058,-0.035,-0.005
2.060,-0.070,-0.010
2.062,-0.075,-0.015
2.064,-0.075,-0.020
2.066,-0.025,-0.030
2.068,0.030,-0.040
2.070,0.035,-0.045
2.072,0.020,-0.045
2.074,-0.015,-0.045
2.076,-0.040,-0.040
2.078,-0.090,-0.035
2.080,-0.080,-0.025
2.082,-0.080,-0.020
2.084,-0.055,-0.020
2.086,-0.025,-0.020
2.088,0.035,-0.025
2.090,0.045,-0.035
2.092,0.025,-0.045
2.094,-0.040,-0.050
2.096,-0.075,-0.055
2.098,-0.075,-0.060
2.100,-0.095,-0.055
2.102,-0.110,-0.050
2.104,-0.065,-0.045
2.106,-0.020,-0.040
2.108,0.045,-0.035
2.110,0.095,-0.030
2.112,0.055,-0.030
2.114,-0.010,-0.025
2.116,-0.050,-0.025
2.118,-0.080,-0.025
2.120,-0.070,-0.025
2.122,-0.060,-0.025
2.124,-0.035,-0.025
2.126,0.010,-0.025
2.128,0.010,-0.030
2.130,-0.005,-0.030
2.132,0.020,-0.035
2.134,-0.010,-0.040
2.136,-0.050,-0.050
2.138,-0.085,-0.055
2.140,-0.115,-0.055
2.142,-0.105,-0.060
2.144,-0.075,-0.060
2.146,-0.030,-0.060
2.148,-0.005,-0.055
2.150,0.025,-0.050
2.152,0.010,-0.050
2.154,-0.005,-0.045
2.156,-0.050,-0.040
2.158,-0.085,-0.035
2.160,-0.070,-0.035
2.162,-0.060,-0.030
2.164,-0.050,-0.030
2.166,-0.005,-0.030
2.168,0.005,-0.035
2.170,0.020,-0.040
2.172,0.020,-0.040
2.174,-0.030,-0.045
2.176,-0.075,-0.045
2.178,-0.130,-0.045
2.180,-0.105,-0.045
2.182,-0.060,-0.045
2.184,-0.045,-0.045
2.186,-0.010,-0.045
2.188,0.015,-0.050
2.190,0.005,-0.055
2.192,0.005,-0.060
2.194,-0.015,-0.070
2.196,-0.105,-0.075
2.198,-0.115,-0.075
2.200,-0.115,-0.075
2.202,-0.135,-0.070
2.204,-0.075,-0.060
2.206,0.010,-0.050
2.208,0.055,-0.040
2.210,0.060,-0.030
2.212,0.030,-0.025
2.214,-0.015,-0.020
2.216,-0.050,-0.020
2.218,-0.090,-0.025
2.220,-0.100,-0.030
2.222,-0.100,-0.035
2.224,-0.040,-0.040
2.226,0.005,-0.040
2.228,0.015,-0.045
2.230,0.010,-0.045
2.232,-0.005,-0.045
2.234,-0.040,-0.045
2.236,-0.080,-0.045
2.238,-0.110,-0.040
2.240,-0.120,-0.040
2.242,-0.080,-0.040
2.244,-0.040,-0.035
2.246,0.005,-0.030
2.248,0.045,-0.030
2.250,0.040,-0.030
2.252,0.015,-0.030
2.254,-0.015,-0.035
2.256,-0.060,-0.040
2.258,-0.115,-0.045
2.260,-0.120,-0.050
2.262,-0.090,-0.055
2.264,-0.055,-0.060
2.266,-0.025,-0.060
2.268,0.020,-0.055
2.270,0.020,-0.050
2.272,-0.010,-0.045
2.274,-0.040,-0.040
2.276,-0.080,-0.035
2.278,-0.080,-0.030
2.280,-0.055,-0.035
2.282,-0.050,-0.035
2.284,-0.035,-0.040
2.286,0.025,-0.045
2.288,0.005,-0.045
2.290,0.005,-0.045
2.292,0.000,-0.040
2.294,-0.035,-0.035
2.296,-0.040,-0.025
2.298,-0.060,-0.020
2.300,-0.065,-0.015
2.302,-0.040,-0.015
2.304,-0.015,-0.015
2.306,0.030,-0.015
2.308,0.025,-0.020
2.310,0.045,-0.020
2.312,0.025,-0.020
2.314,0.005,-0.020
2.316,-0.045,-0.015
2.318,-0.045,-0.005
2.320,-0.030,0.000
2.322,-0.020,0.010
2.324,0.005,0.015
2.326,0.055,0.015
2.328,0.075,0.015
2.330,0.080,0.010
2.332,0.040,0.005
2.334,0.015,0.000
2.336,-0.030,-0.010
2.338,-0.070,-0.015
2.340,-0.070,-0.020
2.342,-0.015,-0.020
2.344,-0.015,-0.020
2.346,0.025,-0.025
2.348,0.070,-0.025
2.350,0.020,-0.025
2.352,-0.010,-0.030
2.354,-0.025,-0.035
2.356,-0.070,-0.040
2.358,-0.110,-0.050
2.360,-0.140,-0.055
2.362,-0.125,-0.060
2.364,-0.075,-0.065
2.366,-0.010,-0.070
2.368,0.030,-0.070
2.370,0.025,-0.070
2.372,-0.025,-0.070
2.374,-0.065,-0.065
2.376,-0.115,-0.060
2.378,-0.150,-0.055
2.380,-0.165,-0.055
2.382,-0.125,-0.050
2.384,0.000,-0.050
2.386,0.085,-0.045
2.388,0.090,-0.045
2.390,0.045,-0.045
2.392,-0.015,-0.045
2.394,-0.065,-0.040
2.396,-0.130,-0.040
2.398,-0.145,-0.035
2.400,-0.095,-0.035
2.402,-0.040,-0.030
2.404,0.000,-0.030
2.406,0.045,-0.030
2.408,0.050,-0.035
2.410,0.015,-0.040
2.412,-0.020,-0.050
2.414,-0.065,-0.055
2.416,-0.110,-0.060
2.418,-0.150,-0.070
2.420,-0.115,-0.070
2.422,-0.100,-0.070
2.424,-0.070,-0.070
2.426,-0.005,-0.070
2.428,0.045,-0.065
2.430,0.030,-0.060
2.432,-0.020,-0.060
2.434,-0.070,-0.060
2.436,-0.110,-0.065
2.438,-0.135,-0.070
2.440,-0.120,-0.075
2.442,-0.100,-0.080
2.444,-0.070,-0.080
2.446,-0.040,-0.085
2.448,-0.020,-0.085
2.450,-0.025,-0.080
2.452,-0.065,-0.070
2.454,-0.070,-0.050
2.456,-0.030,-0.030
2.458,-0.020,0.005
2.460,0.035,0.045
2.462,0.110,0.100
2.464,0.225,0.160
2.466,0.285,0.235
2.468,0.380,0.310
2.470,0.440,0.390
2.472,0.555,0.465
2.474,0.570,0.530
2.476,0.580,0.575
2.478,0.595,0.600
2.480,0.570,0.595
2.482,0.545,0.560
2.484,0.520,0.500
2.486,0.470,0.415
2.488,0.375,0.320
2.490,0.240,0.215
2.492,0.100,0.120
2.494,-0.040,0.035
2.496,-0.135,-0.030
2.498,-0.150,-0.075
2.500,-0.090,-0.095
2.502,-0.070,-0.100
2.504,-0.035,-0.090
2.506,-0.005,-0.070
2.508,0.030,-0.050
2.510,0.020,-0.030
2.512,0.040,-0.020
2.514,-0.020,-0.010
2.516,-0.065,-0.010
2.518,-0.065,-0.010
2.520,-0.035,-0.010
2.522,-0.010,-0.010
2.524,0.020,-0.010
2.526,0.040,-0.005
2.528,0.055,-0.005
2.530,0.035,-0.005
2.532,0.010,-0.005
2.534,-0.040,-0.005
2.536,-0.070,-0.010
2.538,-0.060,-0.015
2.540,-0.040,-0.020
2.542,-0.045,-0.025
2.544,0.020,-0.030
2.546,0.030,-0.025
2.548,0.035,-0.025
2.550,0.010,-0.020
2.552,-0.025,-0.015
2.554,-0.045,-0.005
2.556,-0.055,-0.005
2.558,-0.050,-0.005
2.560,-0.030,-0.005
2.562,0.020,-0.005
2.564,0.070,-0.010
2.566,0.055,-0.015
2.568,0.060,-0.015
2.570,0.030,-0.020
2.572,-0.015,-0.020
2.574,-0.030,-0.020
2.576,-0.025,-0.015
2.578,-0.050,-0.015
2.580,-0.050,-0.015
2.582,-0.020,-0.010
2.584,0.035,-0.005
2.586,0.080,-0.005
2.588,0.085,0.000
2.590,0.060,0.005
2.592,0.050,0.010
2.594,-0.005,0.015
2.596,-0.035,0.020
2.598,-0.055,0.020
2.600,-0.040,0.015
2.602,-0.015,0.015
2.604,0.080,0.015
2.606,0.080,0.010
2.608,0.075,0.010
2.610,0.090,0.015
2.612,0.055,0.020
2.614,-0.010,0.025
2.616,-0.025,0.035
2.618,-0.030,0.045
2.620,0.025,0.050
2.622,0.060,0.055
2.624,0.100,0.060
2.626,0.125,0.060
2.628,0.125,0.065
2.630,0.110,0.065
2.632,0.075,0.065
2.634,0.030,0.065
2.636,0.000,0.065
2.638,0.025,0.070
2.640,0.050,0.070
2.642,0.080,0.070
2.644,0.100,0.075
2.646,0.120,0.070
2.648,0.130,0.070
2.650,0.120,0.070
2.652,0.105,0.070
2.654,0.070,0.075
2.656,0.050,0.075
2.658,0.055,0.080
2.660,0.095,0.090
2.662,0.145,0.095
2.664,0.195,0.105
2.666,0.210,0.110
2.668,0.200,0.115
2.670,0.185,0.120
2.672,0.150,0.125
2.674,0.120,0.130
2.676,0.110,0.135
2.678,0.130,0.145
2.680,0.165,0.150
2.682,0.220,0.160
2.684,0.245,0.165
2.686,0.265,0.175
2.688,0.250,0.180
2.690,0.215,0.180
2.692,0.175,0.185
2.694,0.145,0.185
2.696,0.125,0.185
2.698,0.135,0.185
2.700,0.170,0.190
2.702,0.240,0.190
2.704,0.310,0.195
2.706,0.315,0.200
2.708,0.310,0.205
2.710,0.245,0.210
2.712,0.205,0.210
2.714,0.170,0.210
2.716,0.135,0.210
2.718,0.140,0.205
2.720,0.165,0.195
2.722,0.190,0.185
2.724,0.230,0.175
2.726,0.240,0.160
2.728,0.200,0.150
2.730,0.165,0.140
2.732,0.115,0.130
2.734,0.090,0.120
2.736,0.070,0.115
2.738,0.080,0.115
2.740,0.105,0.110
2.742,0.140,0.105
2.744,0.165,0.100
2.746,0.155,0.095
2.748,0.125,0.085
2.750,0.075,0.075
2.752,0.035,0.060
2.754,0.025,0.050
2.756,0.010,0.035
2.758,0.000,0.020
2.760,0.000,0.010
2.762,0.035,0.000
2.764,0.090,-0.010
2.766,0.065,-0.015
2.768,0.055,-0.020
2.770,0.015,-0.025
2.772,-0.060,-0.030
2.774,-0.085,-0.030
2.776,-0.085,-0.030
2.778,-0.055,-0.030
2.780,-0.010,-0.025
2.782,0.045,-0.025
2.784,0.060,-0.020
2.786,0.050,-0.025
2.788,0.015,-0.025
2.790,0.010,-0.025
2.792,-0.010,-0.030
2.794,-0.075,-0.030
2.796,-0.125,-0.030
2.798,-0.075,-0.030
2.800,0.025,-0.025
2.802,0.125,-0.015
2.804,0.105,-0.010
2.806,0.065,0.000
2.808,0.030,0.000
2.810,0.025,0.000
2.812,0.000,-0.005
2.814,-0.035,-0.015
2.816,-0.080,-0.025
2.818,-0.080,-0.040
2.820,-0.055,-0.045
2.822,-0.025,-0.055
2.824,0.005,-0.055
2.826,0.045,-0.050
2.828,0.055,-0.045
2.830,0.030,-0.040
2.832,-0.040,-0.035
2.834,-0.060,-0.035
2.836,-0.060,-0.035
2.838,-0.050,-0.040
2.840,-0.015,-0.045
2.842,0.040,-0.050
2.844,0.035,-0.050
2.846,0.000,-0.050
2.848,0.000,-0.045
2.850,0.000,-0.040
2.852,-0.045,-0.030
2.854,-0.035,-0.020
2.856,-0.040,-0.015
2.858,-0.025,-0.005
2.860,0.000,-0.005
2.862,0.035,-0.005
2.864,0.050,-0.010
2.866,0.050,-0.015
2.868,0.015,-0.025
2.870,-0.015,-0.030
2.872,-0.065,-0.040
2.874,-0.090,-0.040
2.876,-0.070,-0.040
2.878,-0.030,-0.040
2.880,-0.010,-0.040
2.882,0.060,-0.035
2.884,0.090,-0.030
2.886,0.095,-0.025
2.888,0.050,-0.020
2.890,-0.025,-0.015
2.892,-0.065,-0.010
2.894,-0.035,-0.005
2.896,-0.025,0.000
2.898,-0.015,0.005
2.900,0.025,0.010
2.902,0.065,0.015
2.904,0.090,0.015
2.906,0.085,0.015
2.908,0.050,0.015
2.910,0.010,0.010
2.912,-0.025,0.005
2.914,-0.050,0.000
2.916,-0.065,-0.010
2.918,-0.020,-0.020
2.920,0.020,-0.030
2.922,0.030,-0.040
2.924,0.025,-0.050
2.926,0.035,-0.055
2.928,0.010,-0.060
2.930,-0.035,-0.060
2.932,-0.065,-0.055
2.934,-0.075,-0.050
2.936,-0.045,-0.045
2.938,-0.015,-0.040
2.940,0.020,-0.035
2.942,0.055,-0.025
2.944,0.065,-0.020
2.946,0.050,-0.020
2.948,0.055,-0.015
2.950,0.010,-0.015
2.952,-0.025,-0.020
2.954,-0.085,-0.025
2.956,-0.120,-0.030
2.958,-0.035,-0.035
2.960,0.030,-0.045
2.962,0.055,-0.050
2.964,0.040,-0.055
2.966,0.040,-0.060
2.968,0.005,-0.065
2.970,-0.015,-0.065
2.972,-0.055,-0.065
2.974,-0.085,-0.060
2.976,-0.095,-0.060
2.978,-0.040,-0.055
2.980,0.005,-0.055
2.982,0.015,-0.055
2.984,0.045,-0.050
2.986,0.040,-0.050
2.988,0.020,-0.050
2.990,-0.015,-0.050
2.992,-0.050,-0.055
2.994,-0.075,-0.055
2.996,-0.085,-0.055
2.998,-0.060,-0.060
3.000,-0.005,-0.060
3.002,0.040,-0.060
3.004,0.055,-0.060
3.006,0.050,-0.055
3.008,0.005,-0.055
3.010,-0.030,-0.055
3.012,-0.075,-0.055
3.014,-0.085,-0.055
3.016,-0.070,-0.055
3.018,-0.055,-0.055
3.020,-0.010,-0.055
3.022,0.005,-0.060
3.024,0.035,-0.060
3.026,0.050,-0.060
3.028,0.030,-0.060
3.030,-0.010,-0.060
3.032,-0.050,-0.060
3.034,-0.070,-0.060
3.036,-0.065,-0.060
3.038,-0.040,-0.060
3.040,0.020,-0.065
3.042,0.050,-0.065
3.044,0.040,-0.065
3.046,0.005,-0.065
3.048,-0.030,-0.060
3.050,-0.095,-0.055
3.052,-0.085,-0.050
3.054,-0.025,-0.045
3.056,-0.005,-0.040
3.058,-0.015,-0.040
3.060,0.030,-0.035
3.062,0.045,-0.040
3.064,0.055,-0.040
3.066,0.045,-0.045
3.068,0.025,-0.050
3.070,-0.045,-0.060
3.072,-0.070,-0.065
3.074,-0.095,-0.070
3.076,-0.095,-0.075
3.078,-0.065,-0.080
3.080,0.000,-0.085
3.082,-0.010,-0.085
3.084,-0.010,-0.085
3.086,-0.025,-0.085
3.088,-0.045,-0.085
3.090,-0.060,-0.080
3.092,-0.040,-0.075
3.094,-0.050,-0.065
3.096,-0.030,-0.060
3.098,-0.010,-0.050
3.100,0.040,-0.045
3.102,0.065,-0.040
3.104,0.050,-0.035
3.106,0.050,-0.035
3.108,0.010,-0.035
3.110,-0.055,-0.040
3.112,-0.090,-0.045
3.114,-0.105,-0.050
3.116,-0.060,-0.060
3.118,-0.025,-0.065
3.120,0.030,-0.070
3.122,0.040,-0.070
3.124,0.040,-0.070
3.126,0.025,-0.070
3.128,-0.030,-0.065
3.130,-0.100,-0.060
3.132,-0.120,-0.055
3.134,-0.065,-0.055
3.136,-0.025,-0.055
3.138,0.000,-0.055
3.140,0.025,-0.055
3.142,0.050,-0.055
3.144,0.055,-0.055
3.146,0.045,-0.055
3.148,0.025,-0.050
3.150,-0.025,-0.050
3.152,-0.050,-0.050
3.154,-0.055,-0.050
3.156,-0.035,-0.050
3.158,-0.020,-0.055
3.160,0.015,-0.055
3.162,0.020,-0.060
3.164,0.045,-0.065
3.166,0.040,-0.065
3.168,0.020,-0.060
3.170,-0.015,-0.060
3.172,-0.050,-0.055
3.174,-0.070,-0.045
3.176,-0.085,-0.040
3.178,-0.035,-0.035
3.180,0.045,-0.030
3.182,0.095,-0.030
3.184,0.115,-0.025
3.186,0.090,-0.025
3.188,0.050,-0.020
3.190,-0.010,-0.015
3.192,-0.025,-0.005
3.194,-0.020,0.005
3.196,-0.005,0.010
3.198,0.025,0.020
3.200,0.105,0.025
3.202,0.145,0.030
3.204,0.150,0.030
3.206,0.095,0.025
3.208,0.055,0.025
3.210,0.000,0.015
3.212,-0.035,0.010
3.214,-0.040,0.000
3.216,-0.025,-0.010
3.218,-0.010,-0.025
3.220,0.015,-0.040
3.222,0.040,-0.050
3.224,0.065,-0.060
3.226,0.035,-0.070
3.228,0.010,-0.075
3.230,-0.025,-0.075
3.232,-0.055,-0.070
3.234,-0.065,-0.065
3.236,-0.065,-0.060
3.238,-0.055,-0.055
3.240,0.005,-0.050
3.242,0.045,-0.050
3.244,0.090,-0.055
3.246,0.065,-0.060
3.248,-0.005,-0.065
3.250,-0.065,-0.075
3.252,-0.100,-0.075
3.254,-0.090,-0.075
3.256,-0.055,-0.065
3.258,0.010,-0.060
3.260,0.050,-0.050
3.262,0.065,-0.045
3.264,0.050,-0.040
3.266,0.005,-0.045
3.268,-0.035,-0.055
3.270,-0.110,-0.065
3.272,-0.115,-0.080
3.274,-0.140,-0.090
3.276,-0.110,-0.100
3.278,-0.015,-0.105
3.280,0.040,-0.100
3.282,0.055,-0.095
3.284,0.055,-0.085
3.286,0.020,-0.070
3.288,-0.005,-0.060
3.290,-0.055,-0.050
3.292,-0.080,-0.050
3.294,-0.060,-0.045
3.296,-0.015,-0.050
3.298,0.015,-0.055
3.300,0.035,-0.060
3.302,0.040,-0.065
3.304,0.035,-0.075
3.306,-0.005,-0.080
3.308,-0.040,-0.085
3.310,-0.105,-0.090
3.312,-0.115,-0.095
3.314,-0.105,-0.105
3.316,-0.070,-0.115
3.318,-0.045,-0.120
3.320,-0.045,-0.125
3.322,-0.040,-0.125
3.324,-0.025,-0.120
3.326,0.000,-0.100
3.328,0.000,-0.075
3.330,-0.010,-0.040
3.332,0.025,0.005
3.334,0.085,0.055
3.336,0.150,0.115
3.338,0.245,0.180
3.340,0.320,0.245
3.342,0.420,0.310
3.344,0.520,0.380
3.346,0.590,0.440
3.348,0.600,0.495
3.350,0.555,0.535
3.352,0.550,0.555
3.354,0.535,0.550
3.356,0.530,0.525
3.358,0.535,0.465
3.360,0.485,0.385
3.362,0.405,0.290
3.364,0.280,0.185
3.366,0.120,0.085
3.368,-0.040,-0.005
3.370,-0.125,-0.070
3.372,-0.115,-0.115
3.374,-0.085,-0.130
3.376,-0.045,-0.125
3.378,-0.005,-0.100
3.380,0.050,-0.070
3.382,0.105,-0.040
3.384,0.075,-0.020
3.386,0.045,-0.005
3.388,0.000,-0.005
3.390,-0.010,-0.015
3.392,-0.005,-0.025
3.394,-0.010,-0.040
3.396,-0.020,-0.055
3.398,0.020,-0.060
3.400,0.035,-0.065
3.402,0.035,-0.065
3.404,0.040,-0.065
3.406,0.035,-0.060
3.408,-0.015,-0.055
3.410,-0.025,-0.050
3.412,-0.030,-0.050
3.414,-0.040,-0.045
3.416,0.005,-0.040
3.418,0.050,-0.035
3.420,0.050,-0.025
3.422,0.095,-0.020
3.424,0.090,-0.010
3.426,0.065,-0.005
3.428,0.000,0.000
3.430,-0.025,0.000
3.432,-0.050,-0.005
3.434,-0.005,-0.010
3.436,0.035,-0.015
3.438,0.070,-0.020
3.440,0.085,-0.025
3.442,0.095,-0.030
3.444,0.065,-0.035
3.446,0.010,-0.035
3.448,-0.030,-0.040
3.450,-0.040,-0.040
3.452,-0.020,-0.035
3.454,0.000,-0.035
3.456,0.035,-0.030
3.458,0.110,-0.020
3.460,0.140,-0.010
3.462,0.135,0.000
3.464,0.115,0.010
3.466,0.070,0.020
3.468,0.020,0.030
3.470,0.015,0.035
3.472,0.005,0.035
3.474,0.030,0.030
3.476,0.060,0.020
3.478,0.115,0.010
3.480,0.125,0.000
3.482,0.095,-0.010
3.484,0.065,-0.015
3.486,0.030,-0.015
3.488,0.010,-0.010
3.490,0.025,-0.005
3.492,0.020,0.005
3.494,0.045,0.010
3.496,0.090,0.020
3.498,0.135,0.025
3.500,0.140,0.025
3.502,0.140,0.025
3.504,0.130,0.025
3.506,0.115,0.030
3.508,0.060,0.030
3.510,0.020,0.040
3.512,-0.020,0.045
3.514,0.045,0.055
3.516,0.140,0.065
3.518,0.190,0.075
3.520,0.200,0.080
3.522,0.200,0.085
3.524,0.180,0.090
3.526,0.165,0.095
3.528,0.150,0.095
3.530,0.115,0.100
3.532,0.110,0.105
3.534,0.120,0.110
3.536,0.160,0.115
3.538,0.225,0.115
3.540,0.230,0.115
3.542,0.205,0.115
3.544,0.185,0.115
3.546,0.150,0.115
3.548,0.155,0.115
3.550,0.160,0.120
3.552,0.180,0.130
3.554,0.215,0.140
3.556,0.260,0.155
3.558,0.280,0.170
3.560,0.300,0.185
3.562,0.315,0.190
3.564,0.295,0.195
3.566,0.250,0.200
3.568,0.175,0.195
3.570,0.165,0.190
3.572,0.180,0.185
3.574,0.235,0.180
3.576,0.240,0.180
3.578,0.315,0.180
3.580,0.335,0.180
3.582,0.300,0.185
3.584,0.255,0.185
3.586,0.190,0.190
3.588,0.190,0.185
3.590,0.185,0.185
3.592,0.170,0.180
3.594,0.210,0.175
3.596,0.225,0.170
3.598,0.255,0.165
3.600,0.280,0.160
3.602,0.270,0.155
3.604,0.220,0.150
3.606,0.170,0.140
3.608,0.110,0.130
3.610,0.080,0.120
3.612,0.065,0.105
3.614,0.095,0.095
3.616,0.175,0.080
3.618,0.200,0.070
3.620,0.235,0.065
3.622,0.195,0.060
3.624,0.135,0.055
3.626,0.075,0.050
3.628,0.045,0.045
3.630,0.010,0.040
3.632,0.005,0.030
3.634,0.030,0.020
3.636,0.070,0.010
3.638,0.120,0.000
3.640,0.120,-0.010
3.642,0.090,-0.020
3.644,0.050,-0.025
3.646,-0.005,-0.030
3.648,-0.055,-0.035
3.650,-0.075,-0.040
3.652,-0.050,-0.045
3.654,-0.005,-0.050
3.656,0.060,-0.055
3.658,0.075,-0.060
3.660,0.090,-0.060
3.662,0.075,-0.055
3.664,0.025,-0.050
3.666,-0.050,-0.045
3.668,-0.055,-0.035
3.670,-0.030,-0.030
3.672,0.010,-0.020
3.674,0.030,-0.020
3.676,0.065,-0.020
3.678,0.090,-0.020
3.680,0.085,-0.025
3.682,0.075,-0.030
3.684,0.055,-0.035
3.686,-0.010,-0.040
3.688,-0.055,-0.040
3.690,-0.070,-0.045
3.692,-0.075,-0.045
3.694,-0.020,-0.045
3.696,0.070,-0.040
3.698,0.110,-0.040
3.700,0.095,-0.040
3.702,0.085,-0.040
3.704,0.045,-0.040
3.706,0.005,-0.040
3.708,-0.010,-0.035
3.710,-0.030,-0.035
3.712,-0.015,-0.030
3.714,0.000,-0.030
3.716,0.045,-0.030
3.718,0.070,-0.030
3.720,0.075,-0.030
3.722,0.070,-0.035
3.724,0.035,-0.035
3.726,-0.015,-0.040
3.728,-0.015,-0.045
3.730,-0.040,-0.045
3.732,-0.050,-0.045
3.734,-0.020,-0.040
3.736,0.065,-0.035
3.738,0.100,-0.030
3.740,0.095,-0.025
3.742,0.075,-0.025
3.744,0.040,-0.025
3.746,-0.010,-0.030
3.748,-0.030,-0.035
3.750,-0.015,-0.040
3.752,-0.035,-0.050
3.754,-0.005,-0.055
3.756,0.005,-0.055
3.758,0.005,-0.055
3.760,0.055,-0.045
3.762,0.045,-0.040
3.764,0.075,-0.025
3.766,0.035,-0.015
3.768,0.005,-0.005
3.770,-0.010,0.000
3.772,-0.015,0.000
3.774,0.045,0.000
3.776,0.095,0.000
3.778,0.110,-0.005
3.780,0.115,-0.010
3.782,0.090,-0.010
3.784,0.030,-0.010
3.786,-0.015,-0.015
3.788,-0.030,-0.015
3.790,-0.030,-0.015
3.792,0.000,-0.020
3.794,0.025,-0.030
3.796,0.075,-0.035
3.798,0.065,-0.045
3.800,0.050,-0.055
3.802,0.035,-0.060
3.804,0.010,-0.065
3.806,0.000,-0.065
3.808,-0.015,-0.060
3.810,-0.015,-0.050
3.812,-0.010,-0.040
3.814,0.015,-0.030
3.816,0.065,-0.025
3.818,0.110,-0.020
3.820,0.095,-0.020
3.822,0.070,-0.020
3.824,0.020,-0.020
3.826,-0.015,-0.025
3.828,-0.040,-0.030
3.830,-0.045,-0.030
3.832,-0.020,-0.035
3.834,0.030,-0.035
3.836,0.095,-0.035
3.838,0.095,-0.040
3.840,0.075,-0.040
3.842,0.055,-0.045
3.844,0.000,-0.045
3.846,-0.040,-0.050
3.848,-0.040,-0.050
3.850,-0.050,-0.050
3.852,-0.010,-0.055
3.854,0.040,-0.055
3.856,0.080,-0.055
3.858,0.085,-0.055
3.860,0.070,-0.055
3.862,0.045,-0.055
3.864,-0.010,-0.055
3.866,-0.040,-0.055
3.868,-0.045,-0.055
3.870,-0.060,-0.055
3.872,-0.055,-0.060
3.874,-0.020,-0.060
3.876,0.035,-0.065
3.878,0.080,-0.065
3.880,0.090,-0.065
3.882,0.060,-0.060
3.884,0.025,-0.055
3.886,-0.005,-0.050
3.888,-0.030,-0.040
3.890,-0.030,-0.035
3.892,-0.015,-0.025
3.894,0.040,-0.025
3.896,0.095,-0.020
3.898,0.090,-0.025
3.900,0.085,-0.035
3.902,0.045,-0.045
3.904,-0.040,-0.055
3.906,-0.070,-0.070
3.908,-0.065,-0.075
3.910,-0.080,-0.085
3.912,-0.050,-0.085
3.914,0.005,-0.080
3.916,0.050,-0.075
3.918,0.075,-0.070
3.920,0.060,-0.060
3.922,0.045,-0.055
3.924,0.010,-0.050
3.926,-0.030,-0.050
3.928,-0.075,-0.050
3.930,-0.090,-0.050
3.932,-0.075,-0.050
3.934,0.025,-0.050
3.936,0.085,-0.045
3.938,0.100,-0.045
3.940,0.095,-0.040
3.942,0.080,-0.040
3.944,0.045,-0.040
3.946,-0.015,-0.035
3.948,-0.055,-0.035
3.950,-0.075,-0.035
3.952,-0.020,-0.040
3.954,0.045,-0.040
3.956,0.065,-0.040
3.958,0.095,-0.040
3.960,0.065,-0.040
3.962,0.030,-0.040
3.964,-0.020,-0.045
3.966,-0.050,-0.045
3.968,-0.060,-0.045
3.970,-0.040,-0.045
3.972,-0.005,-0.050
3.974,0.050,-0.050
3.976,0.080,-0.050
3.978,0.090,-0.050
3.980,0.065,-0.050
3.982,0.030,-0.050
3.984,-0.015,-0.055
3.986,-0.050,-0.055
3.988,-0.060,-0.055
3.990,-0.040,-0.060
3.992,-0.005,-0.060
3.994,0.045,-0.060
3.996,0.060,-0.060
3.998,0.065,-0.055
4.000,0.045,-0.055
4.002,0.000,-0.055
4.004,-0.065,-0.055
4.006,-0.065,-0.060
4.008,-0.080,-0.060
4.010,-0.055,-0.065
4.012,0.005,-0.065
4.014,0.045,-0.065
4.016,0.045,-0.060
4.018,0.070,-0.055
4.020,0.060,-0.045
4.022,0.085,-0.035
4.024,0.025,-0.025
4.026,-0.035,-0.020
4.028,-0.060,-0.015
4.030,-0.020,-0.015
4.032,0.005,-0.020
4.034,0.050,-0.030
4.036,0.060,-0.035
4.038,0.075,-0.040
4.040,0.050,-0.040
4.042,0.015,-0.035
4.044,-0.005,-0.030
4.046,0.020,-0.020
4.048,0.010,-0.010
4.050,0.020,0.000
4.052,0.035,0.005
4.054,0.085,0.010
4.056,0.100,0.010
4.058,0.100,0.005
4.060,0.080,0.000
4.062,0.070,-0.005
4.064,0.025,-0.010
4.066,-0.005,-0.015
4.068,-0.015,-0.020
4.070,0.005,-0.020
4.072,0.040,-0.020
4.074,0.090,-0.015
4.076,0.100,-0.015
4.078,0.115,-0.010
4.080,0.115,-0.005
4.082,0.095,0.000
4.084,0.050,0.000
4.086,0.020,0.005
4.088,0.020,0.010
4.090,0.045,0.010
4.092,0.045,0.010
4.094,0.095,0.010
4.096,0.150,0.010
4.098,0.140,0.000
4.100,0.085,-0.005
4.102,0.050,-0.015
4.104,-0.005,-0.030
4.106,-0.025,-0.040
4.108,-0.070,-0.050
4.110,-0.085,-0.055
4.112,-0.040,-0.060
4.114,0.075,-0.060
4.116,0.115,-0.055
4.118,0.120,-0.050
4.120,0.060,-0.045
4.122,0.000,-0.045
4.124,-0.040,-0.040
4.126,-0.045,-0.040
4.128,-0.020,-0.045
4.130,-0.005,-0.050
4.132,0.000,-0.055
4.134,0.035,-0.060
4.136,0.050,-0.065
4.138,0.030,-0.070
4.140,-0.035,-0.065
4.142,-0.020,-0.065
4.144,-0.020,-0.060
4.146,-0.025,-0.055
4.148,-0.040,-0.050
4.150,-0.015,-0.050
4.152,0.010,-0.045
4.154,0.065,-0.045
4.156,0.095,-0.045
4.158,0.065,-0.045
4.160,0.020,-0.045
4.162,-0.005,-0.045
4.164,-0.040,-0.050
4.166,-0.065,-0.050
4.168,-0.075,-0.050
4.170,-0.035,-0.055
4.172,0.025,-0.060
4.174,0.060,-0.070
4.176,0.075,-0.075
4.178,0.070,-0.080
4.180,0.020,-0.085
4.182,-0.105,-0.085
4.184,-0.200,-0.085
4.186,-0.110,-0.080
4.188,-0.010,-0.075
4.190,0.015,-0.070
4.192,0.030,-0.065
4.194,0.040,-0.065
4.196,0.040,-0.065
4.198,0.025,-0.070
4.200,0.000,-0.075
4.202,-0.045,-0.080
4.204,-0.085,-0.085
4.206,-0.080,-0.085
4.208,-0.080,-0.085
4.210,-0.035,-0.070
4.212,0.035,-0.045
4.214,0.135,-0.010
4.216,0.175,0.035
4.218,0.225,0.090
4.220,0.270,0.155
4.222,0.285,0.230
4.224,0.300,0.305
4.226,0.375,0.380
4.228,0.505,0.445
4.230,0.600,0.500
4.232,0.665,0.540
4.234,0.700,0.560
4.236,0.650,0.550
4.238,0.610,0.520
4.240,0.505,0.465
4.242,0.415,0.390
4.244,0.330,0.300
4.246,0.220,0.205
4.248,0.080,0.110
4.250,0.000,0.030
4.252,-0.010,-0.040
4.254,-0.005,-0.085
4.256,0.030,-0.110
4.258,0.005,-0.120
4.260,-0.020,-0.110
4.262,-0.040,-0.095
4.264,-0.065,-0.080
4.266,-0.035,-0.060
4.268,0.005,-0.050
4.270,0.020,-0.040
4.272,0.030,-0.040
4.274,0.045,-0.040
4.276,0.055,-0.045
4.278,0.065,-0.045
4.280,0.075,-0.045
4.282,0.040,-0.045
4.284,-0.025,-0.040
4.286,-0.045,-0.035
4.288,-0.020,-0.030
4.290,0.030,-0.025
4.292,0.055,-0.025
4.294,0.070,-0.020
4.296,0.090,-0.020
4.298,0.105,-0.025
4.300,0.065,-0.025
4.302,-0.005,-0.030
4.304,-0.025,-0.035
4.306,-0.040,-0.035
4.308,-0.020,-0.040
4.310,-0.010,-0.040
4.312,0.050,-0.040
4.314,0.070,-0.040
4.316,0.070,-0.040
4.318,0.045,-0.035
4.320,0.030,-0.030
4.322,0.020,-0.025
4.324,-0.010,-0.020
4.326,0.020,-0.015
4.328,0.025,-0.010
4.330,0.025,0.000
4.332,0.100,0.000
4.334,0.110,0.005
4.336,0.115,0.005
4.338,0.085,0.005
4.340,0.060,0.000
4.342,-0.010,-0.005
4.344,-0.010,-0.015
4.346,-0.015,-0.020
4.348,0.005,-0.025
4.350,0.045,-0.030
4.352,0.085,-0.030
4.354,0.110,-0.025
4.356,0.100,-0.015
4.358,0.075,-0.005
4.360,0.105,0.010
4.362,0.055,0.020
4.364,0.020,0.025
4.366,0.015,0.030
4.368,0.035,0.035
4.370,0.065,0.030
4.372,0.105,0.025
4.374,0.115,0.020
4.376,0.135,0.015
4.378,0.120,0.015
4.380,0.085,0.015
4.382,0.055,0.020
4.384,0.055,0.030
4.386,0.070,0.035
4.388,0.085,0.045
4.390,0.120,0.055
4.392,0.160,0.060
4.394,0.185,0.060
4.396,0.195,0.060
4.398,0.175,0.060
4.400,0.145,0.060
4.402,0.085,0.060
4.404,0.025,0.060
4.406,0.010,0.060
4.408,0.070,0.060
4.410,0.095,0.060
4.412,0.140,0.065
4.414,0.200,0.070
4.416,0.250,0.080
4.418,0.255,0.090
4.420,0.230,0.100
4.422,0.175,0.110
4.424,0.135,0.120
4.426,0.125,0.130
4.428,0.150,0.140
4.430,0.200,0.150
4.432,0.270,0.155
4.434,0.310,0.160
4.436,0.290,0.165
4.438,0.265,0.170
4.440,0.255,0.175
4.442,0.215,0.180
4.444,0.210,0.185
4.446,0.220,0.185
4.448,0.220,0.190
4.450,0.245,0.195
4.452,0.305,0.195
4.454,0.335,0.195
4.456,0.320,0.195
4.458,0.280,0.195
4.460,0.260,0.195
4.462,0.230,0.200
4.464,0.200,0.200
4.466,0.190,0.200
4.468,0.225,0.200
4.470,0.250,0.195
4.472,0.280,0.190
4.474,0.275,0.180
4.476,0.280,0.170
4.478,0.265,0.155
4.480,0.195,0.140
4.482,0.115,0.125
4.484,0.120,0.115
4.486,0.130,0.110
4.488,0.150,0.105
4.490,0.170,0.105
4.492,0.205,0.105
4.494,0.240,0.110
4.496,0.225,0.110
4.498,0.185,0.105
4.500,0.150,0.100
4.502,0.120,0.095
4.504,0.075,0.085
4.506,0.055,0.080
4.508,0.100,0.070
4.510,0.130,0.060
4.512,0.150,0.055
4.514,0.155,0.050
4.516,0.145,0.045
4.518,0.115,0.040
4.520,0.060,0.030
4.522,0.010,0.020
4.524,-0.010,0.010
4.526,0.010,-0.005
4.528,0.015,-0.015
4.530,0.055,-0.025
4.532,0.095,-0.035
4.534,0.100,-0.040
4.536,0.060,-0.040
4.538,0.035,-0.040
4.540,0.005,-0.040
4.542,-0.020,-0.035
4.544,-0.020,-0.035
4.546,-0.035,-0.035
4.548,-0.005,-0.040
4.550,0.040,-0.045
4.552,0.075,-0.045
4.554,0.085,-0.050
4.556,0.075,-0.050
4.558,0.055,-0.050
4.560,0.000,-0.045
4.562,-0.015,-0.040
4.564,-0.040,-0.035
4.566,-0.055,-0.030
4.568,0.005,-0.025
4.570,0.045,-0.025
4.572,0.075,-0.025
4.574,0.075,-0.030
4.576,0.050,-0.035
4.578,0.050,-0.045
4.580,0.005,-0.050
4.582,-0.035,-0.055
4.584,-0.050,-0.060
4.586,-0.030,-0.060
4.588,0.005,-0.060
4.590,0.040,-0.055
4.592,0.060,-0.045
4.594,0.100,-0.035
4.596,0.085,-0.030
4.598,0.090,-0.020
4.600,0.015,-0.015
4.602,-0.035,-0.010
4.604,-0.050,-0.015
4.606,0.000,-0.015
4.608,0.015,-0.020
4.610,0.050,-0.030
4.612,0.085,-0.035
4.614,0.110,-0.040
4.616,0.085,-0.040
4.618,0.010,-0.040
4.620,-0.040,-0.035
4.622,-0.025,-0.030
4.624,-0.010,-0.025
4.626,0.010,-0.020
4.628,0.035,-0.020
4.630,0.065,-0.020
4.632,0.095,-0.020
4.634,0.090,-0.025
4.636,0.070,-0.030
4.638,0.040,-0.030
4.640,-0.020,-0.030
4.642,0.000,-0.030
4.644,0.015,-0.025
4.646,0.020,-0.020
4.648,0.030,-0.015
4.650,0.075,-0.015
4.652,0.110,-0.015
4.654,0.115,-0.015
4.656,0.065,-0.020
4.658,0.040,-0.025
4.660,-0.010,-0.030
4.662,-0.035,-0.040
4.664,-0.035,-0.045
4.666,0.000,-0.045
4.668,0.020,-0.045
4.670,0.080,-0.045
4.672,0.095,-0.040
4.674,0.085,-0.040
4.676,0.050,-0.035
4.678,0.025,-0.035
4.680,-0.025,-0.035
4.682,-0.050,-0.035
4.684,-0.030,-0.035
4.686,0.015,-0.035
4.688,0.055,-0.030
4.690,0.125,-0.030
4.692,0.105,-0.025
4.694,0.075,-0.020
4.696,0.060,-0.020
4.698,0.030,-0.025
4.700,0.000,-0.025
4.702,-0.030,-0.035
4.704,-0.040,-0.045
4.706,-0.060,-0.055
4.708,-0.030,-0.060
4.710,0.035,-0.070
4.712,0.045,-0.070
4.714,0.085,-0.070
4.716,0.070,-0.065
4.718,0.045,-0.055
4.720,0.035,-0.045
4.722,0.005,-0.035
4.724,-0.025,-0.020
4.726,0.010,-0.010
4.728,0.045,-0.005
4.730,0.110,0.000
4.732,0.130,0.005
4.734,0.120,0.000
4.736,0.075,-0.005
4.738,0.035,-0.015
4.740,-0.035,-0.030
4.742,-0.065,-0.045
4.744,-0.070,-0.060
4.746,-0.030,-0.070
4.748,-0.015,-0.080
4.750,0.025,-0.080
4.752,0.060,-0.080
4.754,0.035,-0.070
4.756,0.000,-0.060
4.758,0.045,-0.045
4.760,0.000,-0.035
4.762,-0.010,-0.025
4.764,-0.025,-0.020
4.766,0.015,-0.015
4.768,0.060,-0.015
4.770,0.080,-0.020
4.772,0.110,-0.025
4.774,0.095,-0.030
4.776,0.050,-0.035
4.778,0.015,-0.035
4.780,-0.035,-0.035
4.782,-0.020,-0.035
4.784,-0.015,-0.040
4.786,-0.010,-0.040
4.788,0.030,-0.045
4.790,0.050,-0.050
4.792,0.080,-0.055
4.794,0.065,-0.060
4.796,0.045,-0.060
4.798,0.015,-0.060
4.800,-0.025,-0.055
4.802,-0.055,-0.045
4.804,-0.035,-0.040
4.806,-0.015,-0.035
4.808,0.045,-0.030
4.810,0.075,-0.030
4.812,0.090,-0.035
4.814,0.070,-0.040
4.816,0.020,-0.050
4.818,-0.010,-0.060
4.820,-0.040,-0.065
4.822,-0.080,-0.070
4.824,-0.060,-0.070
4.826,-0.010,-0.070
4.828,0.045,-0.065
4.830,0.065,-0.060
4.832,0.100,-0.055
4.834,0.110,-0.050
4.836,0.080,-0.045
4.838,-0.005,-0.040
4.840,-0.045,-0.040
4.842,-0.040,-0.040
4.844,-0.025,-0.040
4.846,0.015,-0.035
4.848,0.045,-0.035
4.850,0.075,-0.035
4.852,0.100,-0.035
4.854,0.090,-0.035
4.856,0.040,-0.040
4.858,-0.030,-0.045
4.860,-0.065,-0.050
4.862,-0.070,-0.055
4.864,-0.030,-0.065
4.866,0.000,-0.065
4.868,0.055,-0.070
4.870,0.070,-0.070
4.872,0.070,-0.070
4.874,0.070,-0.065
4.876,0.040,-0.060
4.878,0.000,-0.055
4.880,-0.035,-0.050
4.882,-0.065,-0.045
4.884,-0.055,-0.040
4.886,0.010,-0.040
4.888,0.065,-0.035
4.890,0.095,-0.035
4.892,0.100,-0.035
4.894,0.080,-0.040
4.896,0.045,-0.045
4.898,-0.040,-0.050
4.900,-0.070,-0.060
4.902,-0.070,-0.065
4.904,-0.045,-0.070
4.906,-0.020,-0.075
4.908,0.040,-0.075
4.910,0.080,-0.070
4.912,0.105,-0.065
4.914,0.090,-0.055
4.916,0.040,-0.045
4.918,0.015,-0.035
4.920,-0.025,-0.025
4.922,-0.040,-0.020
4.924,-0.030,-0.015
4.926,0.040,-0.015
4.928,0.110,-0.015
4.930,0.125,-0.015
4.932,0.120,-0.020
4.934,0.075,-0.020
4.936,0.070,-0.020
4.938,0.030,-0.020
4.940,-0.010,-0.015
4.942,-0.025,-0.010
4.944,0.010,-0.005
4.946,0.060,0.000
4.948,0.115,0.005
4.950,0.125,0.005
4.952,0.125,0.005
4.954,0.125,0.005
4.956,0.075,0.000
4.958,0.010,-0.005
4.960,-0.010,-0.015
4.962,0.010,-0.020
4.964,0.000,-0.025
4.966,0.045,-0.025
4.968,0.110,-0.025
4.970,0.120,-0.025
4.972,0.125,-0.020
4.974,0.100,-0.020
4.976,0.070,-0.015
4.978,0.025,-0.015
4.980,-0.020,-0.015
4.982,-0.030,-0.015
4.984,0.005,-0.020
4.986,0.035,-0.025
4.988,0.070,-0.030
4.990,0.080,-0.040
4.992,0.100,-0.045
4.994,0.065,-0.050
4.996,-0.010,-0.055
4.998,-0.055,-0.055
5.000,-0.055,-0.060
5.002,-0.085,-0.060
5.004,-0.025,-0.060
5.006,0.030,-0.060
5.008,0.060,-0.060
5.010,0.080,-0.065
5.012,0.060,-0.065
5.014,0.035,-0.070
5.016,0.010,-0.070
5.018,-0.045,-0.070
5.020,-0.065,-0.075
5.022,-0.050,-0.075
5.024,-0.035,-0.070
5.026,-0.005,-0.070
5.028,0.055,-0.065
5.030,0.060,-0.060
5.032,0.040,-0.055
5.034,0.015,-0.050
5.036,0.005,-0.050
5.038,-0.015,-0.050
5.040,-0.045,-0.055
5.042,-0.050,-0.065
5.044,-0.015,-0.070
5.046,-0.005,-0.080
5.048,0.030,-0.085
5.050,0.040,-0.085
5.052,0.040,-0.080
5.054,0.035,-0.075
5.056,0.000,-0.070
5.058,-0.045,-0.060
5.060,-0.040,-0.055
5.062,-0.050,-0.055
5.064,-0.010,-0.060
5.066,0.010,-0.065
5.068,0.020,-0.080
5.070,0.010,-0.090
5.072,0.010,-0.100
5.074,0.010,-0.110
5.076,-0.035,-0.110
5.078,-0.070,-0.105
5.080,-0.090,-0.095
5.082,-0.080,-0.075
5.084,0.005,-0.050
5.086,0.090,-0.015
5.088,0.170,0.020
5.090,0.210,0.070
5.092,0.290,0.125
5.094,0.310,0.190
5.096,0.315,0.260
5.098,0.340,0.340
5.100,0.445,0.415
5.102,0.570,0.485
5.104,0.630,0.545
5.106,0.700,0.575
5.108,0.730,0.585
5.110,0.700,0.560
5.112,0.615,0.510
5.114,0.520,0.435
5.116,0.360,0.340
5.118,0.240,0.240
5.120,0.120,0.140
5.122,0.035,0.055
5.124,-0.030,-0.020
5.126,-0.020,-0.070
5.128,0.005,-0.100
5.130,0.035,-0.110
5.132,0.050,-0.105
5.134,0.035,-0.090
5.136,-0.005,-0.070
5.138,-0.010,-0.050
5.140,-0.020,-0.030
5.142,-0.025,-0.015
5.144,-0.005,-0.010
5.146,0.085,0.000
5.148,0.120,0.000
5.150,0.125,0.000
5.152,0.115,0.000
5.154,0.065,-0.005
5.156,0.020,-0.010
5.158,-0.005,-0.015
5.160,-0.030,-0.020
5.162,-0.035,-0.025
5.164,-0.005,-0.030
5.166,0.050,-0.035
5.168,0.095,-0.040
5.170,0.090,-0.045
5.172,0.060,-0.050
5.174,0.040,-0.055
5.176,0.010,-0.055
5.178,-0.040,-0.055
5.180,-0.035,-0.055
5.182,-0.020,-0.050
5.184,0.000,-0.045
5.186,0.045,-0.035
5.188,0.120,-0.025
5.190,0.160,-0.015
5.192,0.125,-0.005
5.194,0.095,0.000
5.196,0.055,0.005
5.198,0.025,0.005
5.200,-0.010,0.000
5.202,-0.025,-0.010
5.204,0.010,-0.020
5.206,0.085,-0.030
5.208,0.105,-0.035
5.210,0.070,-0.040
5.212,0.085,-0.035
5.214,0.095,-0.030
5.216,0.040,-0.015
5.218,-0.010,0.000
5.220,0.020,0.015
5.222,0.055,0.025
5.224,0.070,0.035
5.226,0.115,0.040
5.228,0.150,0.035
5.230,0.155,0.035
5.232,0.115,0.025
5.234,0.105,0.020
5.236,0.050,0.010
5.238,0.025,0.005
5.240,0.020,0.005
5.242,0.055,0.000
5.244,0.070,0.000
5.246,0.105,0.000
5.248,0.120,0.000
5.250,0.135,0.005
5.252,0.110,0.010
5.254,0.085,0.015
5.256,0.040,0.020
5.258,0.015,0.030
5.260,0.060,0.040
5.262,0.115,0.045
5.264,0.140,0.050
5.266,0.180,0.055
5.268,0.205,0.060
5.270,0.215,0.060
5.272,0.200,0.060
5.274,0.130,0.065
5.276,0.095,0.065
5.278,0.080,0.070
5.280,0.095,0.070
5.282,0.130,0.080
5.284,0.170,0.085
5.286,0.210,0.095
5.288,0.240,0.100
5.290,0.260,0.110
5.292,0.225,0.115
5.294,0.200,0.120
5.296,0.180,0.130
5.298,0.165,0.135
5.300,0.175,0.140
5.302,0.175,0.150
5.304,0.225,0.160
5.306,0.300,0.165
5.308,0.310,0.170
5.310,0.305,0.175
5.312,0.275,0.175
5.314,0.255,0.175
5.316,0.190,0.170
5.318,0.175,0.160
5.320,0.150,0.155
5.322,0.175,0.150
5.324,0.245,0.145
5.326,0.305,0.150
5.328,0.330,0.155
5.330,0.330,0.165
5.332,0.295,0.175
5.334,0.265,0.190
5.336,0.250,0.200
5.338,0.240,0.210
5.340,0.210,0.210
5.342,0.235,0.210
5.344,0.280,0.205
5.346,0.310,0.195
5.348,0.310,0.185
5.350,0.290,0.175
5.352,0.240,0.165
5.354,0.210,0.155
5.356,0.185,0.150
5.358,0.160,0.145
5.360,0.155,0.140
5.362,0.160,0.135
5.364,0.205,0.130
5.366,0.230,0.125
5.368,0.225,0.115
5.370,0.210,0.110
5.372,0.170,0.100
5.374,0.145,0.090
5.376,0.105,0.080
5.378,0.075,0.070
5.380,0.070,0.060
5.382,0.105,0.045
5.384,0.125,0.035
5.386,0.155,0.025
5.388,0.120,0.010
5.390,0.120,0.000
5.392,0.090,-0.005
5.394,0.005,-0.010
5.396,0.015,-0.015
5.398,0.005,-0.015
5.400,0.010,-0.015
5.402,0.075,-0.015
5.404,0.095,-0.015
5.406,0.070,-0.015
5.408,0.060,-0.020
5.410,0.040,-0.025
5.412,0.020,-0.035
5.414,0.005,-0.040
5.416,0.020,-0.045
5.418,-0.005,-0.050
5.420,0.025,-0.055
5.422,0.000,-0.055
5.424,0.015,-0.055
5.426,0.065,-0.055
5.428,0.055,-0.055
5.430,0.060,-0.055
5.432,0.040,-0.060
5.434,-0.020,-0.060
5.436,-0.020,-0.065
5.438,-0.040,-0.065
5.440,-0.060,-0.065
5.442,-0.025,-0.060
5.444,0.045,-0.050
5.446,0.105,-0.045
5.448,0.145,-0.035
5.450,0.155,-0.030
5.452,0.065,-0.025
5.454,0.015,-0.025
5.456,-0.010,-0.030
5.458,-0.035,-0.040
5.460,-0.050,-0.050
5.462,-0.050,-0.065
5.464,-0.055,-0.075
5.466,0.030,-0.085
5.468,0.085,-0.085
5.470,0.050,-0.075
5.472,0.085,-0.065
5.474,0.030,-0.045
5.476,-0.030,-0.030
5.478,-0.035,-0.015
5.480,0.035,-0.005
5.482,0.045,0.000
5.484,0.065,-0.005
5.486,0.075,-0.015
5.488,0.055,-0.030
5.490,0.040,-0.045
5.492,0.070,-0.055
5.494,0.010,-0.060
5.496,-0.005,-0.060
5.498,-0.025,-0.055
5.500,-0.025,-0.040
5.502,0.020,-0.030
5.504,0.085,-0.015
5.506,0.115,-0.010
5.508,0.105,-0.005
5.510,0.085,-0.005
5.512,0.080,-0.015
5.514,0.005,-0.025
5.516,-0.025,-0.035
5.518,-0.025,-0.045
5.520,-0.020,-0.050
5.522,0.020,-0.055
5.524,0.040,-0.050
5.526,0.080,-0.045
5.528,0.115,-0.035
5.530,0.085,-0.025
5.532,0.075,-0.015
5.534,0.035,-0.005
5.536,0.000,0.000
5.538,-0.005,0.000
5.540,0.010,0.000
5.542,0.040,-0.010
5.544,0.060,-0.020
5.546,0.080,-0.035
5.548,0.080,-0.045
5.550,0.035,-0.060
5.552,-0.005,-0.065
5.554,-0.085,-0.070
5.556,-0.115,-0.070
5.558,-0.050,-0.060
5.560,0.045,-0.050
5.562,0.070,-0.035
5.564,0.105,-0.025
5.566,0.145,-0.015
5.568,0.120,-0.010
5.570,0.095,-0.010
5.572,0.060,-0.010
5.574,0.005,-0.020
5.576,-0.040,-0.030
5.578,-0.055,-0.040
5.580,-0.030,-0.045
5.582,0.005,-0.055
5.584,0.035,-0.060
5.586,0.080,-0.060
5.588,0.075,-0.060
5.590,0.080,-0.060
5.592,0.055,-0.055
5.594,0.015,-0.050
5.596,-0.015,-0.045
5.598,-0.045,-0.040
5.600,-0.005,-0.035
5.602,0.010,-0.030
5.604,0.055,-0.030
5.606,0.085,-0.030
5.608,0.105,-0.035
5.610,0.070,-0.040
5.612,0.025,-0.050
5.614,-0.030,-0.060
5.616,-0.060,-0.070
5.618,-0.080,-0.075
5.620,-0.050,-0.080
5.622,-0.005,-0.080
5.624,0.035,-0.070
5.626,0.065,-0.065
5.628,0.125,-0.055
5.630,0.075,-0.045
5.632,0.020,-0.035
5.634,-0.035,-0.030
5.636,-0.040,-0.025
5.638,-0.015,-0.030
5.640,0.030,-0.030
5.642,0.055,-0.040
5.644,0.075,-0.045
5.646,0.095,-0.050
5.648,0.095,-0.055
5.650,0.035,-0.060
5.652,0.005,-0.060
5.654,-0.050,-0.065
5.656,-0.065,-0.065
5.658,-0.045,-0.065
5.660,-0.035,-0.065
5.662,0.000,-0.065
5.664,0.060,-0.060
5.666,0.065,-0.055
5.668,0.090,-0.050
5.670,0.060,-0.040
5.672,0.050,-0.035
5.674,-0.005,-0.030
5.676,-0.020,-0.025
5.678,-0.025,-0.025
5.680,-0.010,-0.030
5.682,0.020,-0.040
5.684,0.030,-0.045
5.686,0.060,-0.055
5.688,0.060,-0.060
5.690,0.030,-0.065
5.692,-0.005,-0.070
5.694,-0.035,-0.065
5.696,-0.030,-0.065
5.698,-0.030,-0.060
5.700,-0.040,-0.050
5.702,0.030,-0.045
5.704,0.040,-0.040
5.706,0.100,-0.040
5.708,0.085,-0.035
5.710,0.080,-0.035
5.712,0.040,-0.035
5.714,-0.015,-0.035
5.716,-0.050,-0.035
5.718,-0.045,-0.035
5.720,-0.025,-0.040
5.722,0.070,-0.045
5.724,0.070,-0.055
5.726,0.055,-0.060
5.728,0.035,-0.065
5.730,0.010,-0.070
5.732,-0.005,-0.075
5.734,-0.045,-0.075
5.736,-0.030,-0.075
5.738,-0.065,-0.070
5.740,-0.015,-0.070
5.742,0.030,-0.065
5.744,0.070,-0.060
5.746,0.075,-0.060
5.748,0.075,-0.060
5.750,0.025,-0.060
5.752,-0.015,-0.060
5.754,-0.055,-0.060
5.756,-0.080,-0.060
5.758,-0.040,-0.060
5.760,0.005,-0.060
5.762,0.035,-0.055
5.764,0.085,-0.055
5.766,0.090,-0.055
5.768,0.085,-0.055
5.770,0.050,-0.055
5.772,0.000,-0.055
5.774,-0.045,-0.055
5.776,-0.085,-0.060
5.778,-0.055,-0.060
5.780,0.010,-0.060
5.782,0.075,-0.055
5.784,0.095,-0.045
5.786,0.105,-0.035
5.788,0.100,-0.025
5.790,0.115,-0.015
5.792,0.055,-0.005
5.794,0.000,0.000
5.796,-0.020,0.000
5.798,0.000,0.000
5.800,0.020,-0.010
5.802,0.070,-0.015
5.804,0.095,-0.025
5.806,0.100,-0.035
5.808,0.085,-0.040
5.810,0.040,-0.040
5.812,-0.015,-0.040
5.814,-0.055,-0.040
5.816,-0.045,-0.035
5.818,-0.005,-0.030
5.820,0.035,-0.025
5.822,0.100,-0.025
5.824,0.140,-0.020
5.826,0.155,-0.015
5.828,0.135,-0.015
5.830,0.115,-0.010
5.832,0.065,-0.005
5.834,0.015,0.000
5.836,0.005,0.000
5.838,0.030,0.005
5.840,0.050,0.005
5.842,0.075,0.005
5.844,0.100,0.000
5.846,0.100,-0.010
5.848,0.055,-0.015
5.850,0.020,-0.025
5.852,0.015,-0.035
5.854,-0.010,-0.040
5.856,0.000,-0.045
5.858,0.030,-0.045
5.860,0.030,-0.045
5.862,0.055,-0.040
5.864,0.100,-0.035
5.866,0.090,-0.030
5.868,0.060,-0.030
5.870,0.050,-0.025
5.872,0.035,-0.030
5.874,-0.005,-0.030
5.876,-0.040,-0.035
5.878,-0.030,-0.040
5.880,-0.025,-0.050
5.882,0.020,-0.055
5.884,0.055,-0.055
5.886,0.060,-0.060
5.888,0.045,-0.060
5.890,0.015,-0.060
5.892,-0.035,-0.060
5.894,-0.090,-0.060
5.896,-0.090,-0.065
5.898,-0.045,-0.070
5.900,-0.005,-0.080
5.902,0.010,-0.090
5.904,0.025,-0.095
5.906,0.035,-0.100
5.908,0.030,-0.100
5.910,0.015,-0.095
5.912,-0.065,-0.085
5.914,-0.080,-0.070
5.916,-0.015,-0.060
5.918,0.020,-0.045
5.920,0.065,-0.040
5.922,0.085,-0.035
5.924,0.065,-0.035
5.926,0.065,-0.040
5.928,0.050,-0.050
5.930,-0.015,-0.065
5.932,-0.065,-0.075
5.934,-0.045,-0.085
5.936,-0.040,-0.095
5.938,-0.065,-0.100
5.940,-0.025,-0.100
5.942,0.040,-0.095
5.944,0.060,-0.090
5.946,0.060,-0.085
5.948,0.010,-0.085
5.950,-0.040,-0.085
5.952,-0.110,-0.080
5.954,-0.095,-0.080
5.956,-0.090,-0.075
5.958,-0.030,-0.060
5.960,0.080,-0.035
5.962,0.160,0.005
5.964,0.235,0.055
5.966,0.290,0.120
5.968,0.310,0.195
5.970,0.310,0.275
5.972,0.390,0.355
5.974,0.445,0.430
5.976,0.530,0.490
5.978,0.605,0.530
5.980,0.690,0.550
5.982,0.725,0.545
5.984,0.620,0.525
5.986,0.550,0.480
5.988,0.525,0.420
5.990,0.485,0.345
5.992,0.325,0.270
5.994,0.170,0.190
5.996,0.070,0.110
5.998,-0.005,0.040
6.000,-0.020,-0.020
6.002,0.040,-0.070
6.004,0.050,-0.100
6.006,0.025,-0.120
6.008,-0.005,-0.125
6.010,-0.035,-0.115
6.012,-0.065,-0.095
6.014,-0.055,-0.075
6.016,0.000,-0.050
6.018,0.010,-0.025
6.020,0.050,-0.005
6.022,0.140,0.005
6.024,0.135,0.005
6.026,0.120,0.005
6.028,0.105,-0.005
6.030,0.035,-0.020
6.032,-0.040,-0.030
6.034,-0.050,-0.045
6.036,-0.040,-0.050
6.038,0.015,-0.055
6.040,0.065,-0.060
6.042,0.045,-0.055
6.044,0.085,-0.055
6.046,0.065,-0.050
6.048,0.045,-0.045
6.050,0.000,-0.045
6.052,-0.025,-0.040
6.054,-0.040,-0.035
6.056,-0.010,-0.035
6.058,0.035,-0.030
6.060,0.080,-0.020
6.062,0.090,-0.015
6.064,0.135,-0.010
6.066,0.110,-0.010
6.068,0.085,-0.010
6.070,0.015,-0.010
6.072,-0.035,-0.015
6.074,-0.010,-0.020
6.076,-0.010,-0.025
6.078,0.035,-0.025
6.080,0.100,-0.030
6.082,0.120,-0.030
6.084,0.120,-0.025
6.086,0.105,-0.025
6.088,0.095,-0.020
6.090,0.050,-0.015
6.092,0.025,-0.015
6.094,-0.020,-0.015
6.096,-0.035,-0.015
6.098,0.005,-0.015
6.100,0.085,-0.015
6.102,0.110,-0.010
6.104,0.140,-0.005
6.106,0.175,0.005
6.108,0.140,0.010
6.110,0.045,0.020
6.112,0.040,0.030
6.114,0.025,0.035
6.116,0.050,0.035
6.118,0.090,0.035
6.120,0.125,0.035
6.122,0.140,0.035
6.124,0.155,0.030
6.126,0.145,0.030
6.128,0.130,0.030
6.130,0.060,0.025
6.132,0.025,0.030
6.134,0.050,0.030
6.136,0.070,0.035
6.138,0.080,0.035
6.140,0.150,0.040
6.142,0.200,0.045
6.144,0.190,0.055
6.146,0.165,0.060
6.148,0.170,0.065
6.150,0.125,0.075
6.152,0.110,0.080
6.154,0.075,0.085
6.156,0.070,0.090
6.158,0.135,0.095
6.160,0.215,0.100
6.162,0.250,0.105
6.164,0.250,0.110
6.166,0.240,0.115
6.168,0.225,0.120
6.170,0.150,0.130
6.172,0.160,0.135
6.174,0.170,0.140
6.176,0.175,0.150
6.178,0.210,0.155
6.180,0.260,0.160
6.182,0.290,0.165
6.184,0.305,0.165
6.186,0.290,0.170
6.188,0.245,0.175
6.190,0.220,0.185
6.192,0.210,0.190
6.194,0.215,0.195
6.196,0.250,0.200
6.198,0.305,0.200
6.200,0.335,0.200
6.202,0.315,0.195
6.204,0.315,0.195
6.206,0.290,0.190
6.208,0.260,0.185
6.210,0.190,0.185
6.212,0.180,0.185
6.214,0.245,0.190
6.216,0.265,0.195
6.218,0.290,0.200
6.220,0.330,0.200
6.222,0.335,0.200
6.224,0.335,0.200
6.226,0.265,0.190
6.228,0.240,0.180
6.230,0.155,0.170
6.232,0.135,0.155
6.234,0.145,0.145
6.236,0.170,0.130
6.238,0.180,0.120
6.240,0.225,0.115
6.242,0.240,0.105
6.244,0.220,0.100
6.246,0.155,0.090
6.248,0.110,0.085
6.250,0.095,0.075
6.252,0.115,0.070
6.254,0.110,0.060
6.256,0.085,0.055
6.258,0.090,0.050
6.260,0.145,0.040
6.262,0.160,0.035
6.264,0.140,0.025
6.266,0.085,0.020
6.268,0.030,0.010
6.270,0.015,0.000
6.272,0.010,-0.005
6.274,0.010,-0.010
6.276,0.020,-0.015
6.278,0.075,-0.015
6.280,0.100,-0.010
6.282,0.095,-0.005
6.284,0.130,-0.005
6.286,0.080,0.000
6.288,0.025,0.000
6.290,0.005,-0.010
6.292,0.005,-0.015
6.294,-0.005,-0.030
6.296,-0.005,-0.045
6.298,0.035,-0.055
6.300,0.050,-0.065
6.302,0.015,-0.070
6.304,0.020,-0.070
6.306,0.000,-0.065
6.308,0.030,-0.060
6.310,-0.010,-0.050
6.312,-0.035,-0.040
6.314,-0.005,-0.035
6.316,0.015,-0.030
6.318,0.050,-0.030
6.320,0.105,-0.030
6.322,0.100,-0.035
6.324,0.070,-0.040
6.326,0.045,-0.045
6.328,0.015,-0.050
6.330,-0.035,-0.055
6.332,-0.060,-0.055
6.334,-0.030,-0.055
6.336,0.005,-0.055
6.338,0.035,-0.050
6.340,0.045,-0.045
6.342,0.095,-0.040
6.344,0.100,-0.035
6.346,0.075,-0.030
6.348,0.020,-0.025
6.350,-0.020,-0.025
6.352,-0.035,-0.020
6.354,-0.030,-0.020
6.356,0.020,-0.025
6.358,0.070,-0.025
6.360,0.100,-0.030
6.362,0.125,-0.030
6.364,0.090,-0.030
6.366,0.060,-0.030
6.368,0.015,-0.030
6.370,-0.030,-0.025
6.372,-0.040,-0.025
6.374,-0.025,-0.020
6.376,0.010,-0.025
6.378,0.080,-0.025
6.380,0.100,-0.035
6.382,0.090,-0.045
6.384,0.045,-0.055
6.386,0.030,-0.060
6.388,-0.035,-0.065
6.390,-0.050,-0.065
6.392,-0.065,-0.060
6.394,-0.060,-0.050
6.396,0.005,-0.035
6.398,0.105,-0.020
6.400,0.145,-0.010
6.402,0.120,0.005
6.404,0.100,0.010
6.406,0.105,0.010
6.408,0.030,0.005
6.410,-0.005,-0.005
6.412,-0.030,-0.010
6.414,-0.005,-0.020
6.416,0.020,-0.030
6.418,0.075,-0.035
6.420,0.105,-0.035
6.422,0.095,-0.035
6.424,0.070,-0.035
6.426,0.070,-0.035
6.428,0.025,-0.030
6.430,-0.010,-0.030
6.432,-0.025,-0.025
6.434,-0.045,-0.025
6.436,0.015,-0.020
6.438,0.065,-0.020
6.440,0.100,-0.025
6.442,0.105,-0.025
6.444,0.070,-0.030
6.446,0.030,-0.040
6.448,-0.035,-0.050
6.450,-0.100,-0.060
6.452,-0.085,-0.065
6.454,-0.005,-0.070
6.456,0.040,-0.065
6.458,0.085,-0.060
6.460,0.080,-0.050
6.462,0.055,-0.040
6.464,0.050,-0.030
6.466,0.065,-0.020
6.468,0.015,-0.010
6.470,-0.015,-0.010
6.472,-0.015,-0.015
6.474,0.000,-0.020
6.476,0.010,-0.030
6.478,0.020,-0.040
6.480,0.085,-0.045
6.482,0.125,-0.045
6.484,0.085,-0.045
6.486,0.035,-0.040
6.488,0.015,-0.035
6.490,-0.030,-0.030
6.492,-0.060,-0.025
6.494,-0.020,-0.025
6.496,0.015,-0.030
6.498,0.080,-0.035
6.500,0.105,-0.040
6.502,0.095,-0.050
6.504,0.050,-0.055
6.506,-0.010,-0.060
6.508,-0.045,-0.060
6.510,-0.075,-0.060
6.512,-0.050,-0.055
6.514,-0.005,-0.055
6.516,0.030,-0.050
6.518,0.065,-0.050
6.520,0.070,-0.050
6.522,0.055,-0.055
6.524,0.030,-0.065
6.526,-0.020,-0.070
6.528,-0.085,-0.075
6.530,-0.110,-0.080
6.532,-0.075,-0.085
6.534,-0.010,-0.085
6.536,0.050,-0.080
6.538,0.070,-0.075
6.540,0.100,-0.065
6.542,0.085,-0.060
6.544,0.050,-0.050
6.546,0.025,-0.045
6.548,-0.020,-0.045
6.550,-0.045,-0.040
6.552,-0.045,-0.045
6.554,-0.015,-0.045
6.556,0.020,-0.050
6.558,0.040,-0.055
6.560,0.060,-0.055
6.562,0.055,-0.055
6.564,0.005,-0.055
6.566,0.010,-0.055
6.568,0.005,-0.055
6.570,-0.030,-0.050
6.572,-0.030,-0.050
6.574,0.005,-0.045
6.576,0.045,-0.045
6.578,0.070,-0.045
6.580,0.085,-0.040
6.582,0.100,-0.040
6.584,0.065,-0.040
6.586,0.010,-0.035
6.588,-0.040,-0.040
6.590,-0.050,-0.040
6.592,-0.035,-0.045
6.594,-0.035,-0.055
6.596,0.000,-0.060
6.598,0.035,-0.070
6.600,0.060,-0.080
6.602,0.045,-0.090
6.604,-0.005,-0.095
6.606,-0.050,-0.095
6.608,-0.085,-0.095
6.610,-0.095,-0.090
6.612,-0.080,-0.085
6.614,0.005,-0.075
6.616,0.060,-0.065
6.618,0.080,-0.060
6.620,0.085,-0.055
6.622,0.085,-0.050
6.624,0.055,-0.050
6.626,0.005,-0.050
6.628,-0.030,-0.050
6.630,-0.045,-0.050
6.632,-0.005,-0.050
6.634,0.005,-0.050
6.636,0.045,-0.050
6.638,0.065,-0.045
6.640,0.100,-0.040
6.642,0.100,-0.035
6.644,0.055,-0.030
6.646,0.030,-0.025
6.648,0.010,-0.020
6.650,0.000,-0.020
6.652,0.010,-0.020
6.654,0.030,-0.020
6.656,0.070,-0.020
6.658,0.090,-0.025
6.660,0.100,-0.025
6.662,0.090,-0.025
6.664,0.065,-0.025
6.666,0.005,-0.020
6.668,-0.025,-0.015
6.670,0.020,-0.010
6.672,0.025,-0.005
6.674,0.045,0.000
6.676,0.100,0.005
6.678,0.115,0.005
6.680,0.100,0.000
6.682,0.090,-0.005
6.684,0.040,-0.015
6.686,0.035,-0.020
6.688,0.005,-0.025
6.690,-0.020,-0.030
6.692,-0.035,-0.030
6.694,0.010,-0.030
6.696,0.085,-0.030
6.698,0.140,-0.035
6.700,0.110,-0.035
6.702,0.080,-0.040
6.704,0.030,-0.045
6.706,-0.030,-0.050
6.708,-0.055,-0.060
6.710,-0.070,-0.065
6.712,-0.085,-0.070
6.714,-0.020,-0.075
6.716,0.025,-0.075
6.718,0.055,-0.075
6.720,0.065,-0.075
6.722,0.050,-0.075
6.724,0.040,-0.070
6.726,-0.050,-0.070
6.728,-0.060,-0.070
6.730,-0.055,-0.075
6.732,-0.055,-0.080
6.734,-0.020,-0.085
6.736,0.025,-0.095
6.738,0.060,-0.100
6.740,0.050,-0.105
6.742,0.035,-0.110
6.744,-0.060,-0.110
6.746,-0.125,-0.105
6.748,-0.120,-0.105
6.750,-0.120,-0.100
6.752,-0.060,-0.095
6.754,0.005,-0.090
6.756,0.035,-0.090
6.758,0.060,-0.085
6.760,0.075,-0.080
6.762,0.060,-0.080
6.764,0.015,-0.075
6.766,-0.035,-0.075
6.768,-0.060,-0.075
6.770,-0.070,-0.080
6.772,-0.050,-0.080
6.774,-0.030,-0.085
6.776,-0.015,-0.090
6.778,0.020,-0.095
6.780,0.030,-0.100
6.782,0.030,-0.105
6.784,-0.035,-0.105
6.786,-0.090,-0.105
6.788,-0.080,-0.105
6.790,-0.090,-0.105
6.792,-0.075,-0.110
6.794,-0.060,-0.110
6.796,0.000,-0.105
6.798,0.035,-0.100
6.800,0.010,-0.085
6.802,0.065,-0.065
6.804,0.105,-0.030
6.806,0.085,0.020
6.808,0.090,0.085
6.810,0.155,0.160
6.812,0.255,0.245
6.814,0.420,0.330
6.816,0.570,0.415
6.818,0.695,0.490
6.820,0.740,0.545
6.822,0.715,0.580
6.824,0.680,0.590
6.826,0.580,0.570
6.828,0.510,0.525
6.830,0.445,0.455
6.832,0.365,0.370
6.834,0.345,0.275
6.836,0.300,0.180
6.838,0.195,0.090
6.840,0.100,0.015
6.842,-0.005,-0.045
6.844,-0.040,-0.085
6.846,-0.075,-0.105
6.848,-0.080,-0.110
6.850,-0.070,-0.110
6.852,-0.030,-0.100
6.854,0.040,-0.085
6.856,0.075,-0.075
6.858,0.090,-0.070
6.860,0.060,-0.065
6.862,0.015,-0.065
6.864,-0.025,-0.065
6.866,-0.045,-0.065
6.868,-0.040,-0.065
6.870,-0.005,-0.060
6.872,0.045,-0.055
6.874,0.090,-0.045
6.876,0.120,-0.040
6.878,0.130,-0.030
6.880,0.105,-0.025
6.882,0.065,-0.025
6.884,0.005,-0.025
6.886,-0.045,-0.025
6.888,-0.065,-0.025
6.890,-0.050,-0.030
6.892,0.015,-0.030
6.894,0.065,-0.035
6.896,0.095,-0.035
6.898,0.115,-0.035
6.900,0.110,-0.035
6.902,0.060,-0.035
6.904,0.010,-0.040
6.906,-0.015,-0.040
6.908,-0.015,-0.040
6.910,-0.030,-0.045
6.912,0.005,-0.050
6.914,0.055,-0.050
6.916,0.080,-0.050
6.918,0.100,-0.050
6.920,0.090,-0.045
6.922,0.070,-0.040
6.924,0.040,-0.035
6.926,0.030,-0.030
6.928,0.015,-0.020
6.930,0.005,-0.015
6.932,0.030,-0.010
6.934,0.075,-0.010
6.936,0.120,-0.010
6.938,0.120,-0.010
6.940,0.130,-0.010
6.942,0.090,-0.010
6.944,0.030,-0.005
6.946,0.010,-0.005
6.948,0.010,0.000
6.950,0.020,0.005
6.952,0.040,0.005
6.954,0.115,0.010
6.956,0.135,0.010
6.958,0.135,0.015
6.960,0.125,0.010
6.962,0.090,0.010
6.964,0.060,0.010
6.966,0.055,0.010
6.968,0.045,0.010
6.970,0.050,0.015
6.972,0.045,0.020
6.974,0.080,0.025
6.976,0.130,0.030
6.978,0.155,0.035
6.980,0.175,0.035
6.982,0.155,0.040
6.984,0.130,0.045
6.986,0.105,0.050
6.988,0.095,0.055
6.990,0.085,0.060
6.992,0.110,0.070
6.994,0.180,0.080
6.996,0.205,0.085
6.998,0.205,0.095
7.000,0.225,0.100
7.002,0.225,0.100
7.004,0.165,0.100
7.006,0.135,0.100
7.008,0.140,0.100
7.010,0.150,0.100
7.012,0.180,0.100
7.014,0.215,0.105
7.016,0.235,0.110
7.018,0.250,0.120
7.020,0.230,0.130
7.022,0.245,0.140
7.024,0.200,0.150
7.026,0.175,0.160
7.028,0.185,0.165
7.030,0.190,0.175
7.032,0.220,0.180
7.034,0.295,0.190
7.036,0.350,0.195
7.038,0.355,0.200
7.040,0.305,0.205
7.042,0.290,0.210
7.044,0.255,0.210
7.046,0.230,0.210
7.048,0.210,0.205
7.050,0.225,0.200
7.052,0.250,0.195
7.054,0.290,0.190
7.056,0.310,0.185
7.058,0.305,0.180
7.060,0.290,0.180
7.062,0.250,0.180
7.064,0.200,0.180
7.066,0.170,0.175
7.068,0.160,0.175
7.070,0.165,0.170
7.072,0.205,0.165
7.074,0.270,0.155
7.076,0.285,0.145
7.078,0.265,0.135
7.080,0.235,0.125
7.082,0.180,0.115
7.084,0.120,0.105
7.086,0.100,0.095
7.088,0.090,0.090
7.090,0.080,0.080
7.092,0.110,0.070
7.094,0.175,0.065
7.096,0.210,0.055
7.098,0.185,0.050
7.100,0.150,0.045
7.102,0.120,0.035
7.104,0.045,0.030
7.106,0.000,0.020
7.108,0.005,0.010
7.110,0.035,0.000
7.112,0.085,-0.010
7.114,0.110,-0.020
7.116,0.080,-0.025
7.118,0.080,-0.025
7.120,0.105,-0.025
7.122,0.095,-0.020
7.124,0.045,-0.015
7.126,0.020,-0.005
7.128,0.025,0.000
7.130,0.020,0.000
7.132,0.045,0.000
7.134,0.080,-0.005
7.136,0.100,-0.015
7.138,0.120,-0.025
7.140,0.075,-0.040
7.142,0.035,-0.050
7.144,-0.030,-0.060
7.146,-0.060,-0.065
7.148,-0.085,-0.070
7.150,-0.040,-0.070
7.152,0.010,-0.065
7.154,0.080,-0.060
7.156,0.135,-0.055
7.158,0.115,-0.050
7.160,0.090,-0.045
7.162,0.040,-0.040
7.164,-0.010,-0.040
7.166,-0.020,-0.040
7.168,-0.020,-0.040
7.170,-0.005,-0.040
7.172,0.050,-0.035
7.174,0.085,-0.035
7.176,0.070,-0.030
7.178,0.050,-0.030
7.180,0.080,-0.030
7.182,0.055,-0.030
7.184,0.025,-0.035
7.186,-0.015,-0.035
7.188,-0.010,-0.040
7.190,0.020,-0.045
7.192,0.020,-0.045
7.194,0.050,-0.050
7.196,0.090,-0.050
7.198,0.095,-0.045
7.200,0.105,-0.045
7.202,0.050,-0.040
7.204,0.005,-0.040
7.206,-0.010,-0.035
7.208,-0.010,-0.035
7.210,0.015,-0.035
7.212,0.065,-0.035
7.214,0.090,-0.035
7.216,0.110,-0.035
7.218,0.095,-0.035
7.220,0.045,-0.030
7.222,0.005,-0.030
7.224,-0.020,-0.030
7.226,-0.050,-0.030
7.228,-0.035,-0.025
7.230,0.040,-0.025
7.232,0.120,-0.025
7.234,0.105,-0.025
7.236,0.110,-0.025
7.238,0.110,-0.025
7.240,0.085,-0.025
7.242,0.050,-0.025
7.244,-0.010,-0.030
7.246,-0.025,-0.030
7.248,-0.020,-0.030
7.250,0.005,-0.030
7.252,0.045,-0.030
7.254,0.075,-0.030
7.256,0.110,-0.030
7.258,0.105,-0.030
7.260,0.075,-0.025
7.262,0.020,-0.025
7.264,-0.025,-0.025
7.266,-0.040,-0.025
7.268,-0.020,-0.025
7.270,0.025,-0.025
7.272,0.075,-0.025
7.274,0.100,-0.025
7.276,0.105,-0.030
7.278,0.070,-0.030
7.280,0.060,-0.030
7.282,0.035,-0.035
7.284,-0.015,-0.035
7.286,-0.035,-0.040
7.288,-0.020,-0.045
7.290,0.000,-0.045
7.292,0.030,-0.045
7.294,0.085,-0.045
7.296,0.095,-0.045
7.298,0.070,-0.040
7.300,0.040,-0.040
7.302,0.000,-0.040
7.304,-0.035,-0.040
7.306,-0.060,-0.045
7.308,-0.020,-0.050
7.310,0.020,-0.050
7.312,0.070,-0.055
7.314,0.070,-0.055
7.316,0.055,-0.055
7.318,0.060,-0.055
7.320,0.045,-0.050
7.322,0.005,-0.045
7.324,-0.035,-0.040
7.326,-0.025,-0.040
7.328,0.015,-0.040
7.330,0.025,-0.045
7.332,0.070,-0.050
7.334,0.055,-0.055
7.336,0.080,-0.065
7.338,0.045,-0.070
7.340,0.010,-0.070
7.342,-0.035,-0.070
7.344,-0.035,-0.070
7.346,-0.060,-0.065
7.348,-0.065,-0.065
7.350,-0.035,-0.060
7.352,0.050,-0.060
7.354,0.080,-0.060
7.356,0.070,-0.060
7.358,0.070,-0.060
7.360,0.020,-0.060
7.362,-0.035,-0.060
7.364,-0.055,-0.060
7.366,-0.025,-0.065
7.368,-0.030,-0.065
7.370,-0.010,-0.070
7.372,0.055,-0.075
7.374,0.025,-0.080
7.376,0.045,-0.085
7.378,0.040,-0.085
7.380,0.025,-0.080
7.382,-0.030,-0.075
7.384,-0.040,-0.065
7.386,0.020,-0.050
7.388,0.045,-0.040
7.390,0.030,-0.030
7.392,0.055,-0.030
7.394,0.055,-0.030
7.396,0.095,-0.035
7.398,0.065,-0.045
7.400,0.050,-0.055
7.402,-0.020,-0.060
7.404,-0.045,-0.065
7.406,-0.040,-0.070
7.408,-0.035,-0.065
7.410,0.000,-0.060
7.412,0.060,-0.050
7.414,0.090,-0.040
7.416,0.075,-0.030
7.418,0.095,-0.025
7.420,0.070,-0.015
7.422,0.045,-0.010
7.424,0.010,-0.010
7.426,-0.005,-0.010
7.428,0.025,-0.010
7.430,0.055,-0.010
7.432,0.075,-0.010
7.434,0.140,-0.015
7.436,0.090,-0.020
7.438,0.070,-0.020
7.440,0.060,-0.025
7.442,0.015,-0.030
7.444,0.005,-0.030
7.446,-0.005,-0.030
7.448,0.020,-0.030
7.450,0.045,-0.030
7.452,0.075,-0.030
7.454,0.115,-0.030
7.456,0.100,-0.030
7.458,0.060,-0.035
7.460,0.020,-0.045
7.462,-0.015,-0.055
7.464,-0.080,-0.065
7.466,-0.060,-0.075
7.468,-0.030,-0.085
7.470,0.020,-0.090
7.472,0.065,-0.090
7.474,0.055,-0.085
7.476,0.030,-0.080
7.478,0.020,-0.070
7.480,-0.030,-0.060
7.482,-0.015,-0.055
7.484,-0.035,-0.050
7.486,-0.030,-0.050
7.488,-0.015,-0.050
7.490,0.010,-0.055
7.492,0.050,-0.060
7.494,0.060,-0.065
7.496,0.055,-0.070
7.498,0.055,-0.070
7.500,-0.005,-0.070
7.502,-0.055,-0.070
7.504,-0.055,-0.075
7.506,-0.045,-0.075
7.508,-0.020,-0.080
7.510,-0.010,-0.080
7.512,0.035,-0.085
7.514,0.070,-0.090
7.516,0.035,-0.095
7.518,-0.010,-0.095
7.520,-0.050,-0.095
7.522,-0.045,-0.095
7.524,-0.040,-0.090
7.526,-0.025,-0.085
7.528,-0.010,-0.080
7.530,0.030,-0.075
7.532,0.060,-0.075
7.534,0.060,-0.070
7.536,0.045,-0.075
7.538,0.010,-0.075
7.540,-0.055,-0.080
7.542,-0.070,-0.090
7.544,-0.085,-0.095
7.546,-0.050,-0.105
7.548,-0.040,-0.115
7.550,-0.030,-0.125
7.552,-0.040,-0.130
7.554,0.000,-0.130
7.556,-0.005,-0.125
7.558,0.005,-0.110
7.560,-0.025,-0.080
7.562,-0.010,-0.040
7.564,0.040,0.010
7.566,0.120,0.080
7.568,0.215,0.155
7.570,0.355,0.240
7.572,0.490,0.330
7.574,0.585,0.415
7.576,0.690,0.490
7.578,0.695,0.550
7.580,0.660,0.585
7.582,0.610,0.595
7.584,0.585,0.575
7.586,0.545,0.525
7.588,0.505,0.450
7.590,0.445,0.355
7.592,0.375,0.255
7.594,0.275,0.150
7.596,0.140,0.055
7.598,-0.005,-0.025
7.600,-0.065,-0.085
7.602,-0.100,-0.120
7.604,-0.115,-0.140
7.606,-0.095,-0.140
7.608,-0.055,-0.130
7.610,0.040,-0.110
7.612,0.080,-0.095
7.614,0.090,-0.080
7.616,0.075,-0.065
7.618,0.060,-0.055
7.620,0.005,-0.050
7.622,-0.045,-0.045
7.624,-0.030,-0.045
7.626,0.000,-0.040
7.628,0.025,-0.040
7.630,0.090,-0.035
7.632,0.135,-0.035
7.634,0.125,-0.035
7.636,0.080,-0.040
7.638,0.040,-0.045
7.640,0.000,-0.050
7.642,-0.025,-0.050
7.644,-0.050,-0.055
7.646,-0.035,-0.060
7.648,0.005,-0.060
7.650,0.045,-0.060
7.652,0.060,-0.065
7.654,0.075,-0.065
7.656,0.075,-0.065
7.658,0.030,-0.065
7.660,-0.015,-0.065
7.662,-0.045,-0.060
7.664,-0.020,-0.055
7.666,0.010,-0.050
7.668,0.035,-0.040
7.670,0.070,-0.035
7.672,0.130,-0.025
7.674,0.125,-0.020
7.676,0.095,-0.015
7.678,0.080,-0.010
7.680,0.020,-0.010
7.682,0.010,-0.010
7.684,0.005,-0.015
7.686,0.000,-0.020
7.688,0.035,-0.020
7.690,0.065,-0.025
7.692,0.080,-0.025
7.694,0.115,-0.020
7.696,0.120,-0.020
7.698,0.105,-0.015
7.700,0.030,-0.005
7.702,0.040,0.000
7.704,0.055,0.005
7.706,0.055,0.010
7.708,0.060,0.010
7.710,0.090,0.010
7.712,0.115,0.010
7.714,0.115,0.005
7.716,0.105,0.000
7.718,0.105,0.000
7.720,0.060,0.000
7.722,0.015,0.000
7.724,0.000,0.005
7.726,0.065,0.010
7.728,0.115,0.020
7.730,0.145,0.030
7.732,0.155,0.035
7.734,0.170,0.045
7.736,0.170,0.045
7.738,0.150,0.050
7.740,0.115,0.045
7.742,0.040,0.045
7.744,0.020,0.045
7.746,0.065,0.045
7.748,0.125,0.045
7.750,0.210,0.050
7.752,0.225,0.055
7.754,0.205,0.065
7.756,0.195,0.070
7.758,0.185,0.080
7.760,0.145,0.090
7.762,0.140,0.095
7.764,0.140,0.100
7.766,0.155,0.105
7.768,0.195,0.110
7.770,0.240,0.110
7.772,0.255,0.115
7.774,0.250,0.115
7.776,0.230,0.120
7.778,0.240,0.125
7.780,0.205,0.135
7.782,0.180,0.145
7.784,0.200,0.155
7.786,0.225,0.160
7.788,0.255,0.170
7.790,0.280,0.175
7.792,0.340,0.180
7.794,0.350,0.185
7.796,0.310,0.185
7.798,0.250,0.185
7.800,0.215,0.185
7.802,0.180,0.185
7.804,0.195,0.185
7.806,0.260,0.185
7.808,0.300,0.185
7.810,0.330,0.185
7.812,0.315,0.180
7.814,0.295,0.175
7.816,0.275,0.175
7.818,0.240,0.170
7.820,0.195,0.165
7.822,0.160,0.160
7.824,0.145,0.155
7.826,0.195,0.150
7.828,0.275,0.145
7.830,0.290,0.135
7.832,0.270,0.130
7.834,0.250,0.115
7.836,0.185,0.105
7.838,0.145,0.095
7.840,0.125,0.085
7.842,0.090,0.080
7.844,0.090,0.075
7.846,0.100,0.075
7.848,0.190,0.075
7.850,0.220,0.070
7.852,0.220,0.070
7.854,0.180,0.065
7.856,0.150,0.055
7.858,0.070,0.040
7.860,0.030,0.025
7.862,0.025,0.005
7.864,0.000,-0.010
7.866,0.035,-0.020
7.868,0.110,-0.025
7.870,0.130,-0.030
7.872,0.110,-0.025
7.874,0.125,-0.020
7.876,0.080,-0.015
7.878,0.010,-0.015
7.880,-0.030,-0.015
7.882,-0.040,-0.025
7.884,-0.015,-0.035
7.886,0.020,-0.045
7.888,0.090,-0.055
7.890,0.095,-0.065
7.892,0.115,-0.070
7.894,0.100,-0.070
7.896,0.050,-0.065
7.898,0.015,-0.060
7.900,-0.010,-0.045
7.902,-0.015,-0.035
7.904,-0.010,-0.030
7.906,0.015,-0.025
7.908,0.070,-0.030
7.910,0.095,-0.035
7.912,0.085,-0.045
7.914,0.090,-0.050
7.916,0.055,-0.060
7.918,-0.015,-0.065
7.920,-0.015,-0.060
7.922,-0.015,-0.055
7.924,-0.005,-0.045
7.926,0.025,-0.035
7.928,0.060,-0.025
7.930,0.125,-0.015
7.932,0.140,-0.010
7.934,0.115,-0.010
7.936,0.090,-0.015
7.938,0.075,-0.020
7.940,-0.005,-0.030
7.942,-0.025,-0.035
7.944,-0.015,-0.040
7.946,0.030,-0.040
7.948,0.115,-0.040
7.950,0.115,-0.035
7.952,0.100,-0.035
7.954,0.065,-0.030
7.956,0.055,-0.030
7.958,0.000,-0.035
7.960,-0.010,-0.035
7.962,-0.020,-0.040
7.964,-0.010,-0.045
7.966,0.040,-0.050
7.968,0.090,-0.050
7.970,0.110,-0.050
7.972,0.125,-0.045
7.974,0.100,-0.040
7.976,0.065,-0.035
7.978,0.035,-0.030
7.980,-0.005,-0.025
7.982,0.015,-0.025
7.984,0.020,-0.025
7.986,0.050,-0.030
7.988,0.095,-0.035
7.990,0.090,-0.040
7.992,0.100,-0.045
7.994,0.105,-0.045
7.996,0.090,-0.040
7.998,0.040,-0.035
8.000,0.020,-0.025
8.002,-0.025,-0.020
8.004,0.020,-0.015
8.006,0.050,-0.010
8.008,0.095,-0.010
8.010,0.130,-0.015
8.012,0.135,-0.020
8.014,0.080,-0.025
8.016,0.065,-0.025
8.018,0.025,-0.025
8.020,0.020,-0.025
8.022,0.010,-0.020
8.024,0.050,-0.015
8.026,0.090,-0.010
8.028,0.110,-0.005
8.030,0.120,-0.005
8.032,0.135,-0.010
8.034,0.100,-0.020
8.036,0.040,-0.030
8.038,-0.015,-0.035
8.040,-0.030,-0.045
8.042,-0.010,-0.050
8.044,0.045,-0.050
8.046,0.085,-0.050
8.048,0.095,-0.045
8.050,0.095,-0.040
8.052,0.090,-0.040
8.054,0.055,-0.040
8.056,0.035,-0.040
8.058,0.010,-0.040
8.060,-0.035,-0.045
8.062,-0.035,-0.045
8.064,0.010,-0.045
8.066,0.060,-0.045
8.068,0.105,-0.040
8.070,0.115,-0.035
8.072,0.125,-0.030
8.074,0.100,-0.025
8.076,0.060,-0.025
8.078,0.025,-0.025
8.080,0.010,-0.025
8.082,-0.015,-0.030
8.084,0.050,-0.035
8.086,0.100,-0.035
8.088,0.075,-0.040
8.090,0.120,-0.040
8.092,0.105,-0.040
8.094,0.060,-0.035
8.096,0.000,-0.035
8.098,-0.040,-0.035
8.100,-0.030,-0.035
8.102,-0.010,-0.035
8.104,0.040,-0.040
8.106,0.055,-0.045
8.108,0.105,-0.045
8.110,0.115,-0.050
8.112,0.115,-0.050
8.114,0.090,-0.050
8.116,0.015,-0.045
8.118,-0.025,-0.045
8.120,-0.010,-0.040
8.122,-0.005,-0.040
8.124,0.025,-0.035
8.126,0.080,-0.035
8.128,0.085,-0.040
8.130,0.110,-0.040
8.132,0.105,-0.045
8.134,0.060,-0.045
8.136,0.000,-0.045
8.138,-0.050,-0.050
8.140,-0.030,-0.050
8.142,0.000,-0.045
8.144,0.040,-0.045
8.146,0.075,-0.045
8.148,0.085,-0.045
8.150,0.110,-0.040
8.152,0.115,-0.040
8.154,0.070,-0.040
8.156,0.015,-0.040
8.158,-0.045,-0.040
8.160,-0.030,-0.040
8.162,0.010,-0.045
8.164,0.035,-0.045
8.166,0.090,-0.040
8.168,0.125,-0.040
8.170,0.120,-0.040
8.172,0.110,-0.035
8.174,0.065,-0.030
8.176,0.010,-0.030
8.178,0.005,-0.025
8.180,0.020,-0.020
8.182,0.085,-0.020
8.184,0.085,-0.020
8.186,0.085,-0.025
8.188,0.110,-0.025
8.190,0.110,-0.030
8.192,0.080,-0.030
8.194,0.070,-0.035
8.196,0.065,-0.035
8.198,0.005,-0.030
8.200,0.020,-0.025
8.202,0.040,-0.020
8.204,0.100,-0.010
8.206,0.160,0.000
8.208,0.180,0.005
8.210,0.170,0.015
8.212,0.150,0.015
8.214,0.085,0.015
8.216,0.060,0.010
8.218,0.015,0.005
8.220,0.030,-0.005
8.222,0.040,-0.010
8.224,0.065,-0.015
8.226,0.115,-0.020
8.228,0.140,-0.020
8.230,0.145,-0.020
8.232,0.130,-0.020
8.234,0.105,-0.015
8.236,0.050,-0.015
8.238,-0.010,-0.020
8.240,-0.025,-0.025
8.242,-0.020,-0.035
8.244,-0.005,-0.050
8.246,0.035,-0.060
8.248,0.040,-0.075
8.250,0.045,-0.085
8.252,0.040,-0.090
8.254,0.035,-0.090
8.256,0.000,-0.085
8.258,-0.010,-0.080
8.260,-0.025,-0.070
8.262,-0.015,-0.060
8.264,0.020,-0.055
8.266,0.045,-0.050
8.268,0.090,-0.055
8.270,0.130,-0.055
8.272,0.110,-0.065
8.274,0.025,-0.070
8.276,-0.045,-0.075
8.278,-0.075,-0.080
8.280,-0.055,-0.080
8.282,-0.005,-0.080
8.284,0.040,-0.075
8.286,0.060,-0.075
8.288,0.085,-0.070
8.290,0.090,-0.065
8.292,0.090,-0.060
8.294,0.050,-0.065
8.296,-0.015,-0.065
8.298,-0.060,-0.070
8.300,-0.070,-0.075
8.302,-0.040,-0.080
8.304,0.005,-0.085
8.306,0.070,-0.085
8.308,0.085,-0.085
8.310,0.075,-0.085
8.312,0.050,-0.080
8.314,0.035,-0.075
8.316,-0.015,-0.070
8.318,-0.060,-0.070
8.320,-0.055,-0.075
8.322,-0.020,-0.080
8.324,-0.010,-0.095
8.326,0.035,-0.110
8.328,0.070,-0.125
8.330,0.005,-0.135
8.332,-0.040,-0.140
8.334,-0.070,-0.135
8.336,-0.065,-0.120
8.338,-0.060,-0.095
8.340,0.005,-0.055
8.342,0.090,-0.010
8.344,0.185,0.045
8.346,0.280,0.110
8.348,0.360,0.175
8.350,0.385,0.245
8.352,0.420,0.310
8.354,0.475,0.380
8.356,0.545,0.445
8.358,0.585,0.500
8.360,0.610,0.545
8.362,0.690,0.570
8.364,0.720,0.580
8.366,0.685,0.560
8.368,0.620,0.515
8.370,0.575,0.450
8.372,0.485,0.360
8.374,0.365,0.260
8.376,0.160,0.155
8.378,0.030,0.060
8.380,-0.015,-0.020
8.382,-0.040,-0.085
8.384,-0.035,-0.120
8.386,0.005,-0.130
8.388,0.065,-0.125
8.390,0.080,-0.110
8.392,0.065,-0.085
8.394,0.020,-0.060
8.396,-0.035,-0.045
8.398,-0.010,-0.035
8.400,0.005,-0.035
8.402,0.050,-0.040
8.404,0.075,-0.045
8.406,0.130,-0.050
8.408,0.160,-0.050
8.410,0.105,-0.040
8.412,0.090,-0.035
8.414,0.030,-0.020
8.416,-0.020,-0.015
8.418,0.005,-0.005
8.420,0.025,-0.005
8.422,0.060,-0.010
8.424,0.105,-0.020
8.426,0.095,-0.035
8.428,0.105,-0.045
8.430,0.095,-0.055
8.432,0.070,-0.060
8.434,0.050,-0.060
8.436,0.010,-0.060
8.438,0.005,-0.055
8.440,0.005,-0.055
8.442,0.030,-0.050
8.444,0.060,-0.050
8.446,0.095,-0.045
8.448,0.120,-0.045
8.450,0.120,-0.040
8.452,0.095,-0.035
8.454,0.045,-0.030
8.456,0.020,-0.025
8.458,0.035,-0.015
8.460,0.030,-0.010
8.462,0.085,-0.005
8.464,0.135,-0.005
8.466,0.155,-0.005
8.468,0.130,-0.010
8.470,0.105,-0.015
8.472,0.070,-0.020
8.474,0.065,-0.025
8.476,0.030,-0.025
8.478,0.000,-0.025
8.480,0.035,-0.020
8.482,0.065,-0.015
8.484,0.135,-0.005
8.486,0.160,0.005
8.488,0.140,0.015
8.490,0.165,0.025
8.492,0.135,0.030
8.494,0.090,0.035
8.496,0.050,0.030
8.498,0.045,0.025
8.500,0.050,0.015
8.502,0.070,0.005
8.504,0.130,-0.005
8.506,0.145,-0.015
8.508,0.135,-0.020
8.510,0.125,-0.020
8.512,0.110,-0.010
8.514,0.095,0.000
8.516,0.110,0.015
8.518,0.095,0.035
8.520,0.150,0.055
8.522,0.155,0.070
8.524,0.215,0.085
8.526,0.235,0.090
8.528,0.230,0.095
8.530,0.205,0.090
8.532,0.175,0.085
8.534,0.135,0.080
8.536,0.120,0.075
8.538,0.115,0.070
8.540,0.125,0.070
8.542,0.140,0.070
8.544,0.210,0.075
8.546,0.215,0.080
8.548,0.260,0.090
8.550,0.260,0.095
8.552,0.245,0.105
8.554,0.190,0.115
8.556,0.180,0.120
8.558,0.200,0.130
8.560,0.215,0.135
8.562,0.245,0.140
8.564,0.290,0.145
8.566,0.325,0.145
8.568,0.330,0.150
8.570,0.315,0.150
8.572,0.265,0.155
8.574,0.240,0.160
8.576,0.210,0.160
8.578,0.215,0.165
8.580,0.220,0.170
8.582,0.260,0.175
8.584,0.345,0.180
8.586,0.380,0.180
8.588,0.350,0.180
8.590,0.320,0.180
8.592,0.280,0.180
8.594,0.240,0.175
8.596,0.230,0.170
8.598,0.195,0.165
8.600,0.210,0.160
8.602,0.265,0.155
8.604,0.290,0.150
8.606,0.320,0.145
8.608,0.290,0.145
8.610,0.265,0.140
8.612,0.210,0.135
8.614,0.165,0.130
8.616,0.135,0.125
8.618,0.120,0.115
8.620,0.150,0.110
8.622,0.195,0.100
8.624,0.220,0.085
8.626,0.260,0.075
8.628,0.220,0.060
8.630,0.185,0.045
8.632,0.150,0.035
8.634,0.085,0.025
8.636,0.050,0.015
8.638,0.060,0.010
8.640,0.075,0.000
8.642,0.075,-0.005
8.644,0.090,-0.010
8.646,0.105,-0.015
8.648,0.140,-0.020
8.650,0.120,-0.025
8.652,0.105,-0.025
8.654,0.055,-0.030
8.656,0.010,-0.030
8.658,-0.025,-0.035
8.660,0.020,-0.035
8.662,0.070,-0.035
8.664,0.100,-0.040
8.666,0.130,-0.040
8.668,0.120,-0.045
8.670,0.120,-0.045
8.672,0.060,-0.050
8.674,0.000,-0.055
8.676,-0.035,-0.060
8.678,-0.050,-0.060
8.680,-0.005,-0.065
8.682,0.075,-0.065
8.684,0.090,-0.065
8.686,0.090,-0.070
8.688,0.095,-0.070
8.690,0.065,-0.070
8.692,0.030,-0.070
8.694,0.000,-0.070
8.696,-0.025,-0.070
8.698,-0.015,-0.070
8.700,0.010,-0.070
8.702,0.040,-0.070
8.704,0.085,-0.070
8.706,0.100,-0.070
8.708,0.100,-0.075
8.710,0.015,-0.075
8.712,0.015,-0.075
8.714,0.015,-0.075
8.716,-0.005,-0.070
8.718,0.000,-0.060
8.720,0.025,-0.055
8.722,0.100,-0.045
8.724,0.130,-0.035
8.726,0.120,-0.030
8.728,0.120,-0.025
8.730,0.100,-0.025
8.732,0.055,-0.025
8.734,0.015,-0.035
8.736,0.000,-0.040
8.738,0.020,-0.050
8.740,-0.005,-0.060
8.742,0.055,-0.065
8.744,0.080,-0.065
8.746,0.085,-0.070
8.748,0.105,-0.065
8.750,0.085,-0.065
8.752,0.035,-0.065
8.754,0.010,-0.060
8.756,-0.040,-0.060
8.758,-0.010,-0.060
8.760,0.040,-0.060
8.762,0.085,-0.055
8.764,0.110,-0.055
8.766,0.145,-0.050
8.768,0.120,-0.045
8.770,0.085,-0.040
8.772,0.050,-0.035
8.774,0.010,-0.030
8.776,-0.015,-0.025
8.778,0.035,-0.030
8.780,0.075,-0.030
8.782,0.100,-0.035
8.784,0.120,-0.040
8.786,0.135,-0.045
8.788,0.120,-0.050
8.790,0.100,-0.050
8.792,0.030,-0.050
8.794,0.005,-0.050
8.796,-0.015,-0.050
8.798,-0.005,-0.045
8.800,0.015,-0.040
8.802,0.100,-0.040
8.804,0.135,-0.040
8.806,0.150,-0.040
8.808,0.080,-0.040
8.810,0.060,-0.040
8.812,0.025,-0.040
8.814,-0.005,-0.040
8.816,0.005,-0.040
8.818,0.055,-0.040
8.820,0.095,-0.040
8.822,0.125,-0.040
8.824,0.125,-0.040
8.826,0.120,-0.040
8.828,0.095,-0.040
8.830,0.050,-0.045
8.832,0.000,-0.045
8.834,-0.025,-0.045
8.836,-0.030,-0.045
8.838,0.015,-0.045
8.840,0.055,-0.045
8.842,0.100,-0.045
8.844,0.140,-0.045
8.846,0.150,-0.045
8.848,0.090,-0.045
8.850,0.060,-0.045
8.852,-0.020,-0.040
8.854,0.015,-0.040
8.856,0.015,-0.035
8.858,0.020,-0.035
8.860,0.055,-0.030
8.862,0.095,-0.030
8.864,0.105,-0.030
8.866,0.105,-0.035
8.868,0.115,-0.040
8.870,0.070,-0.045
8.872,0.015,-0.050
8.874,-0.010,-0.055
8.876,0.000,-0.060
8.878,0.030,-0.060
8.880,0.035,-0.060
8.882,0.095,-0.060
8.884,0.125,-0.060
8.886,0.120,-0.055
8.888,0.100,-0.055
8.890,0.075,-0.050
8.892,0.020,-0.050
8.894,-0.025,-0.055
8.896,-0.025,-0.055
8.898,-0.005,-0.060
8.900,0.050,-0.065
8.902,0.105,-0.065
8.904,0.110,-0.070
8.906,0.105,-0.070
8.908,0.075,-0.065
8.910,0.070,-0.060
8.912,0.010,-0.060
8.914,-0.030,-0.055
8.916,-0.025,-0.055
8.918,0.000,-0.060
8.920,0.030,-0.060
8.922,0.095,-0.065
8.924,0.085,-0.070
8.926,0.070,-0.075
8.928,0.095,-0.070
8.930,0.055,-0.065
8.932,0.030,-0.060
8.934,-0.005,-0.050
8.936,0.000,-0.040
8.938,0.045,-0.030
8.940,0.085,-0.025
8.942,0.115,-0.025
8.944,0.120,-0.025
8.946,0.130,-0.030
8.948,0.115,-0.035
8.950,0.045,-0.040
8.952,0.020,-0.045
8.954,0.000,-0.045
8.956,0.035,-0.040
8.958,0.070,-0.035
8.960,0.100,-0.030
8.962,0.120,-0.020
8.964,0.120,-0.020
8.966,0.135,-0.020
8.968,0.125,-0.020
8.970,0.060,-0.025
8.972,0.030,-0.030
8.974,0.025,-0.030
8.976,0.060,-0.030
8.978,0.090,-0.030
8.980,0.145,-0.025
8.982,0.145,-0.015
8.984,0.170,-0.005
8.986,0.160,0.000
8.988,0.120,0.010
8.990,0.100,0.015
8.992,0.055,0.010
8.994,0.050,0.010
8.996,0.040,0.000
8.998,0.050,-0.010
9.000,0.110,-0.020
9.002,0.165,-0.030
9.004,0.175,-0.035
9.006,0.165,-0.035
9.008,0.085,-0.035
9.010,0.000,-0.035
9.012,-0.010,-0.030
9.014,0.045,-0.030
9.016,0.050,-0.030
9.018,0.045,-0.030
9.020,0.065,-0.040
9.022,0.110,-0.050
9.024,0.110,-0.060
9.026,0.090,-0.070
9.028,0.065,-0.080
9.030,0.030,-0.085
9.032,-0.020,-0.090
9.034,-0.070,-0.090
9.036,-0.055,-0.085
9.038,0.030,-0.080
9.040,0.070,-0.075
9.042,0.080,-0.070
9.044,0.090,-0.070
9.046,0.085,-0.065
9.048,0.070,-0.070
9.050,0.035,-0.070
9.052,-0.005,-0.070
9.054,-0.020,-0.070
9.056,0.020,-0.065
9.058,0.025,-0.060
9.060,0.090,-0.055
9.062,0.140,-0.050
9.064,0.145,-0.045
9.066,0.090,-0.045
9.068,0.035,-0.050
9.070,0.000,-0.060
9.072,0.000,-0.070
9.074,-0.010,-0.080
9.076,-0.015,-0.090
9.078,0.000,-0.095
9.080,0.040,-0.095
9.082,0.040,-0.090
9.084,0.075,-0.085
9.086,0.105,-0.075
9.088,0.080,-0.070
9.090,0.020,-0.065
9.092,-0.020,-0.070
9.094,-0.025,-0.080
9.096,-0.045,-0.090
9.098,-0.030,-0.105
9.100,0.020,-0.125
9.102,0.005,-0.135
9.104,0.030,-0.140
9.106,0.060,-0.140
9.108,0.030,-0.130
9.110,-0.015,-0.110
9.112,-0.020,-0.080
9.114,0.010,-0.045
9.116,0.065,-0.010
9.118,0.145,0.040
9.120,0.245,0.090
9.122,0.340,0.150
9.124,0.420,0.220
9.126,0.460,0.300
9.128,0.515,0.385
9.130,0.600,0.470
9.132,0.690,0.545
9.134,0.705,0.605
9.136,0.745,0.640
9.138,0.725,0.640
9.140,0.745,0.610
9.142,0.685,0.545
9.144,0.630,0.450
9.146,0.500,0.340
9.148,0.355,0.230
9.150,0.170,0.120
9.152,0.010,0.030
9.154,-0.030,-0.035
9.156,-0.035,-0.075
9.158,-0.020,-0.095
9.160,0.045,-0.090
9.162,0.115,-0.075
9.164,0.135,-0.055
9.166,0.120,-0.040
9.168,0.120,-0.030
9.170,0.040,-0.025
9.172,0.025,-0.030
9.174,0.030,-0.035
9.176,0.035,-0.045
9.178,0.070,-0.055
9.180,0.105,-0.060
9.182,0.105,-0.060
9.184,0.120,-0.065
9.186,0.090,-0.065
9.188,0.065,-0.060
9.190,0.035,-0.060
9.192,-0.025,-0.060
9.194,0.010,-0.055
9.196,0.040,-0.055
9.198,0.065,-0.055
9.200,0.120,-0.050
9.202,0.145,-0.045
9.204,0.150,-0.045
9.206,0.110,-0.040
9.208,0.085,-0.040
9.210,0.050,-0.040
9.212,0.040,-0.040
9.214,0.010,-0.040
9.216,0.005,-0.040
9.218,0.080,-0.035
9.220,0.130,-0.030
9.222,0.150,-0.025
9.224,0.160,-0.015
9.226,0.150,-0.010
9.228,0.105,-0.005
9.230,0.055,-0.005
9.232,0.020,-0.010
9.234,0.020,-0.010
9.236,0.050,-0.015
9.238,0.085,-0.020
9.240,0.135,-0.025
9.242,0.165,-0.025
9.244,0.160,-0.020
9.246,0.115,-0.015
9.248,0.100,-0.005
9.250,0.095,0.000
9.252,0.070,0.005
9.254,0.050,0.010
9.256,0.085,0.010
9.258,0.125,0.005
9.260,0.175,0.000
9.262,0.160,-0.010
9.264,0.125,-0.015
9.266,0.125,-0.020
9.268,0.110,-0.025
9.270,0.065,-0.025
9.272,0.055,-0.015
9.274,0.060,-0.010
9.276,0.095,0.000
9.278,0.165,0.005
9.280,0.205,0.015
9.282,0.230,0.020
9.284,0.230,0.025
9.286,0.195,0.030
9.288,0.150,0.030
9.290,0.120,0.035
9.292,0.100,0.035
9.294,0.120,0.040
9.296,0.160,0.040
9.298,0.180,0.045
9.300,0.195,0.045
9.302,0.175,0.050
9.304,0.185,0.050
9.306,0.205,0.055
9.308,0.170,0.060
9.310,0.125,0.070
9.312,0.150,0.075
9.314,0.215,0.090
9.316,0.215,0.100
9.318,0.255,0.110
9.320,0.295,0.120
9.322,0.280,0.130
9.324,0.275,0.135
9.326,0.280,0.135
9.328,0.240,0.135
9.330,0.215,0.135
9.332,0.205,0.135
9.334,0.210,0.135
9.336,0.240,0.140
9.338,0.275,0.145
9.340,0.320,0.155
9.342,0.390,0.165
9.344,0.400,0.180
9.346,0.350,0.195
9.348,0.280,0.205
9.350,0.270,0.220
9.352,0.260,0.225
9.354,0.280,0.230
9.356,0.310,0.235
9.358,0.345,0.230
9.360,0.385,0.225
9.362,0.400,0.215
9.364,0.370,0.210
9.366,0.320,0.200
9.368,0.265,0.195
9.370,0.200,0.190
9.372,0.245,0.190
9.374,0.270,0.190
9.376,0.300,0.190
9.378,0.335,0.185
9.380,0.335,0.180
9.382,0.320,0.175
9.384,0.295,0.160
9.386,0.240,0.145
9.388,0.190,0.135
9.390,0.165,0.120
9.392,0.170,0.110
9.394,0.170,0.105
9.396,0.195,0.105
9.398,0.255,0.105
9.400,0.285,0.110
9.402,0.275,0.105
9.404,0.250,0.105
9.406,0.205,0.095
9.408,0.150,0.080
9.410,0.100,0.060
9.412,0.055,0.040
9.414,0.065,0.015
9.416,0.075,0.000
9.418,0.135,-0.015
9.420,0.180,-0.025
9.422,0.195,-0.025
9.424,0.155,-0.025
9.426,0.095,-0.025
9.428,0.025,-0.025
9.430,0.005,-0.025
9.432,-0.035,-0.030
9.434,0.030,-0.035
9.436,0.100,-0.040
9.438,0.125,-0.045
9.440,0.130,-0.045
9.442,0.120,-0.045
9.444,0.110,-0.040
9.446,0.115,-0.035
9.448,0.065,-0.035
9.450,0.030,-0.030
9.452,-0.015,-0.035
9.454,-0.010,-0.040
9.456,0.020,-0.045
9.458,0.055,-0.055
9.460,0.090,-0.070
9.462,0.105,-0.075
9.464,0.100,-0.080
9.466,0.100,-0.080
9.468,0.050,-0.075
9.470,0.020,-0.060
9.472,0.015,-0.050
9.474,0.015,-0.035
9.476,0.080,-0.020
9.478,0.140,-0.010
9.480,0.160,-0.005
9.482,0.165,-0.010
9.484,0.135,-0.015
9.486,0.125,-0.025
9.488,0.055,-0.035
9.490,0.000,-0.045
9.492,-0.040,-0.055
9.494,0.015,-0.060
9.496,0.065,-0.065
9.498,0.100,-0.065
9.500,0.130,-0.065
9.502,0.125,-0.065
9.504,0.105,-0.065
9.506,0.070,-0.065
9.508,0.015,-0.065
9.510,-0.010,-0.065
9.512,-0.020,-0.065
9.514,0.020,-0.065
9.516,0.075,-0.060
9.518,0.130,-0.060
9.520,0.135,-0.055
9.522,0.145,-0.055
9.524,0.105,-0.050
9.526,0.075,-0.045
9.528,0.040,-0.040
9.530,0.015,-0.040
9.532,0.005,-0.035
9.534,0.040,-0.035
9.536,0.090,-0.035
9.538,0.135,-0.035
9.540,0.155,-0.035
9.542,0.135,-0.035
9.544,0.080,-0.030
9.546,0.070,-0.030
9.548,0.060,-0.025
9.550,0.045,-0.025
9.552,0.045,-0.020
9.554,0.065,-0.020
9.556,0.090,-0.020
9.558,0.115,-0.020
9.560,0.115,-0.020
9.562,0.095,-0.025
9.564,0.120,-0.025
9.566,0.105,-0.030
9.568,0.060,-0.035
9.570,0.035,-0.035
9.572,0.040,-0.035
9.574,0.055,-0.035
9.576,0.090,-0.040
9.578,0.125,-0.040
9.580,0.135,-0.040
9.582,0.110,-0.040
9.584,0.080,-0.045
9.586,0.065,-0.045
9.588,0.015,-0.045
9.590,0.025,-0.045
9.592,0.035,-0.045
9.594,0.070,-0.045
9.596,0.100,-0.045
9.598,0.140,-0.045
9.600,0.150,-0.040
9.602,0.120,-0.040
9.604,0.105,-0.035
9.606,0.055,-0.035
9.608,0.015,-0.030
9.610,0.035,-0.030
9.612,0.035,-0.030
9.614,0.050,-0.035
9.616,0.085,-0.035
9.618,0.100,-0.040
9.620,0.105,-0.045
9.622,0.115,-0.050
9.624,0.120,-0.055
9.626,0.075,-0.060
9.628,0.010,-0.065
9.630,0.000,-0.065
9.632,0.020,-0.065
9.634,0.045,-0.060
9.636,0.090,-0.060
9.638,0.140,-0.055
9.640,0.145,-0.050
9.642,0.140,-0.045
9.644,0.115,-0.045
9.646,0.050,-0.040
9.648,0.030,-0.040
9.650,0.025,-0.035
9.652,0.050,-0.040
9.654,0.080,-0.040
9.656,0.100,-0.040
9.658,0.125,-0.045
9.660,0.120,-0.050
9.662,0.105,-0.055
9.664,0.075,-0.055
9.666,0.020,-0.060
9.668,-0.010,-0.060
9.670,-0.035,-0.055
9.672,0.015,-0.055
9.674,0.060,-0.050
9.676,0.095,-0.045
9.678,0.125,-0.045
9.680,0.145,-0.040
9.682,0.135,-0.040
9.684,0.085,-0.040
9.686,0.045,-0.040
9.688,0.035,-0.040
9.690,0.030,-0.040
9.692,0.060,-0.040
9.694,0.065,-0.045
9.696,0.085,-0.050
9.698,0.085,-0.055
9.700,0.080,-0.060
9.702,0.075,-0.065
9.704,0.085,-0.070
9.706,0.040,-0.070
9.708,0.010,-0.065
9.710,0.030,-0.060
9.712,0.050,-0.055
9.714,0.055,-0.045
9.716,0.125,-0.035
9.718,0.160,-0.030
9.720,0.170,-0.025
9.722,0.135,-0.025
9.724,0.110,-0.025
9.726,0.045,-0.030
9.728,0.030,-0.035
9.730,0.025,-0.035
9.732,0.065,-0.035
9.734,0.100,-0.035
9.736,0.155,-0.030
9.738,0.150,-0.025
9.740,0.160,-0.025
9.742,0.130,-0.020
9.744,0.080,-0.020
9.746,0.050,-0.020
9.748,0.060,-0.020
9.750,0.040,-0.025
9.752,0.070,-0.025
9.754,0.100,-0.030
9.756,0.130,-0.030
9.758,0.185,-0.030
9.760,0.180,-0.030
9.762,0.160,-0.025
9.764,0.125,-0.020
9.766,0.085,-0.015
9.768,0.075,-0.010
9.770,0.075,-0.005
9.772,0.100,-0.005
9.774,0.120,-0.005
9.776,0.125,-0.010
9.778,0.110,-0.015
9.780,0.130,-0.025
9.782,0.105,-0.040
9.784,0.070,-0.050
9.786,0.000,-0.060
9.788,-0.005,-0.070
9.790,-0.035,-0.075
9.792,0.005,-0.075
9.794,0.085,-0.075
9.796,0.095,-0.075
9.798,0.135,-0.070
9.800,0.110,-0.070
9.802,0.080,-0.070
9.804,0.025,-0.070
9.806,-0.005,-0.070
9.808,0.025,-0.070
9.810,0.000,-0.070
9.812,0.045,-0.065
9.814,0.055,-0.060
9.816,0.120,-0.055
9.818,0.160,-0.055
9.820,0.120,-0.050
9.822,0.075,-0.050
9.824,0.055,-0.055
9.826,0.005,-0.065
9.828,-0.045,-0.070
9.830,-0.035,-0.080
9.832,-0.015,-0.085
9.834,0.020,-0.090
9.836,0.065,-0.090
9.838,0.115,-0.085
9.840,0.125,-0.080
9.842,0.095,-0.075
9.844,0.065,-0.070
9.846,0.020,-0.065
9.848,0.015,-0.070
9.850,-0.015,-0.070
9.852,-0.020,-0.080
9.854,0.030,-0.085
9.856,0.085,-0.090
9.858,0.095,-0.095
9.860,0.070,-0.095
9.862,0.055,-0.095
9.864,0.010,-0.095
9.866,-0.010,-0.095
9.868,0.010,-0.095
9.870,-0.015,-0.100
9.872,-0.035,-0.105
9.874,-0.005,-0.110
9.876,0.045,-0.115
9.878,0.095,-0.115
9.880,0.080,-0.115
9.882,0.015,-0.110
9.884,0.010,-0.095
9.886,0.020,-0.075
9.888,0.020,-0.045
9.890,0.060,-0.005
9.892,0.170,0.045
9.894,0.275,0.110
9.896,0.385,0.180
9.898,0.455,0.260
9.900,0.495,0.340
9.902,0.560,0.425
9.904,0.675,0.500
9.906,0.710,0.560
9.908,0.720,0.600
9.910,0.695,0.615
9.912,0.665,0.595
9.914,0.660,0.545
9.916,0.615,0.470
9.918,0.550,0.370
9.920,0.445,0.255
9.922,0.265,0.145
9.924,0.095,0.040
9.926,-0.020,-0.045
9.928,-0.105,-0.110
9.930,-0.090,-0.145
9.932,-0.025,-0.160
9.934,0.025,-0.155
9.936,0.045,-0.135
9.938,0.090,-0.110
9.940,0.100,-0.080
9.942,0.090,-0.055
9.944,0.065,-0.035
9.946,0.075,-0.025
9.948,0.090,-0.015
9.950,0.085,-0.015
9.952,0.080,-0.015
9.954,0.100,-0.020
9.956,0.140,-0.020
9.958,0.175,-0.020
9.960,0.135,-0.025
9.962,0.110,-0.025
9.964,0.085,-0.030
9.966,0.065,-0.030
9.968,0.065,-0.035
9.970,0.045,-0.040
9.972,0.070,-0.045
9.974,0.120,-0.045
9.976,0.100,-0.050
9.978,0.105,-0.050
9.980,0.120,-0.050
9.982,0.120,-0.050
9.984,0.070,-0.045
9.986,0.035,-0.040
9.988,0.025,-0.040
9.990,0.045,-0.035
9.992,0.065,-0.035
9.994,0.085,-0.035
9.996,0.090,-0.035
9.998,0.135,-0.035
