'Elapsed time','ECG I','ECG I filtered'
'seconds','mV','mV'
0.000,-0.065,-0.030
0.002,-0.095,-0.035
0.004,-0.115,-0.040
0.006,-0.105,-0.040
0.008,-0.090,-0.040
0.010,-0.025,-0.035
0.012,-0.025,-0.030
0.014,-0.015,-0.025
0.016,0.000,-0.020
0.018,-0.020,-0.015
0.020,-0.080,-0.010
0.022,-0.100,-0.010
0.024,-0.105,-0.015
0.026,-0.095,-0.015
0.028,-0.095,-0.015
0.030,-0.040,-0.015
0.032,-0.015,-0.015
0.034,0.000,-0.015
0.036,-0.015,-0.015
0.038,-0.025,-0.020
0.040,-0.080,-0.025
0.042,-0.115,-0.030
0.044,-0.140,-0.035
0.046,-0.130,-0.040
0.048,-0.100,-0.045
0.050,-0.045,-0.045
0.052,-0.010,-0.045
0.054,-0.005,-0.045
0.056,-0.015,-0.040
0.058,-0.045,-0.035
0.060,-0.085,-0.030
0.062,-0.120,-0.030
0.064,-0.145,-0.030
0.066,-0.130,-0.035
0.068,-0.100,-0.040
0.070,-0.045,-0.045
0.072,-0.025,-0.045
0.074,-0.010,-0.045
0.076,-0.040,-0.045
0.078,-0.065,-0.045
0.080,-0.105,-0.040
0.082,-0.120,-0.035
0.084,-0.125,-0.030
0.086,-0.115,-0.030
0.088,-0.095,-0.030
0.090,-0.025,-0.035
0.092,-0.035,-0.040
0.094,-0.045,-0.040
0.096,-0.025,-0.045
0.098,-0.050,-0.045
0.100,-0.095,-0.045
0.102,-0.115,-0.045
0.104,-0.110,-0.040
0.106,-0.115,-0.035
0.108,-0.090,-0.035
0.110,-0.040,-0.035
0.112,-0.035,-0.035
0.114,-0.010,-0.040
0.116,-0.025,-0.045
0.118,-0.070,-0.050
0.120,-0.105,-0.055
0.122,-0.140,-0.055
0.124,-0.145,-0.055
0.126,-0.110,-0.055
0.128,-0.080,-0.055
0.130,-0.035,-0.050
0.132,-0.015,-0.045
0.134,-0.015,-0.040
0.136,-0.035,-0.040
0.138,-0.065,-0.040
0.140,-0.115,-0.040
0.142,-0.120,-0.040
0.144,-0.125,-0.040
0.146,-0.110,-0.040
0.148,-0.065,-0.040
0.150,-0.015,-0.040
0.152,-0.015,-0.040
0.154,0.000,-0.040
0.156,-0.020,-0.035
0.158,-0.055,-0.030
0.160,-0.100,-0.030
0.162,-0.110,-0.025
0.164,-0.115,-0.025
0.166,-0.105,-0.025
0.168,-0.075,-0.025
0.170,-0.020,-0.025
0.172,-0.015,-0.025
0.174,0.000,-0.025
0.176,-0.010,-0.025
0.178,-0.045,-0.030
0.180,-0.085,-0.025
0.182,-0.100,-0.025
0.184,-0.105,-0.025
0.186,-0.055,-0.020
0.188,-0.025,-0.015
0.190,0.010,-0.010
0.192,0.035,-0.010
0.194,0.025,-0.005
0.196,0.005,0.000
0.198,-0.020,0.000
0.200,-0.055,0.000
0.202,-0.065,0.000
0.204,-0.075,0.000
0.206,-0.075,0.000
0.208,-0.040,-0.005
0.210,-0.015,-0.010
0.212,0.000,-0.015
0.214,-0.010,-0.020
0.216,-0.035,-0.025
0.218,-0.080,-0.030
0.220,-0.125,-0.040
0.222,-0.140,-0.050
0.224,-0.130,-0.060
0.226,-0.125,-0.065
0.228,-0.075,-0.075
0.230,-0.050,-0.080
0.232,-0.035,-0.080
0.234,-0.020,-0.080
0.236,-0.045,-0.080
0.238,-0.110,-0.075
0.240,-0.135,-0.070
0.242,-0.145,-0.065
0.244,-0.160,-0.065
0.246,-0.120,-0.065
0.248,-0.080,-0.070
0.250,-0.065,-0.070
0.252,-0.040,-0.080
0.254,-0.060,-0.085
0.256,-0.075,-0.085
0.258,-0.100,-0.085
0.260,-0.130,-0.085
0.262,-0.140,-0.080
0.264,-0.135,-0.075
0.266,-0.120,-0.070
0.268,-0.070,-0.065
0.270,-0.060,-0.060
0.272,-0.060,-0.060
0.274,-0.055,-0.065
0.276,-0.070,-0.070
0.278,-0.115,-0.075
0.280,-0.160,-0.080
0.282,-0.160,-0.085
0.284,-0.155,-0.090
0.286,-0.120,-0.090
0.288,-0.075,-0.090
0.290,-0.045,-0.085
0.292,-0.035,-0.085
0.294,-0.070,-0.080
0.296,-0.080,-0.080
0.298,-0.130,-0.080
0.300,-0.170,-0.080
0.302,-0.180,-0.085
0.304,-0.165,-0.090
0.306,-0.145,-0.095
0.308,-0.110,-0.105
0.310,-0.100,-0.110
0.312,-0.080,-0.105
0.314,-0.085,-0.100
0.316,-0.095,-0.080
0.318,-0.080,-0.050
0.320,-0.030,-0.010
0.322,-0.015,0.045
0.324,0.075,0.115
0.326,0.175,0.190
0.328,0.285,0.275
0.330,0.375,0.370
0.332,0.500,0.460
0.334,0.610,0.540
0.336,0.685,0.610
0.338,0.665,0.660
0.340,0.635,0.680
0.342,0.590,0.675
0.344,0.555,0.635
0.346,0.510,0.565
0.348,0.465,0.470
0.350,0.380,0.360
0.352,0.260,0.240
0.354,0.125,0.125
0.356,-0.030,0.025
0.358,-0.150,-0.055
0.360,-0.220,-0.105
0.362,-0.195,-0.130
0.364,-0.170,-0.135
0.366,-0.115,-0.125
0.368,-0.070,-0.100
0.370,-0.020,-0.075
0.372,-0.005,-0.055
0.374,-0.005,-0.040
0.376,-0.010,-0.035
0.378,-0.075,-0.030
0.380,-0.095,-0.035
0.382,-0.110,-0.035
0.384,-0.080,-0.040
0.386,-0.085,-0.040
0.388,-0.020,-0.035
0.390,-0.005,-0.035
0.392,-0.010,-0.030
0.394,-0.005,-0.025
0.396,-0.040,-0.025
0.398,-0.085,-0.025
0.400,-0.090,-0.025
0.402,-0.115,-0.030
0.404,-0.105,-0.035
0.406,-0.070,-0.040
0.408,-0.005,-0.045
0.410,0.000,-0.045
0.412,0.005,-0.050
0.414,-0.010,-0.055
0.416,-0.035,-0.055
0.418,-0.075,-0.055
0.420,-0.100,-0.050
0.422,-0.100,-0.045
0.424,-0.080,-0.040
0.426,-0.045,-0.030
0.428,0.000,-0.025
0.430,0.015,-0.015
0.432,0.025,-0.015
0.434,0.005,-0.010
0.436,-0.025,-0.015
0.438,-0.080,-0.015
0.440,-0.080,-0.020
0.442,-0.075,-0.020
0.444,-0.040,-0.020
0.446,-0.015,-0.020
0.448,0.020,-0.015
0.450,0.035,-0.005
0.452,0.045,0.000
0.454,0.020,0.010
0.456,0.005,0.020
0.458,-0.035,0.025
0.460,-0.055,0.025
0.462,-0.050,0.025
0.464,-0.035,0.025
0.466,-0.010,0.025
0.468,0.030,0.020
0.470,0.045,0.020
0.472,0.065,0.015
0.474,0.040,0.015
0.476,0.020,0.015
0.478,-0.025,0.015
0.480,-0.045,0.020
0.482,-0.040,0.020
0.484,-0.010,0.025
0.486,0.035,0.025
0.488,0.080,0.030
0.490,0.095,0.030
0.492,0.100,0.035
0.494,0.085,0.040
0.496,0.050,0.045
0.498,0.005,0.050
0.500,-0.005,0.055
0.502,0.015,0.060
0.504,0.035,0.070
0.506,0.075,0.075
0.508,0.100,0.085
0.510,0.140,0.090
0.512,0.145,0.095
0.514,0.115,0.100
0.516,0.085,0.100
0.518,0.060,0.105
0.520,0.055,0.110
0.522,0.050,0.115
0.524,0.090,0.120
0.526,0.140,0.130
0.528,0.180,0.135
0.530,0.195,0.145
0.532,0.220,0.155
0.534,0.210,0.165
0.536,0.175,0.170
0.538,0.150,0.175
0.540,0.130,0.180
0.542,0.130,0.185
0.544,0.160,0.190
0.546,0.195,0.195
0.548,0.255,0.205
0.550,0.265,0.210
0.552,0.260,0.220
0.554,0.235,0.225
0.556,0.200,0.230
0.558,0.150,0.230
0.560,0.160,0.235
0.562,0.175,0.230
0.564,0.200,0.230
0.566,0.225,0.230
0.568,0.260,0.225
0.570,0.270,0.225
0.572,0.265,0.225
0.574,0.245,0.225
0.576,0.195,0.225
0.578,0.155,0.220
0.580,0.125,0.215
0.582,0.135,0.205
0.584,0.145,0.195
0.586,0.190,0.185
0.588,0.205,0.175
0.590,0.200,0.160
0.592,0.175,0.155
0.594,0.150,0.145
0.596,0.100,0.140
0.598,0.055,0.135
0.600,0.030,0.130
0.602,0.035,0.120
0.604,0.045,0.110
0.606,0.080,0.100
0.608,0.100,0.085
0.610,0.100,0.070
0.612,0.060,0.055
0.614,0.035,0.045
0.616,0.000,0.030
0.618,-0.055,0.025
0.620,-0.055,0.015
0.622,-0.060,0.010
0.624,-0.035,0.010
0.626,0.010,0.005
0.628,0.030,0.000
0.630,0.030,-0.005
0.632,0.005,-0.010
0.634,-0.030,-0.010
0.636,-0.070,-0.015
0.638,-0.095,-0.020
0.640,-0.100,-0.020
0.642,-0.090,-0.020
0.644,-0.065,-0.025
0.646,-0.020,-0.025
0.648,0.010,-0.025
0.650,0.010,-0.025
0.652,-0.015,-0.030
0.654,-0.035,-0.030
0.656,-0.075,-0.030
0.658,-0.105,-0.035
0.660,-0.110,-0.035
0.662,-0.085,-0.040
0.664,-0.055,-0.045
0.666,-0.015,-0.050
0.668,-0.015,-0.055
0.670,-0.005,-0.060
0.672,-0.025,-0.060
0.674,-0.055,-0.055
0.676,-0.105,-0.055
0.678,-0.095,-0.050
0.680,-0.115,-0.045
0.682,-0.100,-0.040
0.684,-0.070,-0.040
0.686,-0.015,-0.040
0.688,-0.010,-0.040
0.690,0.005,-0.040
0.692,-0.015,-0.040
0.694,-0.050,-0.040
0.696,-0.080,-0.040
0.698,-0.090,-0.040
0.700,-0.105,-0.040
0.702,-0.085,-0.035
0.704,-0.065,-0.035
0.706,-0.005,-0.035
0.708,0.000,-0.035
0.710,0.005,-0.035
0.712,-0.015,-0.040
0.714,-0.045,-0.040
0.716,-0.085,-0.040
0.718,-0.120,-0.040
0.720,-0.105,-0.035
0.722,-0.100,-0.035
0.724,-0.050,-0.035
0.726,-0.010,-0.030
0.728,0.005,-0.030
0.730,0.010,-0.030
0.732,-0.005,-0.030
0.734,-0.035,-0.030
0.736,-0.070,-0.030
0.738,-0.090,-0.030
0.740,-0.100,-0.025
0.742,-0.090,-0.025
0.744,-0.055,-0.025
0.746,-0.025,-0.025
0.748,0.000,-0.030
0.750,0.010,-0.030
0.752,-0.010,-0.035
0.754,-0.030,-0.040
0.756,-0.080,-0.040
0.758,-0.110,-0.040
0.760,-0.105,-0.035
0.762,-0.075,-0.035
0.764,-0.055,-0.030
0.766,0.005,-0.025
0.768,0.020,-0.025
0.770,0.000,-0.020
0.772,-0.030,-0.020
0.774,-0.065,-0.025
0.776,-0.070,-0.025
0.778,-0.105,-0.030
0.780,-0.105,-0.035
0.782,-0.065,-0.035
0.784,-0.050,-0.040
0.786,-0.030,-0.045
0.788,0.000,-0.050
0.790,0.000,-0.050
0.792,-0.035,-0.055
0.794,-0.065,-0.060
0.796,-0.095,-0.060
0.798,-0.120,-0.060
0.800,-0.115,-0.060
0.802,-0.095,-0.055
0.804,-0.045,-0.055
0.806,-0.020,-0.050
0.808,0.010,-0.045
0.810,0.000,-0.045
0.812,-0.030,-0.045
0.814,-0.060,-0.045
0.816,-0.095,-0.050
0.818,-0.130,-0.050
0.820,-0.125,-0.055
0.822,-0.095,-0.065
0.824,-0.050,-0.065
0.826,-0.010,-0.070
0.828,-0.005,-0.070
0.830,-0.005,-0.070
0.832,-0.040,-0.070
0.834,-0.085,-0.070
0.836,-0.120,-0.065
0.838,-0.120,-0.060
0.840,-0.125,-0.055
0.842,-0.090,-0.055
0.844,-0.035,-0.050
0.846,-0.010,-0.050
0.848,-0.010,-0.050
0.850,-0.020,-0.050
0.852,-0.040,-0.050
0.854,-0.090,-0.055
0.856,-0.120,-0.055
0.858,-0.120,-0.055
0.860,-0.115,-0.055
0.862,-0.090,-0.055
0.864,-0.040,-0.060
0.866,-0.015,-0.060
0.868,0.000,-0.060
0.870,-0.020,-0.060
0.872,-0.055,-0.065
0.874,-0.090,-0.065
0.876,-0.110,-0.065
0.878,-0.115,-0.065
0.880,-0.110,-0.065
0.882,-0.100,-0.065
0.884,-0.060,-0.060
0.886,-0.035,-0.060
0.888,-0.025,-0.060
0.890,-0.025,-0.060
0.892,-0.045,-0.060
0.894,-0.100,-0.060
0.896,-0.135,-0.060
0.898,-0.135,-0.060
0.900,-0.110,-0.060
0.902,-0.075,-0.060
0.904,-0.055,-0.060
0.906,-0.020,-0.055
0.908,-0.005,-0.055
0.910,-0.015,-0.050
0.912,-0.035,-0.045
0.914,-0.070,-0.045
0.916,-0.095,-0.045
0.918,-0.105,-0.045
0.920,-0.095,-0.045
0.922,-0.070,-0.045
0.924,-0.020,-0.050
0.926,0.015,-0.050
0.928,-0.005,-0.050
0.930,-0.010,-0.050
0.932,-0.030,-0.045
0.934,-0.070,-0.040
0.936,-0.100,-0.035
0.938,-0.100,-0.030
0.940,-0.070,-0.020
0.942,-0.035,-0.015
0.944,0.030,-0.005
0.946,0.040,-0.005
0.948,0.055,0.000
0.950,0.045,0.000
0.952,0.020,0.000
0.954,-0.040,-0.005
0.956,-0.090,-0.005
0.958,-0.090,0.000
0.960,-0.045,0.000
0.962,-0.020,0.005
0.964,0.015,0.010
0.966,0.035,0.015
0.968,0.035,0.015
0.970,0.015,0.015
0.972,-0.025,0.010
0.974,-0.075,0.000
0.976,-0.090,-0.010
0.978,-0.090,-0.025
0.980,-0.095,-0.035
0.982,-0.080,-0.045
0.984,-0.035,-0.055
0.986,-0.025,-0.060
0.988,-0.025,-0.060
0.990,-0.040,-0.060
0.992,-0.070,-0.060
0.994,-0.110,-0.055
0.996,-0.120,-0.050
0.998,-0.125,-0.050
1.000,-0.115,-0.050
1.002,-0.085,-0.050
1.004,-0.035,-0.050
1.006,-0.025,-0.055
1.008,-0.015,-0.055
1.010,-0.040,-0.060
1.012,-0.065,-0.065
1.014,-0.120,-0.065
1.016,-0.145,-0.065
1.018,-0.150,-0.065
1.020,-0.130,-0.065
1.022,-0.100,-0.065
1.024,-0.060,-0.070
1.026,-0.035,-0.070
1.028,-0.025,-0.075
1.030,-0.060,-0.080
1.032,-0.075,-0.085
1.034,-0.130,-0.085
1.036,-0.135,-0.085
1.038,-0.135,-0.090
1.040,-0.135,-0.090
1.042,-0.105,-0.085
1.044,-0.055,-0.085
1.046,-0.030,-0.085
1.048,-0.015,-0.090
1.050,-0.050,-0.090
1.052,-0.090,-0.090
1.054,-0.130,-0.090
1.056,-0.140,-0.095
1.058,-0.160,-0.095
1.060,-0.145,-0.090
1.062,-0.120,-0.090
1.064,-0.080,-0.090
1.066,-0.055,-0.090
1.068,-0.060,-0.090
1.070,-0.080,-0.095
1.072,-0.145,-0.095
1.074,-0.175,-0.095
1.076,-0.180,-0.090
1.078,-0.170,-0.080
1.080,-0.090,-0.055
1.082,0.015,-0.015
1.084,0.115,0.035
1.086,0.175,0.100
1.088,0.245,0.180
1.090,0.285,0.275
1.092,0.330,0.370
1.094,0.405,0.465
1.096,0.520,0.550
1.098,0.640,0.620
1.100,0.670,0.665
1.102,0.710,0.685
1.104,0.690,0.670
1.106,0.645,0.620
1.108,0.580,0.545
1.110,0.460,0.450
1.112,0.325,0.335
1.114,0.150,0.220
1.116,0.005,0.110
1.118,-0.115,0.015
1.120,-0.170,-0.060
1.122,-0.155,-0.110
1.124,-0.095,-0.135
1.126,-0.065,-0.145
1.128,-0.070,-0.135
1.130,-0.085,-0.120
1.132,-0.100,-0.095
1.134,-0.120,-0.075
1.136,-0.115,-0.060
1.138,-0.100,-0.050
1.140,-0.080,-0.040
1.142,-0.030,-0.035
1.144,-0.015,-0.035
1.146,0.005,-0.035
1.148,-0.005,-0.035
1.150,-0.040,-0.035
1.152,-0.080,-0.035
1.154,-0.115,-0.035
1.156,-0.110,-0.035
1.158,-0.100,-0.035
1.160,-0.085,-0.040
1.162,-0.050,-0.050
1.164,-0.015,-0.055
1.166,-0.015,-0.060
1.168,-0.015,-0.060
1.170,-0.040,-0.065
1.172,-0.065,-0.065
1.174,-0.100,-0.060
1.176,-0.115,-0.060
1.178,-0.105,-0.055
1.180,-0.080,-0.050
1.182,-0.030,-0.050
1.184,0.005,-0.045
1.186,0.010,-0.045
1.188,0.010,-0.040
1.190,-0.020,-0.035
1.192,-0.075,-0.030
1.194,-0.085,-0.025
1.196,-0.075,-0.020
1.198,-0.080,-0.015
1.200,-0.055,-0.015
1.202,-0.005,-0.010
1.204,0.015,-0.015
1.206,0.025,-0.015
1.208,0.015,-0.020
1.210,-0.005,-0.020
1.212,-0.050,-0.025
1.214,-0.075,-0.025
1.216,-0.080,-0.025
1.218,-0.075,-0.025
1.220,-0.045,-0.020
1.222,0.010,-0.015
1.224,0.035,-0.010
1.226,0.035,-0.010
1.228,0.035,-0.005
1.230,0.015,0.000
1.232,-0.030,0.000
1.234,-0.050,0.005
1.236,-0.050,0.005
1.238,-0.045,0.010
1.240,-0.010,0.015
1.242,0.040,0.020
1.244,0.065,0.025
1.246,0.065,0.030
1.248,0.045,0.030
1.250,0.035,0.030
1.252,0.000,0.030
1.254,-0.005,0.030
1.256,-0.040,0.030
1.258,-0.015,0.035
1.260,0.025,0.035
1.262,0.070,0.040
1.264,0.090,0.050
1.266,0.115,0.055
1.268,0.110,0.065
1.270,0.085,0.075
1.272,0.040,0.080
1.274,0.005,0.085
1.276,0.005,0.090
1.278,0.035,0.095
1.280,0.075,0.100
1.282,0.135,0.100
1.284,0.160,0.105
1.286,0.175,0.115
1.288,0.160,0.120
1.290,0.145,0.130
1.292,0.095,0.135
1.294,0.100,0.145
1.296,0.090,0.150
1.298,0.115,0.160
1.300,0.155,0.165
1.302,0.210,0.170
1.304,0.230,0.175
1.306,0.240,0.185
1.308,0.225,0.190
1.310,0.205,0.200
1.312,0.160,0.205
1.314,0.155,0.210
1.316,0.150,0.215
1.318,0.170,0.220
1.320,0.185,0.220
1.322,0.225,0.220
1.324,0.260,0.215
1.326,0.265,0.215
1.328,0.240,0.210
1.330,0.205,0.205
1.332,0.170,0.205
1.334,0.135,0.200
1.336,0.140,0.200
1.338,0.145,0.195
1.340,0.170,0.195
1.342,0.225,0.195
1.344,0.235,0.195
1.346,0.225,0.190
1.348,0.190,0.185
1.350,0.145,0.180
1.352,0.085,0.175
1.354,0.055,0.160
1.356,0.055,0.150
1.358,0.070,0.135
1.360,0.090,0.120
1.362,0.140,0.105
1.364,0.125,0.090
1.366,0.105,0.075
1.368,0.085,0.065
1.370,0.035,0.055
1.372,-0.020,0.045
1.374,-0.055,0.040
1.376,-0.055,0.030
1.378,-0.030,0.020
1.380,-0.010,0.015
1.382,0.020,0.005
1.384,0.020,0.000
1.386,0.010,-0.010
1.388,-0.005,-0.015
1.390,-0.045,-0.020
1.392,-0.080,-0.020
1.394,-0.100,-0.025
1.396,-0.095,-0.025
1.398,-0.070,-0.025
1.400,-0.050,-0.030
1.402,-0.015,-0.030
1.404,0.000,-0.035
1.406,-0.010,-0.040
1.408,-0.050,-0.045
1.410,-0.075,-0.050
1.412,-0.115,-0.055
1.414,-0.135,-0.055
1.416,-0.135,-0.055
1.418,-0.105,-0.050
1.420,-0.060,-0.050
1.422,-0.025,-0.045
1.424,-0.010,-0.040
1.426,-0.025,-0.035
1.428,-0.050,-0.035
1.430,-0.085,-0.035
1.432,-0.125,-0.040
1.434,-0.140,-0.045
1.436,-0.130,-0.055
1.438,-0.110,-0.060
1.440,-0.060,-0.070
1.442,-0.040,-0.075
1.444,-0.020,-0.080
1.446,-0.015,-0.080
1.448,-0.050,-0.075
1.450,-0.080,-0.070
1.452,-0.130,-0.065
1.454,-0.140,-0.060
1.456,-0.130,-0.055
1.458,-0.105,-0.050
1.460,-0.060,-0.050
1.462,-0.035,-0.050
1.464,-0.020,-0.050
1.466,-0.035,-0.055
1.468,-0.055,-0.060
1.470,-0.095,-0.060
1.472,-0.130,-0.065
1.474,-0.145,-0.065
1.476,-0.125,-0.060
1.478,-0.100,-0.060
1.480,-0.050,-0.055
1.482,-0.020,-0.050
1.484,-0.010,-0.045
1.486,-0.025,-0.040
1.488,-0.035,-0.040
1.490,-0.095,-0.040
1.492,-0.120,-0.045
1.494,-0.130,-0.050
1.496,-0.100,-0.055
1.498,-0.105,-0.055
1.500,-0.070,-0.060
1.502,-0.030,-0.065
1.504,-0.015,-0.065
1.506,-0.025,-0.070
1.508,-0.050,-0.070
1.510,-0.090,-0.070
1.512,-0.110,-0.070
1.514,-0.125,-0.070
1.516,-0.115,-0.070
1.518,-0.085,-0.070
1.520,-0.050,-0.070
1.522,-0.035,-0.070
1.524,-0.020,-0.070
1.526,-0.030,-0.070
1.528,-0.060,-0.070
1.530,-0.105,-0.070
1.532,-0.130,-0.070
1.534,-0.125,-0.070
1.536,-0.125,-0.065
1.538,-0.090,-0.065
1.540,-0.040,-0.060
1.542,-0.020,-0.060
1.544,-0.025,-0.060
1.546,-0.030,-0.060
1.548,-0.050,-0.060
1.550,-0.110,-0.065
1.552,-0.130,-0.065
1.554,-0.115,-0.075
1.556,-0.120,-0.080
1.558,-0.095,-0.085
1.560,-0.060,-0.090
1.562,-0.040,-0.090
1.564,-0.025,-0.090
1.566,-0.045,-0.090
1.568,-0.070,-0.085
1.570,-0.135,-0.080
1.572,-0.130,-0.075
1.574,-0.140,-0.070
1.576,-0.130,-0.065
1.578,-0.105,-0.060
1.580,-0.050,-0.055
1.582,-0.030,-0.055
1.584,-0.025,-0.060
1.586,-0.055,-0.065
1.588,-0.070,-0.065
1.590,-0.120,-0.070
1.592,-0.145,-0.070
1.594,-0.155,-0.075
1.596,-0.135,-0.070
1.598,-0.100,-0.070
1.600,-0.050,-0.070
1.602,-0.030,-0.065
1.604,-0.035,-0.065
1.606,-0.055,-0.065
1.608,-0.075,-0.070
1.610,-0.130,-0.075
1.612,-0.145,-0.075
1.614,-0.155,-0.080
1.616,-0.145,-0.085
1.618,-0.120,-0.085
1.620,-0.070,-0.080
1.622,-0.040,-0.080
1.624,-0.030,-0.075
1.626,-0.045,-0.070
1.628,-0.085,-0.070
1.630,-0.145,-0.065
1.632,-0.155,-0.065
1.634,-0.150,-0.065
1.636,-0.130,-0.065
1.638,-0.105,-0.070
1.640,-0.065,-0.075
1.642,-0.035,-0.080
1.644,-0.040,-0.085
1.646,-0.050,-0.085
1.648,-0.105,-0.090
1.650,-0.155,-0.090
1.652,-0.150,-0.090
1.654,-0.145,-0.085
1.656,-0.135,-0.080
1.658,-0.095,-0.075
1.660,-0.060,-0.070
1.662,-0.040,-0.065
1.664,-0.030,-0.065
1.666,-0.045,-0.060
1.668,-0.080,-0.065
1.670,-0.135,-0.065
1.672,-0.155,-0.070
1.674,-0.160,-0.075
1.676,-0.135,-0.080
1.678,-0.105,-0.085
1.680,-0.065,-0.090
1.682,-0.060,-0.090
1.684,-0.050,-0.090
1.686,-0.075,-0.090
1.688,-0.090,-0.090
1.690,-0.135,-0.085
1.692,-0.145,-0.080
1.694,-0.150,-0.075
1.696,-0.110,-0.065
1.698,-0.085,-0.060
1.700,-0.045,-0.060
1.702,-0.020,-0.055
1.704,-0.025,-0.055
1.706,-0.060,-0.050
1.708,-0.075,-0.055
1.710,-0.110,-0.055
1.712,-0.120,-0.060
1.714,-0.120,-0.060
1.716,-0.095,-0.065
1.718,-0.055,-0.065
1.720,-0.035,-0.065
1.722,-0.020,-0.060
1.724,-0.005,-0.055
1.726,-0.015,-0.050
1.728,-0.070,-0.040
1.730,-0.085,-0.035
1.732,-0.100,-0.030
1.734,-0.095,-0.030
1.736,-0.065,-0.030
1.738,-0.010,-0.030
1.740,-0.005,-0.030
1.742,0.015,-0.035
1.744,0.010,-0.035
1.746,-0.010,-0.035
1.748,-0.050,-0.030
1.750,-0.065,-0.025
1.752,-0.080,-0.025
1.754,-0.090,-0.020
1.756,-0.080,-0.020
1.758,-0.040,-0.020
1.760,-0.025,-0.025
1.762,-0.030,-0.035
1.764,-0.035,-0.045
1.766,-0.055,-0.055
1.768,-0.105,-0.065
1.770,-0.135,-0.075
1.772,-0.170,-0.080
1.774,-0.160,-0.085
1.776,-0.135,-0.085
1.778,-0.080,-0.085
1.780,-0.055,-0.085
1.782,-0.050,-0.085
1.784,-0.070,-0.080
1.786,-0.075,-0.080
1.788,-0.115,-0.075
1.790,-0.140,-0.075
1.792,-0.165,-0.075
1.794,-0.150,-0.075
1.796,-0.125,-0.075
1.798,-0.075,-0.075
1.800,-0.050,-0.075
1.802,-0.045,-0.075
1.804,-0.065,-0.075
1.806,-0.080,-0.075
1.808,-0.125,-0.075
1.810,-0.155,-0.080
1.812,-0.145,-0.085
1.814,-0.155,-0.090
1.816,-0.120,-0.095
1.818,-0.060,-0.100
1.820,-0.070,-0.105
1.822,-0.055,-0.105
1.824,-0.060,-0.105
1.826,-0.085,-0.100
1.828,-0.140,-0.095
1.830,-0.155,-0.090
1.832,-0.155,-0.080
1.834,-0.140,-0.075
1.836,-0.125,-0.070
1.838,-0.060,-0.070
1.840,-0.055,-0.070
1.842,-0.045,-0.070
1.844,-0.060,-0.075
1.846,-0.080,-0.085
1.848,-0.150,-0.095
1.850,-0.185,-0.105
1.852,-0.180,-0.110
1.854,-0.170,-0.120
1.856,-0.170,-0.125
1.858,-0.125,-0.125
1.860,-0.110,-0.120
1.862,-0.085,-0.110
1.864,-0.070,-0.090
1.866,-0.040,-0.055
1.868,-0.015,-0.010
1.870,0.020,0.045
1.872,0.065,0.120
1.874,0.150,0.205
1.876,0.270,0.300
1.878,0.400,0.395
1.880,0.510,0.490
1.882,0.660,0.575
1.884,0.735,0.640
1.886,0.715,0.680
1.888,0.655,0.690
1.890,0.585,0.665
1.892,0.510,0.605
1.894,0.445,0.515
1.896,0.365,0.410
1.898,0.295,0.290
1.900,0.180,0.170
1.902,0.065,0.060
1.904,-0.085,-0.035
1.906,-0.160,-0.100
1.908,-0.225,-0.145
1.910,-0.225,-0.165
1.912,-0.220,-0.165
1.914,-0.190,-0.155
1.916,-0.140,-0.135
1.918,-0.055,-0.110
1.920,-0.025,-0.090
1.922,-0.010,-0.075
1.924,-0.035,-0.060
1.926,-0.055,-0.050
1.928,-0.110,-0.045
1.930,-0.105,-0.040
1.932,-0.105,-0.040
1.934,-0.100,-0.035
1.936,-0.060,-0.035
1.938,-0.030,-0.035
1.940,-0.020,-0.040
1.942,-0.020,-0.045
1.944,-0.030,-0.050
1.946,-0.055,-0.055
1.948,-0.100,-0.055
1.950,-0.125,-0.060
1.952,-0.135,-0.060
1.954,-0.105,-0.060
1.956,-0.065,-0.055
1.958,-0.045,-0.055
1.960,-0.010,-0.050
1.962,0.005,-0.045
1.964,-0.025,-0.045
1.966,-0.060,-0.040
1.968,-0.100,-0.040
1.970,-0.100,-0.035
1.972,-0.090,-0.030
1.974,-0.080,-0.030
1.976,-0.070,-0.025
1.978,-0.010,-0.020
1.980,0.005,-0.020
1.982,0.005,-0.015
1.984,-0.025,-0.015
1.986,-0.050,-0.015
1.988,-0.085,-0.020
1.990,-0.100,-0.020
1.992,-0.095,-0.025
1.994,-0.055,-0.025
1.996,-0.020,-0.030
1.998,0.005,-0.030
2.000,0.030,-0.030
2.002,0.025,-0.025
2.004,0.000,-0.020
2.006,-0.030,-0.015
2.008,-0.070,-0.010
2.010,-0.070,-0.005
2.012,-0.070,0.000
2.014,-0.055,0.005
2.016,-0.005,0.005
2.018,0.010,0.005
2.020,0.045,0.000
2.022,0.025,0.000
2.024,0.000,0.000
2.026,-0.030,0.000
2.028,-0.045,0.000
2.030,-0.055,0.005
2.032,-0.040,0.010
2.034,-0.020,0.015
2.036,0.030,0.020
2.038,0.065,0.025
2.040,0.075,0.030
2.042,0.075,0.035
2.044,0.070,0.040
2.046,0.000,0.040
2.048,-0.025,0.045
2.050,-0.020,0.050
2.052,-0.005,0.050
2.054,0.015,0.055
2.056,0.075,0.060
2.058,0.110,0.070
2.060,0.125,0.075
2.062,0.125,0.080
2.064,0.110,0.090
2.066,0.065,0.100
2.068,0.050,0.110
2.070,0.045,0.120
2.072,0.080,0.125
2.074,0.090,0.135
2.076,0.135,0.145
2.078,0.170,0.150
2.080,0.210,0.155
2.082,0.205,0.160
2.084,0.175,0.160
2.086,0.150,0.165
2.088,0.100,0.175
2.090,0.100,0.180
2.092,0.120,0.185
2.094,0.160,0.195
2.096,0.200,0.200
2.098,0.240,0.205
2.100,0.240,0.205
2.102,0.240,0.210
2.104,0.215,0.205
2.106,0.190,0.205
2.108,0.145,0.200
2.110,0.130,0.200
2.112,0.130,0.195
2.114,0.175,0.195
2.116,0.215,0.195
2.118,0.245,0.200
2.120,0.260,0.200
2.122,0.220,0.200
2.124,0.195,0.195
2.126,0.135,0.195
2.128,0.105,0.190
2.130,0.110,0.180
2.132,0.105,0.175
2.134,0.120,0.170
2.136,0.165,0.165
2.138,0.180,0.160
2.140,0.175,0.150
2.142,0.140,0.145
2.144,0.095,0.135
2.146,0.055,0.125
2.148,0.005,0.115
2.150,0.000,0.100
2.152,0.015,0.085
2.154,0.010,0.075
2.156,0.050,0.060
2.158,0.065,0.050
2.160,0.065,0.045
2.162,0.045,0.040
2.164,0.005,0.040
2.166,-0.050,0.035
2.168,-0.075,0.030
2.170,-0.080,0.025
2.172,-0.060,0.020
2.174,-0.045,0.010
2.176,0.005,0.000
2.178,-0.005,-0.015
2.180,0.015,-0.025
2.182,-0.010,-0.030
2.184,-0.060,-0.035
2.186,-0.110,-0.040
2.188,-0.125,-0.040
2.190,-0.120,-0.040
2.192,-0.110,-0.045
2.194,-0.080,-0.045
2.196,-0.040,-0.045
2.198,-0.020,-0.045
2.200,-0.005,-0.045
2.202,-0.025,-0.050
2.204,-0.080,-0.045
2.206,-0.120,-0.045
2.208,-0.120,-0.045
2.210,-0.125,-0.045
2.212,-0.110,-0.045
2.214,-0.085,-0.045
2.216,-0.040,-0.045
2.218,-0.030,-0.045
2.220,-0.015,-0.045
2.222,-0.040,-0.050
2.224,-0.080,-0.045
2.226,-0.130,-0.045
2.228,-0.105,-0.045
2.230,-0.125,-0.040
2.232,-0.100,-0.040
2.234,-0.080,-0.040
2.236,-0.020,-0.040
2.238,-0.010,-0.045
2.240,-0.015,-0.050
2.242,-0.045,-0.050
2.244,-0.070,-0.055
2.246,-0.100,-0.055
2.248,-0.110,-0.055
2.250,-0.125,-0.055
2.252,-0.090,-0.050
2.254,-0.050,-0.040
2.256,-0.020,-0.035
2.258,-0.005,-0.030
2.260,0.005,-0.025
2.262,-0.020,-0.020
2.264,-0.075,-0.020
2.266,-0.120,-0.020
2.268,-0.110,-0.020
2.270,-0.105,-0.020
2.272,-0.085,-0.025
2.274,-0.060,-0.025
2.276,-0.030,-0.030
2.278,0.000,-0.030
2.280,0.000,-0.030
2.282,-0.035,-0.030
2.284,-0.060,-0.025
2.286,-0.095,-0.025
2.288,-0.115,-0.025
2.290,-0.125,-0.025
2.292,-0.095,-0.020
2.294,-0.050,-0.020
2.296,-0.015,-0.025
2.298,0.010,-0.025
2.300,0.005,-0.025
2.302,-0.020,-0.030
2.304,-0.085,-0.030
2.306,-0.140,-0.035
2.308,-0.130,-0.035
2.310,-0.110,-0.040
2.312,-0.095,-0.040
2.314,-0.055,-0.040
2.316,-0.025,-0.040
2.318,-0.010,-0.040
2.320,-0.005,-0.040
2.322,-0.035,-0.040
2.324,-0.090,-0.035
2.326,-0.105,-0.035
2.328,-0.100,-0.035
2.330,-0.120,-0.035
2.332,-0.100,-0.035
2.334,-0.055,-0.035
2.336,-0.030,-0.040
2.338,0.005,-0.040
2.340,-0.020,-0.045
2.342,-0.045,-0.050
2.344,-0.090,-0.050
2.346,-0.145,-0.050
2.348,-0.140,-0.055
2.350,-0.125,-0.050
2.352,-0.100,-0.050
2.354,-0.050,-0.050
2.356,-0.025,-0.050
2.358,-0.015,-0.055
2.360,-0.020,-0.055
2.362,-0.055,-0.060
2.364,-0.100,-0.065
2.366,-0.130,-0.070
2.368,-0.140,-0.075
2.370,-0.130,-0.075
2.372,-0.100,-0.075
2.374,-0.055,-0.070
2.376,-0.040,-0.065
2.378,-0.035,-0.060
2.380,-0.030,-0.050
2.382,-0.045,-0.045
2.384,-0.090,-0.040
2.386,-0.120,-0.040
2.388,-0.125,-0.040
2.390,-0.145,-0.045
2.392,-0.115,-0.050
2.394,-0.055,-0.050
2.396,-0.035,-0.055
2.398,-0.035,-0.060
2.400,-0.040,-0.065
2.402,-0.060,-0.065
2.404,-0.110,-0.065
2.406,-0.145,-0.065
2.408,-0.150,-0.065
2.410,-0.130,-0.065
2.412,-0.110,-0.065
2.414,-0.065,-0.065
2.416,-0.045,-0.065
2.418,-0.035,-0.060
2.420,-0.045,-0.060
2.422,-0.060,-0.060
2.424,-0.115,-0.060
2.426,-0.150,-0.060
2.428,-0.160,-0.060
2.430,-0.135,-0.060
2.432,-0.100,-0.065
2.434,-0.050,-0.065
2.436,-0.035,-0.070
2.438,-0.030,-0.070
2.440,-0.045,-0.070
2.442,-0.070,-0.070
2.444,-0.120,-0.070
2.446,-0.140,-0.065
2.448,-0.135,-0.065
2.450,-0.115,-0.060
2.452,-0.095,-0.060
2.454,-0.065,-0.060
2.456,-0.050,-0.055
2.458,-0.025,-0.055
2.460,-0.035,-0.055
2.462,-0.070,-0.055
2.464,-0.110,-0.050
2.466,-0.120,-0.050
2.468,-0.120,-0.045
2.470,-0.110,-0.040
2.472,-0.070,-0.035
2.474,-0.035,-0.030
2.476,-0.020,-0.030
2.478,-0.015,-0.030
2.480,-0.030,-0.030
2.482,-0.055,-0.035
2.484,-0.095,-0.040
2.486,-0.125,-0.040
2.488,-0.125,-0.045
2.490,-0.100,-0.040
2.492,-0.070,-0.040
2.494,-0.025,-0.035
2.496,0.010,-0.025
2.498,0.010,-0.020
2.500,0.010,-0.015
2.502,-0.015,-0.005
2.504,-0.065,-0.005
2.506,-0.085,-0.005
2.508,-0.085,-0.005
2.510,-0.065,-0.005
2.512,-0.035,-0.010
2.514,0.010,-0.015
2.516,0.010,-0.020
2.518,0.005,-0.020
2.520,-0.010,-0.025
2.522,-0.025,-0.025
2.524,-0.075,-0.025
2.526,-0.105,-0.030
2.528,-0.120,-0.030
2.530,-0.110,-0.030
2.532,-0.070,-0.035
2.534,-0.035,-0.040
2.536,-0.025,-0.040
2.538,-0.020,-0.045
2.540,-0.050,-0.050
2.542,-0.090,-0.055
2.544,-0.145,-0.060
2.546,-0.160,-0.060
2.548,-0.165,-0.065
2.550,-0.120,-0.070
2.552,-0.105,-0.070
2.554,-0.075,-0.075
2.556,-0.045,-0.075
2.558,-0.030,-0.080
2.560,-0.060,-0.080
2.562,-0.100,-0.075
2.564,-0.135,-0.075
2.566,-0.165,-0.075
2.568,-0.160,-0.075
2.570,-0.130,-0.075
2.572,-0.100,-0.080
2.574,-0.070,-0.080
2.576,-0.065,-0.080
2.578,-0.055,-0.085
2.580,-0.085,-0.085
2.582,-0.120,-0.085
2.584,-0.160,-0.085
2.586,-0.170,-0.085
2.588,-0.175,-0.085
2.590,-0.140,-0.085
2.592,-0.105,-0.085
2.594,-0.090,-0.085
2.596,-0.060,-0.085
2.598,-0.055,-0.085
2.600,-0.095,-0.090
2.602,-0.130,-0.090
2.604,-0.155,-0.095
2.606,-0.170,-0.095
2.608,-0.155,-0.090
2.610,-0.135,-0.090
2.612,-0.100,-0.090
2.614,-0.080,-0.085
2.616,-0.065,-0.090
2.618,-0.070,-0.090
2.620,-0.105,-0.095
2.622,-0.135,-0.100
2.624,-0.175,-0.110
2.626,-0.215,-0.115
2.628,-0.225,-0.120
2.630,-0.200,-0.120
2.632,-0.150,-0.115
2.634,-0.070,-0.095
2.636,-0.040,-0.065
2.638,0.015,-0.020
2.640,0.070,0.035
2.642,0.080,0.110
2.644,0.130,0.195
2.646,0.185,0.290
2.648,0.310,0.385
2.650,0.435,0.480
2.652,0.620,0.560
2.654,0.700,0.625
2.656,0.725,0.665
2.658,0.705,0.670
2.660,0.655,0.645
2.662,0.540,0.590
2.664,0.405,0.500
2.666,0.280,0.395
2.668,0.175,0.275
2.670,0.070,0.155
2.672,-0.020,0.045
2.674,-0.095,-0.045
2.676,-0.120,-0.115
2.678,-0.140,-0.155
2.680,-0.150,-0.170
2.682,-0.190,-0.165
2.684,-0.210,-0.145
2.686,-0.230,-0.115
2.688,-0.170,-0.090
2.690,-0.100,-0.065
2.692,-0.035,-0.045
2.694,-0.010,-0.040
2.696,0.005,-0.035
2.698,-0.010,-0.035
2.700,-0.050,-0.040
2.702,-0.115,-0.045
2.704,-0.145,-0.050
2.706,-0.135,-0.055
2.708,-0.120,-0.055
2.710,-0.105,-0.055
2.712,-0.070,-0.055
2.714,-0.030,-0.050
2.716,-0.020,-0.050
2.718,-0.025,-0.050
2.720,-0.060,-0.050
2.722,-0.105,-0.050
2.724,-0.120,-0.050
2.726,-0.125,-0.050
2.728,-0.115,-0.045
2.730,-0.085,-0.045
2.732,-0.040,-0.045
2.734,0.005,-0.040
2.736,-0.005,-0.035
2.738,-0.015,-0.030
2.740,-0.065,-0.025
2.742,-0.080,-0.020
2.744,-0.090,-0.015
2.746,-0.100,-0.005
2.748,-0.085,-0.005
2.750,-0.060,0.000
2.752,-0.025,0.000
2.754,0.005,-0.005
2.756,0.010,-0.005
2.758,0.010,-0.010
2.760,-0.005,-0.015
2.762,-0.070,-0.020
2.764,-0.080,-0.020
2.766,-0.110,-0.015
2.768,-0.090,-0.015
2.770,-0.055,-0.015
2.772,-0.010,-0.010
2.774,0.015,-0.010
2.776,0.025,-0.010
2.778,0.015,-0.015
2.780,-0.035,-0.015
2.782,-0.075,-0.015
2.784,-0.080,-0.015
2.786,-0.075,-0.010
2.788,-0.060,-0.005
2.790,-0.025,0.000
2.792,0.030,0.005
2.794,0.040,0.010
2.796,0.040,0.015
2.798,0.025,0.020
2.800,0.000,0.020
2.802,-0.040,0.020
2.804,-0.060,0.020
2.806,-0.050,0.020
2.808,-0.020,0.020
2.810,0.015,0.025
2.812,0.055,0.030
2.814,0.070,0.035
2.816,0.085,0.040
2.818,0.075,0.050
2.820,0.045,0.055
2.822,0.015,0.065
2.824,-0.005,0.075
2.826,-0.015,0.080
2.828,0.020,0.090
2.830,0.065,0.095
2.832,0.095,0.105
2.834,0.105,0.110
2.836,0.150,0.115
2.838,0.120,0.120
2.840,0.100,0.120
2.842,0.050,0.125
2.844,0.045,0.130
2.846,0.060,0.135
2.848,0.080,0.140
2.850,0.130,0.145
2.852,0.180,0.155
2.854,0.210,0.160
2.856,0.210,0.170
2.858,0.185,0.175
2.860,0.170,0.180
2.862,0.140,0.180
2.864,0.115,0.185
2.866,0.120,0.185
2.868,0.135,0.190
2.870,0.185,0.195
2.872,0.220,0.200
2.874,0.235,0.205
2.876,0.245,0.210
2.878,0.235,0.215
2.880,0.190,0.220
2.882,0.160,0.225
2.884,0.105,0.225
2.886,0.130,0.230
2.888,0.155,0.230
2.890,0.200,0.230
2.892,0.230,0.230
2.894,0.245,0.230
2.896,0.240,0.225
2.898,0.190,0.220
2.900,0.150,0.210
2.902,0.090,0.200
2.904,0.070,0.190
2.906,0.065,0.175
2.908,0.070,0.165
2.910,0.120,0.150
2.912,0.130,0.135
2.914,0.135,0.125
2.916,0.130,0.115
2.918,0.080,0.105
2.920,0.030,0.095
2.922,-0.020,0.085
2.924,-0.045,0.075
2.926,-0.040,0.065
2.928,-0.025,0.055
2.930,-0.005,0.045
2.932,0.020,0.030
2.934,0.035,0.020
2.936,0.025,0.015
2.938,-0.015,0.005
2.940,-0.065,0.000
2.942,-0.085,-0.005
2.944,-0.110,-0.005
2.946,-0.115,-0.010
2.948,-0.085,-0.015
2.950,-0.050,-0.020
2.952,-0.045,-0.025
2.954,-0.020,-0.030
2.956,-0.020,-0.035
2.958,-0.050,-0.040
2.960,-0.100,-0.045
2.962,-0.125,-0.045
2.964,-0.145,-0.045
2.966,-0.150,-0.045
2.968,-0.105,-0.045
2.970,-0.070,-0.040
2.972,-0.045,-0.040
2.974,-0.035,-0.045
2.976,-0.050,-0.045
2.978,-0.065,-0.050
2.980,-0.130,-0.055
2.982,-0.155,-0.065
2.984,-0.155,-0.070
2.986,-0.140,-0.075
2.988,-0.105,-0.075
2.990,-0.070,-0.075
2.992,-0.045,-0.075
2.994,-0.035,-0.075
2.996,-0.060,-0.070
2.998,-0.075,-0.065
3.000,-0.130,-0.060
3.002,-0.150,-0.055
3.004,-0.145,-0.050
3.006,-0.135,-0.045
3.008,-0.100,-0.045
3.010,-0.065,-0.040
3.012,-0.040,-0.040
3.014,-0.025,-0.045
3.016,-0.045,-0.045
3.018,-0.055,-0.045
3.020,-0.115,-0.050
3.022,-0.125,-0.050
3.024,-0.120,-0.050
3.026,-0.125,-0.050
3.028,-0.105,-0.050
3.030,-0.050,-0.045
3.032,-0.030,-0.045
3.034,-0.030,-0.045
3.036,-0.040,-0.045
3.038,-0.070,-0.045
3.040,-0.120,-0.050
3.042,-0.145,-0.050
3.044,-0.130,-0.055
3.046,-0.120,-0.055
3.048,-0.090,-0.060
3.050,-0.050,-0.055
3.052,-0.015,-0.055
3.054,-0.015,-0.050
3.056,-0.035,-0.040
3.058,-0.055,-0.035
3.060,-0.110,-0.030
3.062,-0.120,-0.030
3.064,-0.135,-0.025
3.066,-0.120,-0.025
3.068,-0.095,-0.030
3.070,-0.040,-0.030
3.072,-0.025,-0.035
3.074,-0.020,-0.035
3.076,-0.030,-0.035
3.078,-0.065,-0.040
3.080,-0.110,-0.040
3.082,-0.125,-0.045
3.084,-0.130,-0.045
3.086,-0.100,-0.050
3.088,-0.090,-0.050
3.090,-0.050,-0.050
3.092,-0.015,-0.050
3.094,-0.030,-0.050
3.096,-0.050,-0.050
3.098,-0.075,-0.045
3.100,-0.110,-0.040
3.102,-0.120,-0.040
3.104,-0.140,-0.040
3.106,-0.125,-0.040
3.108,-0.095,-0.040
3.110,-0.060,-0.045
3.112,-0.030,-0.050
3.114,-0.045,-0.055
3.116,-0.045,-0.060
3.118,-0.070,-0.065
3.120,-0.115,-0.065
3.122,-0.135,-0.065
3.124,-0.150,-0.065
3.126,-0.125,-0.060
3.128,-0.085,-0.060
3.130,-0.050,-0.055
3.132,-0.030,-0.055
3.134,-0.030,-0.060
3.136,-0.050,-0.060
3.138,-0.095,-0.060
3.140,-0.135,-0.060
3.142,-0.145,-0.060
3.144,-0.145,-0.060
3.146,-0.125,-0.055
3.148,-0.095,-0.055
3.150,-0.055,-0.055
3.152,-0.045,-0.055
3.154,-0.035,-0.055
3.156,-0.065,-0.055
3.158,-0.085,-0.060
3.160,-0.140,-0.060
3.162,-0.145,-0.060
3.164,-0.140,-0.060
3.166,-0.100,-0.055
3.168,-0.065,-0.055
3.170,-0.060,-0.050
3.172,-0.050,-0.050
3.174,-0.040,-0.045
3.176,-0.065,-0.045
3.178,-0.110,-0.045
3.180,-0.145,-0.045
3.182,-0.165,-0.050
3.184,-0.145,-0.050
3.186,-0.125,-0.050
3.188,-0.085,-0.050
3.190,-0.055,-0.050
3.192,-0.025,-0.050
3.194,-0.040,-0.045
3.196,-0.070,-0.045
3.198,-0.110,-0.045
3.200,-0.155,-0.045
3.202,-0.155,-0.045
3.204,-0.150,-0.050
3.206,-0.130,-0.055
3.208,-0.100,-0.065
3.210,-0.060,-0.070
3.212,-0.045,-0.070
3.214,-0.050,-0.075
3.216,-0.070,-0.075
3.218,-0.110,-0.070
3.220,-0.140,-0.065
3.222,-0.165,-0.060
3.224,-0.155,-0.060
3.226,-0.135,-0.055
3.228,-0.095,-0.055
3.230,-0.060,-0.055
3.232,-0.045,-0.060
3.234,-0.045,-0.060
3.236,-0.075,-0.065
3.238,-0.135,-0.070
3.240,-0.155,-0.075
3.242,-0.165,-0.075
3.244,-0.160,-0.075
3.246,-0.135,-0.075
3.248,-0.080,-0.070
3.250,-0.055,-0.070
3.252,-0.045,-0.065
3.254,-0.060,-0.060
3.256,-0.070,-0.055
3.258,-0.125,-0.055
3.260,-0.145,-0.055
3.262,-0.160,-0.055
3.264,-0.155,-0.050
3.266,-0.105,-0.050
3.268,-0.050,-0.050
3.270,-0.030,-0.045
3.272,-0.015,-0.045
3.274,-0.030,-0.040
3.276,-0.055,-0.035
3.278,-0.100,-0.035
3.280,-0.125,-0.030
3.282,-0.140,-0.030
3.284,-0.125,-0.035
3.286,-0.100,-0.035
3.288,-0.050,-0.035
3.290,-0.025,-0.035
3.292,-0.030,-0.035
3.294,-0.025,-0.035
3.296,-0.035,-0.030
3.298,-0.085,-0.025
3.300,-0.105,-0.025
3.302,-0.105,-0.020
3.304,-0.095,-0.020
3.306,-0.070,-0.015
3.308,-0.030,-0.015
3.310,0.005,-0.015
3.312,0.010,-0.015
3.314,0.010,-0.010
3.316,-0.015,-0.010
3.318,-0.075,-0.010
3.320,-0.100,-0.010
3.322,-0.125,-0.010
3.324,-0.100,-0.010
3.326,-0.090,-0.010
3.328,-0.050,-0.015
3.330,-0.030,-0.025
3.332,-0.040,-0.030
3.334,-0.065,-0.040
3.336,-0.075,-0.050
3.338,-0.130,-0.060
3.340,-0.165,-0.065
3.342,-0.175,-0.075
3.344,-0.165,-0.080
3.346,-0.130,-0.080
3.348,-0.075,-0.080
3.350,-0.045,-0.075
3.352,-0.050,-0.075
3.354,-0.080,-0.070
3.356,-0.110,-0.065
3.358,-0.155,-0.065
3.360,-0.165,-0.065
3.362,-0.165,-0.065
3.364,-0.155,-0.065
3.366,-0.130,-0.070
3.368,-0.090,-0.075
3.370,-0.080,-0.075
3.372,-0.060,-0.080
3.374,-0.090,-0.080
3.376,-0.135,-0.085
3.378,-0.180,-0.085
3.380,-0.180,-0.085
3.382,-0.175,-0.085
3.384,-0.160,-0.090
3.386,-0.145,-0.090
3.388,-0.110,-0.090
3.390,-0.065,-0.095
3.392,-0.075,-0.095
3.394,-0.090,-0.095
3.396,-0.120,-0.090
3.398,-0.160,-0.090
3.400,-0.185,-0.090
3.402,-0.200,-0.085
3.404,-0.165,-0.085
3.406,-0.120,-0.085
3.408,-0.105,-0.085
3.410,-0.095,-0.085
3.412,-0.075,-0.085
3.414,-0.095,-0.085
3.416,-0.140,-0.090
3.418,-0.190,-0.090
3.420,-0.210,-0.095
3.422,-0.220,-0.100
3.424,-0.200,-0.110
3.426,-0.185,-0.115
3.428,-0.145,-0.120
3.430,-0.130,-0.120
3.432,-0.115,-0.110
3.434,-0.110,-0.090
3.436,-0.065,-0.060
3.438,-0.065,-0.015
3.440,-0.005,0.045
3.442,0.035,0.125
3.444,0.150,0.210
3.446,0.240,0.305
3.448,0.375,0.400
3.450,0.510,0.490
3.452,0.625,0.570
3.454,0.695,0.635
3.456,0.660,0.670
3.458,0.605,0.680
3.460,0.535,0.655
3.462,0.480,0.600
3.464,0.410,0.515
3.466,0.365,0.410
3.468,0.285,0.295
3.470,0.165,0.175
3.472,0.035,0.065
3.474,-0.105,-0.025
3.476,-0.190,-0.090
3.478,-0.265,-0.130
3.480,-0.230,-0.150
3.482,-0.215,-0.145
3.484,-0.180,-0.125
3.486,-0.115,-0.100
3.488,-0.055,-0.080
3.490,-0.050,-0.060
3.492,-0.035,-0.050
3.494,-0.050,-0.045
3.496,-0.115,-0.050
3.498,-0.145,-0.055
3.500,-0.165,-0.065
3.502,-0.165,-0.070
3.504,-0.145,-0.075
3.506,-0.100,-0.075
3.508,-0.065,-0.075
3.510,-0.050,-0.075
3.512,-0.050,-0.070
3.514,-0.070,-0.065
3.516,-0.125,-0.060
3.518,-0.160,-0.055
3.520,-0.145,-0.050
3.522,-0.150,-0.045
3.524,-0.110,-0.040
3.526,-0.080,-0.040
3.528,-0.060,-0.035
3.530,-0.035,-0.035
3.532,-0.045,-0.035
3.534,-0.070,-0.035
3.536,-0.110,-0.035
3.538,-0.130,-0.040
3.540,-0.130,-0.040
3.542,-0.135,-0.040
3.544,-0.100,-0.045
3.546,-0.050,-0.040
3.548,-0.035,-0.040
3.550,-0.030,-0.040
3.552,-0.035,-0.040
3.554,-0.060,-0.040
3.556,-0.095,-0.040
3.558,-0.130,-0.035
3.560,-0.135,-0.035
3.562,-0.120,-0.035
3.564,-0.095,-0.035
3.566,-0.055,-0.035
3.568,-0.020,-0.035
3.570,-0.005,-0.030
3.572,-0.010,-0.030
3.574,-0.035,-0.025
3.576,-0.080,-0.020
3.578,-0.115,-0.015
3.580,-0.110,-0.010
3.582,-0.095,-0.005
3.584,-0.080,0.000
3.586,-0.020,0.005
3.588,0.015,0.010
3.590,0.025,0.010
3.592,-0.010,0.010
3.594,-0.020,0.010
3.596,-0.050,0.010
3.598,-0.080,0.010
3.600,-0.090,0.015
3.602,-0.075,0.015
3.604,-0.050,0.020
3.606,0.005,0.020
3.608,0.020,0.025
3.610,0.035,0.025
3.612,0.025,0.025
3.614,0.010,0.025
3.616,-0.040,0.030
3.618,-0.055,0.035
3.620,-0.055,0.040
3.622,-0.030,0.050
3.624,-0.010,0.065
3.626,0.050,0.075
3.628,0.100,0.085
3.630,0.100,0.095
3.632,0.090,0.100
3.634,0.060,0.105
3.636,-0.005,0.105
3.638,-0.010,0.105
3.640,0.010,0.105
3.642,0.030,0.110
3.644,0.070,0.115
3.646,0.120,0.120
3.648,0.155,0.130
3.650,0.160,0.140
3.652,0.160,0.150
3.654,0.145,0.155
3.656,0.100,0.165
3.658,0.075,0.170
3.660,0.075,0.180
3.662,0.105,0.185
3.664,0.145,0.190
3.666,0.195,0.195
3.668,0.210,0.205
3.670,0.220,0.210
3.672,0.190,0.220
3.674,0.170,0.225
3.676,0.130,0.230
3.678,0.100,0.235
3.680,0.100,0.235
3.682,0.115,0.235
3.684,0.150,0.235
3.686,0.190,0.230
3.688,0.225,0.225
3.690,0.230,0.220
3.692,0.210,0.210
3.694,0.180,0.205
3.696,0.105,0.200
3.698,0.080,0.195
3.700,0.055,0.190
3.702,0.060,0.180
3.704,0.105,0.175
3.706,0.135,0.170
3.708,0.145,0.160
3.710,0.140,0.155
3.712,0.110,0.145
3.714,0.060,0.135
3.716,0.010,0.125
3.718,-0.025,0.110
3.720,-0.035,0.100
3.722,-0.025,0.085
3.724,-0.005,0.075
3.726,0.030,0.060
3.728,0.015,0.050
3.730,0.020,0.045
3.732,0.000,0.035
3.734,-0.035,0.030
3.736,-0.090,0.025
3.738,-0.110,0.020
3.740,-0.115,0.020
3.742,-0.105,0.010
3.744,-0.075,0.005
3.746,-0.045,-0.005
3.748,-0.045,-0.020
3.750,-0.030,-0.030
3.752,-0.050,-0.040
3.754,-0.110,-0.050
3.756,-0.145,-0.055
3.758,-0.155,-0.060
3.760,-0.160,-0.060
3.762,-0.140,-0.055
3.764,-0.110,-0.050
3.766,-0.085,-0.050
3.768,-0.050,-0.045
3.770,-0.050,-0.045
3.772,-0.085,-0.045
3.774,-0.115,-0.050
3.776,-0.165,-0.055
3.778,-0.170,-0.060
3.780,-0.175,-0.065
3.782,-0.150,-0.070
3.784,-0.120,-0.070
3.786,-0.080,-0.070
3.788,-0.060,-0.065
3.790,-0.070,-0.065
3.792,-0.090,-0.060
3.794,-0.130,-0.055
3.796,-0.170,-0.055
3.798,-0.190,-0.055
3.800,-0.150,-0.060
3.802,-0.145,-0.060
3.804,-0.125,-0.065
3.806,-0.085,-0.070
3.808,-0.065,-0.070
3.810,-0.070,-0.070
3.812,-0.090,-0.070
3.814,-0.135,-0.065
3.816,-0.165,-0.060
3.818,-0.175,-0.055
3.820,-0.170,-0.050
3.822,-0.150,-0.045
3.824,-0.095,-0.045
3.826,-0.065,-0.040
3.828,-0.060,-0.040
3.830,-0.050,-0.040
3.832,-0.075,-0.045
3.834,-0.125,-0.045
3.836,-0.155,-0.045
3.838,-0.170,-0.045
3.840,-0.145,-0.045
3.842,-0.145,-0.050
3.844,-0.095,-0.050
3.846,-0.050,-0.050
3.848,-0.025,-0.055
3.850,-0.030,-0.055
3.852,-0.050,-0.055
3.854,-0.125,-0.055
3.856,-0.175,-0.055
3.858,-0.180,-0.050
3.860,-0.160,-0.045
3.862,-0.140,-0.040
3.864,-0.080,-0.035
3.866,-0.050,-0.030
3.868,-0.045,-0.030
3.870,-0.040,-0.030
3.872,-0.070,-0.030
3.874,-0.115,-0.030
3.876,-0.165,-0.035
3.878,-0.170,-0.040
3.880,-0.170,-0.040
3.882,-0.125,-0.040
3.884,-0.090,-0.045
3.886,-0.050,-0.045
3.888,-0.035,-0.045
3.890,-0.055,-0.045
3.892,-0.080,-0.045
3.894,-0.120,-0.045
3.896,-0.145,-0.045
3.898,-0.175,-0.045
3.900,-0.155,-0.045
3.902,-0.130,-0.045
3.904,-0.075,-0.040
3.906,-0.040,-0.040
3.908,-0.040,-0.035
3.910,-0.065,-0.035
3.912,-0.075,-0.035
3.914,-0.130,-0.035
3.916,-0.175,-0.035
3.918,-0.180,-0.040
3.920,-0.165,-0.045
3.922,-0.130,-0.045
3.924,-0.100,-0.045
3.926,-0.080,-0.050
3.928,-0.065,-0.045
3.930,-0.070,-0.045
3.932,-0.100,-0.045
3.934,-0.150,-0.045
3.936,-0.165,-0.040
3.938,-0.165,-0.045
3.940,-0.150,-0.045
3.942,-0.150,-0.045
3.944,-0.105,-0.050
3.946,-0.060,-0.050
3.948,-0.045,-0.055
3.950,-0.075,-0.055
3.952,-0.100,-0.055
3.954,-0.145,-0.055
3.956,-0.170,-0.050
3.958,-0.195,-0.050
3.960,-0.155,-0.050
3.962,-0.135,-0.050
3.964,-0.090,-0.050
3.966,-0.060,-0.050
3.968,-0.070,-0.050
3.970,-0.105,-0.055
3.972,-0.110,-0.055
3.974,-0.155,-0.055
3.976,-0.175,-0.060
3.978,-0.195,-0.060
3.980,-0.140,-0.065
3.982,-0.145,-0.065
3.984,-0.100,-0.070
3.986,-0.065,-0.070
3.988,-0.075,-0.070
3.990,-0.090,-0.065
3.992,-0.105,-0.065
3.994,-0.155,-0.060
3.996,-0.180,-0.060
3.998,-0.180,-0.055
4.000,-0.170,-0.055
4.002,-0.115,-0.055
4.004,-0.100,-0.060
4.006,-0.065,-0.060
4.008,-0.070,-0.065
4.010,-0.095,-0.065
4.012,-0.125,-0.070
4.014,-0.175,-0.070
4.016,-0.170,-0.065
4.018,-0.195,-0.065
4.020,-0.170,-0.065
4.022,-0.120,-0.065
4.024,-0.095,-0.065
4.026,-0.085,-0.065
4.028,-0.085,-0.065
4.030,-0.100,-0.065
4.032,-0.130,-0.065
4.034,-0.160,-0.065
4.036,-0.195,-0.065
4.038,-0.165,-0.065
4.040,-0.165,-0.060
4.042,-0.125,-0.060
4.044,-0.080,-0.055
4.046,-0.070,-0.060
4.048,-0.090,-0.060
4.050,-0.110,-0.065
4.052,-0.160,-0.070
4.054,-0.175,-0.075
4.056,-0.175,-0.080
4.058,-0.190,-0.080
4.060,-0.165,-0.080
4.062,-0.125,-0.080
4.064,-0.085,-0.075
4.066,-0.070,-0.070
4.068,-0.065,-0.065
4.070,-0.065,-0.060
4.072,-0.120,-0.055
4.074,-0.165,-0.050
4.076,-0.170,-0.045
4.078,-0.165,-0.040
4.080,-0.140,-0.040
4.082,-0.110,-0.040
4.084,-0.060,-0.035
4.086,-0.060,-0.035
4.088,-0.075,-0.035
4.090,-0.085,-0.035
4.092,-0.110,-0.035
4.094,-0.165,-0.035
4.096,-0.170,-0.040
4.098,-0.145,-0.040
4.100,-0.115,-0.035
4.102,-0.075,-0.035
4.104,-0.030,-0.030
4.106,-0.010,-0.025
4.108,-0.020,-0.020
4.110,-0.035,-0.010
4.112,-0.080,-0.005
4.114,-0.115,0.000
4.116,-0.135,0.005
4.118,-0.130,0.010
4.120,-0.105,0.010
4.122,-0.045,0.010
4.124,-0.025,0.010
4.126,-0.025,0.005
4.128,-0.035,0.000
4.130,-0.070,-0.005
4.132,-0.115,-0.010
4.134,-0.165,-0.020
4.136,-0.165,-0.025
4.138,-0.165,-0.035
4.140,-0.130,-0.040
4.142,-0.110,-0.050
4.144,-0.080,-0.055
4.146,-0.075,-0.060
4.148,-0.080,-0.060
4.150,-0.110,-0.060
4.152,-0.160,-0.060
4.154,-0.190,-0.060
4.156,-0.185,-0.055
4.158,-0.170,-0.055
4.160,-0.140,-0.050
4.162,-0.095,-0.050
4.164,-0.095,-0.050
4.166,-0.090,-0.050
4.168,-0.080,-0.055
4.170,-0.105,-0.055
4.172,-0.165,-0.055
4.174,-0.200,-0.055
4.176,-0.210,-0.060
4.178,-0.190,-0.060
4.180,-0.160,-0.060
4.182,-0.125,-0.065
4.184,-0.095,-0.065
4.186,-0.075,-0.070
4.188,-0.095,-0.070
4.190,-0.120,-0.075
4.192,-0.170,-0.075
4.194,-0.200,-0.080
4.196,-0.205,-0.080
4.198,-0.190,-0.085
4.200,-0.165,-0.085
4.202,-0.120,-0.085
4.204,-0.085,-0.085
4.206,-0.075,-0.085
4.208,-0.090,-0.085
4.210,-0.110,-0.080
4.212,-0.160,-0.080
4.214,-0.195,-0.080
4.216,-0.215,-0.080
4.218,-0.200,-0.080
4.220,-0.175,-0.080
4.222,-0.155,-0.085
4.224,-0.120,-0.085
4.226,-0.115,-0.090
4.228,-0.125,-0.095
4.230,-0.170,-0.095
4.232,-0.220,-0.095
4.234,-0.225,-0.085
4.236,-0.215,-0.070
4.238,-0.145,-0.040
4.240,-0.045,0.000
4.242,0.065,0.055
4.244,0.135,0.125
4.246,0.205,0.205
4.248,0.240,0.295
4.250,0.310,0.385
4.252,0.365,0.480
4.254,0.485,0.570
4.256,0.590,0.640
4.258,0.625,0.690
4.260,0.670,0.710
4.262,0.655,0.700
4.264,0.625,0.660
4.266,0.545,0.585
4.268,0.450,0.485
4.270,0.295,0.370
4.272,0.120,0.245
4.274,-0.035,0.130
4.276,-0.155,0.025
4.278,-0.240,-0.050
4.280,-0.215,-0.105
4.282,-0.150,-0.130
4.284,-0.130,-0.135
4.286,-0.105,-0.120
4.288,-0.095,-0.095
4.290,-0.110,-0.070
4.292,-0.140,-0.050
4.294,-0.155,-0.035
4.296,-0.155,-0.030
4.298,-0.145,-0.030
4.300,-0.110,-0.035
4.302,-0.075,-0.040
4.304,-0.035,-0.040
4.306,-0.045,-0.040
4.308,-0.065,-0.035
4.310,-0.110,-0.035
4.312,-0.160,-0.030
4.314,-0.175,-0.030
4.316,-0.165,-0.030
4.318,-0.140,-0.035
4.320,-0.110,-0.040
4.322,-0.075,-0.045
4.324,-0.050,-0.045
4.326,-0.040,-0.050
4.328,-0.065,-0.045
4.330,-0.105,-0.045
4.332,-0.150,-0.040
4.334,-0.155,-0.040
4.336,-0.155,-0.035
4.338,-0.125,-0.035
4.340,-0.080,-0.040
4.342,-0.045,-0.040
4.344,-0.025,-0.040
4.346,-0.030,-0.035
4.348,-0.060,-0.030
4.350,-0.085,-0.020
4.352,-0.150,-0.015
4.354,-0.135,-0.005
4.356,-0.125,0.000
4.358,-0.110,0.005
4.360,-0.075,0.005
4.362,-0.035,0.005
4.364,-0.020,0.000
4.366,-0.040,-0.005
4.368,-0.050,-0.005
4.370,-0.085,-0.005
4.372,-0.125,0.000
4.374,-0.115,0.005
4.376,-0.145,0.005
4.378,-0.095,0.010
4.380,-0.040,0.010
4.382,-0.010,0.005
4.384,-0.010,0.005
4.386,-0.020,0.000
4.388,-0.040,-0.005
4.390,-0.075,-0.010
4.392,-0.105,-0.010
4.394,-0.120,-0.010
4.396,-0.100,-0.005
4.398,-0.075,0.000
4.400,-0.030,0.010
4.402,0.005,0.015
4.404,0.020,0.020
4.406,0.005,0.020
4.408,-0.015,0.020
4.410,-0.045,0.025
4.412,-0.075,0.025
4.414,-0.085,0.030
4.416,-0.060,0.030
4.418,-0.040,0.035
4.420,0.000,0.045
4.422,0.045,0.050
4.424,0.060,0.055
4.426,0.050,0.060
4.428,0.020,0.065
4.430,0.000,0.075
4.432,-0.035,0.080
4.434,-0.045,0.085
4.436,-0.025,0.090
4.438,0.010,0.095
4.440,0.045,0.105
4.442,0.080,0.110
4.444,0.120,0.115
4.446,0.105,0.125
4.448,0.080,0.130
4.450,0.060,0.135
4.452,0.040,0.140
4.454,0.035,0.145
4.456,0.060,0.150
4.458,0.090,0.160
4.460,0.140,0.165
4.462,0.165,0.175
4.464,0.175,0.180
4.466,0.175,0.190
4.468,0.160,0.195
4.470,0.110,0.200
4.472,0.080,0.205
4.474,0.075,0.205
4.476,0.085,0.210
4.478,0.115,0.210
4.480,0.175,0.210
4.482,0.210,0.210
4.484,0.215,0.210
4.486,0.195,0.210
4.488,0.170,0.210
4.490,0.130,0.215
4.492,0.095,0.215
4.494,0.085,0.220
4.496,0.100,0.220
4.498,0.120,0.220
4.500,0.155,0.220
4.502,0.175,0.215
4.504,0.170,0.210
4.506,0.135,0.195
4.508,0.095,0.185
4.510,0.045,0.165
4.512,0.015,0.150
4.514,-0.005,0.135
4.516,-0.010,0.120
4.518,0.000,0.105
4.520,0.040,0.095
4.522,0.060,0.085
4.524,0.050,0.075
4.526,0.025,0.065
4.528,-0.010,0.055
4.530,-0.075,0.045
4.532,-0.105,0.035
4.534,-0.105,0.030
4.536,-0.095,0.020
4.538,-0.080,0.015
4.540,-0.035,0.010
4.542,-0.025,0.005
4.544,-0.025,0.000
4.546,-0.050,-0.005
4.548,-0.085,-0.010
4.550,-0.140,-0.015
4.552,-0.165,-0.020
4.554,-0.165,-0.025
4.556,-0.140,-0.035
4.558,-0.125,-0.045
4.560,-0.085,-0.050
4.562,-0.065,-0.055
4.564,-0.060,-0.060
4.566,-0.080,-0.065
4.568,-0.105,-0.065
4.570,-0.165,-0.065
4.572,-0.200,-0.065
4.574,-0.195,-0.065
4.576,-0.190,-0.065
4.578,-0.135,-0.065
4.580,-0.095,-0.070
4.582,-0.085,-0.070
4.584,-0.080,-0.075
4.586,-0.090,-0.075
4.588,-0.130,-0.075
4.590,-0.175,-0.075
4.592,-0.190,-0.070
4.594,-0.205,-0.065
4.596,-0.170,-0.060
4.598,-0.130,-0.055
4.600,-0.090,-0.055
4.602,-0.075,-0.050
4.604,-0.090,-0.050
4.606,-0.110,-0.055
4.608,-0.135,-0.055
4.610,-0.170,-0.060
4.612,-0.185,-0.065
4.614,-0.205,-0.065
4.616,-0.170,-0.065
4.618,-0.110,-0.065
4.620,-0.075,-0.065
4.622,-0.060,-0.065
4.624,-0.065,-0.065
4.626,-0.090,-0.065
4.628,-0.125,-0.065
4.630,-0.190,-0.065
4.632,-0.190,-0.065
4.634,-0.175,-0.065
4.636,-0.150,-0.065
4.638,-0.110,-0.060
4.640,-0.085,-0.060
4.642,-0.080,-0.055
4.644,-0.080,-0.050
4.646,-0.100,-0.050
4.648,-0.130,-0.050
4.650,-0.155,-0.055
4.652,-0.155,-0.060
4.654,-0.185,-0.065
4.656,-0.155,-0.065
4.658,-0.110,-0.070
4.660,-0.075,-0.070
4.662,-0.065,-0.070
4.664,-0.065,-0.065
4.666,-0.080,-0.060
4.668,-0.100,-0.055
4.670,-0.170,-0.050
4.672,-0.205,-0.045
4.674,-0.190,-0.040
4.676,-0.140,-0.035
4.678,-0.090,-0.030
4.680,-0.065,-0.030
4.682,-0.050,-0.030
4.684,-0.060,-0.030
4.686,-0.080,-0.035
4.688,-0.130,-0.040
4.690,-0.165,-0.045
4.692,-0.180,-0.055
4.694,-0.165,-0.060
4.696,-0.155,-0.065
4.698,-0.110,-0.070
4.700,-0.080,-0.070
4.702,-0.055,-0.070
4.704,-0.065,-0.065
4.706,-0.070,-0.060
4.708,-0.120,-0.050
4.710,-0.160,-0.045
4.712,-0.180,-0.040
4.714,-0.165,-0.040
4.716,-0.145,-0.045
4.718,-0.095,-0.050
4.720,-0.075,-0.055
4.722,-0.075,-0.060
4.724,-0.085,-0.065
4.726,-0.105,-0.070
4.728,-0.135,-0.070
4.730,-0.150,-0.065
4.732,-0.170,-0.060
4.734,-0.195,-0.055
4.736,-0.150,-0.050
4.738,-0.100,-0.045
4.740,-0.085,-0.040
4.742,-0.070,-0.040
4.744,-0.080,-0.040
4.746,-0.115,-0.040
4.748,-0.145,-0.045
4.750,-0.190,-0.050
4.752,-0.190,-0.055
4.754,-0.170,-0.060
4.756,-0.160,-0.060
4.758,-0.080,-0.060
4.760,-0.085,-0.060
4.762,-0.065,-0.060
4.764,-0.075,-0.055
4.766,-0.100,-0.055
4.768,-0.155,-0.055
4.770,-0.185,-0.055
4.772,-0.200,-0.060
4.774,-0.180,-0.065
4.776,-0.170,-0.070
4.778,-0.105,-0.075
4.780,-0.090,-0.080
4.782,-0.075,-0.085
4.784,-0.085,-0.085
4.786,-0.115,-0.085
4.788,-0.170,-0.080
4.790,-0.185,-0.075
4.792,-0.190,-0.065
4.794,-0.165,-0.060
4.796,-0.140,-0.055
4.798,-0.090,-0.055
4.800,-0.075,-0.055
4.802,-0.080,-0.055
4.804,-0.090,-0.060
4.806,-0.130,-0.065
4.808,-0.170,-0.065
4.810,-0.195,-0.070
4.812,-0.200,-0.070
4.814,-0.190,-0.070
4.816,-0.170,-0.070
4.818,-0.110,-0.070
4.820,-0.085,-0.065
4.822,-0.095,-0.065
4.824,-0.095,-0.060
4.826,-0.120,-0.065
4.828,-0.155,-0.065
4.830,-0.190,-0.065
4.832,-0.200,-0.070
4.834,-0.180,-0.075
4.836,-0.145,-0.075
4.838,-0.120,-0.075
4.840,-0.080,-0.070
4.842,-0.085,-0.070
4.844,-0.115,-0.065
4.846,-0.130,-0.060
4.848,-0.160,-0.060
4.850,-0.190,-0.055
4.852,-0.195,-0.055
4.854,-0.165,-0.055
4.856,-0.130,-0.055
4.858,-0.095,-0.060
4.860,-0.090,-0.060
4.862,-0.090,-0.060
4.864,-0.105,-0.065
4.866,-0.130,-0.065
4.868,-0.180,-0.070
4.870,-0.200,-0.070
4.872,-0.200,-0.075
4.874,-0.170,-0.085
4.876,-0.155,-0.090
4.878,-0.095,-0.090
4.880,-0.075,-0.095
4.882,-0.075,-0.095
4.884,-0.090,-0.090
4.886,-0.125,-0.085
4.888,-0.190,-0.080
4.890,-0.215,-0.070
4.892,-0.195,-0.065
4.894,-0.175,-0.060
4.896,-0.140,-0.060
4.898,-0.090,-0.065
4.900,-0.050,-0.065
4.902,-0.065,-0.070
4.904,-0.080,-0.075
4.906,-0.115,-0.075
4.908,-0.150,-0.075
4.910,-0.165,-0.070
4.912,-0.170,-0.065
4.914,-0.150,-0.060
4.916,-0.100,-0.055
4.918,-0.070,-0.055
4.920,-0.045,-0.050
4.922,-0.035,-0.050
4.924,-0.075,-0.050
4.926,-0.115,-0.050
4.928,-0.165,-0.045
4.930,-0.165,-0.045
4.932,-0.155,-0.040
4.934,-0.115,-0.035
4.936,-0.075,-0.025
4.938,-0.030,-0.020
4.940,-0.015,-0.015
4.942,-0.015,-0.015
4.944,-0.040,-0.010
4.946,-0.080,-0.010
4.948,-0.135,-0.010
4.950,-0.135,-0.010
4.952,-0.125,-0.010
4.954,-0.110,-0.010
4.956,-0.065,-0.010
4.958,-0.025,-0.010
4.960,-0.015,-0.010
4.962,-0.035,-0.015
4.964,-0.065,-0.015
4.966,-0.115,-0.020
4.968,-0.150,-0.025
4.970,-0.175,-0.030
4.972,-0.180,-0.040
4.974,-0.155,-0.045
4.976,-0.105,-0.055
4.978,-0.075,-0.060
4.980,-0.065,-0.060
4.982,-0.080,-0.065
4.984,-0.095,-0.065
4.986,-0.145,-0.065
4.988,-0.175,-0.065
4.990,-0.185,-0.065
4.992,-0.175,-0.065
4.994,-0.160,-0.065
4.996,-0.115,-0.065
4.998,-0.090,-0.065
5.000,-0.070,-0.065
5.002,-0.085,-0.065
5.004,-0.105,-0.065
5.006,-0.135,-0.065
5.008,-0.175,-0.065
5.010,-0.185,-0.065
5.012,-0.185,-0.065
5.014,-0.170,-0.065
5.016,-0.125,-0.065
5.018,-0.090,-0.065
5.020,-0.080,-0.070
5.022,-0.080,-0.070
5.024,-0.100,-0.070
5.026,-0.140,-0.070
5.028,-0.200,-0.070
5.030,-0.200,-0.070
5.032,-0.195,-0.065
5.034,-0.165,-0.065
5.036,-0.120,-0.065
5.038,-0.085,-0.065
5.040,-0.070,-0.070
5.042,-0.085,-0.070
5.044,-0.130,-0.075
5.046,-0.155,-0.075
5.048,-0.170,-0.075
5.050,-0.205,-0.075
5.052,-0.195,-0.080
5.054,-0.150,-0.080
5.056,-0.120,-0.085
5.058,-0.095,-0.090
5.060,-0.100,-0.095
5.062,-0.140,-0.105
5.064,-0.160,-0.105
5.066,-0.200,-0.105
5.068,-0.220,-0.090
5.070,-0.185,-0.065
5.072,-0.100,-0.030
5.074,-0.005,0.025
5.076,0.090,0.095
5.078,0.185,0.175
5.080,0.265,0.265
5.082,0.325,0.360
5.084,0.415,0.455
5.086,0.495,0.540
5.088,0.575,0.615
5.090,0.610,0.660
5.092,0.640,0.685
5.094,0.620,0.680
5.096,0.600,0.640
5.098,0.545,0.570
5.100,0.465,0.475
5.102,0.335,0.365
5.104,0.180,0.245
5.106,-0.005,0.125
5.108,-0.145,0.020
5.110,-0.250,-0.065
5.112,-0.255,-0.125
5.114,-0.225,-0.160
5.116,-0.180,-0.170
5.118,-0.135,-0.160
5.120,-0.125,-0.135
5.122,-0.110,-0.105
5.124,-0.095,-0.080
5.126,-0.120,-0.060
5.128,-0.145,-0.045
5.130,-0.150,-0.040
5.132,-0.140,-0.040
5.134,-0.125,-0.050
5.136,-0.075,-0.055
5.138,-0.050,-0.060
5.140,-0.055,-0.060
5.142,-0.065,-0.060
5.144,-0.105,-0.055
5.146,-0.140,-0.050
5.148,-0.165,-0.040
5.150,-0.145,-0.040
5.152,-0.135,-0.035
5.154,-0.120,-0.035
5.156,-0.065,-0.040
5.158,-0.055,-0.040
5.160,-0.045,-0.045
5.162,-0.055,-0.045
5.164,-0.080,-0.045
5.166,-0.120,-0.040
5.168,-0.140,-0.040
5.170,-0.150,-0.035
5.172,-0.120,-0.035
5.174,-0.090,-0.030
5.176,-0.045,-0.030
5.178,-0.025,-0.030
5.180,-0.030,-0.030
5.182,-0.045,-0.030
5.184,-0.075,-0.025
5.186,-0.115,-0.025
5.188,-0.125,-0.025
5.190,-0.115,-0.025
5.192,-0.110,-0.020
5.194,-0.070,-0.020
5.196,-0.020,-0.015
5.198,-0.010,-0.015
5.200,-0.010,-0.015
5.202,-0.030,-0.015
5.204,-0.055,-0.010
5.206,-0.085,-0.010
5.208,-0.095,-0.005
5.210,-0.095,0.000
5.212,-0.080,0.005
5.214,-0.075,0.010
5.216,-0.020,0.015
5.218,0.000,0.015
5.220,0.015,0.020
5.222,-0.005,0.020
5.224,-0.035,0.020
5.226,-0.085,0.020
5.228,-0.085,0.020
5.230,-0.090,0.015
5.232,-0.065,0.015
5.234,-0.015,0.020
5.236,0.030,0.020
5.238,0.040,0.025
5.240,0.040,0.025
5.242,0.010,0.030
5.244,-0.010,0.030
5.246,-0.035,0.035
5.248,-0.050,0.035
5.250,-0.050,0.035
5.252,-0.020,0.040
5.254,0.010,0.045
5.256,0.050,0.050
5.258,0.085,0.055
5.260,0.085,0.065
5.262,0.070,0.075
5.264,0.040,0.085
5.266,0.000,0.100
5.268,0.000,0.110
5.270,0.015,0.120
5.272,0.040,0.130
5.274,0.095,0.135
5.276,0.130,0.140
5.278,0.160,0.145
5.280,0.150,0.145
5.282,0.125,0.150
5.284,0.080,0.155
5.286,0.070,0.160
5.288,0.070,0.165
5.290,0.075,0.170
5.292,0.110,0.180
5.294,0.160,0.185
5.296,0.195,0.190
5.298,0.210,0.200
5.300,0.220,0.200
5.302,0.190,0.205
5.304,0.165,0.210
5.306,0.120,0.210
5.308,0.095,0.215
5.310,0.125,0.220
5.312,0.150,0.220
5.314,0.190,0.225
5.316,0.235,0.230
5.318,0.245,0.230
5.320,0.245,0.235
5.322,0.230,0.235
5.324,0.170,0.235
5.326,0.125,0.235
5.328,0.105,0.230
5.330,0.100,0.225
5.332,0.120,0.215
5.334,0.170,0.210
5.336,0.190,0.200
5.338,0.185,0.190
5.340,0.175,0.185
5.342,0.160,0.175
5.344,0.100,0.170
5.346,0.060,0.160
5.348,0.020,0.150
5.350,0.035,0.140
5.352,0.040,0.130
5.354,0.060,0.115
5.356,0.075,0.100
5.358,0.065,0.085
5.360,0.040,0.070
5.362,0.020,0.060
5.364,-0.040,0.045
5.366,-0.060,0.040
5.368,-0.080,0.030
5.370,-0.070,0.025
5.372,-0.055,0.020
5.374,-0.015,0.015
5.376,-0.005,0.015
5.378,0.000,0.010
5.380,-0.025,0.000
5.382,-0.065,-0.005
5.384,-0.110,-0.010
5.386,-0.135,-0.015
5.388,-0.145,-0.020
5.390,-0.130,-0.025
5.392,-0.115,-0.030
5.394,-0.075,-0.035
5.396,-0.050,-0.040
5.398,-0.025,-0.045
5.400,-0.065,-0.050
5.402,-0.085,-0.055
5.404,-0.115,-0.055
5.406,-0.140,-0.055
5.408,-0.170,-0.055
5.410,-0.140,-0.050
5.412,-0.125,-0.050
5.414,-0.080,-0.045
5.416,-0.065,-0.045
5.418,-0.055,-0.050
5.420,-0.075,-0.055
5.422,-0.090,-0.060
5.424,-0.145,-0.065
5.426,-0.175,-0.070
5.428,-0.165,-0.070
5.430,-0.140,-0.075
5.432,-0.140,-0.075
5.434,-0.075,-0.075
5.436,-0.055,-0.070
5.438,-0.055,-0.070
5.440,-0.075,-0.070
5.442,-0.105,-0.065
5.444,-0.145,-0.065
5.446,-0.155,-0.065
5.448,-0.155,-0.060
5.450,-0.145,-0.060
5.452,-0.105,-0.060
5.454,-0.060,-0.060
5.456,-0.040,-0.060
5.458,-0.045,-0.060
5.460,-0.080,-0.060
5.462,-0.110,-0.060
5.464,-0.140,-0.065
5.466,-0.160,-0.065
5.468,-0.160,-0.065
5.470,-0.130,-0.065
5.472,-0.110,-0.065
5.474,-0.065,-0.060
5.476,-0.040,-0.060
5.478,-0.030,-0.055
5.480,-0.055,-0.050
5.482,-0.085,-0.045
5.484,-0.135,-0.040
5.486,-0.150,-0.040
5.488,-0.155,-0.040
5.490,-0.155,-0.040
5.492,-0.095,-0.045
5.494,-0.065,-0.045
5.496,-0.025,-0.045
5.498,-0.020,-0.045
5.500,-0.055,-0.045
5.502,-0.095,-0.040
5.504,-0.140,-0.040
5.506,-0.145,-0.035
5.508,-0.145,-0.035
5.510,-0.125,-0.030
5.512,-0.095,-0.030
5.514,-0.050,-0.030
5.516,-0.025,-0.030
5.518,-0.030,-0.030
5.520,-0.055,-0.030
5.522,-0.095,-0.030
5.524,-0.130,-0.035
5.526,-0.145,-0.040
5.528,-0.145,-0.045
5.530,-0.115,-0.045
5.532,-0.100,-0.050
5.534,-0.060,-0.050
5.536,-0.050,-0.050
5.538,-0.030,-0.045
5.540,-0.055,-0.045
5.542,-0.100,-0.040
5.544,-0.130,-0.035
5.546,-0.135,-0.035
5.548,-0.135,-0.035
5.550,-0.115,-0.035
5.552,-0.075,-0.040
5.554,-0.060,-0.045
5.556,-0.040,-0.045
5.558,-0.040,-0.050
5.560,-0.065,-0.050
5.562,-0.100,-0.050
5.564,-0.145,-0.045
5.566,-0.140,-0.040
5.568,-0.155,-0.040
5.570,-0.120,-0.040
5.572,-0.085,-0.040
5.574,-0.055,-0.040
5.576,-0.045,-0.045
5.578,-0.040,-0.045
5.580,-0.070,-0.050
5.582,-0.100,-0.055
5.584,-0.145,-0.060
5.586,-0.155,-0.060
5.588,-0.170,-0.065
5.590,-0.125,-0.065
5.592,-0.085,-0.065
5.594,-0.065,-0.065
5.596,-0.050,-0.065
5.598,-0.045,-0.065
5.600,-0.080,-0.060
5.602,-0.125,-0.060
5.604,-0.150,-0.060
5.606,-0.165,-0.055
5.608,-0.160,-0.055
5.610,-0.140,-0.055
5.612,-0.085,-0.055
5.614,-0.055,-0.055
5.616,-0.050,-0.055
5.618,-0.050,-0.055
5.620,-0.080,-0.055
5.622,-0.110,-0.055
5.624,-0.155,-0.055
5.626,-0.145,-0.055
5.628,-0.150,-0.055
5.630,-0.135,-0.055
5.632,-0.090,-0.055
5.634,-0.070,-0.055
5.636,-0.050,-0.060
5.638,-0.070,-0.065
5.640,-0.080,-0.065
5.642,-0.115,-0.070
5.644,-0.160,-0.070
5.646,-0.175,-0.070
5.648,-0.155,-0.070
5.650,-0.125,-0.065
5.652,-0.060,-0.065
5.654,-0.050,-0.065
5.656,-0.060,-0.060
5.658,-0.060,-0.060
5.660,-0.080,-0.055
5.662,-0.125,-0.055
5.664,-0.150,-0.055
5.666,-0.160,-0.050
5.668,-0.150,-0.050
5.670,-0.125,-0.050
5.672,-0.090,-0.050
5.674,-0.060,-0.050
5.676,-0.055,-0.050
5.678,-0.045,-0.055
5.680,-0.065,-0.055
5.682,-0.130,-0.055
5.684,-0.155,-0.060
5.686,-0.150,-0.060
5.688,-0.125,-0.055
5.690,-0.100,-0.055
5.692,-0.060,-0.050
5.694,-0.050,-0.050
5.696,-0.040,-0.045
5.698,-0.045,-0.045
5.700,-0.060,-0.045
5.702,-0.105,-0.045
5.704,-0.125,-0.045
5.706,-0.130,-0.045
5.708,-0.120,-0.045
5.710,-0.100,-0.040
5.712,-0.045,-0.040
5.714,-0.015,-0.035
5.716,-0.015,-0.025
5.718,-0.025,-0.020
5.720,-0.060,-0.020
5.722,-0.105,-0.015
5.724,-0.115,-0.015
5.726,-0.110,-0.010
5.728,-0.085,-0.010
5.730,-0.065,-0.010
5.732,-0.020,-0.015
5.734,-0.015,-0.015
5.736,0.000,-0.010
5.738,-0.005,-0.010
5.740,-0.040,-0.010
5.742,-0.075,-0.010
5.744,-0.105,-0.010
5.746,-0.125,-0.010
5.748,-0.105,-0.010
5.750,-0.065,-0.010
5.752,-0.025,-0.015
5.754,-0.020,-0.015
5.756,-0.020,-0.020
5.758,-0.055,-0.025
5.760,-0.100,-0.030
5.762,-0.140,-0.035
5.764,-0.160,-0.040
5.766,-0.170,-0.045
5.768,-0.155,-0.050
5.770,-0.115,-0.055
5.772,-0.070,-0.060
5.774,-0.070,-0.065
5.776,-0.060,-0.070
5.778,-0.085,-0.075
5.780,-0.120,-0.075
5.782,-0.175,-0.075
5.784,-0.175,-0.075
5.786,-0.190,-0.075
5.788,-0.160,-0.075
5.790,-0.125,-0.075
5.792,-0.090,-0.075
5.794,-0.075,-0.075
5.796,-0.065,-0.075
5.798,-0.085,-0.075
5.800,-0.115,-0.075
5.802,-0.160,-0.080
5.804,-0.170,-0.080
5.806,-0.175,-0.080
5.808,-0.150,-0.080
5.810,-0.120,-0.075
5.812,-0.095,-0.075
5.814,-0.080,-0.075
5.816,-0.090,-0.075
5.818,-0.080,-0.075
5.820,-0.120,-0.080
5.822,-0.170,-0.085
5.824,-0.180,-0.090
5.826,-0.195,-0.095
5.828,-0.165,-0.095
5.830,-0.125,-0.100
5.832,-0.095,-0.100
5.834,-0.075,-0.095
5.836,-0.075,-0.090
5.838,-0.100,-0.090
5.840,-0.145,-0.085
5.842,-0.195,-0.085
5.844,-0.195,-0.090
5.846,-0.215,-0.095
5.848,-0.205,-0.105
5.850,-0.175,-0.115
5.852,-0.145,-0.120
5.854,-0.125,-0.120
5.856,-0.100,-0.110
5.858,-0.090,-0.085
5.860,-0.060,-0.045
5.862,-0.030,0.010
5.864,0.000,0.075
5.866,0.070,0.160
5.868,0.170,0.250
5.870,0.305,0.350
5.872,0.445,0.445
5.874,0.585,0.530
5.876,0.685,0.600
5.878,0.695,0.650
5.880,0.675,0.670
5.882,0.590,0.655
5.884,0.515,0.610
5.886,0.435,0.540
5.888,0.335,0.440
5.890,0.255,0.320
5.892,0.180,0.200
5.894,0.045,0.080
5.896,-0.080,-0.025
5.898,-0.185,-0.110
5.900,-0.225,-0.165
5.902,-0.250,-0.190
5.904,-0.265,-0.195
5.906,-0.245,-0.175
5.908,-0.195,-0.145
5.910,-0.110,-0.110
5.912,-0.065,-0.080
5.914,-0.035,-0.055
5.916,-0.030,-0.040
5.918,-0.050,-0.035
5.920,-0.095,-0.035
5.922,-0.130,-0.040
5.924,-0.145,-0.045
5.926,-0.140,-0.050
5.928,-0.125,-0.055
5.930,-0.075,-0.050
5.932,-0.040,-0.050
5.934,-0.035,-0.045
5.936,-0.050,-0.040
5.938,-0.065,-0.040
5.940,-0.105,-0.035
5.942,-0.115,-0.035
5.944,-0.130,-0.035
5.946,-0.125,-0.035
5.948,-0.105,-0.035
5.950,-0.060,-0.035
5.952,-0.030,-0.030
5.954,-0.020,-0.030
5.956,-0.030,-0.025
5.958,-0.070,-0.025
5.960,-0.100,-0.025
5.962,-0.110,-0.025
5.964,-0.115,-0.025
5.966,-0.125,-0.030
5.968,-0.100,-0.030
5.970,-0.050,-0.035
5.972,-0.015,-0.035
5.974,0.000,-0.035
5.976,-0.005,-0.035
5.978,-0.050,-0.035
5.980,-0.095,-0.030
5.982,-0.110,-0.025
5.984,-0.110,-0.020
5.986,-0.090,-0.015
5.988,-0.070,-0.010
5.990,-0.015,-0.005
5.992,0.005,0.000
5.994,-0.005,0.000
5.996,-0.010,0.000
5.998,-0.025,0.000
6.000,-0.075,-0.005
6.002,-0.095,-0.005
6.004,-0.100,-0.005
6.006,-0.080,-0.005
6.008,-0.050,-0.005
6.010,0.005,0.000
6.012,0.025,0.000
6.014,0.035,0.000
6.016,0.020,0.005
6.018,0.000,0.005
6.020,-0.035,0.005
6.022,-0.065,0.010
6.024,-0.075,0.010
6.026,-0.040,0.015
6.028,-0.020,0.020
6.030,0.030,0.030
6.032,0.040,0.035
6.034,0.055,0.045
6.036,0.050,0.055
6.038,0.020,0.060
6.040,-0.015,0.070
6.042,-0.025,0.075
6.044,-0.025,0.080
6.046,-0.010,0.080
6.048,0.035,0.085
6.050,0.095,0.085
6.052,0.110,0.090
6.054,0.105,0.090
6.056,0.090,0.095
6.058,0.065,0.100
6.060,0.045,0.105
6.062,0.020,0.110
6.064,0.025,0.115
6.066,0.070,0.125
6.068,0.105,0.130
6.070,0.155,0.140
6.072,0.190,0.150
6.074,0.190,0.155
6.076,0.170,0.165
6.078,0.150,0.175
6.080,0.105,0.180
6.082,0.090,0.185
6.084,0.105,0.195
6.086,0.130,0.200
6.088,0.155,0.205
6.090,0.205,0.210
6.092,0.230,0.215
6.094,0.245,0.220
6.096,0.210,0.220
6.098,0.180,0.220
6.100,0.130,0.220
6.102,0.125,0.220
6.104,0.130,0.215
6.106,0.140,0.215
6.108,0.185,0.210
6.110,0.225,0.210
6.112,0.230,0.210
6.114,0.230,0.210
6.116,0.205,0.210
6.118,0.165,0.210
6.120,0.115,0.210
6.122,0.100,0.205
6.124,0.075,0.200
6.126,0.095,0.190
6.128,0.120,0.180
6.130,0.150,0.165
6.132,0.140,0.155
6.134,0.130,0.140
6.136,0.100,0.130
6.138,0.055,0.115
6.140,0.005,0.105
6.142,-0.025,0.095
6.144,-0.030,0.085
6.146,-0.030,0.070
6.148,0.000,0.060
6.150,0.050,0.045
6.152,0.050,0.035
6.154,0.025,0.025
6.156,-0.015,0.015
6.158,-0.040,0.005
6.160,-0.080,0.000
6.162,-0.095,-0.005
6.164,-0.120,-0.010
6.166,-0.105,-0.010
6.168,-0.060,-0.015
6.170,-0.025,-0.015
6.172,-0.020,-0.020
6.174,-0.025,-0.020
6.176,-0.060,-0.020
6.178,-0.095,-0.020
6.180,-0.130,-0.020
6.182,-0.150,-0.025
6.184,-0.150,-0.025
6.186,-0.115,-0.030
6.188,-0.075,-0.030
6.190,-0.050,-0.035
6.192,-0.040,-0.045
6.194,-0.045,-0.050
6.196,-0.100,-0.055
6.198,-0.145,-0.065
6.200,-0.165,-0.065
6.202,-0.175,-0.070
6.204,-0.170,-0.070
6.206,-0.135,-0.075
6.208,-0.095,-0.075
6.210,-0.060,-0.070
6.212,-0.050,-0.070
6.214,-0.060,-0.070
6.216,-0.080,-0.070
6.218,-0.130,-0.070
6.220,-0.155,-0.070
6.222,-0.180,-0.070
6.224,-0.170,-0.070
6.226,-0.150,-0.070
6.228,-0.085,-0.070
6.230,-0.070,-0.070
6.232,-0.050,-0.070
6.234,-0.060,-0.070
6.236,-0.110,-0.070
6.238,-0.130,-0.070
6.240,-0.150,-0.075
6.242,-0.170,-0.075
6.244,-0.155,-0.075
6.246,-0.125,-0.075
6.248,-0.080,-0.075
6.250,-0.055,-0.070
6.252,-0.035,-0.070
6.254,-0.055,-0.065
6.256,-0.080,-0.060
6.258,-0.125,-0.060
6.260,-0.145,-0.055
6.262,-0.160,-0.055
6.264,-0.145,-0.050
6.266,-0.120,-0.050
6.268,-0.085,-0.045
6.270,-0.040,-0.040
6.272,-0.035,-0.040
6.274,-0.045,-0.035
6.276,-0.075,-0.035
6.278,-0.120,-0.035
6.280,-0.145,-0.040
6.282,-0.145,-0.040
6.284,-0.140,-0.045
6.286,-0.115,-0.050
6.288,-0.075,-0.055
6.290,-0.035,-0.055
6.292,-0.040,-0.060
6.294,-0.060,-0.060
6.296,-0.080,-0.060
6.298,-0.120,-0.060
6.300,-0.150,-0.055
6.302,-0.155,-0.055
6.304,-0.145,-0.055
6.306,-0.110,-0.050
6.308,-0.060,-0.050
6.310,-0.045,-0.050
6.312,-0.040,-0.050
6.314,-0.050,-0.050
6.316,-0.065,-0.050
6.318,-0.110,-0.045
6.320,-0.150,-0.045
6.322,-0.155,-0.045
6.324,-0.145,-0.045
6.326,-0.110,-0.050
6.328,-0.080,-0.050
6.330,-0.055,-0.055
6.332,-0.040,-0.055
6.334,-0.055,-0.060
6.336,-0.085,-0.060
6.338,-0.120,-0.060
6.340,-0.150,-0.060
6.342,-0.160,-0.055
6.344,-0.150,-0.055
6.346,-0.120,-0.050
6.348,-0.065,-0.050
6.350,-0.035,-0.045
6.352,-0.035,-0.045
6.354,-0.075,-0.045
6.356,-0.080,-0.045
6.358,-0.135,-0.045
6.360,-0.160,-0.045
6.362,-0.145,-0.050
6.364,-0.125,-0.050
6.366,-0.105,-0.055
6.368,-0.065,-0.055
6.370,-0.060,-0.055
6.372,-0.055,-0.055
6.374,-0.070,-0.055
6.376,-0.105,-0.055
6.378,-0.155,-0.055
6.380,-0.160,-0.060
6.382,-0.145,-0.060
6.384,-0.145,-0.060
6.386,-0.105,-0.060
6.388,-0.060,-0.060
6.390,-0.060,-0.065
6.392,-0.045,-0.065
6.394,-0.065,-0.065
6.396,-0.105,-0.060
6.398,-0.150,-0.060
6.400,-0.165,-0.060
6.402,-0.165,-0.055
6.404,-0.135,-0.055
6.406,-0.125,-0.055
6.408,-0.055,-0.055
6.410,-0.030,-0.055
6.412,-0.045,-0.060
6.414,-0.090,-0.060
6.416,-0.120,-0.060
6.418,-0.145,-0.060
6.420,-0.170,-0.065
6.422,-0.165,-0.065
6.424,-0.140,-0.065
6.426,-0.100,-0.065
6.428,-0.065,-0.065
6.430,-0.055,-0.065
6.432,-0.055,-0.065
6.434,-0.090,-0.065
6.436,-0.110,-0.065
6.438,-0.150,-0.060
6.440,-0.150,-0.060
6.442,-0.160,-0.060
6.444,-0.135,-0.060
6.446,-0.100,-0.055
6.448,-0.075,-0.055
6.450,-0.055,-0.060
6.452,-0.060,-0.060
6.454,-0.070,-0.060
6.456,-0.110,-0.060
6.458,-0.160,-0.065
6.460,-0.160,-0.065
6.462,-0.175,-0.065
6.464,-0.160,-0.065
6.466,-0.115,-0.065
6.468,-0.055,-0.070
6.470,-0.040,-0.070
6.472,-0.065,-0.070
6.474,-0.085,-0.065
6.476,-0.125,-0.065
6.478,-0.160,-0.065
6.480,-0.150,-0.060
6.482,-0.145,-0.055
6.484,-0.130,-0.055
6.486,-0.090,-0.050
6.488,-0.070,-0.050
6.490,-0.060,-0.050
6.492,-0.075,-0.050
6.494,-0.080,-0.050
6.496,-0.115,-0.050
6.498,-0.140,-0.055
6.500,-0.150,-0.060
6.502,-0.130,-0.060
6.504,-0.095,-0.060
6.506,-0.070,-0.060
6.508,-0.045,-0.060
6.510,-0.040,-0.055
6.512,-0.045,-0.050
6.514,-0.055,-0.045
6.516,-0.115,-0.040
6.518,-0.150,-0.040
6.520,-0.140,-0.035
6.522,-0.125,-0.035
6.524,-0.100,-0.035
6.526,-0.070,-0.035
6.528,-0.030,-0.035
6.530,-0.005,-0.035
6.532,-0.025,-0.035
6.534,-0.050,-0.030
6.536,-0.095,-0.025
6.538,-0.115,-0.015
6.540,-0.100,-0.010
6.542,-0.090,-0.005
6.544,-0.080,0.000
6.546,-0.040,0.000
6.548,-0.020,0.000
6.550,0.015,0.000
6.552,0.010,-0.005
6.554,-0.010,-0.005
6.556,-0.075,-0.010
6.558,-0.100,-0.010
6.560,-0.120,-0.010
6.562,-0.125,-0.015
6.564,-0.100,-0.020
6.566,-0.050,-0.025
6.568,-0.025,-0.030
6.570,-0.030,-0.040
6.572,-0.055,-0.045
6.574,-0.085,-0.055
6.576,-0.140,-0.065
6.578,-0.165,-0.070
6.580,-0.180,-0.075
6.582,-0.160,-0.075
6.584,-0.150,-0.075
6.586,-0.090,-0.075
6.588,-0.045,-0.070
6.590,-0.050,-0.070
6.592,-0.060,-0.065
6.594,-0.090,-0.065
6.596,-0.130,-0.065
6.598,-0.175,-0.065
6.600,-0.185,-0.065
6.602,-0.165,-0.065
6.604,-0.130,-0.070
6.606,-0.085,-0.070
6.608,-0.060,-0.070
6.610,-0.060,-0.075
6.612,-0.075,-0.075
6.614,-0.100,-0.075
6.616,-0.155,-0.075
6.618,-0.170,-0.075
6.620,-0.185,-0.075
6.622,-0.165,-0.075
6.624,-0.120,-0.075
6.626,-0.075,-0.075
6.628,-0.065,-0.075
6.630,-0.045,-0.080
6.632,-0.095,-0.080
6.634,-0.120,-0.080
6.636,-0.155,-0.080
6.638,-0.190,-0.080
6.640,-0.185,-0.080
6.642,-0.155,-0.080
6.644,-0.130,-0.080
6.646,-0.085,-0.080
6.648,-0.070,-0.080
6.650,-0.070,-0.085
6.652,-0.105,-0.085
6.654,-0.140,-0.090
6.656,-0.180,-0.095
6.658,-0.200,-0.105
6.660,-0.230,-0.110
6.662,-0.210,-0.115
6.664,-0.175,-0.115
6.666,-0.140,-0.105
6.668,-0.100,-0.090
6.670,-0.040,-0.065
6.672,-0.005,-0.030
6.674,0.010,0.025
6.676,0.035,0.090
6.678,0.080,0.165
6.680,0.145,0.250
6.682,0.235,0.345
6.684,0.390,0.440
6.686,0.550,0.530
6.688,0.680,0.605
6.690,0.745,0.665
6.692,0.720,0.695
6.694,0.645,0.695
6.696,0.545,0.665
6.698,0.470,0.600
6.700,0.385,0.510
6.702,0.315,0.405
6.704,0.240,0.285
6.706,0.135,0.170
6.708,0.025,0.065
6.710,-0.065,-0.020
6.712,-0.140,-0.085
6.714,-0.175,-0.120
6.716,-0.195,-0.135
6.718,-0.205,-0.130
6.720,-0.200,-0.115
6.722,-0.135,-0.090
6.724,-0.095,-0.070
6.726,-0.045,-0.050
6.728,-0.020,-0.040
6.730,-0.015,-0.035
6.732,-0.050,-0.035
6.734,-0.090,-0.040
6.736,-0.125,-0.040
6.738,-0.140,-0.040
6.740,-0.140,-0.040
6.742,-0.125,-0.035
6.744,-0.080,-0.035
6.746,-0.060,-0.030
6.748,-0.030,-0.030
6.750,-0.025,-0.035
6.752,-0.070,-0.035
6.754,-0.095,-0.040
6.756,-0.135,-0.045
6.758,-0.145,-0.045
6.760,-0.130,-0.045
6.762,-0.120,-0.045
6.764,-0.065,-0.040
6.766,-0.030,-0.035
6.768,-0.020,-0.035
6.770,-0.030,-0.030
6.772,-0.055,-0.030
6.774,-0.065,-0.030
6.776,-0.115,-0.030
6.778,-0.135,-0.030
6.780,-0.120,-0.030
6.782,-0.100,-0.030
6.784,-0.060,-0.025
6.786,-0.025,-0.025
6.788,-0.025,-0.020
6.790,-0.020,-0.020
6.792,-0.025,-0.020
6.794,-0.065,-0.015
6.796,-0.120,-0.015
6.798,-0.125,-0.015
6.800,-0.120,-0.015
6.802,-0.090,-0.010
6.804,-0.045,-0.010
6.806,-0.010,-0.005
6.808,0.015,0.000
6.810,0.010,0.005
6.812,-0.020,0.005
6.814,-0.060,0.005
6.816,-0.095,0.005
6.818,-0.095,0.005
6.820,-0.090,0.000
6.822,-0.060,0.000
6.824,-0.020,0.000
6.826,-0.005,0.005
6.828,0.025,0.005
6.830,0.025,0.010
6.832,0.000,0.015
6.834,-0.050,0.020
6.836,-0.070,0.020
6.838,-0.070,0.025
6.840,-0.055,0.025
6.842,-0.020,0.025
6.844,0.030,0.030
6.846,0.035,0.035
6.848,0.035,0.040
6.850,0.045,0.045
6.852,0.025,0.055
6.854,-0.010,0.060
6.856,-0.045,0.070
6.858,-0.045,0.075
6.860,-0.030,0.080
6.862,0.000,0.085
6.864,0.055,0.085
6.866,0.080,0.090
6.868,0.090,0.095
6.870,0.105,0.100
6.872,0.075,0.110
6.874,0.025,0.115
6.876,0.025,0.125
6.878,0.025,0.130
6.880,0.045,0.135
6.882,0.080,0.140
6.884,0.135,0.145
6.886,0.165,0.150
6.888,0.175,0.155
6.890,0.160,0.160
6.892,0.135,0.170
6.894,0.095,0.185
6.896,0.105,0.195
6.898,0.110,0.210
6.900,0.125,0.220
6.902,0.150,0.225
6.904,0.205,0.235
6.906,0.240,0.235
6.908,0.235,0.235
6.910,0.220,0.235
6.912,0.190,0.230
6.914,0.150,0.225
6.916,0.120,0.220
6.918,0.120,0.215
6.920,0.140,0.215
6.922,0.165,0.210
6.924,0.200,0.210
6.926,0.225,0.210
6.928,0.230,0.210
6.930,0.215,0.210
6.932,0.175,0.210
6.934,0.130,0.210
6.936,0.095,0.205
6.938,0.060,0.200
6.940,0.080,0.190
6.942,0.085,0.180
6.944,0.125,0.170
6.946,0.155,0.155
6.948,0.140,0.145
6.950,0.100,0.135
6.952,0.070,0.130
6.954,0.010,0.120
6.956,-0.020,0.115
6.958,-0.030,0.105
6.960,-0.020,0.095
6.962,0.010,0.085
6.964,0.035,0.070
6.966,0.035,0.055
6.968,0.030,0.040
6.970,-0.010,0.025
6.972,-0.035,0.010
6.974,-0.085,-0.005
6.976,-0.125,-0.015
6.978,-0.120,-0.020
6.980,-0.100,-0.025
6.982,-0.090,-0.025
6.984,-0.050,-0.030
6.986,-0.035,-0.030
6.988,-0.035,-0.030
6.990,-0.055,-0.035
6.992,-0.070,-0.035
6.994,-0.130,-0.040
6.996,-0.155,-0.045
6.998,-0.150,-0.050
7.000,-0.140,-0.055
7.002,-0.115,-0.055
7.004,-0.085,-0.060
7.006,-0.055,-0.060
7.008,-0.040,-0.065
7.010,-0.075,-0.065
7.012,-0.105,-0.065
7.014,-0.155,-0.065
7.016,-0.185,-0.070
7.018,-0.180,-0.070
7.020,-0.135,-0.070
7.022,-0.115,-0.070
7.024,-0.085,-0.075
7.026,-0.065,-0.075
7.028,-0.045,-0.075
7.030,-0.090,-0.075
7.032,-0.120,-0.075
7.034,-0.155,-0.070
7.036,-0.165,-0.070
7.038,-0.160,-0.065
7.040,-0.150,-0.065
7.042,-0.110,-0.065
7.044,-0.080,-0.070
7.046,-0.065,-0.070
7.048,-0.065,-0.070
7.050,-0.085,-0.075
7.052,-0.140,-0.075
7.054,-0.160,-0.070
7.056,-0.165,-0.070
7.058,-0.175,-0.065
7.060,-0.135,-0.060
7.062,-0.080,-0.055
7.064,-0.075,-0.055
7.066,-0.050,-0.055
7.068,-0.050,-0.055
7.070,-0.080,-0.055
7.072,-0.130,-0.060
7.074,-0.165,-0.060
7.076,-0.170,-0.060
7.078,-0.165,-0.065
7.080,-0.140,-0.065
7.082,-0.095,-0.065
7.084,-0.065,-0.065
7.086,-0.050,-0.065
7.088,-0.050,-0.065
7.090,-0.085,-0.065
7.092,-0.130,-0.065
7.094,-0.160,-0.065
7.096,-0.170,-0.065
7.098,-0.150,-0.065
7.100,-0.135,-0.060
7.102,-0.080,-0.060
7.104,-0.050,-0.055
7.106,-0.050,-0.050
7.108,-0.065,-0.050
7.110,-0.075,-0.045
7.112,-0.120,-0.045
7.114,-0.140,-0.045
7.116,-0.165,-0.045
7.118,-0.165,-0.045
7.120,-0.125,-0.045
7.122,-0.075,-0.045
7.124,-0.050,-0.050
7.126,-0.060,-0.050
7.128,-0.060,-0.050
7.130,-0.080,-0.050
7.132,-0.115,-0.055
7.134,-0.145,-0.055
7.136,-0.150,-0.055
7.138,-0.135,-0.060
7.140,-0.130,-0.060
7.142,-0.090,-0.060
7.144,-0.070,-0.060
7.146,-0.070,-0.055
7.148,-0.065,-0.055
7.150,-0.070,-0.055
7.152,-0.125,-0.055
7.154,-0.165,-0.055
7.156,-0.175,-0.055
7.158,-0.170,-0.050
7.160,-0.130,-0.050
7.162,-0.090,-0.050
7.164,-0.070,-0.050
7.166,-0.065,-0.050
7.168,-0.065,-0.045
7.170,-0.100,-0.045
7.172,-0.130,-0.045
7.174,-0.150,-0.045
7.176,-0.150,-0.050
7.178,-0.155,-0.050
7.180,-0.125,-0.055
7.182,-0.115,-0.060
7.184,-0.060,-0.060
7.186,-0.065,-0.065
7.188,-0.070,-0.065
7.190,-0.090,-0.070
7.192,-0.150,-0.070
7.194,-0.160,-0.070
7.196,-0.180,-0.070
7.198,-0.170,-0.070
7.200,-0.145,-0.070
7.202,-0.090,-0.075
7.204,-0.075,-0.075
7.206,-0.070,-0.080
7.208,-0.080,-0.085
7.210,-0.100,-0.085
7.212,-0.160,-0.090
7.214,-0.195,-0.090
7.216,-0.200,-0.085
7.218,-0.170,-0.080
7.220,-0.150,-0.080
7.222,-0.100,-0.075
7.224,-0.070,-0.070
7.226,-0.065,-0.070
7.228,-0.085,-0.065
7.230,-0.110,-0.065
7.232,-0.160,-0.065
7.234,-0.185,-0.065
7.236,-0.200,-0.065
7.238,-0.150,-0.065
7.240,-0.115,-0.065
7.242,-0.090,-0.065
7.244,-0.070,-0.065
7.246,-0.060,-0.065
7.248,-0.085,-0.070
7.250,-0.110,-0.075
7.252,-0.165,-0.080
7.254,-0.190,-0.085
7.256,-0.195,-0.085
7.258,-0.165,-0.090
7.260,-0.145,-0.085
7.262,-0.090,-0.085
7.264,-0.070,-0.080
7.266,-0.060,-0.070
7.268,-0.085,-0.065
7.270,-0.110,-0.060
7.272,-0.150,-0.055
7.274,-0.160,-0.055
7.276,-0.180,-0.055
7.278,-0.160,-0.060
7.280,-0.125,-0.060
7.282,-0.075,-0.065
7.284,-0.060,-0.065
7.286,-0.080,-0.065
7.288,-0.090,-0.065
7.290,-0.110,-0.060
7.292,-0.145,-0.055
7.294,-0.145,-0.055
7.296,-0.140,-0.050
7.298,-0.120,-0.045
7.300,-0.105,-0.040
7.302,-0.080,-0.035
7.304,-0.060,-0.035
7.306,-0.055,-0.035
7.308,-0.070,-0.035
7.310,-0.100,-0.035
7.312,-0.130,-0.040
7.314,-0.160,-0.040
7.316,-0.155,-0.040
7.318,-0.120,-0.045
7.320,-0.100,-0.045
7.322,-0.070,-0.040
7.324,-0.030,-0.040
7.326,-0.025,-0.035
7.328,-0.030,-0.030
7.330,-0.065,-0.020
7.332,-0.100,-0.015
7.334,-0.110,-0.010
7.336,-0.100,-0.005
7.338,-0.090,0.000
7.340,-0.040,0.005
7.342,-0.015,0.005
7.344,0.005,0.005
7.346,0.010,0.005
7.348,-0.025,0.005
7.350,-0.060,0.005
7.352,-0.110,0.000
7.354,-0.115,-0.005
7.356,-0.140,-0.010
7.358,-0.115,-0.015
7.360,-0.100,-0.025
7.362,-0.060,-0.035
7.364,-0.050,-0.045
7.366,-0.055,-0.055
7.368,-0.105,-0.065
7.370,-0.135,-0.070
7.372,-0.160,-0.080
7.374,-0.170,-0.080
7.376,-0.170,-0.080
7.378,-0.145,-0.080
7.380,-0.110,-0.080
7.382,-0.080,-0.075
7.384,-0.065,-0.075
7.386,-0.075,-0.075
7.388,-0.095,-0.070
7.390,-0.125,-0.075
7.392,-0.180,-0.075
7.394,-0.195,-0.075
7.396,-0.170,-0.080
7.398,-0.145,-0.080
7.400,-0.115,-0.080
7.402,-0.080,-0.080
7.404,-0.055,-0.080
7.406,-0.080,-0.080
7.408,-0.110,-0.080
7.410,-0.160,-0.080
7.412,-0.185,-0.080
7.414,-0.195,-0.085
7.416,-0.175,-0.085
7.418,-0.155,-0.090
7.420,-0.115,-0.090
7.422,-0.100,-0.095
7.424,-0.095,-0.095
7.426,-0.090,-0.095
7.428,-0.105,-0.095
7.430,-0.155,-0.090
7.432,-0.180,-0.085
7.434,-0.190,-0.080
7.436,-0.180,-0.075
7.438,-0.165,-0.075
7.440,-0.110,-0.075
7.442,-0.095,-0.075
7.444,-0.080,-0.080
7.446,-0.105,-0.090
7.448,-0.120,-0.100
7.450,-0.175,-0.110
7.452,-0.210,-0.115
7.454,-0.230,-0.120
7.456,-0.220,-0.125
7.458,-0.200,-0.120
7.460,-0.155,-0.115
7.462,-0.140,-0.105
7.464,-0.110,-0.090
7.466,-0.060,-0.065
7.468,-0.015,-0.030
7.470,-0.020,0.015
7.472,0.000,0.075
7.474,0.060,0.150
7.476,0.130,0.235
7.478,0.240,0.330
7.480,0.365,0.425
7.482,0.550,0.520
7.484,0.690,0.605
7.486,0.740,0.665
7.488,0.700,0.695
7.490,0.605,0.695
7.492,0.525,0.660
7.494,0.455,0.590
7.496,0.380,0.490
7.498,0.295,0.375
7.500,0.230,0.255
7.502,0.125,0.135
7.504,-0.010,0.035
7.506,-0.135,-0.050
7.508,-0.190,-0.105
7.510,-0.235,-0.135
7.512,-0.250,-0.145
7.514,-0.225,-0.135
7.516,-0.175,-0.115
7.518,-0.140,-0.090
7.520,-0.080,-0.070
7.522,-0.060,-0.055
7.524,-0.050,-0.045
7.526,-0.045,-0.040
7.528,-0.085,-0.040
7.530,-0.130,-0.045
7.532,-0.150,-0.050
7.534,-0.170,-0.050
7.536,-0.160,-0.055
7.538,-0.120,-0.050
7.540,-0.090,-0.050
7.542,-0.060,-0.045
7.544,-0.060,-0.045
7.546,-0.075,-0.045
7.548,-0.090,-0.050
7.550,-0.135,-0.050
7.552,-0.165,-0.055
7.554,-0.165,-0.060
7.556,-0.135,-0.065
7.558,-0.110,-0.065
7.560,-0.075,-0.065
7.562,-0.040,-0.065
7.564,-0.030,-0.060
7.566,-0.050,-0.055
7.568,-0.080,-0.050
7.570,-0.135,-0.045
7.572,-0.135,-0.040
7.574,-0.135,-0.035
7.576,-0.115,-0.035
7.578,-0.090,-0.030
7.580,-0.045,-0.030
7.582,-0.030,-0.030
7.584,-0.025,-0.030
7.586,-0.045,-0.030
7.588,-0.060,-0.030
7.590,-0.105,-0.025
7.592,-0.130,-0.025
7.594,-0.130,-0.020
7.596,-0.110,-0.020
7.598,-0.060,-0.015
7.600,-0.025,-0.015
7.602,-0.005,-0.015
7.604,0.000,-0.015
7.606,-0.020,-0.015
7.608,-0.055,-0.015
7.610,-0.095,-0.015
7.612,-0.125,-0.015
7.614,-0.125,-0.015
7.616,-0.090,-0.015
7.618,-0.050,-0.010
7.620,-0.010,-0.010
7.622,0.015,-0.010
7.624,0.005,-0.010
7.626,-0.010,-0.005
7.628,-0.040,-0.005
7.630,-0.070,0.000
7.632,-0.075,0.005
7.634,-0.070,0.015
7.636,-0.020,0.025
7.638,-0.020,0.035
7.640,0.045,0.045
7.642,0.050,0.055
7.644,0.050,0.060
7.646,0.025,0.065
7.648,-0.010,0.070
7.650,-0.035,0.070
7.652,-0.045,0.070
7.654,-0.025,0.075
7.656,0.005,0.075
7.658,0.065,0.080
7.660,0.085,0.085
7.662,0.090,0.090
7.664,0.105,0.100
7.666,0.095,0.105
7.668,0.055,0.115
7.670,0.035,0.120
7.672,0.035,0.125
7.674,0.040,0.130
7.676,0.060,0.135
7.678,0.110,0.140
7.680,0.150,0.145
7.682,0.190,0.155
7.684,0.195,0.160
7.686,0.160,0.170
7.688,0.125,0.175
7.690,0.115,0.185
7.692,0.110,0.195
7.694,0.115,0.205
7.696,0.135,0.210
7.698,0.200,0.215
7.700,0.240,0.220
7.702,0.235,0.225
7.704,0.235,0.225
7.706,0.215,0.225
7.708,0.165,0.225
7.710,0.145,0.225
7.712,0.140,0.220
7.714,0.155,0.220
7.716,0.160,0.215
7.718,0.200,0.215
7.720,0.220,0.215
7.722,0.240,0.220
7.724,0.230,0.220
7.726,0.200,0.220
7.728,0.155,0.220
7.730,0.125,0.220
7.732,0.110,0.215
7.734,0.110,0.205
7.736,0.115,0.195
7.738,0.150,0.185
7.740,0.170,0.170
7.742,0.140,0.155
7.744,0.130,0.145
7.746,0.100,0.135
7.748,0.040,0.125
7.750,0.010,0.115
7.752,-0.015,0.110
7.754,-0.005,0.100
7.756,0.000,0.090
7.758,0.035,0.075
7.760,0.050,0.065
7.762,0.045,0.050
7.764,0.030,0.040
7.766,-0.005,0.030
7.768,-0.055,0.020
7.770,-0.080,0.015
7.772,-0.090,0.010
7.774,-0.085,0.010
7.776,-0.065,0.005
7.778,-0.025,0.005
7.780,-0.005,0.000
7.782,-0.005,-0.010
7.784,-0.025,-0.020
7.786,-0.050,-0.030
7.788,-0.115,-0.040
7.790,-0.130,-0.050
7.792,-0.150,-0.055
7.794,-0.135,-0.060
7.796,-0.100,-0.060
7.798,-0.040,-0.055
7.800,-0.025,-0.050
7.802,-0.020,-0.040
7.804,-0.050,-0.035
7.806,-0.065,-0.030
7.808,-0.110,-0.030
7.810,-0.145,-0.030
7.812,-0.160,-0.035
7.814,-0.155,-0.040
7.816,-0.115,-0.045
7.818,-0.080,-0.045
7.820,-0.045,-0.050
7.822,-0.040,-0.050
7.824,-0.055,-0.050
7.826,-0.085,-0.045
7.828,-0.120,-0.040
7.830,-0.160,-0.040
7.832,-0.140,-0.035
7.834,-0.125,-0.035
7.836,-0.085,-0.035
7.838,-0.050,-0.040
7.840,-0.040,-0.045
7.842,-0.030,-0.050
7.844,-0.060,-0.060
7.846,-0.085,-0.065
7.848,-0.140,-0.065
7.850,-0.155,-0.065
7.852,-0.140,-0.065
7.854,-0.100,-0.065
7.856,-0.085,-0.055
7.858,-0.045,-0.050
7.860,-0.025,-0.045
7.862,0.000,-0.040
7.864,-0.040,-0.035
7.866,-0.065,-0.035
7.868,-0.115,-0.035
7.870,-0.125,-0.035
7.872,-0.140,-0.035
7.874,-0.120,-0.040
7.876,-0.070,-0.040
7.878,-0.025,-0.040
7.880,-0.015,-0.045
7.882,-0.030,-0.045
7.884,-0.045,-0.045
7.886,-0.065,-0.045
7.888,-0.115,-0.045
7.890,-0.135,-0.050
7.892,-0.145,-0.050
7.894,-0.120,-0.050
7.896,-0.080,-0.055
7.898,-0.025,-0.055
7.900,-0.015,-0.055
7.902,-0.030,-0.055
7.904,-0.055,-0.050
7.906,-0.085,-0.045
7.908,-0.110,-0.040
7.910,-0.125,-0.035
7.912,-0.125,-0.035
7.914,-0.095,-0.030
7.916,-0.060,-0.030
7.918,-0.020,-0.030
7.920,-0.015,-0.030
7.922,-0.010,-0.035
7.924,-0.035,-0.035
7.926,-0.080,-0.040
7.928,-0.120,-0.040
7.930,-0.120,-0.040
7.932,-0.115,-0.040
7.934,-0.085,-0.035
7.936,-0.055,-0.035
7.938,-0.045,-0.035
7.940,-0.015,-0.030
7.942,-0.025,-0.030
7.944,-0.050,-0.030
7.946,-0.090,-0.030
7.948,-0.140,-0.030
7.950,-0.150,-0.035
7.952,-0.135,-0.035
7.954,-0.110,-0.035
7.956,-0.065,-0.035
7.958,-0.040,-0.040
7.960,-0.030,-0.040
7.962,-0.035,-0.045
7.964,-0.055,-0.050
7.966,-0.095,-0.050
7.968,-0.135,-0.050
7.970,-0.135,-0.055
7.972,-0.135,-0.055
7.974,-0.115,-0.055
7.976,-0.065,-0.055
7.978,-0.030,-0.050
7.980,-0.025,-0.050
7.982,-0.040,-0.050
7.984,-0.050,-0.045
7.986,-0.090,-0.045
7.988,-0.130,-0.045
7.990,-0.135,-0.045
7.992,-0.130,-0.045
7.994,-0.110,-0.040
7.996,-0.060,-0.040
7.998,-0.025,-0.040
8.000,-0.020,-0.040
8.002,-0.035,-0.045
8.004,-0.070,-0.045
8.006,-0.100,-0.050
8.008,-0.130,-0.050
8.010,-0.135,-0.055
8.012,-0.125,-0.060
8.014,-0.095,-0.060
8.016,-0.065,-0.065
8.018,-0.035,-0.065
8.020,-0.030,-0.065
8.022,-0.050,-0.070
8.024,-0.070,-0.070
8.026,-0.130,-0.075
8.028,-0.150,-0.080
8.030,-0.155,-0.080
8.032,-0.145,-0.085
8.034,-0.115,-0.085
8.036,-0.065,-0.085
8.038,-0.040,-0.085
8.040,-0.025,-0.080
8.042,-0.035,-0.080
8.044,-0.075,-0.070
8.046,-0.125,-0.070
8.048,-0.135,-0.065
8.050,-0.140,-0.060
8.052,-0.125,-0.065
8.054,-0.090,-0.065
8.056,-0.045,-0.070
8.058,-0.045,-0.075
8.060,-0.035,-0.080
8.062,-0.045,-0.080
8.064,-0.075,-0.080
8.066,-0.130,-0.080
8.068,-0.140,-0.075
8.070,-0.135,-0.065
8.072,-0.135,-0.060
8.074,-0.090,-0.055
8.076,-0.055,-0.050
8.078,-0.030,-0.045
8.080,-0.030,-0.040
8.082,-0.035,-0.040
8.084,-0.065,-0.045
8.086,-0.100,-0.045
8.088,-0.125,-0.045
8.090,-0.140,-0.045
8.092,-0.110,-0.050
8.094,-0.085,-0.050
8.096,-0.045,-0.050
8.098,-0.020,-0.050
8.100,0.000,-0.055
8.102,-0.010,-0.055
8.104,-0.030,-0.055
8.106,-0.085,-0.050
8.108,-0.115,-0.050
8.110,-0.115,-0.045
8.112,-0.090,-0.040
8.114,-0.060,-0.030
8.116,0.005,-0.025
8.118,0.025,-0.025
8.120,0.025,-0.020
8.122,0.015,-0.015
8.124,-0.020,-0.015
8.126,-0.080,-0.015
8.128,-0.095,-0.015
8.130,-0.095,-0.015
8.132,-0.075,-0.010
8.134,-0.035,-0.010
8.136,0.010,-0.010
8.138,0.025,-0.010
8.140,0.035,-0.015
8.142,0.005,-0.015
8.144,-0.030,-0.020
8.146,-0.090,-0.030
8.148,-0.110,-0.035
8.150,-0.125,-0.040
8.152,-0.100,-0.045
8.154,-0.070,-0.050
8.156,-0.045,-0.055
8.158,-0.025,-0.055
8.160,-0.030,-0.055
8.162,-0.050,-0.060
8.164,-0.080,-0.060
8.166,-0.115,-0.065
8.168,-0.130,-0.065
8.170,-0.145,-0.070
8.172,-0.125,-0.070
8.174,-0.080,-0.070
8.176,-0.045,-0.070
8.178,-0.025,-0.065
8.180,-0.030,-0.065
8.182,-0.055,-0.065
8.184,-0.090,-0.060
8.186,-0.130,-0.065
8.188,-0.145,-0.065
8.190,-0.150,-0.070
8.192,-0.125,-0.075
8.194,-0.085,-0.080
8.196,-0.035,-0.085
8.198,-0.035,-0.090
8.200,-0.030,-0.090
8.202,-0.085,-0.095
8.204,-0.105,-0.095
8.206,-0.145,-0.095
8.208,-0.150,-0.095
8.210,-0.165,-0.095
8.212,-0.135,-0.095
8.214,-0.095,-0.095
8.216,-0.060,-0.095
8.218,-0.035,-0.090
8.220,-0.035,-0.090
8.222,-0.065,-0.085
8.224,-0.105,-0.085
8.226,-0.145,-0.080
8.228,-0.160,-0.080
8.230,-0.155,-0.080
8.232,-0.130,-0.080
8.234,-0.090,-0.080
8.236,-0.075,-0.085
8.238,-0.055,-0.090
8.240,-0.060,-0.100
8.242,-0.085,-0.105
8.244,-0.140,-0.110
8.246,-0.185,-0.115
8.248,-0.195,-0.115
8.250,-0.195,-0.105
8.252,-0.135,-0.090
8.254,-0.045,-0.060
8.256,0.040,-0.025
8.258,0.105,0.030
8.260,0.170,0.100
8.262,0.205,0.180
8.264,0.240,0.270
8.266,0.300,0.365
8.268,0.400,0.455
8.270,0.535,0.540
8.272,0.645,0.610
8.274,0.695,0.650
8.276,0.705,0.665
8.278,0.690,0.645
8.280,0.645,0.590
8.282,0.510,0.510
8.284,0.365,0.405
8.286,0.220,0.290
8.288,0.090,0.170
8.290,-0.050,0.060
8.292,-0.145,-0.035
8.294,-0.165,-0.105
8.296,-0.130,-0.155
8.298,-0.100,-0.175
8.300,-0.110,-0.175
8.302,-0.145,-0.165
8.304,-0.150,-0.140
8.306,-0.175,-0.115
8.308,-0.140,-0.090
8.310,-0.105,-0.070
8.312,-0.065,-0.060
8.314,-0.015,-0.050
8.316,0.005,-0.050
8.318,-0.005,-0.050
8.320,-0.035,-0.050
8.322,-0.055,-0.055
8.324,-0.095,-0.055
8.326,-0.110,-0.060
8.328,-0.125,-0.060
8.330,-0.120,-0.060
8.332,-0.085,-0.060
8.334,-0.020,-0.055
8.336,-0.010,-0.055
8.338,0.015,-0.050
8.340,0.005,-0.050
8.342,-0.015,-0.045
8.344,-0.060,-0.040
8.346,-0.085,-0.035
8.348,-0.085,-0.030
8.350,-0.085,-0.025
8.352,-0.075,-0.025
8.354,-0.015,-0.025
8.356,0.020,-0.025
8.358,0.035,-0.025
8.360,0.015,-0.030
8.362,-0.015,-0.030
8.364,-0.065,-0.030
8.366,-0.090,-0.030
8.368,-0.085,-0.030
8.370,-0.070,-0.030
8.372,-0.045,-0.030
8.374,0.010,-0.030
8.376,0.020,-0.030
8.378,0.025,-0.030
8.380,0.020,-0.030
8.382,-0.010,-0.030
8.384,-0.055,-0.030
8.386,-0.070,-0.030
8.388,-0.075,-0.025
8.390,-0.060,-0.015
8.392,-0.030,-0.010
8.394,0.025,-0.005
8.396,0.045,0.005
8.398,0.035,0.005
8.400,0.040,0.010
8.402,0.025,0.005
8.404,-0.040,0.000
8.406,-0.050,-0.005
8.408,-0.050,-0.005
8.410,-0.030,-0.010
8.412,0.000,-0.005
8.414,0.035,0.000
8.416,0.070,0.005
8.418,0.085,0.015
8.420,0.090,0.030
8.422,0.045,0.040
8.424,-0.020,0.045
8.426,-0.025,0.050
8.428,-0.030,0.050
8.430,-0.015,0.050
8.432,0.035,0.050
8.434,0.070,0.050
8.436,0.100,0.050
8.438,0.100,0.050
8.440,0.090,0.055
8.442,0.075,0.055
8.444,0.035,0.065
8.446,0.030,0.070
8.448,0.015,0.075
8.450,0.030,0.080
8.452,0.065,0.080
8.454,0.130,0.085
8.456,0.155,0.090
8.458,0.165,0.095
8.460,0.165,0.105
8.462,0.145,0.115
8.464,0.095,0.125
8.466,0.080,0.135
8.468,0.085,0.145
8.470,0.120,0.155
8.472,0.155,0.165
8.474,0.215,0.170
8.476,0.245,0.175
8.478,0.255,0.175
8.480,0.225,0.180
8.482,0.205,0.185
8.484,0.165,0.190
8.486,0.145,0.195
8.488,0.150,0.200
8.490,0.195,0.210
8.492,0.240,0.215
8.494,0.265,0.220
8.496,0.280,0.225
8.498,0.280,0.225
8.500,0.255,0.230
8.502,0.235,0.230
8.504,0.205,0.230
8.506,0.170,0.230
8.508,0.165,0.230
8.510,0.185,0.230
8.512,0.220,0.230
8.514,0.250,0.225
8.516,0.255,0.220
8.518,0.235,0.215
8.520,0.205,0.205
8.522,0.170,0.190
8.524,0.120,0.180
8.526,0.090,0.165
8.528,0.085,0.155
8.530,0.095,0.140
8.532,0.115,0.130
8.534,0.130,0.115
8.536,0.165,0.105
8.538,0.155,0.095
8.540,0.100,0.085
8.542,0.070,0.075
8.544,0.015,0.070
8.546,-0.005,0.060
8.548,-0.015,0.055
8.550,-0.010,0.050
8.552,0.025,0.045
8.554,0.070,0.035
8.556,0.080,0.030
8.558,0.065,0.020
8.560,0.030,0.015
8.562,-0.030,0.005
8.564,-0.065,0.000
8.566,-0.065,-0.010
8.568,-0.080,-0.015
8.570,-0.055,-0.020
8.572,-0.010,-0.025
8.574,0.015,-0.030
8.576,0.020,-0.030
8.578,0.015,-0.035
8.580,-0.025,-0.040
8.582,-0.050,-0.040
8.584,-0.085,-0.040
8.586,-0.095,-0.045
8.588,-0.095,-0.045
8.590,-0.085,-0.045
8.592,-0.045,-0.045
8.594,0.000,-0.050
8.596,0.010,-0.050
8.598,-0.010,-0.055
8.600,-0.050,-0.055
8.602,-0.090,-0.060
8.604,-0.100,-0.060
8.606,-0.105,-0.060
8.608,-0.090,-0.060
8.610,-0.060,-0.055
8.612,-0.025,-0.055
8.614,0.015,-0.050
8.616,0.000,-0.050
8.618,-0.010,-0.045
8.620,-0.035,-0.050
8.622,-0.075,-0.050
8.624,-0.115,-0.055
8.626,-0.110,-0.060
8.628,-0.110,-0.060
8.630,-0.080,-0.065
8.632,-0.030,-0.065
8.634,0.000,-0.065
8.636,0.010,-0.060
8.638,-0.020,-0.055
8.640,-0.035,-0.050
8.642,-0.080,-0.045
8.644,-0.090,-0.040
8.646,-0.095,-0.035
8.648,-0.095,-0.035
8.650,-0.085,-0.030
8.652,-0.045,-0.035
8.654,-0.010,-0.035
8.656,0.000,-0.035
8.658,-0.005,-0.035
8.660,-0.030,-0.040
8.662,-0.075,-0.040
8.664,-0.110,-0.045
8.666,-0.130,-0.045
8.668,-0.100,-0.050
8.670,-0.065,-0.050
8.672,-0.030,-0.050
8.674,0.005,-0.050
8.676,0.010,-0.045
8.678,0.015,-0.045
8.680,-0.020,-0.040
8.682,-0.075,-0.035
8.684,-0.095,-0.035
8.686,-0.110,-0.035
8.688,-0.105,-0.035
8.690,-0.060,-0.040
8.692,-0.015,-0.045
8.694,-0.005,-0.050
8.696,0.015,-0.055
8.698,-0.030,-0.060
8.700,-0.030,-0.060
8.702,-0.070,-0.055
8.704,-0.100,-0.050
8.706,-0.125,-0.045
8.708,-0.075,-0.035
8.710,-0.050,-0.025
8.712,-0.015,-0.020
8.714,0.005,-0.015
8.716,0.015,-0.015
8.718,-0.005,-0.020
8.720,-0.025,-0.025
8.722,-0.075,-0.030
8.724,-0.095,-0.035
8.726,-0.120,-0.045
8.728,-0.100,-0.050
8.730,-0.065,-0.055
8.732,-0.030,-0.055
8.734,0.000,-0.055
8.736,0.010,-0.055
8.738,-0.020,-0.055
8.740,-0.040,-0.055
8.742,-0.075,-0.055
8.744,-0.085,-0.050
8.746,-0.105,-0.050
8.748,-0.075,-0.045
8.750,-0.055,-0.045
8.752,-0.020,-0.045
8.754,-0.005,-0.050
8.756,0.000,-0.050
8.758,-0.020,-0.055
8.760,-0.045,-0.060
8.762,-0.100,-0.065
8.764,-0.115,-0.070
8.766,-0.110,-0.070
8.768,-0.100,-0.070
8.770,-0.085,-0.065
8.772,-0.025,-0.065
8.774,-0.005,-0.060
8.776,-0.005,-0.055
8.778,-0.015,-0.055
8.780,-0.060,-0.055
8.782,-0.110,-0.060
8.784,-0.135,-0.060
8.786,-0.125,-0.065
8.788,-0.090,-0.070
8.790,-0.060,-0.070
8.792,-0.020,-0.075
8.794,-0.010,-0.075
8.796,-0.010,-0.075
8.798,-0.035,-0.075
8.800,-0.065,-0.075
8.802,-0.100,-0.075
8.804,-0.130,-0.075
8.806,-0.115,-0.075
8.808,-0.090,-0.075
8.810,-0.050,-0.075
8.812,-0.010,-0.070
8.814,0.005,-0.070
8.816,-0.005,-0.070
8.818,-0.035,-0.065
8.820,-0.085,-0.065
8.822,-0.115,-0.065
8.824,-0.120,-0.070
8.826,-0.105,-0.070
8.828,-0.080,-0.070
8.830,-0.045,-0.065
8.832,0.000,-0.065
8.834,0.020,-0.060
8.836,0.005,-0.050
8.838,-0.010,-0.045
8.840,-0.055,-0.040
8.842,-0.090,-0.035
8.844,-0.110,-0.035
8.846,-0.095,-0.035
8.848,-0.080,-0.035
8.850,-0.040,-0.040
8.852,0.000,-0.045
8.854,0.005,-0.050
8.856,0.000,-0.055
8.858,-0.020,-0.055
8.860,-0.055,-0.050
8.862,-0.065,-0.050
8.864,-0.075,-0.045
8.866,-0.065,-0.040
8.868,-0.040,-0.035
8.870,0.020,-0.030
8.872,0.050,-0.020
8.874,0.060,-0.015
8.876,0.045,-0.010
8.878,0.015,-0.005
8.880,-0.025,0.000
8.882,-0.045,0.005
8.884,-0.060,0.005
8.886,-0.060,0.005
8.888,-0.050,0.000
8.890,0.000,-0.005
8.892,0.015,-0.015
8.894,0.020,-0.030
8.896,0.025,-0.040
8.898,-0.020,-0.045
8.900,-0.075,-0.055
8.902,-0.100,-0.060
8.904,-0.110,-0.060
8.906,-0.110,-0.060
8.908,-0.095,-0.060
8.910,-0.055,-0.060
8.912,-0.040,-0.060
8.914,-0.030,-0.065
8.916,-0.035,-0.070
8.918,-0.050,-0.075
8.920,-0.100,-0.080
8.922,-0.140,-0.085
8.924,-0.135,-0.090
8.926,-0.120,-0.090
8.928,-0.100,-0.090
8.930,-0.065,-0.090
8.932,-0.025,-0.085
8.934,-0.025,-0.085
8.936,-0.040,-0.085
8.938,-0.060,-0.085
8.940,-0.110,-0.085
8.942,-0.145,-0.085
8.944,-0.155,-0.085
8.946,-0.145,-0.085
8.948,-0.120,-0.085
8.950,-0.065,-0.085
8.952,-0.050,-0.090
8.954,-0.045,-0.090
8.956,-0.050,-0.090
8.958,-0.070,-0.095
8.960,-0.115,-0.095
8.962,-0.145,-0.090
8.964,-0.140,-0.090
8.966,-0.135,-0.090
8.968,-0.120,-0.085
8.970,-0.065,-0.085
8.972,-0.040,-0.085
8.974,-0.025,-0.085
8.976,-0.050,-0.085
8.978,-0.090,-0.090
8.980,-0.140,-0.095
8.982,-0.135,-0.095
8.984,-0.170,-0.100
8.986,-0.150,-0.100
8.988,-0.120,-0.105
8.990,-0.075,-0.110
8.992,-0.060,-0.115
8.994,-0.070,-0.120
8.996,-0.115,-0.125
8.998,-0.145,-0.130
9.000,-0.170,-0.125
9.002,-0.145,-0.105
9.004,-0.110,-0.080
9.006,-0.035,-0.030
9.008,0.050,0.030
9.010,0.155,0.110
9.012,0.260,0.200
9.014,0.340,0.300
9.016,0.425,0.395
9.018,0.515,0.490
9.020,0.595,0.570
9.022,0.630,0.630
9.024,0.630,0.660
9.026,0.635,0.660
9.028,0.620,0.630
9.030,0.580,0.565
9.032,0.505,0.480
9.034,0.410,0.370
9.036,0.290,0.250
9.038,0.115,0.135
9.040,-0.065,0.025
9.042,-0.195,-0.070
9.044,-0.240,-0.135
9.046,-0.210,-0.180
9.048,-0.170,-0.195
9.050,-0.115,-0.190
9.052,-0.080,-0.170
9.054,-0.075,-0.140
9.056,-0.075,-0.105
9.058,-0.065,-0.080
9.060,-0.110,-0.060
9.062,-0.105,-0.045
9.064,-0.105,-0.045
9.066,-0.085,-0.050
9.068,-0.060,-0.055
9.070,-0.020,-0.065
9.072,-0.015,-0.070
9.074,-0.010,-0.075
9.076,-0.040,-0.075
9.078,-0.080,-0.070
9.080,-0.090,-0.065
9.082,-0.115,-0.060
9.084,-0.125,-0.055
9.086,-0.105,-0.050
9.088,-0.045,-0.050
9.090,-0.010,-0.050
9.092,-0.005,-0.050
9.094,0.000,-0.050
9.096,-0.020,-0.050
9.098,-0.050,-0.050
9.100,-0.090,-0.050
9.102,-0.095,-0.050
9.104,-0.090,-0.045
9.106,-0.075,-0.045
9.108,-0.040,-0.045
9.110,0.015,-0.040
9.112,0.015,-0.040
9.114,0.010,-0.040
9.116,-0.005,-0.035
9.118,-0.020,-0.035
9.120,-0.055,-0.030
9.122,-0.080,-0.030
9.124,-0.085,-0.025
9.126,-0.060,-0.020
9.128,-0.020,-0.020
9.130,0.015,-0.015
9.132,0.030,-0.015
9.134,0.030,-0.015
9.136,0.005,-0.015
9.138,-0.035,-0.020
9.140,-0.065,-0.020
9.142,-0.085,-0.025
9.144,-0.075,-0.025
9.146,-0.040,-0.025
9.148,0.000,-0.025
9.150,0.025,-0.025
9.152,0.040,-0.020
9.154,0.050,-0.015
9.156,0.020,-0.015
9.158,-0.015,-0.010
9.160,-0.050,-0.005
9.162,-0.050,-0.005
9.164,-0.055,0.000
9.166,-0.025,0.000
9.168,0.025,0.005
9.170,0.065,0.005
9.172,0.090,0.010
9.174,0.075,0.010
9.176,0.050,0.015
9.178,0.015,0.020
9.180,-0.015,0.025
9.182,-0.025,0.035
9.184,-0.020,0.040
9.186,0.020,0.045
9.188,0.080,0.055
9.190,0.105,0.060
9.192,0.110,0.065
9.194,0.115,0.070
9.196,0.095,0.070
9.198,0.050,0.075
9.200,0.015,0.075
9.202,0.015,0.080
9.204,0.045,0.080
9.206,0.055,0.085
9.208,0.125,0.090
9.210,0.160,0.100
9.212,0.180,0.105
9.214,0.190,0.115
9.216,0.175,0.125
9.218,0.140,0.135
9.220,0.115,0.145
9.222,0.105,0.155
9.224,0.130,0.165
9.226,0.165,0.175
9.228,0.210,0.180
9.230,0.225,0.190
9.232,0.245,0.190
9.234,0.250,0.195
9.236,0.235,0.195
9.238,0.190,0.200
9.240,0.165,0.200
9.242,0.150,0.205
9.244,0.165,0.210
9.246,0.190,0.215
9.248,0.245,0.220
9.250,0.260,0.225
9.252,0.275,0.225
9.254,0.250,0.225
9.256,0.235,0.220
9.258,0.185,0.215
9.260,0.140,0.205
9.262,0.145,0.200
9.264,0.135,0.190
9.266,0.150,0.185
9.268,0.195,0.180
9.270,0.200,0.175
9.272,0.205,0.170
9.274,0.180,0.165
9.276,0.150,0.155
9.278,0.085,0.150
9.280,0.065,0.135
9.282,0.030,0.120
9.284,0.040,0.100
9.286,0.045,0.080
9.288,0.090,0.065
9.290,0.110,0.050
9.292,0.090,0.040
9.294,0.055,0.030
9.296,0.015,0.025
9.298,-0.025,0.025
9.300,-0.055,0.025
9.302,-0.070,0.025
9.304,-0.050,0.025
9.306,-0.025,0.020
9.308,0.020,0.010
9.310,0.040,0.000
9.312,0.035,-0.010
9.314,0.000,-0.025
9.316,-0.050,-0.035
9.318,-0.100,-0.045
9.320,-0.120,-0.055
9.322,-0.140,-0.065
9.324,-0.110,-0.070
9.326,-0.075,-0.070
9.328,-0.025,-0.075
9.330,-0.015,-0.075
9.332,-0.015,-0.075
9.334,-0.035,-0.075
9.336,-0.060,-0.080
9.338,-0.125,-0.080
9.340,-0.135,-0.080
9.342,-0.130,-0.085
9.344,-0.105,-0.085
9.346,-0.065,-0.080
9.348,-0.025,-0.080
9.350,-0.015,-0.075
9.352,-0.010,-0.070
9.354,-0.040,-0.065
9.356,-0.080,-0.060
9.358,-0.100,-0.055
9.360,-0.125,-0.055
9.362,-0.130,-0.055
9.364,-0.100,-0.055
9.366,-0.070,-0.060
9.368,-0.035,-0.065
9.370,-0.035,-0.065
9.372,-0.030,-0.070
9.374,-0.050,-0.070
9.376,-0.085,-0.070
9.378,-0.110,-0.070
9.380,-0.135,-0.065
9.382,-0.115,-0.060
9.384,-0.090,-0.055
9.386,-0.065,-0.050
9.388,-0.020,-0.050
9.390,-0.010,-0.045
9.392,-0.010,-0.050
9.394,-0.030,-0.050
9.396,-0.050,-0.055
9.398,-0.085,-0.060
9.400,-0.120,-0.060
9.402,-0.125,-0.060
9.404,-0.090,-0.060
9.406,-0.060,-0.060
9.408,-0.010,-0.055
9.410,0.015,-0.050
9.412,-0.010,-0.045
9.414,-0.040,-0.045
9.416,-0.050,-0.040
9.418,-0.085,-0.035
9.420,-0.110,-0.035
9.422,-0.100,-0.030
9.424,-0.080,-0.030
9.426,-0.040,-0.030
9.428,-0.005,-0.025
9.430,0.005,-0.025
9.432,0.000,-0.025
9.434,-0.005,-0.025
9.436,-0.045,-0.030
9.438,-0.085,-0.030
9.440,-0.110,-0.035
9.442,-0.110,-0.035
9.444,-0.070,-0.040
9.446,-0.045,-0.040
9.448,-0.005,-0.040
9.450,0.010,-0.045
9.452,0.015,-0.045
9.454,0.000,-0.045
9.456,-0.040,-0.045
9.458,-0.085,-0.045
9.460,-0.120,-0.045
9.462,-0.110,-0.045
9.464,-0.080,-0.045
9.466,-0.035,-0.045
9.468,-0.010,-0.045
9.470,0.015,-0.045
9.472,-0.005,-0.045
9.474,-0.025,-0.050
9.476,-0.070,-0.050
9.478,-0.100,-0.050
9.480,-0.125,-0.055
9.482,-0.105,-0.055
9.484,-0.070,-0.055
9.486,-0.015,-0.055
9.488,-0.005,-0.055
9.490,0.010,-0.055
9.492,0.005,-0.055
9.494,-0.025,-0.050
9.496,-0.080,-0.050
9.498,-0.095,-0.050
9.500,-0.105,-0.050
9.502,-0.105,-0.055
9.504,-0.105,-0.055
9.506,-0.060,-0.065
9.508,-0.020,-0.070
9.510,-0.015,-0.075
9.512,-0.020,-0.080
9.514,-0.040,-0.080
9.516,-0.090,-0.080
9.518,-0.115,-0.075
9.520,-0.125,-0.070
9.522,-0.100,-0.060
9.524,-0.085,-0.055
9.526,-0.040,-0.045
9.528,-0.010,-0.040
9.530,0.000,-0.035
9.532,-0.015,-0.030
9.534,-0.055,-0.030
9.536,-0.085,-0.030
9.538,-0.105,-0.035
9.540,-0.105,-0.035
9.542,-0.105,-0.040
9.544,-0.085,-0.045
9.546,-0.030,-0.055
9.548,-0.015,-0.060
9.550,-0.005,-0.065
9.552,-0.020,-0.065
9.554,-0.045,-0.065
9.556,-0.090,-0.065
9.558,-0.110,-0.065
9.560,-0.125,-0.060
9.562,-0.110,-0.055
9.564,-0.095,-0.055
9.566,-0.040,-0.055
9.568,-0.020,-0.055
9.570,-0.010,-0.055
9.572,-0.010,-0.060
9.574,-0.050,-0.065
9.576,-0.120,-0.070
9.578,-0.130,-0.070
9.580,-0.125,-0.070
9.582,-0.110,-0.070
9.584,-0.090,-0.065
9.586,-0.040,-0.065
9.588,-0.005,-0.060
9.590,0.005,-0.055
9.592,-0.010,-0.055
9.594,-0.035,-0.055
9.596,-0.080,-0.050
9.598,-0.095,-0.050
9.600,-0.095,-0.050
9.602,-0.075,-0.045
9.604,-0.050,-0.045
9.606,-0.005,-0.040
9.608,0.000,-0.035
9.610,0.015,-0.030
9.612,-0.020,-0.030
9.614,-0.050,-0.030
9.616,-0.085,-0.030
9.618,-0.105,-0.035
9.620,-0.100,-0.040
9.622,-0.095,-0.045
9.624,-0.065,-0.050
9.626,-0.015,-0.055
9.628,0.015,-0.055
9.630,0.030,-0.055
9.632,0.025,-0.050
9.634,-0.005,-0.045
9.636,-0.045,-0.035
9.638,-0.080,-0.025
9.640,-0.070,-0.020
9.642,-0.050,-0.015
9.644,-0.005,-0.010
9.646,0.045,-0.010
9.648,0.030,-0.005
9.650,0.055,-0.005
9.652,0.025,-0.005
9.654,0.005,-0.005
9.656,-0.045,-0.005
9.658,-0.070,-0.005
9.660,-0.080,-0.005
9.662,-0.065,-0.010
9.664,-0.050,-0.015
9.666,0.000,-0.025
9.668,0.015,-0.030
9.670,0.005,-0.040
9.672,-0.020,-0.045
9.674,-0.040,-0.050
9.676,-0.105,-0.055
9.678,-0.130,-0.055
9.680,-0.120,-0.055
9.682,-0.100,-0.055
9.684,-0.070,-0.055
9.686,-0.045,-0.055
9.688,-0.020,-0.060
9.690,-0.010,-0.065
9.692,-0.050,-0.070
9.694,-0.070,-0.075
9.696,-0.115,-0.080
9.698,-0.125,-0.080
9.700,-0.135,-0.080
9.702,-0.110,-0.080
9.704,-0.065,-0.080
9.706,-0.040,-0.075
9.708,-0.040,-0.075
9.710,-0.040,-0.075
9.712,-0.065,-0.075
9.714,-0.105,-0.080
9.716,-0.130,-0.085
9.718,-0.145,-0.085
9.720,-0.140,-0.090
9.722,-0.110,-0.090
9.724,-0.070,-0.085
9.726,-0.035,-0.085
9.728,-0.035,-0.080
9.730,-0.020,-0.075
9.732,-0.080,-0.075
9.734,-0.090,-0.075
9.736,-0.130,-0.075
9.738,-0.135,-0.080
9.740,-0.135,-0.085
9.742,-0.110,-0.090
9.744,-0.075,-0.095
9.746,-0.035,-0.095
9.748,-0.040,-0.095
9.750,-0.035,-0.090
9.752,-0.080,-0.090
9.754,-0.125,-0.085
9.756,-0.145,-0.085
9.758,-0.160,-0.090
9.760,-0.165,-0.095
9.762,-0.145,-0.100
9.764,-0.125,-0.105
9.766,-0.065,-0.100
9.768,-0.020,-0.090
9.770,0.000,-0.060
9.772,0.045,-0.020
9.774,0.075,0.035
9.776,0.080,0.100
9.778,0.130,0.180
9.780,0.185,0.260
9.782,0.290,0.350
9.784,0.440,0.435
9.786,0.590,0.510
9.788,0.725,0.575
9.790,0.760,0.625
9.792,0.745,0.655
9.794,0.650,0.655
9.796,0.555,0.630
9.798,0.485,0.570
9.800,0.415,0.490
9.802,0.335,0.385
9.804,0.275,0.270
9.806,0.160,0.150
9.808,0.045,0.040
9.810,-0.035,-0.045
9.812,-0.110,-0.110
9.814,-0.150,-0.145
9.816,-0.170,-0.150
9.818,-0.155,-0.135
9.820,-0.115,-0.100
9.822,-0.080,-0.065
9.824,-0.025,-0.035
9.826,0.005,-0.010
9.828,0.030,0.000
9.830,0.020,-0.005
9.832,-0.010,-0.015
9.834,-0.065,-0.030
9.836,-0.090,-0.045
9.838,-0.105,-0.050
9.840,-0.085,-0.055
9.842,-0.055,-0.055
9.844,-0.015,-0.045
9.846,0.005,-0.040
9.848,0.020,-0.035
9.850,0.000,-0.030
9.852,-0.020,-0.030
9.854,-0.065,-0.035
9.856,-0.085,-0.040
9.858,-0.105,-0.045
9.860,-0.080,-0.045
9.862,-0.050,-0.045
9.864,-0.010,-0.045
9.866,0.025,-0.040
9.868,0.025,-0.040
9.870,0.005,-0.035
9.872,-0.010,-0.035
9.874,-0.055,-0.035
9.876,-0.080,-0.030
9.878,-0.080,-0.030
9.880,-0.070,-0.030
9.882,-0.025,-0.025
9.884,0.025,-0.020
9.886,0.025,-0.020
9.888,0.025,-0.015
9.890,0.025,-0.015
9.892,0.005,-0.015
9.894,-0.050,-0.015
9.896,-0.055,-0.020
9.898,-0.065,-0.025
9.900,-0.055,-0.025
9.902,-0.025,-0.025
9.904,0.020,-0.025
9.906,0.060,-0.020
9.908,0.060,-0.015
9.910,0.035,-0.010
9.912,0.015,0.000
9.914,-0.030,0.005
9.916,-0.045,0.010
9.918,-0.055,0.015
9.920,-0.030,0.020
9.922,0.010,0.020
9.924,0.070,0.025
9.926,0.085,0.025
9.928,0.085,0.025
9.930,0.065,0.025
9.932,0.025,0.025
9.934,-0.010,0.025
9.936,-0.020,0.025
9.938,-0.010,0.020
9.940,0.010,0.020
9.942,0.040,0.025
9.944,0.085,0.025
9.946,0.100,0.030
9.948,0.105,0.040
9.950,0.090,0.045
9.952,0.090,0.055
9.954,0.035,0.060
9.956,0.020,0.065
9.958,0.020,0.070
9.960,0.030,0.075
9.962,0.080,0.075
9.964,0.125,0.080
9.966,0.145,0.085
9.968,0.160,0.090
9.970,0.155,0.095
9.972,0.130,0.105
9.974,0.090,0.110
9.976,0.080,0.120
9.978,0.080,0.125
9.980,0.105,0.130
9.982,0.155,0.140
9.984,0.205,0.145
9.986,0.235,0.150
9.988,0.245,0.155
9.990,0.225,0.165
9.992,0.205,0.170
9.994,0.165,0.180
9.996,0.155,0.190
9.998,0.155,0.200
