'Elapsed time','ECG I','ECG I filtered'
'seconds','mV','mV'
0.000,-0.020,0.080
0.002,-0.035,0.095
0.004,-0.035,0.110
0.006,0.020,0.125
0.008,0.075,0.135
0.010,0.090,0.150
0.012,0.140,0.160
0.014,0.095,0.170
0.016,0.060,0.180
0.018,0.040,0.190
0.020,0.075,0.200
0.022,0.040,0.205
0.024,0.105,0.210
0.026,0.115,0.215
0.028,0.120,0.215
0.030,0.145,0.215
0.032,0.145,0.210
0.034,0.120,0.210
0.036,0.085,0.205
0.038,0.065,0.205
0.040,0.080,0.205
0.042,0.090,0.210
0.044,0.080,0.215
0.046,0.085,0.220
0.048,0.145,0.225
0.050,0.140,0.225
0.052,0.135,0.225
0.054,0.115,0.220
0.056,0.085,0.210
0.058,0.040,0.195
0.060,0.000,0.185
0.062,-0.020,0.175
0.064,0.040,0.165
0.066,0.050,0.155
0.068,0.080,0.155
0.070,0.090,0.150
0.072,0.065,0.145
0.074,0.005,0.140
0.076,-0.045,0.130
0.078,-0.050,0.110
0.080,-0.065,0.090
0.082,-0.110,0.070
0.084,-0.060,0.045
0.086,-0.100,0.025
0.088,-0.090,0.010
0.090,-0.085,0.000
0.092,-0.045,-0.005
0.094,-0.125,-0.005
0.096,-0.170,-0.005
0.098,-0.160,-0.005
0.100,-0.155,-0.010
0.102,-0.185,-0.015
0.104,-0.170,-0.025
0.106,-0.185,-0.040
0.108,-0.165,-0.055
0.110,-0.190,-0.065
0.112,-0.175,-0.075
0.114,-0.170,-0.085
0.116,-0.210,-0.085
0.118,-0.240,-0.085
0.120,-0.240,-0.080
0.122,-0.220,-0.075
0.124,-0.210,-0.070
0.126,-0.200,-0.070
0.128,-0.190,-0.070
0.130,-0.190,-0.075
0.132,-0.215,-0.085
0.134,-0.200,-0.090
0.136,-0.225,-0.100
0.138,-0.280,-0.105
0.140,-0.320,-0.110
0.142,-0.290,-0.110
0.144,-0.215,-0.110
0.146,-0.190,-0.105
0.148,-0.170,-0.095
0.150,-0.215,-0.090
0.152,-0.240,-0.085
0.154,-0.210,-0.085
0.156,-0.240,-0.085
0.158,-0.280,-0.090
0.160,-0.265,-0.095
0.162,-0.240,-0.100
0.164,-0.270,-0.105
0.166,-0.235,-0.110
0.168,-0.195,-0.110
0.170,-0.205,-0.105
0.172,-0.165,-0.100
0.174,-0.195,-0.090
0.176,-0.270,-0.085
0.178,-0.250,-0.080
0.180,-0.225,-0.075
0.182,-0.250,-0.075
0.184,-0.255,-0.080
0.186,-0.220,-0.085
0.188,-0.195,-0.090
0.190,-0.210,-0.095
0.192,-0.210,-0.100
0.194,-0.245,-0.100
0.196,-0.285,-0.105
0.198,-0.270,-0.105
0.200,-0.255,-0.110
0.202,-0.280,-0.110
0.204,-0.280,-0.110
0.206,-0.235,-0.115
0.208,-0.225,-0.115
0.210,-0.225,-0.115
0.212,-0.225,-0.110
0.214,-0.240,-0.105
0.216,-0.280,-0.100
0.218,-0.275,-0.095
0.220,-0.250,-0.095
0.222,-0.250,-0.095
0.224,-0.230,-0.095
0.226,-0.235,-0.100
0.228,-0.225,-0.105
0.230,-0.190,-0.110
0.232,-0.250,-0.110
0.234,-0.255,-0.115
0.236,-0.285,-0.110
0.238,-0.285,-0.105
0.240,-0.255,-0.095
0.242,-0.240,-0.085
0.244,-0.220,-0.075
0.246,-0.170,-0.070
0.248,-0.170,-0.065
0.250,-0.185,-0.065
0.252,-0.275,-0.070
0.254,-0.245,-0.075
0.256,-0.285,-0.085
0.258,-0.295,-0.095
0.260,-0.290,-0.105
0.262,-0.255,-0.110
0.264,-0.250,-0.115
0.266,-0.215,-0.120
0.268,-0.230,-0.115
0.270,-0.225,-0.115
0.272,-0.240,-0.110
0.274,-0.290,-0.110
0.276,-0.295,-0.105
0.278,-0.275,-0.100
0.280,-0.275,-0.100
0.282,-0.255,-0.100
0.284,-0.245,-0.105
0.286,-0.195,-0.110
0.288,-0.250,-0.115
0.290,-0.255,-0.120
0.292,-0.265,-0.125
0.294,-0.295,-0.125
0.296,-0.300,-0.125
0.298,-0.305,-0.125
0.300,-0.265,-0.125
0.302,-0.250,-0.120
0.304,-0.215,-0.110
0.306,-0.195,-0.105
0.308,-0.190,-0.100
0.310,-0.205,-0.090
0.312,-0.260,-0.085
0.314,-0.285,-0.085
0.316,-0.310,-0.085
0.318,-0.250,-0.085
0.320,-0.275,-0.085
0.322,-0.255,-0.090
0.324,-0.225,-0.090
0.326,-0.190,-0.090
0.328,-0.205,-0.090
0.330,-0.205,-0.085
0.332,-0.210,-0.080
0.334,-0.210,-0.075
0.336,-0.275,-0.075
0.338,-0.265,-0.070
0.340,-0.275,-0.075
0.342,-0.285,-0.080
0.344,-0.245,-0.090
0.346,-0.230,-0.100
0.348,-0.190,-0.105
0.350,-0.255,-0.115
0.352,-0.305,-0.115
0.354,-0.280,-0.115
0.356,-0.260,-0.110
0.358,-0.235,-0.105
0.360,-0.290,-0.095
0.362,-0.275,-0.090
0.364,-0.230,-0.085
0.366,-0.190,-0.080
0.368,-0.200,-0.080
0.370,-0.235,-0.085
0.372,-0.270,-0.090
0.374,-0.265,-0.095
0.376,-0.280,-0.100
0.378,-0.305,-0.100
0.380,-0.300,-0.100
0.382,-0.245,-0.100
0.384,-0.270,-0.095
0.386,-0.210,-0.095
0.388,-0.200,-0.090
0.390,-0.180,-0.085
0.392,-0.200,-0.080
0.394,-0.270,-0.080
0.396,-0.290,-0.080
0.398,-0.285,-0.080
0.400,-0.250,-0.080
0.402,-0.250,-0.080
0.404,-0.240,-0.080
0.406,-0.205,-0.075
0.408,-0.215,-0.070
0.410,-0.175,-0.065
0.412,-0.165,-0.060
0.414,-0.230,-0.050
0.416,-0.240,-0.040
0.418,-0.210,-0.030
0.420,-0.210,-0.025
0.422,-0.210,-0.020
0.424,-0.170,-0.020
0.426,-0.180,-0.020
0.428,-0.145,-0.025
0.430,-0.160,-0.025
0.432,-0.180,-0.030
0.434,-0.230,-0.030
0.436,-0.225,-0.030
0.438,-0.225,-0.030
0.440,-0.220,-0.025
0.442,-0.240,-0.020
0.444,-0.240,-0.015
0.446,-0.115,-0.010
0.448,-0.100,-0.010
0.450,-0.130,-0.005
0.452,-0.175,-0.010
0.454,-0.235,-0.010
0.456,-0.225,-0.015
0.458,-0.200,-0.025
0.460,-0.180,-0.035
0.462,-0.155,-0.045
0.464,-0.185,-0.055
0.466,-0.260,-0.065
0.468,-0.250,-0.080
0.470,-0.235,-0.090
0.472,-0.225,-0.100
0.474,-0.275,-0.105
0.476,-0.305,-0.105
0.478,-0.275,-0.105
0.480,-0.260,-0.105
0.482,-0.275,-0.100
0.484,-0.225,-0.095
0.486,-0.210,-0.090
0.488,-0.235,-0.090
0.490,-0.260,-0.090
0.492,-0.295,-0.090
0.494,-0.265,-0.100
0.496,-0.260,-0.105
0.498,-0.290,-0.110
0.500,-0.265,-0.115
0.502,-0.310,-0.115
0.504,-0.255,-0.110
0.506,-0.200,-0.105
0.508,-0.180,-0.100
0.510,-0.250,-0.095
0.512,-0.260,-0.090
0.514,-0.285,-0.085
0.516,-0.320,-0.090
0.518,-0.300,-0.095
0.520,-0.300,-0.100
0.522,-0.230,-0.105
0.524,-0.210,-0.110
0.526,-0.270,-0.115
0.528,-0.250,-0.115
0.530,-0.230,-0.110
0.532,-0.240,-0.110
0.534,-0.290,-0.105
0.536,-0.275,-0.100
0.538,-0.310,-0.100
0.540,-0.265,-0.100
0.542,-0.280,-0.105
0.544,-0.310,-0.110
0.546,-0.260,-0.115
0.548,-0.200,-0.120
0.550,-0.230,-0.115
0.552,-0.240,-0.105
0.554,-0.280,-0.085
0.556,-0.265,-0.065
0.558,-0.230,-0.045
0.560,-0.180,-0.025
0.562,-0.145,-0.010
0.564,-0.100,-0.005
0.566,-0.105,-0.010
0.568,-0.140,-0.020
0.570,-0.230,-0.035
0.572,-0.255,-0.045
0.574,-0.275,-0.050
0.576,-0.250,-0.045
0.578,-0.220,-0.025
0.580,-0.115,0.010
0.582,-0.055,0.045
0.584,0.060,0.085
0.586,0.065,0.115
0.588,0.010,0.135
0.590,-0.060,0.130
0.592,-0.095,0.110
0.594,-0.205,0.070
0.596,-0.225,0.015
0.598,-0.245,-0.045
0.600,-0.245,-0.105
0.602,-0.285,-0.160
0.604,-0.330,-0.195
0.606,-0.360,-0.220
0.608,-0.390,-0.225
0.610,-0.365,-0.220
0.612,-0.355,-0.205
0.614,-0.385,-0.185
0.616,-0.400,-0.165
0.618,-0.340,-0.145
0.620,-0.255,-0.130
0.622,-0.255,-0.115
0.624,-0.210,-0.100
0.626,-0.185,-0.090
0.628,-0.170,-0.080
0.630,-0.185,-0.070
0.632,-0.185,-0.060
0.634,-0.255,-0.055
0.636,-0.285,-0.050
0.638,-0.270,-0.055
0.640,-0.240,-0.060
0.642,-0.220,-0.070
0.644,-0.165,-0.080
0.646,-0.205,-0.085
0.648,-0.190,-0.090
0.650,-0.245,-0.090
0.652,-0.250,-0.085
0.654,-0.260,-0.080
0.656,-0.250,-0.070
0.658,-0.225,-0.060
0.660,-0.200,-0.050
0.662,-0.175,-0.040
0.664,-0.180,-0.040
0.666,-0.205,-0.035
0.668,-0.150,-0.035
0.670,-0.180,-0.040
0.672,-0.250,-0.045
0.674,-0.275,-0.050
0.676,-0.235,-0.055
0.678,-0.220,-0.060
0.680,-0.235,-0.065
0.682,-0.245,-0.070
0.684,-0.200,-0.070
0.686,-0.210,-0.070
0.688,-0.190,-0.070
0.690,-0.190,-0.065
0.692,-0.175,-0.060
0.694,-0.220,-0.050
0.696,-0.215,-0.045
0.698,-0.260,-0.040
0.700,-0.210,-0.035
0.702,-0.155,-0.035
0.704,-0.170,-0.030
0.706,-0.165,-0.030
0.708,-0.155,-0.035
0.710,-0.190,-0.035
0.712,-0.200,-0.035
0.714,-0.230,-0.035
0.716,-0.195,-0.035
0.718,-0.175,-0.035
0.720,-0.195,-0.035
0.722,-0.170,-0.035
0.724,-0.130,-0.035
0.726,-0.175,-0.030
0.728,-0.180,-0.025
0.730,-0.155,-0.020
0.732,-0.175,-0.010
0.734,-0.210,0.000
0.736,-0.180,0.005
0.738,-0.145,0.010
0.740,-0.080,0.010
0.742,-0.135,0.010
0.744,-0.115,0.005
0.746,-0.105,0.000
0.748,-0.135,-0.005
0.750,-0.155,-0.005
0.752,-0.175,0.000
0.754,-0.155,0.005
0.756,-0.180,0.010
0.758,-0.145,0.020
0.760,-0.110,0.025
0.762,-0.075,0.035
0.764,-0.075,0.040
0.766,-0.095,0.040
0.768,-0.075,0.045
0.770,-0.085,0.050
0.772,-0.165,0.055
0.774,-0.135,0.060
0.776,-0.085,0.070
0.778,-0.065,0.075
0.780,-0.065,0.085
0.782,-0.070,0.090
0.784,-0.030,0.095
0.786,-0.045,0.100
0.788,-0.045,0.100
0.790,-0.030,0.105
0.792,-0.035,0.110
0.794,-0.040,0.120
0.796,-0.030,0.130
0.798,0.005,0.140
0.800,0.020,0.150
0.802,0.055,0.160
0.804,0.075,0.165
0.806,0.075,0.165
0.808,0.005,0.165
0.810,-0.010,0.165
0.812,-0.010,0.165
0.814,-0.005,0.165
0.816,0.000,0.165
0.818,0.045,0.170
0.820,0.035,0.175
0.822,0.055,0.180
0.824,0.080,0.185
0.826,0.045,0.185
0.828,0.020,0.180
0.830,0.010,0.170
0.832,-0.020,0.160
0.834,-0.040,0.150
0.836,-0.070,0.145
0.838,-0.020,0.140
0.840,-0.005,0.135
0.842,0.025,0.135
0.844,0.020,0.130
0.846,0.000,0.130
0.848,-0.040,0.125
0.850,-0.045,0.115
0.852,-0.070,0.105
0.854,-0.120,0.090
0.856,-0.140,0.075
0.858,-0.100,0.065
0.860,-0.100,0.055
0.862,-0.020,0.050
0.864,-0.040,0.045
0.866,-0.100,0.045
0.868,-0.130,0.040
0.870,-0.070,0.035
0.872,-0.135,0.025
0.874,-0.190,0.015
0.876,-0.245,0.005
0.878,-0.185,-0.010
0.880,-0.165,-0.025
0.882,-0.130,-0.035
0.884,-0.140,-0.040
0.886,-0.170,-0.045
0.888,-0.155,-0.050
0.890,-0.180,-0.050
0.892,-0.265,-0.050
0.894,-0.220,-0.045
0.896,-0.200,-0.045
0.898,-0.195,-0.045
0.900,-0.175,-0.040
0.902,-0.170,-0.035
0.904,-0.170,-0.030
0.906,-0.130,-0.025
0.908,-0.165,-0.020
0.910,-0.190,-0.015
0.912,-0.215,-0.015
0.914,-0.220,-0.020
0.916,-0.240,-0.030
0.918,-0.180,-0.040
0.920,-0.185,-0.055
0.922,-0.175,-0.065
0.924,-0.200,-0.075
0.926,-0.210,-0.085
0.928,-0.225,-0.090
0.930,-0.215,-0.085
0.932,-0.230,-0.080
0.934,-0.255,-0.075
0.936,-0.250,-0.065
0.938,-0.225,-0.060
0.940,-0.200,-0.050
0.942,-0.155,-0.045
0.944,-0.145,-0.045
0.946,-0.155,-0.045
0.948,-0.210,-0.045
0.950,-0.245,-0.050
0.952,-0.230,-0.050
0.954,-0.210,-0.055
0.956,-0.220,-0.060
0.958,-0.180,-0.065
0.960,-0.205,-0.070
0.962,-0.195,-0.070
0.964,-0.145,-0.075
0.966,-0.165,-0.075
0.968,-0.180,-0.070
0.970,-0.205,-0.070
0.972,-0.260,-0.065
0.974,-0.240,-0.060
0.976,-0.215,-0.055
0.978,-0.215,-0.045
0.980,-0.165,-0.040
0.982,-0.145,-0.035
0.984,-0.125,-0.035
0.986,-0.170,-0.030
0.988,-0.140,-0.030
0.990,-0.200,-0.035
0.992,-0.205,-0.035
0.994,-0.185,-0.035
0.996,-0.200,-0.035
0.998,-0.210,-0.035
1.000,-0.175,-0.035
1.002,-0.145,-0.035
1.004,-0.145,-0.035
1.006,-0.170,-0.030
1.008,-0.135,-0.030
1.010,-0.190,-0.025
1.012,-0.185,-0.025
1.014,-0.175,-0.020
1.016,-0.185,-0.020
1.018,-0.200,-0.020
1.020,-0.150,-0.020
1.022,-0.120,-0.025
1.024,-0.135,-0.030
1.026,-0.120,-0.035
1.028,-0.160,-0.040
1.030,-0.250,-0.045
1.032,-0.260,-0.050
1.034,-0.225,-0.055
1.036,-0.190,-0.060
1.038,-0.170,-0.060
1.040,-0.175,-0.060
1.042,-0.175,-0.060
1.044,-0.180,-0.055
1.046,-0.140,-0.055
1.048,-0.205,-0.060
1.050,-0.225,-0.060
1.052,-0.205,-0.065
1.054,-0.235,-0.065
1.056,-0.230,-0.070
1.058,-0.210,-0.075
1.060,-0.180,-0.075
1.062,-0.155,-0.075
1.064,-0.180,-0.075
1.066,-0.180,-0.070
1.068,-0.175,-0.065
1.070,-0.240,-0.060
1.072,-0.240,-0.055
1.074,-0.250,-0.055
1.076,-0.240,-0.055
1.078,-0.235,-0.055
1.080,-0.185,-0.055
1.082,-0.160,-0.060
1.084,-0.140,-0.065
1.086,-0.185,-0.070
1.088,-0.205,-0.070
1.090,-0.230,-0.070
1.092,-0.235,-0.065
1.094,-0.245,-0.060
1.096,-0.230,-0.050
1.098,-0.170,-0.040
1.100,-0.150,-0.035
1.102,-0.110,-0.030
1.104,-0.125,-0.030
1.106,-0.180,-0.035
1.108,-0.215,-0.040
1.110,-0.230,-0.045
1.112,-0.215,-0.055
1.114,-0.245,-0.060
1.116,-0.210,-0.065
1.118,-0.195,-0.065
1.120,-0.160,-0.065
1.122,-0.145,-0.065
1.124,-0.145,-0.060
1.126,-0.180,-0.055
1.128,-0.195,-0.055
1.130,-0.270,-0.050
1.132,-0.235,-0.050
1.134,-0.210,-0.050
1.136,-0.175,-0.050
1.138,-0.155,-0.050
1.140,-0.180,-0.055
1.142,-0.205,-0.055
1.144,-0.165,-0.055
1.146,-0.180,-0.055
1.148,-0.165,-0.050
1.150,-0.235,-0.045
1.152,-0.205,-0.040
1.154,-0.165,-0.030
1.156,-0.190,-0.020
1.158,-0.155,-0.010
1.160,-0.075,0.000
1.162,-0.100,0.005
1.164,-0.105,0.010
1.166,-0.145,0.010
1.168,-0.160,0.005
1.170,-0.175,0.005
1.172,-0.165,0.000
1.174,-0.170,0.000
1.176,-0.180,0.000
1.178,-0.120,0.000
1.180,-0.105,0.005
1.182,-0.090,0.010
1.184,-0.055,0.020
1.186,-0.055,0.025
1.188,-0.075,0.030
1.190,-0.135,0.035
1.192,-0.155,0.040
1.194,-0.150,0.045
1.196,-0.115,0.045
1.198,-0.070,0.050
1.200,-0.055,0.050
1.202,-0.060,0.050
1.204,-0.060,0.045
1.206,-0.075,0.040
1.208,-0.090,0.035
1.210,-0.155,0.030
1.212,-0.145,0.020
1.214,-0.150,0.010
1.216,-0.210,0.000
1.218,-0.185,-0.010
1.220,-0.115,-0.015
1.222,-0.110,-0.025
1.224,-0.165,-0.030
1.226,-0.215,-0.035
1.228,-0.185,-0.035
1.230,-0.210,-0.035
1.232,-0.195,-0.035
1.234,-0.170,-0.035
1.236,-0.205,-0.030
1.238,-0.175,-0.025
1.240,-0.115,-0.020
1.242,-0.120,-0.015
1.244,-0.135,-0.015
1.246,-0.165,-0.015
1.248,-0.155,-0.015
1.250,-0.220,-0.020
1.252,-0.245,-0.030
1.254,-0.225,-0.040
1.256,-0.210,-0.045
1.258,-0.180,-0.055
1.260,-0.135,-0.060
1.262,-0.170,-0.060
1.264,-0.160,-0.055
1.266,-0.140,-0.050
1.268,-0.225,-0.045
1.270,-0.255,-0.035
1.272,-0.215,-0.030
1.274,-0.205,-0.020
1.276,-0.170,-0.015
1.278,-0.140,-0.010
1.280,-0.125,-0.010
1.282,-0.160,-0.010
1.284,-0.175,-0.005
1.286,-0.155,-0.005
1.288,-0.175,-0.005
1.290,-0.195,-0.010
1.292,-0.210,-0.015
1.294,-0.195,-0.020
1.296,-0.210,-0.025
1.298,-0.150,-0.035
1.300,-0.160,-0.040
1.302,-0.155,-0.045
1.304,-0.145,-0.040
1.306,-0.155,-0.035
1.308,-0.170,-0.015
1.310,-0.155,0.005
1.312,-0.160,0.030
1.314,-0.110,0.055
1.316,-0.055,0.075
1.318,-0.035,0.090
1.320,0.035,0.090
1.322,-0.030,0.085
1.324,-0.090,0.075
1.326,-0.100,0.060
1.328,-0.170,0.050
1.330,-0.205,0.045
1.332,-0.165,0.050
1.334,-0.120,0.065
1.336,-0.045,0.095
1.338,0.080,0.130
1.340,0.165,0.170
1.342,0.145,0.200
1.344,0.075,0.220
1.346,0.035,0.225
1.348,-0.050,0.205
1.350,-0.090,0.170
1.352,-0.110,0.120
1.354,-0.115,0.060
1.356,-0.180,0.000
1.358,-0.160,-0.060
1.360,-0.235,-0.105
1.362,-0.280,-0.135
1.364,-0.310,-0.150
1.366,-0.335,-0.150
1.368,-0.330,-0.140
1.370,-0.275,-0.115
1.372,-0.250,-0.090
1.374,-0.225,-0.065
1.376,-0.170,-0.040
1.378,-0.150,-0.015
1.380,-0.090,0.000
1.382,-0.065,0.015
1.384,-0.110,0.025
1.386,-0.190,0.030
1.388,-0.205,0.035
1.390,-0.155,0.035
1.392,-0.180,0.035
1.394,-0.150,0.030
1.396,-0.145,0.025
1.398,-0.105,0.020
1.400,-0.135,0.015
1.402,-0.080,0.015
1.404,-0.085,0.015
1.406,-0.160,0.020
1.408,-0.240,0.020
1.410,-0.195,0.025
1.412,-0.165,0.030
1.414,-0.140,0.030
1.416,-0.140,0.030
1.418,-0.150,0.030
1.420,-0.105,0.030
1.422,-0.065,0.030
1.424,-0.115,0.035
1.426,-0.120,0.035
1.428,-0.170,0.045
1.430,-0.140,0.050
1.432,-0.145,0.055
1.434,-0.165,0.060
1.436,-0.110,0.065
1.438,-0.035,0.065
1.440,-0.070,0.060
1.442,-0.090,0.055
1.444,-0.100,0.050
1.446,-0.115,0.045
1.448,-0.185,0.045
1.450,-0.180,0.045
1.452,-0.160,0.050
1.454,-0.090,0.055
1.456,-0.085,0.060
1.458,-0.085,0.065
1.460,-0.085,0.065
1.462,-0.085,0.070
1.464,-0.090,0.065
1.466,-0.110,0.065
1.468,-0.180,0.065
1.470,-0.130,0.060
1.472,-0.170,0.065
1.474,-0.130,0.065
1.476,-0.095,0.075
1.478,-0.040,0.080
1.480,-0.040,0.090
1.482,-0.010,0.100
1.484,-0.055,0.110
1.486,-0.075,0.115
1.488,-0.140,0.115
1.490,-0.125,0.115
1.492,-0.150,0.115
1.494,-0.125,0.110
1.496,-0.035,0.105
1.498,-0.005,0.100
1.500,-0.050,0.100
1.502,-0.045,0.105
1.504,-0.070,0.115
1.506,-0.120,0.120
1.508,-0.160,0.130
1.510,-0.080,0.140
1.512,-0.055,0.150
1.514,-0.025,0.155
1.516,-0.005,0.160
1.518,0.015,0.155
1.520,-0.030,0.155
1.522,-0.020,0.155
1.524,-0.005,0.150
1.526,-0.070,0.155
1.528,-0.085,0.155
1.530,-0.115,0.165
1.532,-0.015,0.170
1.534,0.050,0.180
1.536,0.080,0.190
1.538,0.040,0.200
1.540,0.035,0.210
1.542,0.045,0.215
1.544,0.000,0.225
1.546,-0.045,0.235
1.548,0.035,0.240
1.550,0.060,0.250
1.552,0.040,0.260
1.554,0.045,0.270
1.556,0.105,0.275
1.558,0.165,0.280
1.560,0.125,0.285
1.562,0.080,0.285
1.564,0.090,0.280
1.566,0.035,0.275
1.568,0.025,0.265
1.570,0.045,0.260
1.572,0.025,0.250
1.574,0.015,0.245
1.576,0.055,0.240
1.578,0.070,0.235
1.580,0.095,0.235
1.582,0.080,0.235
1.584,0.015,0.235
1.586,-0.005,0.235
1.588,0.000,0.240
1.590,0.050,0.235
1.592,0.015,0.235
1.594,-0.005,0.225
1.596,0.020,0.220
1.598,0.050,0.210
1.600,0.045,0.195
1.602,-0.030,0.185
1.604,-0.045,0.170
1.606,-0.090,0.160
1.608,-0.115,0.150
1.610,-0.135,0.135
1.612,-0.130,0.120
1.614,-0.130,0.105
1.616,-0.085,0.085
1.618,-0.120,0.070
1.620,-0.095,0.050
1.622,-0.165,0.035
1.624,-0.210,0.020
1.626,-0.215,0.015
1.628,-0.215,0.010
1.630,-0.220,0.005
1.632,-0.250,0.005
1.634,-0.220,0.000
1.636,-0.160,-0.005
1.638,-0.180,-0.010
1.640,-0.245,-0.020
1.642,-0.270,-0.035
1.644,-0.270,-0.045
1.646,-0.280,-0.055
1.648,-0.275,-0.060
1.650,-0.310,-0.060
1.652,-0.280,-0.055
1.654,-0.245,-0.050
1.656,-0.205,-0.040
1.658,-0.220,-0.035
1.660,-0.220,-0.030
1.662,-0.250,-0.030
1.664,-0.270,-0.035
1.666,-0.330,-0.040
1.668,-0.315,-0.050
1.670,-0.305,-0.060
1.672,-0.300,-0.065
1.674,-0.270,-0.070
1.676,-0.235,-0.075
1.678,-0.270,-0.075
1.680,-0.245,-0.070
1.682,-0.300,-0.070
1.684,-0.320,-0.070
1.686,-0.350,-0.075
1.688,-0.345,-0.075
1.690,-0.335,-0.080
1.692,-0.350,-0.085
1.694,-0.320,-0.085
1.696,-0.240,-0.085
1.698,-0.250,-0.085
1.700,-0.295,-0.080
1.702,-0.300,-0.075
1.704,-0.310,-0.070
1.706,-0.335,-0.065
1.708,-0.335,-0.065
1.710,-0.335,-0.065
1.712,-0.320,-0.070
1.714,-0.305,-0.075
1.716,-0.280,-0.080
1.718,-0.305,-0.090
1.720,-0.340,-0.095
1.722,-0.330,-0.100
1.724,-0.345,-0.100
1.726,-0.370,-0.100
1.728,-0.325,-0.100
1.730,-0.370,-0.095
1.732,-0.345,-0.090
1.734,-0.305,-0.085
1.736,-0.270,-0.080
1.738,-0.285,-0.075
1.740,-0.260,-0.075
1.742,-0.290,-0.075
1.744,-0.305,-0.080
1.746,-0.375,-0.080
1.748,-0.365,-0.085
1.750,-0.395,-0.085
1.752,-0.390,-0.085
1.754,-0.340,-0.085
1.756,-0.225,-0.085
1.758,-0.245,-0.080
1.760,-0.290,-0.080
1.762,-0.300,-0.080
1.764,-0.325,-0.075
1.766,-0.360,-0.075
1.768,-0.360,-0.075
1.770,-0.345,-0.075
1.772,-0.355,-0.075
1.774,-0.335,-0.070
1.776,-0.275,-0.070
1.778,-0.280,-0.070
1.780,-0.245,-0.065
1.782,-0.255,-0.065
1.784,-0.310,-0.065
1.786,-0.400,-0.065
1.788,-0.365,-0.065
1.790,-0.350,-0.070
1.792,-0.325,-0.070
1.794,-0.280,-0.070
1.796,-0.255,-0.065
1.798,-0.290,-0.065
1.800,-0.290,-0.060
1.802,-0.255,-0.055
1.804,-0.285,-0.050
1.806,-0.310,-0.040
1.808,-0.370,-0.035
1.810,-0.340,-0.030
1.812,-0.290,-0.030
1.814,-0.260,-0.030
1.816,-0.240,-0.030
1.818,-0.255,-0.030
1.820,-0.285,-0.035
1.822,-0.300,-0.040
1.824,-0.325,-0.045
1.826,-0.350,-0.050
1.828,-0.370,-0.055
1.830,-0.350,-0.060
1.832,-0.315,-0.060
1.834,-0.285,-0.060
1.836,-0.280,-0.060
1.838,-0.255,-0.055
1.840,-0.270,-0.050
1.842,-0.305,-0.045
1.844,-0.315,-0.045
1.846,-0.315,-0.050
1.848,-0.360,-0.050
1.850,-0.395,-0.055
1.852,-0.380,-0.065
1.854,-0.300,-0.070
1.856,-0.245,-0.070
1.858,-0.285,-0.070
1.860,-0.290,-0.065
1.862,-0.285,-0.055
1.864,-0.325,-0.050
1.866,-0.350,-0.045
1.868,-0.315,-0.040
1.870,-0.335,-0.040
1.872,-0.320,-0.045
1.874,-0.315,-0.055
1.876,-0.280,-0.065
1.878,-0.345,-0.075
1.880,-0.340,-0.075
1.882,-0.280,-0.075
1.884,-0.280,-0.065
1.886,-0.365,-0.055
1.888,-0.355,-0.040
1.890,-0.280,-0.025
1.892,-0.300,-0.015
1.894,-0.260,-0.005
1.896,-0.235,-0.005
1.898,-0.270,-0.010
1.900,-0.300,-0.020
1.902,-0.265,-0.025
1.904,-0.305,-0.030
1.906,-0.315,-0.035
1.908,-0.310,-0.030
1.910,-0.305,-0.025
1.912,-0.300,-0.015
1.914,-0.260,-0.010
1.916,-0.230,0.000
1.918,-0.245,0.000
1.920,-0.260,0.000
1.922,-0.280,-0.005
1.924,-0.320,-0.005
1.926,-0.335,-0.010
1.928,-0.380,-0.005
1.930,-0.295,0.000
1.932,-0.220,0.010
1.934,-0.205,0.020
1.936,-0.180,0.030
1.938,-0.200,0.040
1.940,-0.235,0.045
1.942,-0.240,0.040
1.944,-0.295,0.030
1.946,-0.300,0.015
1.948,-0.335,0.000
1.950,-0.335,-0.020
1.952,-0.320,-0.035
1.954,-0.315,-0.045
1.956,-0.315,-0.055
1.958,-0.345,-0.060
1.960,-0.325,-0.065
1.962,-0.325,-0.065
1.964,-0.385,-0.065
1.966,-0.395,-0.070
1.968,-0.350,-0.070
1.970,-0.325,-0.070
1.972,-0.355,-0.070
1.974,-0.340,-0.065
1.976,-0.365,-0.065
1.978,-0.310,-0.060
1.980,-0.260,-0.060
1.982,-0.375,-0.060
1.984,-0.390,-0.055
1.986,-0.360,-0.060
1.988,-0.380,-0.065
1.990,-0.375,-0.070
1.992,-0.415,-0.080
1.994,-0.360,-0.090
1.996,-0.360,-0.095
1.998,-0.375,-0.100
2.000,-0.395,-0.105
2.002,-0.390,-0.100
2.004,-0.410,-0.100
2.006,-0.395,-0.090
2.008,-0.395,-0.085
2.010,-0.365,-0.080
2.012,-0.340,-0.075
2.014,-0.340,-0.075
2.016,-0.355,-0.075
2.018,-0.360,-0.075
2.020,-0.325,-0.075
2.022,-0.375,-0.080
2.024,-0.435,-0.080
2.026,-0.390,-0.080
2.028,-0.375,-0.080
2.030,-0.375,-0.080
2.032,-0.340,-0.080
2.034,-0.335,-0.075
2.036,-0.335,-0.075
2.038,-0.330,-0.070
2.040,-0.360,-0.065
2.042,-0.415,-0.055
2.044,-0.425,-0.045
2.046,-0.305,-0.030
2.048,-0.265,-0.020
2.050,-0.280,-0.005
2.052,-0.270,0.005
2.054,-0.235,0.010
2.056,-0.250,0.010
2.058,-0.275,0.005
2.060,-0.305,-0.005
2.062,-0.370,-0.015
2.064,-0.405,-0.020
2.066,-0.385,-0.020
2.068,-0.335,-0.010
2.070,-0.235,0.010
2.072,-0.175,0.040
2.074,-0.115,0.065
2.076,-0.085,0.095
2.078,-0.115,0.110
2.080,-0.220,0.115
2.082,-0.265,0.105
2.084,-0.280,0.075
2.086,-0.340,0.030
2.088,-0.380,-0.025
2.090,-0.360,-0.085
2.092,-0.390,-0.145
2.094,-0.480,-0.195
2.096,-0.530,-0.225
2.098,-0.550,-0.240
2.100,-0.545,-0.240
2.102,-0.530,-0.225
2.104,-0.555,-0.195
2.106,-0.490,-0.160
2.108,-0.410,-0.125
2.110,-0.355,-0.090
2.112,-0.300,-0.065
2.114,-0.265,-0.045
2.116,-0.315,-0.035
2.118,-0.310,-0.030
2.120,-0.365,-0.030
2.122,-0.380,-0.035
2.124,-0.420,-0.035
2.126,-0.370,-0.035
2.128,-0.340,-0.035
2.130,-0.340,-0.035
2.132,-0.345,-0.030
2.134,-0.280,-0.030
2.136,-0.260,-0.025
2.138,-0.305,-0.025
2.140,-0.360,-0.025
2.142,-0.360,-0.030
2.144,-0.395,-0.035
2.146,-0.385,-0.040
2.148,-0.380,-0.045
2.150,-0.375,-0.050
2.152,-0.330,-0.050
2.154,-0.285,-0.050
2.156,-0.270,-0.050
2.158,-0.340,-0.045
2.160,-0.340,-0.035
2.162,-0.340,-0.030
2.164,-0.340,-0.025
2.166,-0.385,-0.025
2.168,-0.360,-0.030
2.170,-0.360,-0.030
2.172,-0.320,-0.035
2.174,-0.340,-0.040
2.176,-0.355,-0.040
2.178,-0.320,-0.035
2.180,-0.275,-0.030
2.182,-0.320,-0.020
2.184,-0.340,-0.010
2.186,-0.375,0.005
2.188,-0.330,0.010
2.190,-0.280,0.015
2.192,-0.270,0.010
2.194,-0.290,0.005
2.196,-0.275,0.000
2.198,-0.305,-0.005
2.200,-0.315,-0.010
2.202,-0.315,-0.010
2.204,-0.345,-0.005
2.206,-0.320,0.005
2.208,-0.320,0.015
2.210,-0.345,0.020
2.212,-0.255,0.025
2.214,-0.215,0.030
2.216,-0.255,0.025
2.218,-0.295,0.020
2.220,-0.300,0.015
2.222,-0.320,0.010
2.224,-0.325,0.010
2.226,-0.330,0.010
2.228,-0.285,0.015
2.230,-0.295,0.025
2.232,-0.275,0.030
2.234,-0.250,0.035
2.236,-0.245,0.040
2.238,-0.230,0.045
2.240,-0.250,0.045
2.242,-0.270,0.045
2.244,-0.295,0.045
2.246,-0.300,0.045
2.248,-0.280,0.050
2.250,-0.265,0.050
2.252,-0.245,0.055
2.254,-0.220,0.060
2.256,-0.160,0.065
2.258,-0.205,0.075
2.260,-0.215,0.080
2.262,-0.240,0.090
2.264,-0.225,0.100
2.266,-0.225,0.105
2.268,-0.195,0.115
2.270,-0.170,0.125
2.272,-0.160,0.135
2.274,-0.170,0.140
2.276,-0.135,0.145
2.278,-0.160,0.145
2.280,-0.165,0.150
2.282,-0.200,0.150
2.284,-0.195,0.150
2.286,-0.215,0.155
2.288,-0.140,0.165
2.290,-0.095,0.175
2.292,-0.035,0.185
2.294,-0.080,0.200
2.296,-0.085,0.210
2.298,-0.070,0.220
2.300,-0.090,0.225
2.302,-0.140,0.225
2.304,-0.125,0.220
2.306,-0.090,0.215
2.308,-0.110,0.205
2.310,-0.110,0.200
2.312,-0.095,0.195
2.314,-0.090,0.195
2.316,-0.060,0.195
2.318,-0.125,0.200
2.320,-0.115,0.200
2.322,-0.130,0.200
2.324,-0.155,0.200
2.326,-0.155,0.190
2.328,-0.160,0.180
2.330,-0.170,0.165
2.332,-0.145,0.155
2.334,-0.115,0.145
2.336,-0.090,0.135
2.338,-0.155,0.130
2.340,-0.200,0.130
2.342,-0.260,0.130
2.344,-0.220,0.125
2.346,-0.235,0.120
2.348,-0.265,0.115
2.350,-0.240,0.100
2.352,-0.225,0.085
2.354,-0.230,0.065
2.356,-0.250,0.045
2.358,-0.270,0.025
2.360,-0.290,0.010
2.362,-0.315,0.005
2.364,-0.365,0.000
2.366,-0.360,-0.005
2.368,-0.335,-0.005
2.370,-0.315,-0.005
2.372,-0.330,-0.010
2.374,-0.295,-0.015
2.376,-0.270,-0.025
2.378,-0.295,-0.030
2.380,-0.370,-0.040
2.382,-0.390,-0.045
2.384,-0.390,-0.045
2.386,-0.365,-0.045
2.388,-0.340,-0.040
2.390,-0.340,-0.035
2.392,-0.280,-0.030
2.394,-0.310,-0.030
2.396,-0.385,-0.030
2.398,-0.320,-0.030
2.400,-0.365,-0.035
2.402,-0.395,-0.040
2.404,-0.420,-0.040
2.406,-0.375,-0.045
2.408,-0.355,-0.045
2.410,-0.345,-0.045
2.412,-0.345,-0.040
2.414,-0.325,-0.040
2.416,-0.335,-0.045
2.418,-0.355,-0.045
2.420,-0.390,-0.050
2.422,-0.395,-0.055
2.424,-0.415,-0.060
2.426,-0.395,-0.065
2.428,-0.420,-0.065
2.430,-0.330,-0.065
2.432,-0.275,-0.060
2.434,-0.310,-0.055
2.436,-0.335,-0.055
2.438,-0.380,-0.055
2.440,-0.395,-0.055
2.442,-0.390,-0.060
2.444,-0.430,-0.060
2.446,-0.365,-0.065
2.448,-0.385,-0.060
2.450,-0.370,-0.060
2.452,-0.320,-0.055
2.454,-0.290,-0.050
2.456,-0.320,-0.045
2.458,-0.360,-0.040
2.460,-0.395,-0.045
2.462,-0.390,-0.050
2.464,-0.415,-0.060
2.466,-0.430,-0.070
2.468,-0.440,-0.080
2.470,-0.370,-0.090
2.472,-0.320,-0.090
2.474,-0.315,-0.080
2.476,-0.320,-0.070
2.478,-0.335,-0.050
2.480,-0.380,-0.035
2.482,-0.380,-0.020
2.484,-0.315,-0.010
2.486,-0.295,-0.005
2.488,-0.325,-0.005
2.490,-0.320,-0.010
2.492,-0.320,-0.020
2.494,-0.275,-0.030
2.496,-0.335,-0.035
2.498,-0.370,-0.045
2.500,-0.365,-0.045
2.502,-0.385,-0.045
2.504,-0.365,-0.045
2.506,-0.330,-0.040
2.508,-0.330,-0.040
2.510,-0.325,-0.040
2.512,-0.325,-0.045
2.514,-0.305,-0.045
2.516,-0.330,-0.045
2.518,-0.345,-0.045
2.520,-0.390,-0.040
2.522,-0.350,-0.040
2.524,-0.350,-0.035
2.526,-0.370,-0.035
2.528,-0.360,-0.035
2.530,-0.315,-0.035
2.532,-0.325,-0.040
2.534,-0.295,-0.045
2.536,-0.320,-0.050
2.538,-0.360,-0.050
2.540,-0.405,-0.050
2.542,-0.390,-0.050
2.544,-0.355,-0.045
2.546,-0.340,-0.040
2.548,-0.340,-0.040
2.550,-0.300,-0.035
2.552,-0.315,-0.040
2.554,-0.285,-0.040
2.556,-0.335,-0.045
2.558,-0.385,-0.055
2.560,-0.410,-0.060
2.562,-0.395,-0.065
2.564,-0.370,-0.065
2.566,-0.330,-0.065
2.568,-0.350,-0.065
2.570,-0.305,-0.060
2.572,-0.290,-0.050
2.574,-0.270,-0.045
2.576,-0.270,-0.040
2.578,-0.320,-0.035
2.580,-0.420,-0.035
2.582,-0.400,-0.035
2.584,-0.410,-0.040
2.586,-0.340,-0.045
2.588,-0.335,-0.050
2.590,-0.260,-0.055
2.592,-0.260,-0.060
2.594,-0.325,-0.060
2.596,-0.335,-0.060
2.598,-0.405,-0.060
2.600,-0.420,-0.055
2.602,-0.355,-0.050
2.604,-0.345,-0.045
2.606,-0.355,-0.045
2.608,-0.330,-0.045
2.610,-0.315,-0.055
2.612,-0.360,-0.060
2.614,-0.330,-0.065
2.616,-0.325,-0.070
2.618,-0.330,-0.070
2.620,-0.370,-0.070
2.622,-0.345,-0.060
2.624,-0.335,-0.050
2.626,-0.345,-0.040
2.628,-0.315,-0.030
2.630,-0.265,-0.020
2.632,-0.295,-0.020
2.634,-0.300,-0.025
2.636,-0.340,-0.035
2.638,-0.375,-0.050
2.640,-0.360,-0.060
2.642,-0.335,-0.070
2.644,-0.355,-0.075
2.646,-0.380,-0.070
2.648,-0.355,-0.060
2.650,-0.300,-0.045
2.652,-0.250,-0.030
2.654,-0.215,-0.010
2.656,-0.220,0.005
2.658,-0.275,0.015
2.660,-0.310,0.020
2.662,-0.315,0.015
2.664,-0.320,0.010
2.666,-0.295,0.000
2.668,-0.270,-0.010
2.670,-0.270,-0.015
2.672,-0.300,-0.015
2.674,-0.255,-0.015
2.676,-0.240,-0.005
2.678,-0.260,0.010
2.680,-0.300,0.020
2.682,-0.270,0.035
2.684,-0.280,0.045
2.686,-0.230,0.050
2.688,-0.210,0.045
2.690,-0.205,0.035
2.692,-0.235,0.020
2.694,-0.305,0.005
2.696,-0.300,-0.015
2.698,-0.335,-0.030
2.700,-0.285,-0.045
2.702,-0.330,-0.055
2.704,-0.355,-0.060
2.706,-0.355,-0.060
2.708,-0.310,-0.060
2.710,-0.330,-0.055
2.712,-0.325,-0.055
2.714,-0.295,-0.055
2.716,-0.320,-0.055
2.718,-0.335,-0.055
2.720,-0.370,-0.060
2.722,-0.395,-0.060
2.724,-0.360,-0.065
2.726,-0.350,-0.070
2.728,-0.345,-0.075
2.730,-0.300,-0.080
2.732,-0.290,-0.085
2.734,-0.375,-0.090
2.736,-0.395,-0.095
2.738,-0.370,-0.095
2.740,-0.370,-0.095
2.742,-0.400,-0.095
2.744,-0.380,-0.090
2.746,-0.305,-0.085
2.748,-0.290,-0.075
2.750,-0.300,-0.070
2.752,-0.355,-0.060
2.754,-0.340,-0.055
2.756,-0.350,-0.055
2.758,-0.360,-0.055
2.760,-0.360,-0.055
2.762,-0.345,-0.060
2.764,-0.360,-0.065
2.766,-0.345,-0.070
2.768,-0.305,-0.075
2.770,-0.310,-0.080
2.772,-0.295,-0.085
2.774,-0.320,-0.090
2.776,-0.390,-0.095
2.778,-0.410,-0.095
2.780,-0.385,-0.100
2.782,-0.355,-0.100
2.784,-0.355,-0.095
2.786,-0.315,-0.090
2.788,-0.310,-0.085
2.790,-0.310,-0.075
2.792,-0.295,-0.065
2.794,-0.325,-0.055
2.796,-0.295,-0.045
2.798,-0.330,-0.040
2.800,-0.335,-0.035
2.802,-0.295,-0.035
2.804,-0.240,-0.035
2.806,-0.265,-0.040
2.808,-0.250,-0.050
2.810,-0.255,-0.055
2.812,-0.315,-0.060
2.814,-0.350,-0.055
2.816,-0.365,-0.050
2.818,-0.360,-0.035
2.820,-0.280,-0.010
2.822,-0.185,0.020
2.824,-0.110,0.050
2.826,-0.080,0.075
2.828,-0.080,0.095
2.830,-0.130,0.100
2.832,-0.160,0.095
2.834,-0.225,0.070
2.836,-0.280,0.030
2.838,-0.355,-0.025
2.840,-0.390,-0.085
2.842,-0.435,-0.145
2.844,-0.435,-0.195
2.846,-0.480,-0.230
2.848,-0.485,-0.250
2.850,-0.455,-0.250
2.852,-0.425,-0.235
2.854,-0.450,-0.205
2.856,-0.440,-0.165
2.858,-0.385,-0.125
2.860,-0.310,-0.095
2.862,-0.340,-0.070
2.864,-0.330,-0.055
2.866,-0.270,-0.050
2.868,-0.255,-0.055
2.870,-0.285,-0.065
2.872,-0.295,-0.075
2.874,-0.305,-0.085
2.876,-0.350,-0.090
2.878,-0.360,-0.090
2.880,-0.325,-0.085
2.882,-0.295,-0.075
2.884,-0.345,-0.065
2.886,-0.310,-0.055
2.888,-0.250,-0.050
2.890,-0.210,-0.045
2.892,-0.245,-0.045
2.894,-0.305,-0.045
2.896,-0.340,-0.045
2.898,-0.355,-0.050
2.900,-0.315,-0.050
2.902,-0.285,-0.045
2.904,-0.280,-0.040
2.906,-0.295,-0.035
2.908,-0.230,-0.025
2.910,-0.235,-0.020
2.912,-0.215,-0.010
2.914,-0.210,-0.010
2.916,-0.235,-0.005
2.918,-0.300,-0.010
2.920,-0.320,-0.015
2.922,-0.315,-0.020
2.924,-0.245,-0.025
2.926,-0.205,-0.030
2.928,-0.215,-0.030
2.930,-0.245,-0.030
2.932,-0.225,-0.020
2.934,-0.225,-0.015
2.936,-0.270,-0.010
2.938,-0.320,0.000
2.940,-0.280,0.000
2.942,-0.225,0.005
2.944,-0.215,0.000
2.946,-0.205,0.000
2.948,-0.235,-0.005
2.950,-0.230,-0.005
2.952,-0.190,-0.010
2.954,-0.200,-0.005
2.956,-0.230,-0.005
2.958,-0.280,0.000
2.960,-0.285,0.005
2.962,-0.235,0.010
2.964,-0.195,0.015
2.966,-0.155,0.020
2.968,-0.175,0.020
2.970,-0.180,0.020
2.972,-0.165,0.020
2.974,-0.230,0.020
2.976,-0.250,0.025
2.978,-0.265,0.030
2.980,-0.210,0.035
2.982,-0.215,0.040
2.984,-0.190,0.045
2.986,-0.130,0.050
2.988,-0.130,0.055
2.990,-0.125,0.060
2.992,-0.125,0.065
2.994,-0.115,0.070
2.996,-0.175,0.075
2.998,-0.165,0.085
3.000,-0.165,0.095
3.002,-0.165,0.105
3.004,-0.110,0.115
3.006,-0.055,0.120
3.008,-0.050,0.130
3.010,-0.070,0.130
3.012,-0.105,0.130
3.014,-0.090,0.130
3.016,-0.130,0.130
3.018,-0.130,0.130
3.020,-0.095,0.135
3.022,-0.080,0.140
3.024,-0.045,0.150
3.026,-0.020,0.160
3.028,-0.020,0.175
3.030,0.015,0.190
3.032,-0.030,0.205
3.034,0.000,0.215
3.036,-0.050,0.225
3.038,0.015,0.235
3.040,-0.015,0.240
3.042,-0.020,0.240
3.044,-0.010,0.240
3.046,0.065,0.240
3.048,0.095,0.235
3.050,0.075,0.235
3.052,0.020,0.235
3.054,0.000,0.235
3.056,-0.010,0.240
3.058,0.010,0.245
3.060,0.050,0.250
3.062,0.075,0.255
3.064,0.035,0.255
3.066,0.085,0.260
3.068,0.050,0.255
3.070,0.060,0.255
3.072,0.060,0.245
3.074,0.060,0.240
3.076,-0.005,0.230
3.078,-0.065,0.225
3.080,-0.040,0.220
3.082,0.030,0.220
3.084,0.045,0.215
3.086,0.015,0.215
3.088,-0.010,0.210
3.090,0.015,0.200
3.092,-0.025,0.190
3.094,-0.100,0.175
3.096,-0.095,0.160
3.098,-0.085,0.145
3.100,-0.105,0.135
3.102,-0.110,0.120
3.104,-0.130,0.110
3.106,-0.135,0.105
3.108,-0.055,0.100
3.110,-0.070,0.090
3.112,-0.130,0.085
3.114,-0.135,0.075
3.116,-0.175,0.065
3.118,-0.160,0.055
3.120,-0.185,0.045
3.122,-0.175,0.035
3.124,-0.170,0.030
3.126,-0.165,0.030
3.128,-0.175,0.030
3.130,-0.195,0.030
3.132,-0.150,0.030
3.134,-0.135,0.035
3.136,-0.205,0.035
3.138,-0.180,0.040
3.140,-0.165,0.040
3.142,-0.125,0.040
3.144,-0.150,0.040
3.146,-0.135,0.040
3.148,-0.140,0.040
3.150,-0.130,0.040
3.152,-0.185,0.040
3.154,-0.175,0.040
3.156,-0.185,0.040
3.158,-0.210,0.040
3.160,-0.220,0.040
3.162,-0.175,0.040
3.164,-0.110,0.040
3.166,-0.095,0.040
3.168,-0.160,0.040
3.170,-0.190,0.040
3.172,-0.165,0.040
3.174,-0.150,0.035
3.176,-0.195,0.035
3.178,-0.190,0.035
3.180,-0.180,0.030
3.182,-0.175,0.030
3.184,-0.160,0.030
3.186,-0.170,0.030
3.188,-0.145,0.030
3.190,-0.140,0.030
3.192,-0.190,0.035
3.194,-0.125,0.040
3.196,-0.140,0.040
3.198,-0.170,0.045
3.200,-0.270,0.050
3.202,-0.170,0.055
3.204,-0.115,0.065
3.206,-0.095,0.070
3.208,-0.105,0.070
3.210,-0.080,0.075
3.212,-0.090,0.075
3.214,-0.165,0.070
3.216,-0.150,0.065
3.218,-0.170,0.060
3.220,-0.200,0.055
3.222,-0.180,0.050
3.224,-0.130,0.050
3.226,-0.125,0.050
3.228,-0.075,0.050
3.230,-0.085,0.060
3.232,-0.115,0.070
3.234,-0.150,0.075
3.236,-0.185,0.085
3.238,-0.145,0.090
3.240,-0.100,0.095
3.242,-0.105,0.095
3.244,-0.090,0.090
3.246,-0.090,0.085
3.248,-0.105,0.080
3.250,-0.105,0.070
3.252,-0.135,0.065
3.254,-0.140,0.065
3.256,-0.170,0.065
3.258,-0.180,0.070
3.260,-0.135,0.070
3.262,-0.085,0.070
3.264,-0.100,0.070
3.266,-0.095,0.070
3.268,-0.105,0.065
3.270,-0.140,0.060
3.272,-0.165,0.050
3.274,-0.175,0.045
3.276,-0.155,0.045
3.278,-0.200,0.045
3.280,-0.120,0.050
3.282,-0.130,0.055
3.284,-0.130,0.060
3.286,-0.110,0.065
3.288,-0.075,0.065
3.290,-0.120,0.065
3.292,-0.115,0.060
3.294,-0.175,0.055
3.296,-0.185,0.050
3.298,-0.200,0.045
3.300,-0.185,0.040
3.302,-0.135,0.035
3.304,-0.105,0.035
3.306,-0.100,0.035
3.308,-0.120,0.040
3.310,-0.120,0.040
3.312,-0.145,0.045
3.314,-0.160,0.045
3.316,-0.190,0.045
3.318,-0.180,0.045
3.320,-0.190,0.045
3.322,-0.115,0.045
3.324,-0.080,0.045
3.326,-0.110,0.045
3.328,-0.140,0.040
3.330,-0.140,0.040
3.332,-0.165,0.040
3.334,-0.220,0.040
3.336,-0.195,0.035
3.338,-0.190,0.035
3.340,-0.165,0.035
3.342,-0.170,0.035
3.344,-0.135,0.035
3.346,-0.140,0.035
3.348,-0.095,0.035
3.350,-0.080,0.040
3.352,-0.145,0.040
3.354,-0.215,0.040
3.356,-0.180,0.040
3.358,-0.160,0.040
3.360,-0.195,0.035
3.362,-0.165,0.030
3.364,-0.080,0.025
3.366,-0.130,0.020
3.368,-0.145,0.020
3.370,-0.185,0.015
3.372,-0.195,0.015
3.374,-0.205,0.015
3.376,-0.210,0.010
3.378,-0.220,0.010
3.380,-0.195,0.010
3.382,-0.180,0.010
3.384,-0.165,0.005
3.386,-0.145,0.005
3.388,-0.135,0.005
3.390,-0.125,0.005
3.392,-0.180,0.010
3.394,-0.210,0.015
3.396,-0.220,0.020
3.398,-0.205,0.030
3.400,-0.185,0.035
3.402,-0.145,0.040
3.404,-0.070,0.040
3.406,-0.085,0.040
3.408,-0.110,0.035
3.410,-0.185,0.025
3.412,-0.210,0.020
3.414,-0.245,0.015
3.416,-0.215,0.010
3.418,-0.190,0.010
3.420,-0.190,0.010
3.422,-0.140,0.015
3.424,-0.090,0.025
3.426,-0.055,0.040
3.428,-0.075,0.050
3.430,-0.090,0.055
3.432,-0.160,0.060
3.434,-0.225,0.055
3.436,-0.210,0.050
3.438,-0.200,0.040
3.440,-0.210,0.025
3.442,-0.175,0.010
3.444,-0.150,-0.005
3.446,-0.190,-0.020
3.448,-0.220,-0.030
3.450,-0.195,-0.040
3.452,-0.235,-0.045
3.454,-0.280,-0.050
3.456,-0.295,-0.050
3.458,-0.275,-0.050
3.460,-0.255,-0.050
3.462,-0.230,-0.050
3.464,-0.215,-0.050
3.466,-0.220,-0.050
3.468,-0.215,-0.050
3.470,-0.245,-0.050
3.472,-0.295,-0.055
3.474,-0.270,-0.055
3.476,-0.265,-0.065
3.478,-0.285,-0.070
3.480,-0.265,-0.075
3.482,-0.270,-0.085
3.484,-0.275,-0.090
3.486,-0.265,-0.095
3.488,-0.275,-0.095
3.490,-0.270,-0.095
3.492,-0.280,-0.095
3.494,-0.280,-0.095
3.496,-0.285,-0.090
3.498,-0.285,-0.090
3.500,-0.275,-0.090
3.502,-0.255,-0.085
3.504,-0.225,-0.085
3.506,-0.250,-0.085
3.508,-0.260,-0.090
3.510,-0.295,-0.090
3.512,-0.345,-0.090
3.514,-0.360,-0.090
3.516,-0.300,-0.090
3.518,-0.275,-0.095
3.520,-0.310,-0.095
3.522,-0.280,-0.100
3.524,-0.250,-0.100
3.526,-0.205,-0.100
3.528,-0.225,-0.095
3.530,-0.255,-0.085
3.532,-0.295,-0.070
3.534,-0.285,-0.055
3.536,-0.280,-0.035
3.538,-0.200,-0.020
3.540,-0.195,-0.005
3.542,-0.180,0.005
3.544,-0.140,0.005
3.546,-0.105,0.000
3.548,-0.180,-0.010
3.550,-0.260,-0.025
3.552,-0.325,-0.035
3.554,-0.285,-0.045
3.556,-0.290,-0.040
3.558,-0.230,-0.025
3.560,-0.190,0.000
3.562,-0.090,0.030
3.564,-0.015,0.065
3.566,-0.005,0.095
3.568,-0.040,0.120
3.570,-0.070,0.125
3.572,-0.155,0.115
3.574,-0.200,0.080
3.576,-0.240,0.035
3.578,-0.260,-0.025
3.580,-0.275,-0.090
3.582,-0.335,-0.150
3.584,-0.400,-0.200
3.586,-0.435,-0.235
3.588,-0.415,-0.250
3.590,-0.385,-0.250
3.592,-0.470,-0.235
3.594,-0.455,-0.210
3.596,-0.440,-0.180
3.598,-0.340,-0.155
3.600,-0.305,-0.135
3.602,-0.240,-0.120
3.604,-0.270,-0.110
3.606,-0.265,-0.105
3.608,-0.260,-0.100
3.610,-0.255,-0.095
3.612,-0.285,-0.090
3.614,-0.310,-0.080
3.616,-0.320,-0.070
3.618,-0.290,-0.060
3.620,-0.270,-0.055
3.622,-0.205,-0.050
3.624,-0.230,-0.050
3.626,-0.240,-0.055
3.628,-0.235,-0.060
3.630,-0.270,-0.065
3.632,-0.280,-0.070
3.634,-0.315,-0.070
3.636,-0.295,-0.070
3.638,-0.265,-0.070
3.640,-0.265,-0.070
3.642,-0.235,-0.070
3.644,-0.235,-0.070
3.646,-0.270,-0.070
3.648,-0.295,-0.070
3.650,-0.330,-0.070
3.652,-0.315,-0.075
3.654,-0.285,-0.075
3.656,-0.270,-0.075
3.658,-0.290,-0.075
3.660,-0.245,-0.070
3.662,-0.215,-0.070
3.664,-0.210,-0.065
3.666,-0.235,-0.060
3.668,-0.255,-0.055
3.670,-0.300,-0.055
3.672,-0.300,-0.050
3.674,-0.270,-0.045
3.676,-0.280,-0.045
3.678,-0.260,-0.045
3.680,-0.240,-0.045
3.682,-0.240,-0.045
3.684,-0.255,-0.050
3.686,-0.250,-0.050
3.688,-0.260,-0.055
3.690,-0.260,-0.055
3.692,-0.275,-0.055
3.694,-0.285,-0.055
3.696,-0.270,-0.050
3.698,-0.255,-0.045
3.700,-0.215,-0.045
3.702,-0.220,-0.040
3.704,-0.210,-0.040
3.706,-0.210,-0.040
3.708,-0.185,-0.040
3.710,-0.270,-0.040
3.712,-0.290,-0.040
3.714,-0.290,-0.040
3.716,-0.280,-0.035
3.718,-0.225,-0.025
3.720,-0.175,-0.015
3.722,-0.185,-0.005
3.724,-0.195,0.000
3.726,-0.180,0.010
3.728,-0.200,0.015
3.730,-0.215,0.015
3.732,-0.230,0.010
3.734,-0.235,0.005
3.736,-0.265,0.005
3.738,-0.215,0.000
3.740,-0.175,0.005
3.742,-0.160,0.005
3.744,-0.170,0.015
3.746,-0.170,0.020
3.748,-0.140,0.030
3.750,-0.195,0.040
3.752,-0.205,0.045
3.754,-0.165,0.050
3.756,-0.180,0.055
3.758,-0.170,0.060
3.760,-0.145,0.065
3.762,-0.105,0.070
3.764,-0.120,0.075
3.766,-0.080,0.085
3.768,-0.080,0.095
3.770,-0.090,0.110
3.772,-0.120,0.120
3.774,-0.100,0.135
3.776,-0.085,0.145
3.778,-0.085,0.150
3.780,-0.020,0.155
3.782,-0.005,0.155
3.784,-0.040,0.160
3.786,-0.065,0.160
3.788,-0.085,0.160
3.790,-0.085,0.160
3.792,-0.055,0.165
3.794,-0.060,0.165
3.796,-0.055,0.170
3.798,-0.050,0.175
3.800,-0.035,0.175
3.802,-0.045,0.170
3.804,-0.010,0.165
3.806,-0.045,0.155
3.808,-0.095,0.145
3.810,-0.110,0.130
3.812,-0.120,0.120
3.814,-0.155,0.110
3.816,-0.120,0.105
3.818,-0.090,0.100
3.820,-0.035,0.100
3.822,-0.080,0.100
3.824,-0.085,0.105
3.826,-0.115,0.105
3.828,-0.120,0.105
3.830,-0.125,0.100
3.832,-0.170,0.090
3.834,-0.190,0.080
3.836,-0.190,0.060
3.838,-0.200,0.045
3.840,-0.150,0.025
3.842,-0.190,0.010
3.844,-0.225,-0.005
3.846,-0.215,-0.015
3.848,-0.200,-0.020
3.850,-0.275,-0.025
3.852,-0.305,-0.025
3.854,-0.255,-0.025
3.856,-0.265,-0.025
3.858,-0.250,-0.030
3.860,-0.240,-0.035
3.862,-0.280,-0.045
3.864,-0.265,-0.050
3.866,-0.265,-0.060
3.868,-0.280,-0.070
3.870,-0.300,-0.075
3.872,-0.325,-0.080
3.874,-0.330,-0.080
3.876,-0.335,-0.080
3.878,-0.310,-0.080
3.880,-0.245,-0.075
3.882,-0.220,-0.075
3.884,-0.275,-0.075
3.886,-0.320,-0.075
3.888,-0.285,-0.075
3.890,-0.300,-0.080
3.892,-0.365,-0.085
3.894,-0.385,-0.095
3.896,-0.330,-0.100
3.898,-0.285,-0.110
3.900,-0.335,-0.115
3.902,-0.305,-0.120
3.904,-0.300,-0.120
3.906,-0.325,-0.120
3.908,-0.315,-0.115
3.910,-0.325,-0.105
3.912,-0.325,-0.100
3.914,-0.380,-0.090
3.916,-0.340,-0.085
3.918,-0.335,-0.080
3.920,-0.270,-0.075
3.922,-0.260,-0.080
3.924,-0.245,-0.085
3.926,-0.295,-0.090
3.928,-0.360,-0.100
3.930,-0.375,-0.110
3.932,-0.365,-0.115
3.934,-0.375,-0.120
3.936,-0.390,-0.125
3.938,-0.360,-0.125
3.940,-0.290,-0.125
3.942,-0.305,-0.120
3.944,-0.330,-0.110
3.946,-0.385,-0.105
3.948,-0.330,-0.100
3.950,-0.350,-0.095
3.952,-0.375,-0.095
3.954,-0.370,-0.100
3.956,-0.320,-0.105
3.958,-0.360,-0.115
3.960,-0.350,-0.125
3.962,-0.350,-0.135
3.964,-0.360,-0.145
3.966,-0.405,-0.150
3.968,-0.405,-0.155
3.970,-0.420,-0.155
3.972,-0.420,-0.155
3.974,-0.400,-0.155
3.976,-0.390,-0.155
3.978,-0.395,-0.150
3.980,-0.365,-0.145
3.982,-0.375,-0.140
3.984,-0.315,-0.135
3.986,-0.315,-0.130
3.988,-0.325,-0.125
3.990,-0.360,-0.120
3.992,-0.375,-0.115
3.994,-0.400,-0.115
3.996,-0.370,-0.120
3.998,-0.370,-0.125
4.000,-0.360,-0.135
4.002,-0.395,-0.145
4.004,-0.380,-0.155
4.006,-0.370,-0.165
4.008,-0.390,-0.170
4.010,-0.380,-0.170
4.012,-0.380,-0.160
4.014,-0.385,-0.150
4.016,-0.410,-0.140
4.018,-0.350,-0.125
4.020,-0.325,-0.115
4.022,-0.335,-0.110
4.024,-0.365,-0.110
4.026,-0.375,-0.115
4.028,-0.405,-0.125
4.030,-0.405,-0.135
4.032,-0.415,-0.145
4.034,-0.420,-0.150
4.036,-0.445,-0.150
4.038,-0.355,-0.145
4.040,-0.295,-0.135
4.042,-0.310,-0.120
4.044,-0.335,-0.115
4.046,-0.375,-0.110
4.048,-0.410,-0.110
4.050,-0.435,-0.120
4.052,-0.440,-0.135
4.054,-0.390,-0.150
4.056,-0.400,-0.165
4.058,-0.405,-0.175
4.060,-0.380,-0.180
4.062,-0.380,-0.180
4.064,-0.355,-0.170
4.066,-0.365,-0.155
4.068,-0.390,-0.140
4.070,-0.430,-0.130
4.072,-0.405,-0.125
4.074,-0.400,-0.125
4.076,-0.395,-0.130
4.078,-0.355,-0.140
4.080,-0.345,-0.155
4.082,-0.390,-0.160
4.084,-0.455,-0.165
4.086,-0.410,-0.165
4.088,-0.385,-0.160
4.090,-0.395,-0.150
4.092,-0.410,-0.140
4.094,-0.375,-0.130
4.096,-0.400,-0.130
4.098,-0.365,-0.130
4.100,-0.370,-0.135
4.102,-0.370,-0.140
4.104,-0.360,-0.140
4.106,-0.340,-0.145
4.108,-0.405,-0.140
4.110,-0.385,-0.130
4.112,-0.400,-0.115
4.114,-0.380,-0.100
4.116,-0.330,-0.090
4.118,-0.240,-0.080
4.120,-0.260,-0.075
4.122,-0.315,-0.080
4.124,-0.365,-0.085
4.126,-0.380,-0.095
4.128,-0.415,-0.100
4.130,-0.390,-0.110
4.132,-0.305,-0.110
4.134,-0.300,-0.105
4.136,-0.350,-0.100
4.138,-0.335,-0.090
4.140,-0.295,-0.075
4.142,-0.305,-0.065
4.144,-0.305,-0.050
4.146,-0.250,-0.040
4.148,-0.305,-0.035
4.150,-0.330,-0.030
4.152,-0.275,-0.025
4.154,-0.260,-0.025
4.156,-0.255,-0.025
4.158,-0.265,-0.025
4.160,-0.245,-0.025
4.162,-0.240,-0.030
4.164,-0.280,-0.035
4.166,-0.330,-0.040
4.168,-0.300,-0.045
4.170,-0.335,-0.050
4.172,-0.360,-0.055
4.174,-0.310,-0.055
4.176,-0.280,-0.055
4.178,-0.230,-0.050
4.180,-0.245,-0.045
4.182,-0.265,-0.040
4.184,-0.325,-0.035
4.186,-0.315,-0.035
4.188,-0.335,-0.030
4.190,-0.350,-0.035
4.192,-0.335,-0.035
4.194,-0.280,-0.040
4.196,-0.270,-0.040
4.198,-0.235,-0.045
4.200,-0.245,-0.040
4.202,-0.265,-0.035
4.204,-0.265,-0.030
4.206,-0.285,-0.020
4.208,-0.340,-0.015
4.210,-0.280,-0.010
4.212,-0.265,-0.005
4.214,-0.290,-0.005
4.216,-0.280,-0.010
4.218,-0.245,-0.015
4.220,-0.240,-0.025
4.222,-0.210,-0.030
4.224,-0.285,-0.035
4.226,-0.295,-0.030
4.228,-0.325,-0.025
4.230,-0.295,-0.020
4.232,-0.285,-0.010
4.234,-0.235,0.000
4.236,-0.210,0.010
4.238,-0.160,0.015
4.240,-0.210,0.015
4.242,-0.260,0.015
4.244,-0.265,0.005
4.246,-0.295,0.000
4.248,-0.300,-0.005
4.250,-0.245,-0.010
4.252,-0.265,-0.010
4.254,-0.265,0.000
4.256,-0.225,0.015
4.258,-0.165,0.035
4.260,-0.185,0.055
4.262,-0.175,0.080
4.264,-0.155,0.095
4.266,-0.110,0.110
4.268,-0.125,0.115
4.270,-0.160,0.115
4.272,-0.160,0.110
4.274,-0.200,0.100
4.276,-0.195,0.090
4.278,-0.155,0.085
4.280,-0.130,0.090
4.282,-0.135,0.100
4.284,-0.120,0.120
4.286,-0.090,0.150
4.288,-0.030,0.180
4.290,-0.020,0.205
4.292,-0.005,0.220
4.294,-0.040,0.225
4.296,-0.085,0.210
4.298,-0.100,0.180
4.300,-0.155,0.140
4.302,-0.215,0.085
4.304,-0.195,0.030
4.306,-0.270,-0.020
4.308,-0.370,-0.065
4.310,-0.375,-0.095
4.312,-0.425,-0.110
4.314,-0.400,-0.115
4.316,-0.320,-0.105
4.318,-0.315,-0.085
4.320,-0.255,-0.060
4.322,-0.245,-0.030
4.324,-0.215,-0.005
4.326,-0.240,0.020
4.328,-0.225,0.045
4.330,-0.215,0.060
4.332,-0.210,0.075
4.334,-0.205,0.085
4.336,-0.130,0.090
4.338,-0.135,0.090
4.340,-0.120,0.085
4.342,-0.165,0.075
4.344,-0.165,0.070
4.346,-0.235,0.060
4.348,-0.235,0.050
4.350,-0.235,0.045
4.352,-0.230,0.045
4.354,-0.190,0.045
4.356,-0.170,0.050
4.358,-0.160,0.060
4.360,-0.120,0.065
4.362,-0.180,0.070
4.364,-0.165,0.075
4.366,-0.215,0.080
4.368,-0.215,0.080
4.370,-0.215,0.080
4.372,-0.150,0.080
4.374,-0.160,0.085
4.376,-0.170,0.085
4.378,-0.170,0.090
4.380,-0.105,0.095
4.382,-0.130,0.095
4.384,-0.170,0.100
4.386,-0.185,0.105
4.388,-0.180,0.105
4.390,-0.180,0.105
4.392,-0.180,0.105
4.394,-0.195,0.105
4.396,-0.125,0.100
4.398,-0.095,0.100
4.400,-0.120,0.100
4.402,-0.165,0.100
4.404,-0.150,0.105
4.406,-0.180,0.105
4.408,-0.200,0.110
4.410,-0.215,0.120
4.412,-0.160,0.125
4.414,-0.090,0.135
4.416,-0.090,0.140
4.418,-0.090,0.145
4.420,-0.030,0.145
4.422,-0.105,0.145
4.424,-0.155,0.140
4.426,-0.195,0.135
4.428,-0.200,0.130
4.430,-0.155,0.125
4.432,-0.105,0.120
4.434,-0.095,0.125
4.436,-0.105,0.125
4.438,-0.080,0.135
4.440,-0.075,0.145
4.442,-0.080,0.155
4.444,-0.110,0.165
4.446,-0.145,0.170
4.448,-0.125,0.175
4.450,-0.120,0.175
4.452,-0.105,0.175
4.454,-0.115,0.170
4.456,-0.070,0.165
4.458,-0.070,0.160
4.460,-0.040,0.160
4.462,-0.025,0.165
4.464,-0.085,0.170
4.466,-0.105,0.180
4.468,-0.085,0.190
4.470,-0.120,0.205
4.472,-0.060,0.215
4.474,-0.025,0.225
4.476,-0.005,0.230
4.478,0.020,0.235
4.480,0.050,0.235
4.482,0.020,0.235
4.484,-0.010,0.235
4.486,-0.045,0.235
4.488,-0.065,0.240
4.490,-0.065,0.245
4.492,-0.020,0.255
4.494,0.020,0.265
4.496,0.120,0.280
4.498,0.090,0.295
4.500,0.120,0.315
4.502,0.070,0.325
4.504,0.055,0.340
4.506,0.020,0.345
4.508,0.055,0.350
4.510,0.050,0.345
4.512,0.070,0.345
4.514,0.065,0.335
4.516,0.080,0.330
4.518,0.115,0.325
4.520,0.100,0.320
4.522,0.045,0.315
4.524,0.065,0.310
4.526,0.015,0.310
4.528,0.040,0.310
4.530,0.000,0.310
4.532,0.025,0.310
4.534,0.085,0.310
4.536,0.145,0.310
4.538,0.095,0.310
4.540,0.095,0.305
4.542,0.060,0.305
4.544,0.020,0.300
4.546,-0.015,0.290
4.548,-0.025,0.285
4.550,0.000,0.275
4.552,0.010,0.265
4.554,0.020,0.250
4.556,-0.005,0.240
4.558,-0.050,0.230
4.560,-0.015,0.220
4.562,-0.035,0.210
4.564,-0.075,0.200
4.566,-0.095,0.185
4.568,-0.120,0.175
4.570,-0.180,0.165
4.572,-0.165,0.155
4.574,-0.115,0.150
4.576,-0.030,0.145
4.578,-0.020,0.140
4.580,-0.065,0.140
4.582,-0.105,0.140
4.584,-0.120,0.135
4.586,-0.165,0.135
4.588,-0.170,0.125
4.590,-0.155,0.120
4.592,-0.190,0.105
4.594,-0.165,0.095
4.596,-0.175,0.085
4.598,-0.125,0.075
4.600,-0.150,0.065
4.602,-0.160,0.060
4.604,-0.170,0.060
4.606,-0.235,0.065
4.608,-0.235,0.065
4.610,-0.180,0.065
4.612,-0.200,0.060
4.614,-0.185,0.055
4.616,-0.190,0.045
4.618,-0.210,0.035
4.620,-0.220,0.020
4.622,-0.245,0.010
4.624,-0.255,0.000
4.626,-0.240,-0.005
4.628,-0.300,-0.005
4.630,-0.260,-0.005
4.632,-0.290,-0.005
4.634,-0.225,-0.005
4.636,-0.220,-0.010
4.638,-0.235,-0.015
4.640,-0.240,-0.020
4.642,-0.295,-0.030
4.644,-0.340,-0.035
4.646,-0.315,-0.045
4.648,-0.335,-0.045
4.650,-0.355,-0.045
4.652,-0.310,-0.040
4.654,-0.220,-0.035
4.656,-0.205,-0.030
4.658,-0.255,-0.030
4.660,-0.265,-0.030
4.662,-0.270,-0.035
4.664,-0.330,-0.040
4.666,-0.370,-0.045
4.668,-0.340,-0.055
4.670,-0.290,-0.055
4.672,-0.295,-0.055
4.674,-0.280,-0.055
4.676,-0.290,-0.050
4.678,-0.295,-0.045
4.680,-0.315,-0.045
4.682,-0.275,-0.045
4.684,-0.310,-0.045
4.686,-0.340,-0.055
4.688,-0.350,-0.060
4.690,-0.320,-0.065
4.692,-0.295,-0.065
4.694,-0.260,-0.065
4.696,-0.285,-0.065
4.698,-0.305,-0.060
4.700,-0.335,-0.055
4.702,-0.300,-0.050
4.704,-0.335,-0.050
4.706,-0.345,-0.050
4.708,-0.355,-0.055
4.710,-0.320,-0.065
4.712,-0.320,-0.070
4.714,-0.285,-0.075
4.716,-0.255,-0.080
4.718,-0.280,-0.080
4.720,-0.280,-0.080
4.722,-0.325,-0.075
4.724,-0.420,-0.070
4.726,-0.375,-0.070
4.728,-0.355,-0.070
4.730,-0.305,-0.070
4.732,-0.295,-0.070
4.734,-0.270,-0.070
4.736,-0.295,-0.070
4.738,-0.260,-0.070
4.740,-0.295,-0.065
4.742,-0.320,-0.060
4.744,-0.345,-0.055
4.746,-0.315,-0.050
4.748,-0.320,-0.045
4.750,-0.335,-0.045
4.752,-0.315,-0.050
4.754,-0.300,-0.055
4.756,-0.300,-0.060
4.758,-0.320,-0.070
4.760,-0.330,-0.080
4.762,-0.350,-0.090
4.764,-0.380,-0.095
4.766,-0.395,-0.100
4.768,-0.405,-0.105
4.770,-0.375,-0.105
4.772,-0.305,-0.100
4.774,-0.295,-0.100
4.776,-0.310,-0.095
4.778,-0.300,-0.090
4.780,-0.305,-0.085
4.782,-0.305,-0.085
4.784,-0.360,-0.080
4.786,-0.365,-0.080
4.788,-0.365,-0.085
4.790,-0.345,-0.090
4.792,-0.310,-0.095
4.794,-0.295,-0.100
4.796,-0.330,-0.105
4.798,-0.345,-0.105
4.800,-0.355,-0.110
4.802,-0.330,-0.110
4.804,-0.300,-0.105
4.806,-0.325,-0.100
4.808,-0.435,-0.095
4.810,-0.375,-0.090
4.812,-0.310,-0.085
4.814,-0.290,-0.080
4.816,-0.285,-0.075
4.818,-0.295,-0.075
4.820,-0.280,-0.075
4.822,-0.285,-0.075
4.824,-0.365,-0.080
4.826,-0.365,-0.080
4.828,-0.330,-0.080
4.830,-0.290,-0.075
4.832,-0.320,-0.075
4.834,-0.275,-0.070
4.836,-0.280,-0.065
4.838,-0.285,-0.060
4.840,-0.305,-0.060
4.842,-0.330,-0.060
4.844,-0.370,-0.060
4.846,-0.335,-0.065
4.848,-0.340,-0.065
4.850,-0.310,-0.065
4.852,-0.235,-0.065
4.854,-0.245,-0.060
4.856,-0.240,-0.060
4.858,-0.260,-0.055
4.860,-0.300,-0.050
4.862,-0.325,-0.050
4.864,-0.325,-0.055
4.866,-0.315,-0.055
4.868,-0.335,-0.060
4.870,-0.290,-0.065
4.872,-0.270,-0.065
4.874,-0.260,-0.065
4.876,-0.255,-0.060
4.878,-0.290,-0.050
4.880,-0.270,-0.040
4.882,-0.260,-0.035
4.884,-0.305,-0.030
4.886,-0.330,-0.025
4.888,-0.295,-0.025
4.890,-0.285,-0.030
4.892,-0.235,-0.040
4.894,-0.250,-0.050
4.896,-0.270,-0.060
4.898,-0.315,-0.075
4.900,-0.335,-0.080
4.902,-0.365,-0.090
4.904,-0.380,-0.095
4.906,-0.400,-0.100
4.908,-0.405,-0.105
4.910,-0.380,-0.110
4.912,-0.320,-0.115
4.914,-0.275,-0.115
4.916,-0.310,-0.115
4.918,-0.325,-0.115
4.920,-0.335,-0.110
4.922,-0.380,-0.105
4.924,-0.380,-0.105
4.926,-0.370,-0.105
4.928,-0.360,-0.105
4.930,-0.380,-0.110
4.932,-0.355,-0.115
4.934,-0.350,-0.120
4.936,-0.330,-0.130
4.938,-0.315,-0.130
4.940,-0.340,-0.135
4.942,-0.380,-0.130
4.944,-0.450,-0.125
4.946,-0.410,-0.115
4.948,-0.345,-0.105
4.950,-0.330,-0.100
4.952,-0.290,-0.095
4.954,-0.295,-0.090
4.956,-0.285,-0.090
4.958,-0.300,-0.095
4.960,-0.310,-0.100
4.962,-0.395,-0.100
4.964,-0.360,-0.105
4.966,-0.360,-0.100
4.968,-0.325,-0.100
4.970,-0.315,-0.095
4.972,-0.330,-0.090
4.974,-0.345,-0.090
4.976,-0.280,-0.085
4.978,-0.280,-0.085
4.980,-0.315,-0.085
4.982,-0.355,-0.090
4.984,-0.375,-0.090
4.986,-0.385,-0.085
4.988,-0.340,-0.080
4.990,-0.295,-0.070
4.992,-0.250,-0.055
4.994,-0.235,-0.040
4.996,-0.195,-0.025
4.998,-0.165,-0.015
5.000,-0.205,-0.005
5.002,-0.250,-0.005
5.004,-0.310,-0.005
5.006,-0.330,-0.015
5.008,-0.345,-0.025
5.010,-0.330,-0.030
5.012,-0.295,-0.035
5.014,-0.265,-0.030
5.016,-0.150,-0.020
5.018,-0.110,0.000
5.020,-0.115,0.020
5.022,-0.220,0.040
5.024,-0.205,0.055
5.026,-0.210,0.060
5.028,-0.240,0.045
5.030,-0.260,0.015
5.032,-0.305,-0.030
5.034,-0.310,-0.085
5.036,-0.295,-0.145
5.038,-0.430,-0.200
5.040,-0.500,-0.245
5.042,-0.565,-0.270
5.044,-0.525,-0.275
5.046,-0.550,-0.265
5.048,-0.500,-0.245
5.050,-0.455,-0.210
5.052,-0.345,-0.180
5.054,-0.285,-0.150
5.056,-0.300,-0.130
5.058,-0.360,-0.115
5.060,-0.340,-0.115
5.062,-0.405,-0.115
5.064,-0.380,-0.120
5.066,-0.375,-0.125
5.068,-0.370,-0.125
5.070,-0.350,-0.125
5.072,-0.270,-0.120
5.074,-0.285,-0.115
5.076,-0.285,-0.110
5.078,-0.335,-0.105
5.080,-0.365,-0.100
5.082,-0.360,-0.095
5.084,-0.330,-0.095
5.086,-0.355,-0.090
5.088,-0.310,-0.090
5.090,-0.295,-0.090
5.092,-0.235,-0.085
5.094,-0.310,-0.085
5.096,-0.295,-0.085
5.098,-0.325,-0.080
5.100,-0.350,-0.080
5.102,-0.365,-0.075
5.104,-0.270,-0.070
5.106,-0.295,-0.065
5.108,-0.285,-0.060
5.110,-0.265,-0.060
5.112,-0.240,-0.055
5.114,-0.280,-0.060
5.116,-0.255,-0.060
5.118,-0.285,-0.065
5.120,-0.335,-0.070
5.122,-0.335,-0.070
5.124,-0.300,-0.070
5.126,-0.320,-0.070
5.128,-0.325,-0.065
5.130,-0.285,-0.060
5.132,-0.210,-0.055
5.134,-0.225,-0.045
5.136,-0.250,-0.045
5.138,-0.265,-0.040
5.140,-0.290,-0.040
5.142,-0.330,-0.040
5.144,-0.315,-0.040
5.146,-0.300,-0.040
5.148,-0.255,-0.040
5.150,-0.190,-0.040
5.152,-0.205,-0.035
5.154,-0.240,-0.035
5.156,-0.225,-0.030
5.158,-0.245,-0.025
5.160,-0.280,-0.025
5.162,-0.270,-0.020
5.164,-0.260,-0.020
5.166,-0.295,-0.020
5.168,-0.230,-0.020
5.170,-0.210,-0.020
5.172,-0.170,-0.015
5.174,-0.200,-0.015
5.176,-0.235,-0.010
5.178,-0.260,-0.005
5.180,-0.255,0.000
5.182,-0.260,0.005
5.184,-0.265,0.010
5.186,-0.195,0.015
5.188,-0.190,0.020
5.190,-0.150,0.020
5.192,-0.140,0.020
5.194,-0.180,0.020
5.196,-0.175,0.020
5.198,-0.220,0.015
5.200,-0.240,0.015
5.202,-0.230,0.015
5.204,-0.230,0.020
5.206,-0.210,0.030
5.208,-0.205,0.045
5.210,-0.085,0.065
5.212,-0.095,0.085
5.214,-0.075,0.105
5.216,-0.060,0.125
5.218,-0.090,0.140
5.220,-0.120,0.145
5.222,-0.145,0.145
5.224,-0.120,0.145
5.226,-0.055,0.135
5.228,-0.080,0.130
5.230,-0.050,0.125
5.232,-0.070,0.130
5.234,-0.010,0.135
5.236,-0.065,0.150
5.238,-0.115,0.160
5.240,-0.085,0.175
5.242,-0.065,0.190
5.244,-0.060,0.195
5.246,-0.040,0.195
5.248,0.005,0.185
5.250,-0.005,0.175
5.252,0.005,0.160
5.254,0.000,0.150
5.256,-0.070,0.140
5.258,-0.105,0.135
5.260,-0.130,0.140
5.262,-0.100,0.140
5.264,-0.100,0.150
5.266,-0.045,0.155
5.268,-0.045,0.155
5.270,-0.005,0.155
5.272,-0.050,0.155
5.274,-0.080,0.145
5.276,-0.075,0.140
5.278,-0.085,0.130
5.280,-0.100,0.120
5.282,-0.145,0.110
5.284,-0.170,0.100
5.286,-0.130,0.090
5.288,-0.155,0.085
5.290,-0.090,0.075
5.292,-0.115,0.060
5.294,-0.170,0.050
5.296,-0.175,0.040
5.298,-0.170,0.030
5.300,-0.205,0.020
5.302,-0.210,0.015
5.304,-0.225,0.005
5.306,-0.205,0.000
5.308,-0.255,-0.005
5.310,-0.275,-0.015
5.312,-0.205,-0.020
5.314,-0.200,-0.030
5.316,-0.250,-0.035
5.318,-0.275,-0.045
5.320,-0.315,-0.050
5.322,-0.295,-0.055
5.324,-0.310,-0.060
5.326,-0.300,-0.060
5.328,-0.255,-0.060
5.330,-0.240,-0.055
5.332,-0.255,-0.055
5.334,-0.280,-0.055
5.336,-0.245,-0.055
5.338,-0.270,-0.055
5.340,-0.325,-0.055
5.342,-0.330,-0.060
5.344,-0.325,-0.060
5.346,-0.285,-0.065
5.348,-0.255,-0.070
5.350,-0.225,-0.080
5.352,-0.295,-0.085
5.354,-0.275,-0.085
5.356,-0.260,-0.090
5.358,-0.260,-0.090
5.360,-0.330,-0.085
5.362,-0.315,-0.080
5.364,-0.315,-0.070
5.366,-0.260,-0.060
5.368,-0.260,-0.050
5.370,-0.250,-0.045
5.372,-0.275,-0.040
5.374,-0.225,-0.040
5.376,-0.240,-0.040
5.378,-0.265,-0.050
5.380,-0.300,-0.055
5.382,-0.295,-0.065
5.384,-0.325,-0.070
5.386,-0.290,-0.075
5.388,-0.280,-0.075
5.390,-0.245,-0.075
5.392,-0.225,-0.070
5.394,-0.225,-0.065
5.396,-0.250,-0.060
5.398,-0.285,-0.060
5.400,-0.315,-0.065
5.402,-0.320,-0.070
5.404,-0.330,-0.075
5.406,-0.305,-0.085
5.408,-0.255,-0.090
5.410,-0.200,-0.090
5.412,-0.255,-0.085
5.414,-0.245,-0.075
5.416,-0.255,-0.065
5.418,-0.260,-0.050
5.420,-0.305,-0.040
5.422,-0.280,-0.035
5.424,-0.280,-0.030
5.426,-0.275,-0.035
5.428,-0.250,-0.040
5.430,-0.205,-0.045
5.432,-0.235,-0.055
5.434,-0.260,-0.055
5.436,-0.250,-0.055
5.438,-0.270,-0.050
5.440,-0.245,-0.045
5.442,-0.235,-0.035
5.444,-0.280,-0.025
5.446,-0.280,-0.020
5.448,-0.220,-0.020
5.450,-0.170,-0.025
5.452,-0.205,-0.035
5.454,-0.240,-0.040
5.456,-0.270,-0.045
5.458,-0.275,-0.050
5.460,-0.265,-0.050
5.462,-0.280,-0.045
5.464,-0.250,-0.035
5.466,-0.240,-0.025
5.468,-0.230,-0.020
5.470,-0.180,-0.010
5.472,-0.200,-0.010
5.474,-0.215,-0.010
5.476,-0.220,-0.015
5.478,-0.260,-0.025
5.480,-0.250,-0.030
5.482,-0.240,-0.040
5.484,-0.215,-0.040
5.486,-0.225,-0.040
5.488,-0.200,-0.040
5.490,-0.205,-0.035
5.492,-0.245,-0.030
5.494,-0.245,-0.025
5.496,-0.230,-0.025
5.498,-0.240,-0.025
5.500,-0.250,-0.025
5.502,-0.265,-0.025
5.504,-0.240,-0.025
5.506,-0.215,-0.025
5.508,-0.175,-0.025
5.510,-0.185,-0.025
5.512,-0.175,-0.020
5.514,-0.215,-0.020
5.516,-0.225,-0.015
5.518,-0.240,-0.015
5.520,-0.255,-0.010
5.522,-0.240,-0.010
5.524,-0.215,-0.010
5.526,-0.205,-0.010
5.528,-0.135,-0.005
5.530,-0.175,-0.005
5.532,-0.190,-0.005
5.534,-0.220,-0.005
5.536,-0.210,-0.005
5.538,-0.225,-0.005
5.540,-0.260,-0.005
5.542,-0.295,-0.005
5.544,-0.230,-0.005
5.546,-0.205,0.000
5.548,-0.140,0.005
5.550,-0.130,0.010
5.552,-0.145,0.015
5.554,-0.175,0.015
5.556,-0.190,0.020
5.558,-0.225,0.020
5.560,-0.210,0.020
5.562,-0.190,0.020
5.564,-0.190,0.015
5.566,-0.220,0.015
5.568,-0.140,0.020
5.570,-0.150,0.020
5.572,-0.145,0.020
5.574,-0.175,0.025
5.576,-0.165,0.025
5.578,-0.225,0.025
5.580,-0.205,0.025
5.582,-0.210,0.025
5.584,-0.165,0.025
5.586,-0.135,0.025
5.588,-0.110,0.030
5.590,-0.125,0.035
5.592,-0.165,0.045
5.594,-0.175,0.055
5.596,-0.120,0.065
5.598,-0.155,0.075
5.600,-0.140,0.080
5.602,-0.150,0.085
5.604,-0.105,0.085
5.606,-0.105,0.085
5.608,-0.065,0.085
5.610,-0.085,0.085
5.612,-0.090,0.085
5.614,-0.080,0.090
5.616,-0.130,0.095
5.618,-0.170,0.100
5.620,-0.125,0.105
5.622,-0.120,0.105
5.624,-0.095,0.100
5.626,-0.070,0.100
5.628,-0.045,0.090
5.630,-0.095,0.085
5.632,-0.095,0.075
5.634,-0.110,0.070
5.636,-0.145,0.065
5.638,-0.175,0.060
5.640,-0.215,0.060
5.642,-0.195,0.055
5.644,-0.140,0.045
5.646,-0.150,0.040
5.648,-0.130,0.030
5.650,-0.140,0.025
5.652,-0.145,0.015
5.654,-0.155,0.010
5.656,-0.220,0.010
5.658,-0.230,0.005
5.660,-0.185,0.010
5.662,-0.210,0.010
5.664,-0.230,0.010
5.666,-0.190,0.005
5.668,-0.170,0.005
5.670,-0.190,0.000
5.672,-0.185,-0.005
5.674,-0.180,-0.010
5.676,-0.200,-0.015
5.678,-0.240,-0.015
5.680,-0.230,-0.010
5.682,-0.205,-0.005
5.684,-0.225,0.000
5.686,-0.225,0.005
5.688,-0.155,0.005
5.690,-0.160,0.005
5.692,-0.190,0.005
5.694,-0.185,0.000
5.696,-0.220,-0.005
5.698,-0.210,-0.015
5.700,-0.200,-0.015
5.702,-0.230,-0.020
5.704,-0.255,-0.020
5.706,-0.210,-0.020
5.708,-0.190,-0.020
5.710,-0.210,-0.015
5.712,-0.215,-0.010
5.714,-0.185,-0.010
5.716,-0.185,-0.005
5.718,-0.220,0.000
5.720,-0.245,0.005
5.722,-0.280,0.005
5.724,-0.220,0.005
5.726,-0.120,0.000
5.728,-0.145,-0.005
5.730,-0.190,-0.005
5.732,-0.180,-0.010
5.734,-0.200,-0.005
5.736,-0.195,0.005
5.738,-0.195,0.020
5.740,-0.180,0.035
5.742,-0.130,0.055
5.744,-0.140,0.075
5.746,-0.080,0.085
5.748,-0.030,0.090
5.750,-0.060,0.085
5.752,-0.105,0.075
5.754,-0.155,0.065
5.756,-0.235,0.055
5.758,-0.240,0.055
5.760,-0.205,0.065
5.762,-0.170,0.085
5.764,-0.035,0.120
5.766,0.080,0.155
5.768,0.180,0.190
5.770,0.140,0.215
5.772,-0.010,0.220
5.774,-0.085,0.210
5.776,-0.145,0.175
5.778,-0.185,0.120
5.780,-0.185,0.055
5.782,-0.185,-0.010
5.784,-0.250,-0.070
5.786,-0.275,-0.115
5.788,-0.310,-0.145
5.790,-0.345,-0.155
5.792,-0.360,-0.150
5.794,-0.305,-0.130
5.796,-0.320,-0.105
5.798,-0.290,-0.080
5.800,-0.250,-0.050
5.802,-0.230,-0.030
5.804,-0.205,-0.010
5.806,-0.165,0.005
5.808,-0.140,0.015
5.810,-0.105,0.020
5.812,-0.130,0.025
5.814,-0.155,0.030
5.816,-0.200,0.030
5.818,-0.200,0.030
5.820,-0.225,0.025
5.822,-0.175,0.020
5.824,-0.190,0.015
5.826,-0.170,0.010
5.828,-0.135,0.010
5.830,-0.135,0.005
5.832,-0.160,0.005
5.834,-0.165,0.005
5.836,-0.210,0.005
5.838,-0.235,0.005
5.840,-0.275,0.005
5.842,-0.225,0.000
5.844,-0.220,0.000
5.846,-0.165,-0.005
5.848,-0.150,-0.005
5.850,-0.130,-0.005
5.852,-0.150,0.000
5.854,-0.155,0.010
5.856,-0.190,0.015
5.858,-0.185,0.025
5.860,-0.170,0.035
5.862,-0.165,0.040
5.864,-0.175,0.045
5.866,-0.150,0.050
5.868,-0.160,0.050
5.870,-0.070,0.050
5.872,-0.105,0.055
5.874,-0.130,0.055
5.876,-0.145,0.055
5.878,-0.175,0.055
5.880,-0.185,0.060
5.882,-0.155,0.060
5.884,-0.135,0.060
5.886,-0.135,0.060
5.888,-0.140,0.060
5.890,-0.085,0.060
5.892,-0.100,0.060
5.894,-0.145,0.060
5.896,-0.175,0.055
5.898,-0.150,0.055
5.900,-0.155,0.055
5.902,-0.185,0.050
5.904,-0.160,0.050
5.906,-0.095,0.050
5.908,-0.095,0.050
5.910,-0.085,0.050
5.912,-0.115,0.055
5.914,-0.145,0.060
5.916,-0.145,0.065
5.918,-0.105,0.070
5.920,-0.135,0.075
5.922,-0.120,0.085
5.924,-0.095,0.090
5.926,-0.040,0.090
5.928,-0.075,0.095
5.930,-0.085,0.095
5.932,-0.085,0.090
5.934,-0.125,0.090
5.936,-0.130,0.090
5.938,-0.090,0.090
5.940,-0.115,0.090
5.942,-0.095,0.095
5.944,-0.065,0.100
5.946,-0.045,0.105
5.948,-0.055,0.115
5.950,0.005,0.130
5.952,-0.015,0.140
5.954,-0.060,0.155
5.956,-0.100,0.165
5.958,-0.040,0.180
5.960,-0.065,0.185
5.962,-0.035,0.190
5.964,0.040,0.195
5.966,0.070,0.195
5.968,0.050,0.190
5.970,-0.005,0.185
5.972,-0.005,0.180
5.974,-0.045,0.175
5.976,-0.060,0.175
5.978,-0.020,0.175
5.980,-0.015,0.180
5.982,-0.020,0.185
5.984,0.015,0.190
5.986,0.025,0.195
5.988,0.030,0.200
5.990,0.070,0.200
5.992,0.035,0.205
5.994,-0.015,0.205
5.996,-0.050,0.200
5.998,-0.025,0.200
6.000,0.020,0.200
6.002,-0.015,0.200
6.004,0.045,0.200
6.006,0.060,0.200
6.008,0.035,0.200
6.010,0.040,0.195
6.012,-0.005,0.185
6.014,-0.055,0.175
6.016,-0.065,0.165
6.018,-0.050,0.155
6.020,-0.095,0.145
6.022,-0.035,0.140
6.024,0.040,0.135
6.026,0.000,0.135
6.028,-0.030,0.135
6.030,-0.045,0.130
6.032,-0.070,0.125
6.034,-0.110,0.115
6.036,-0.165,0.100
6.038,-0.160,0.085
6.040,-0.110,0.065
6.042,-0.175,0.045
6.044,-0.150,0.030
6.046,-0.110,0.015
6.048,-0.100,0.005
6.050,-0.150,-0.005
6.052,-0.210,-0.010
6.054,-0.250,-0.015
6.056,-0.255,-0.020
6.058,-0.265,-0.025
6.060,-0.280,-0.035
6.062,-0.255,-0.045
6.064,-0.170,-0.060
6.066,-0.225,-0.070
6.068,-0.255,-0.075
6.070,-0.235,-0.080
6.072,-0.255,-0.075
6.074,-0.280,-0.075
6.076,-0.275,-0.070
6.078,-0.255,-0.065
6.080,-0.270,-0.065
6.082,-0.280,-0.065
6.084,-0.255,-0.075
6.086,-0.250,-0.080
6.088,-0.270,-0.090
6.090,-0.270,-0.095
6.092,-0.270,-0.100
6.094,-0.265,-0.100
6.096,-0.295,-0.100
6.098,-0.280,-0.095
6.100,-0.295,-0.085
6.102,-0.270,-0.080
6.104,-0.260,-0.075
6.106,-0.255,-0.075
6.108,-0.255,-0.075
6.110,-0.240,-0.080
6.112,-0.275,-0.090
6.114,-0.320,-0.095
6.116,-0.315,-0.100
6.118,-0.320,-0.105
6.120,-0.265,-0.105
6.122,-0.285,-0.105
6.124,-0.280,-0.100
6.126,-0.255,-0.100
6.128,-0.270,-0.100
6.130,-0.300,-0.100
6.132,-0.300,-0.105
6.134,-0.295,-0.110
6.136,-0.315,-0.115
6.138,-0.345,-0.120
6.140,-0.315,-0.120
6.142,-0.295,-0.115
6.144,-0.275,-0.110
6.146,-0.270,-0.105
6.148,-0.225,-0.100
6.150,-0.240,-0.095
6.152,-0.270,-0.095
6.154,-0.340,-0.095
6.156,-0.350,-0.095
6.158,-0.330,-0.100
6.160,-0.305,-0.105
6.162,-0.260,-0.110
6.164,-0.225,-0.110
6.166,-0.265,-0.110
6.168,-0.260,-0.105
6.170,-0.295,-0.100
6.172,-0.305,-0.090
6.174,-0.265,-0.080
6.176,-0.245,-0.075
6.178,-0.295,-0.070
6.180,-0.295,-0.065
6.182,-0.315,-0.065
6.184,-0.215,-0.070
6.186,-0.230,-0.075
6.188,-0.220,-0.080
6.190,-0.270,-0.090
6.192,-0.275,-0.095
6.194,-0.320,-0.105
6.196,-0.325,-0.105
6.198,-0.305,-0.105
6.200,-0.280,-0.100
6.202,-0.250,-0.095
6.204,-0.245,-0.090
6.206,-0.255,-0.085
6.208,-0.225,-0.080
6.210,-0.255,-0.075
6.212,-0.275,-0.075
6.214,-0.315,-0.080
6.216,-0.320,-0.085
6.218,-0.335,-0.090
6.220,-0.305,-0.095
6.222,-0.265,-0.100
6.224,-0.220,-0.100
6.226,-0.235,-0.100
6.228,-0.255,-0.095
6.230,-0.270,-0.095
6.232,-0.285,-0.090
6.234,-0.335,-0.090
6.236,-0.315,-0.090
6.238,-0.345,-0.090
6.240,-0.300,-0.090
6.242,-0.220,-0.085
6.244,-0.225,-0.080
6.246,-0.245,-0.075
6.248,-0.220,-0.070
6.250,-0.230,-0.065
6.252,-0.245,-0.060
6.254,-0.280,-0.060
6.256,-0.295,-0.060
6.258,-0.335,-0.060
6.260,-0.300,-0.065
6.262,-0.270,-0.070
6.264,-0.215,-0.070
6.266,-0.210,-0.075
6.268,-0.195,-0.075
6.270,-0.245,-0.070
6.272,-0.305,-0.070
6.274,-0.290,-0.075
6.276,-0.330,-0.075
6.278,-0.305,-0.080
6.280,-0.330,-0.085
6.282,-0.310,-0.090
6.284,-0.240,-0.090
6.286,-0.210,-0.090
6.288,-0.215,-0.085
6.290,-0.215,-0.075
6.292,-0.290,-0.070
6.294,-0.290,-0.060
6.296,-0.280,-0.060
6.298,-0.300,-0.060
6.300,-0.310,-0.065
6.302,-0.275,-0.075
6.304,-0.280,-0.085
6.306,-0.255,-0.090
6.308,-0.245,-0.095
6.310,-0.225,-0.095
6.312,-0.295,-0.085
6.314,-0.290,-0.080
6.316,-0.275,-0.065
6.318,-0.265,-0.055
6.320,-0.270,-0.050
6.322,-0.245,-0.050
6.324,-0.205,-0.050
6.326,-0.235,-0.055
6.328,-0.240,-0.060
6.330,-0.270,-0.065
6.332,-0.275,-0.065
6.334,-0.310,-0.060
6.336,-0.290,-0.055
6.338,-0.255,-0.045
6.340,-0.195,-0.030
6.342,-0.170,-0.020
6.344,-0.170,-0.015
6.346,-0.230,-0.010
6.348,-0.195,-0.015
6.350,-0.200,-0.020
6.352,-0.295,-0.025
6.354,-0.280,-0.035
6.356,-0.250,-0.040
6.358,-0.230,-0.040
6.360,-0.195,-0.040
6.362,-0.165,-0.030
6.364,-0.165,-0.020
6.366,-0.180,-0.010
6.368,-0.195,0.005
6.370,-0.185,0.015
6.372,-0.235,0.020
6.374,-0.150,0.020
6.376,-0.195,0.015
6.378,-0.265,0.005
6.380,-0.285,-0.010
6.382,-0.205,-0.025
6.384,-0.175,-0.040
6.386,-0.190,-0.055
6.388,-0.270,-0.065
6.390,-0.270,-0.075
6.392,-0.290,-0.075
6.394,-0.310,-0.070
6.396,-0.355,-0.070
6.398,-0.305,-0.065
6.400,-0.260,-0.060
6.402,-0.230,-0.060
6.404,-0.235,-0.065
6.406,-0.220,-0.065
6.408,-0.285,-0.070
6.410,-0.280,-0.075
6.412,-0.270,-0.070
6.414,-0.270,-0.070
6.416,-0.320,-0.060
6.418,-0.280,-0.055
6.420,-0.225,-0.050
6.422,-0.220,-0.045
6.424,-0.265,-0.045
6.426,-0.285,-0.055
6.428,-0.275,-0.060
6.430,-0.255,-0.070
6.432,-0.300,-0.080
6.434,-0.320,-0.090
6.436,-0.355,-0.095
6.438,-0.305,-0.095
6.440,-0.300,-0.095
6.442,-0.260,-0.090
6.444,-0.245,-0.085
6.446,-0.245,-0.080
6.448,-0.305,-0.080
6.450,-0.315,-0.080
6.452,-0.335,-0.080
6.454,-0.330,-0.080
6.456,-0.305,-0.080
6.458,-0.265,-0.075
6.460,-0.265,-0.070
6.462,-0.235,-0.065
6.464,-0.220,-0.060
6.466,-0.215,-0.055
6.468,-0.270,-0.055
6.470,-0.310,-0.050
6.472,-0.325,-0.050
6.474,-0.290,-0.045
6.476,-0.255,-0.040
6.478,-0.250,-0.030
6.480,-0.205,-0.020
6.482,-0.190,-0.005
6.484,-0.175,0.005
6.486,-0.150,0.015
6.488,-0.155,0.020
6.490,-0.165,0.020
6.492,-0.245,0.020
6.494,-0.250,0.010
6.496,-0.230,0.005
6.498,-0.275,0.000
6.500,-0.210,0.005
6.502,-0.155,0.020
6.504,-0.105,0.045
6.506,-0.080,0.075
6.508,-0.070,0.105
6.510,-0.035,0.135
6.512,-0.065,0.160
6.514,-0.110,0.165
6.516,-0.135,0.155
6.518,-0.130,0.125
6.520,-0.130,0.080
6.522,-0.200,0.025
6.524,-0.225,-0.035
6.526,-0.290,-0.095
6.528,-0.380,-0.145
6.530,-0.445,-0.180
6.532,-0.530,-0.195
6.534,-0.485,-0.195
6.536,-0.405,-0.185
6.538,-0.405,-0.160
6.540,-0.310,-0.135
6.542,-0.250,-0.105
6.544,-0.260,-0.080
6.546,-0.270,-0.060
6.548,-0.265,-0.045
6.550,-0.250,-0.035
6.552,-0.305,-0.025
6.554,-0.255,-0.015
6.556,-0.245,-0.010
6.558,-0.230,0.000
6.560,-0.235,0.005
6.562,-0.245,0.010
6.564,-0.185,0.010
6.566,-0.195,0.010
6.568,-0.240,0.005
6.570,-0.260,0.000
6.572,-0.280,-0.005
6.574,-0.295,-0.010
6.576,-0.275,-0.015
6.578,-0.265,-0.020
6.580,-0.255,-0.020
6.582,-0.240,-0.020
6.584,-0.185,-0.020
6.586,-0.165,-0.015
6.588,-0.220,-0.015
6.590,-0.300,-0.015
6.592,-0.285,-0.010
6.594,-0.285,-0.010
6.596,-0.255,-0.010
6.598,-0.275,-0.010
6.600,-0.235,-0.005
6.602,-0.160,-0.005
6.604,-0.190,-0.005
6.606,-0.225,-0.005
6.608,-0.240,-0.005
6.610,-0.280,-0.005
6.612,-0.280,-0.005
6.614,-0.320,-0.005
6.616,-0.305,-0.005
6.618,-0.260,-0.005
6.620,-0.195,0.000
6.622,-0.180,0.000
6.624,-0.210,0.005
6.626,-0.160,0.005
6.628,-0.180,0.010
6.630,-0.310,0.015
6.632,-0.285,0.015
6.634,-0.290,0.020
6.636,-0.260,0.020
6.638,-0.185,0.025
6.640,-0.165,0.030
6.642,-0.175,0.035
6.644,-0.170,0.040
6.646,-0.200,0.040
6.648,-0.195,0.040
6.650,-0.215,0.040
6.652,-0.230,0.035
6.654,-0.285,0.035
6.656,-0.255,0.030
6.658,-0.215,0.030
6.660,-0.170,0.030
6.662,-0.135,0.035
6.664,-0.155,0.040
6.666,-0.170,0.045
6.668,-0.160,0.055
6.670,-0.225,0.060
6.672,-0.250,0.065
6.674,-0.265,0.065
6.676,-0.220,0.065
6.678,-0.200,0.060
6.680,-0.180,0.055
6.682,-0.145,0.055
6.684,-0.130,0.050
6.686,-0.155,0.055
6.688,-0.175,0.060
6.690,-0.205,0.070
6.692,-0.210,0.080
6.694,-0.185,0.095
6.696,-0.180,0.110
6.698,-0.135,0.120
6.700,-0.095,0.125
6.702,-0.065,0.130
6.704,-0.045,0.130
6.706,-0.100,0.130
6.708,-0.165,0.130
6.710,-0.170,0.130
6.712,-0.155,0.130
6.714,-0.170,0.135
6.716,-0.150,0.140
6.718,-0.140,0.150
6.720,-0.075,0.160
6.722,-0.055,0.170
6.724,0.015,0.180
6.726,-0.055,0.195
6.728,-0.105,0.200
6.730,-0.070,0.210
6.732,-0.090,0.215
6.734,-0.090,0.215
6.736,-0.040,0.215
6.738,-0.065,0.220
6.740,-0.020,0.220
6.742,-0.005,0.220
6.744,0.025,0.220
6.746,-0.030,0.215
6.748,-0.095,0.215
6.750,-0.140,0.210
6.752,-0.105,0.205
6.754,-0.120,0.195
6.756,-0.135,0.185
6.758,-0.100,0.175
6.760,-0.055,0.170
6.762,-0.025,0.165
6.764,0.000,0.160
6.766,-0.090,0.160
6.768,-0.150,0.160
6.770,-0.185,0.165
6.772,-0.130,0.165
6.774,-0.130,0.160
6.776,-0.185,0.155
6.778,-0.175,0.140
6.780,-0.140,0.125
6.782,-0.135,0.110
6.784,-0.155,0.090
6.786,-0.200,0.075
6.788,-0.230,0.060
6.790,-0.275,0.050
6.792,-0.285,0.045
6.794,-0.265,0.040
6.796,-0.250,0.035
6.798,-0.230,0.035
6.800,-0.205,0.035
6.802,-0.220,0.030
6.804,-0.240,0.025
6.806,-0.260,0.020
6.808,-0.315,0.015
6.810,-0.290,0.005
6.812,-0.295,-0.005
6.814,-0.355,-0.015
6.816,-0.345,-0.025
6.818,-0.300,-0.030
6.820,-0.300,-0.035
6.822,-0.285,-0.040
6.824,-0.300,-0.040
6.826,-0.330,-0.040
6.828,-0.320,-0.035
6.830,-0.325,-0.035
6.832,-0.360,-0.035
6.834,-0.365,-0.035
6.836,-0.350,-0.035
6.838,-0.300,-0.035
6.840,-0.260,-0.035
6.842,-0.265,-0.035
6.844,-0.295,-0.035
6.846,-0.330,-0.030
6.848,-0.385,-0.030
6.850,-0.325,-0.030
6.852,-0.350,-0.030
6.854,-0.340,-0.030
6.856,-0.385,-0.035
6.858,-0.305,-0.040
6.860,-0.245,-0.045
6.862,-0.295,-0.045
6.864,-0.305,-0.045
6.866,-0.315,-0.040
6.868,-0.325,-0.035
6.870,-0.335,-0.025
6.872,-0.360,-0.015
6.874,-0.335,-0.005
6.876,-0.290,0.000
6.878,-0.285,0.005
6.880,-0.275,0.005
6.882,-0.285,0.000
6.884,-0.295,0.000
6.886,-0.260,-0.005
6.888,-0.310,0.000
6.890,-0.310,0.000
6.892,-0.340,0.005
6.894,-0.305,0.005
6.896,-0.300,0.010
6.898,-0.285,0.010
6.900,-0.270,0.005
6.902,-0.280,0.000
6.904,-0.345,-0.005
6.906,-0.335,-0.010
6.908,-0.295,-0.010
6.910,-0.320,-0.010
6.912,-0.335,-0.005
6.914,-0.310,0.005
6.916,-0.280,0.015
6.918,-0.245,0.030
6.920,-0.210,0.035
6.922,-0.230,0.040
6.924,-0.260,0.045
6.926,-0.270,0.045
6.928,-0.325,0.040
6.930,-0.345,0.040
6.932,-0.310,0.035
6.934,-0.255,0.040
6.936,-0.240,0.040
6.938,-0.235,0.045
6.940,-0.235,0.050
6.942,-0.200,0.050
6.944,-0.235,0.055
6.946,-0.300,0.050
6.948,-0.310,0.050
6.950,-0.295,0.045
6.952,-0.310,0.040
6.954,-0.280,0.035
6.956,-0.280,0.035
6.958,-0.230,0.035
6.960,-0.200,0.040
6.962,-0.230,0.045
6.964,-0.250,0.055
6.966,-0.290,0.060
6.968,-0.330,0.060
6.970,-0.300,0.065
6.972,-0.295,0.060
6.974,-0.290,0.060
6.976,-0.295,0.055
6.978,-0.215,0.050
6.980,-0.210,0.040
6.982,-0.255,0.035
6.984,-0.305,0.025
6.986,-0.330,0.020
6.988,-0.385,0.015
6.990,-0.340,0.005
6.992,-0.335,0.005
6.994,-0.305,0.000
6.996,-0.330,0.000
6.998,-0.285,0.000
7.000,-0.315,0.005
7.002,-0.260,0.010
7.004,-0.280,0.010
7.006,-0.320,0.015
7.008,-0.360,0.010
7.010,-0.350,0.010
7.012,-0.395,0.005
7.014,-0.350,0.000
7.016,-0.305,-0.005
7.018,-0.250,-0.010
7.020,-0.285,-0.010
7.022,-0.295,-0.010
7.024,-0.290,-0.005
7.026,-0.345,0.000
7.028,-0.375,0.000
7.030,-0.390,0.005
7.032,-0.345,0.005
7.034,-0.300,0.005
7.036,-0.320,0.005
7.038,-0.285,0.000
7.040,-0.295,0.000
7.042,-0.285,0.000
7.044,-0.305,0.000
7.046,-0.335,0.005
7.048,-0.345,0.010
7.050,-0.330,0.020
7.052,-0.345,0.030
7.054,-0.305,0.035
7.056,-0.285,0.045
7.058,-0.255,0.050
7.060,-0.275,0.055
7.062,-0.235,0.060
7.064,-0.260,0.055
7.066,-0.295,0.055
7.068,-0.365,0.045
7.070,-0.350,0.040
7.072,-0.360,0.035
7.074,-0.345,0.030
7.076,-0.315,0.025
7.078,-0.260,0.025
7.080,-0.285,0.025
7.082,-0.290,0.030
7.084,-0.270,0.035
7.086,-0.290,0.040
7.088,-0.270,0.045
7.090,-0.310,0.045
7.092,-0.370,0.045
7.094,-0.335,0.040
7.096,-0.315,0.035
7.098,-0.305,0.030
7.100,-0.295,0.025
7.102,-0.315,0.015
7.104,-0.355,0.010
7.106,-0.380,0.000
7.108,-0.400,-0.010
7.110,-0.405,-0.015
7.112,-0.390,-0.025
7.114,-0.400,-0.035
7.116,-0.415,-0.040
7.118,-0.400,-0.045
7.120,-0.335,-0.045
7.122,-0.325,-0.045
7.124,-0.395,-0.040
7.126,-0.380,-0.035
7.128,-0.395,-0.030
7.130,-0.425,-0.030
7.132,-0.385,-0.025
7.134,-0.375,-0.030
7.136,-0.365,-0.035
7.138,-0.395,-0.040
7.140,-0.435,-0.050
7.142,-0.425,-0.055
7.144,-0.380,-0.060
7.146,-0.380,-0.060
7.148,-0.455,-0.060
7.150,-0.425,-0.055
7.152,-0.425,-0.045
7.154,-0.425,-0.045
7.156,-0.405,-0.040
7.158,-0.400,-0.045
7.160,-0.400,-0.050
7.162,-0.420,-0.055
7.164,-0.405,-0.060
7.166,-0.430,-0.065
7.168,-0.465,-0.070
7.170,-0.450,-0.070
7.172,-0.420,-0.065
7.174,-0.385,-0.055
7.176,-0.355,-0.050
7.178,-0.380,-0.050
7.180,-0.375,-0.050
7.182,-0.395,-0.050
7.184,-0.405,-0.060
7.186,-0.475,-0.065
7.188,-0.475,-0.070
7.190,-0.445,-0.070
7.192,-0.400,-0.065
7.194,-0.405,-0.055
7.196,-0.390,-0.035
7.198,-0.330,-0.015
7.200,-0.310,0.005
7.202,-0.335,0.020
7.204,-0.350,0.025
7.206,-0.375,0.025
7.208,-0.385,0.015
7.210,-0.410,0.005
7.212,-0.430,-0.005
7.214,-0.425,-0.015
7.216,-0.375,-0.015
7.218,-0.325,0.000
7.220,-0.290,0.020
7.222,-0.250,0.050
7.224,-0.185,0.080
7.226,-0.225,0.105
7.228,-0.255,0.120
7.230,-0.305,0.125
7.232,-0.305,0.105
7.234,-0.340,0.070
7.236,-0.390,0.025
7.238,-0.410,-0.030
7.240,-0.415,-0.090
7.242,-0.475,-0.145
7.244,-0.570,-0.190
7.246,-0.655,-0.220
7.248,-0.680,-0.235
7.250,-0.665,-0.235
7.252,-0.575,-0.220
7.254,-0.555,-0.200
7.256,-0.500,-0.175
7.258,-0.465,-0.150
7.260,-0.430,-0.120
7.262,-0.430,-0.100
7.264,-0.390,-0.080
7.266,-0.465,-0.065
7.268,-0.470,-0.050
7.270,-0.505,-0.045
7.272,-0.450,-0.040
7.274,-0.410,-0.045
7.276,-0.400,-0.050
7.278,-0.400,-0.055
7.280,-0.415,-0.065
7.282,-0.435,-0.075
7.284,-0.450,-0.085
7.286,-0.445,-0.090
7.288,-0.540,-0.090
7.290,-0.535,-0.090
7.292,-0.465,-0.085
7.294,-0.415,-0.075
7.296,-0.390,-0.070
7.298,-0.385,-0.060
7.300,-0.390,-0.055
7.302,-0.425,-0.050
7.304,-0.410,-0.045
7.306,-0.430,-0.045
7.308,-0.485,-0.045
7.310,-0.465,-0.045
7.312,-0.435,-0.045
7.314,-0.410,-0.045
7.316,-0.405,-0.050
7.318,-0.410,-0.050
7.320,-0.405,-0.055
7.322,-0.415,-0.060
7.324,-0.460,-0.060
7.326,-0.495,-0.065
7.328,-0.485,-0.070
7.330,-0.465,-0.070
7.332,-0.425,-0.065
7.334,-0.390,-0.060
7.336,-0.370,-0.055
7.338,-0.360,-0.045
7.340,-0.395,-0.035
7.342,-0.400,-0.030
7.344,-0.425,-0.025
7.346,-0.475,-0.020
7.348,-0.440,-0.020
7.350,-0.455,-0.025
7.352,-0.390,-0.030
7.354,-0.375,-0.030
7.356,-0.405,-0.035
7.358,-0.390,-0.035
7.360,-0.360,-0.035
7.362,-0.380,-0.030
7.364,-0.430,-0.025
7.366,-0.465,-0.020
7.368,-0.430,-0.015
7.370,-0.420,-0.015
7.372,-0.415,-0.010
7.374,-0.390,-0.005
7.376,-0.340,-0.005
7.378,-0.370,-0.005
7.380,-0.385,0.000
7.382,-0.355,0.005
7.384,-0.400,0.005
7.386,-0.405,0.010
7.388,-0.375,0.010
7.390,-0.370,0.010
7.392,-0.405,0.015
7.394,-0.385,0.015
7.396,-0.345,0.015
7.398,-0.310,0.020
7.400,-0.300,0.025
7.402,-0.270,0.030
7.404,-0.360,0.040
7.406,-0.360,0.050
7.408,-0.360,0.065
7.410,-0.340,0.080
7.412,-0.325,0.095
7.414,-0.260,0.105
7.416,-0.245,0.115
7.418,-0.240,0.120
7.420,-0.250,0.125
7.422,-0.250,0.130
7.424,-0.290,0.130
7.426,-0.275,0.130
7.428,-0.250,0.130
7.430,-0.240,0.130
7.432,-0.290,0.135
7.434,-0.260,0.140
7.436,-0.210,0.145
7.438,-0.175,0.155
7.440,-0.185,0.165
7.442,-0.195,0.170
7.444,-0.210,0.180
7.446,-0.280,0.185
7.448,-0.240,0.190
7.450,-0.230,0.185
7.452,-0.200,0.185
7.454,-0.195,0.175
7.456,-0.195,0.170
7.458,-0.200,0.165
7.460,-0.210,0.160
7.462,-0.210,0.155
7.464,-0.240,0.160
7.466,-0.250,0.165
7.468,-0.265,0.170
7.470,-0.205,0.175
7.472,-0.200,0.180
7.474,-0.210,0.180
7.476,-0.220,0.175
7.478,-0.245,0.165
7.480,-0.245,0.150
7.482,-0.220,0.135
7.484,-0.295,0.115
7.486,-0.315,0.100
7.488,-0.325,0.090
7.490,-0.305,0.080
7.492,-0.320,0.070
7.494,-0.330,0.065
7.496,-0.310,0.060
7.498,-0.285,0.050
7.500,-0.340,0.040
7.502,-0.380,0.030
7.504,-0.380,0.020
7.506,-0.400,0.010
7.508,-0.405,0.005
7.510,-0.385,0.000
7.512,-0.405,0.000
7.514,-0.380,-0.005
7.516,-0.380,-0.010
7.518,-0.380,-0.015
7.520,-0.395,-0.020
7.522,-0.460,-0.030
7.524,-0.490,-0.035
7.526,-0.460,-0.045
7.528,-0.445,-0.050
7.530,-0.400,-0.050
7.532,-0.410,-0.045
7.534,-0.380,-0.045
7.536,-0.440,-0.045
7.538,-0.405,-0.045
7.540,-0.425,-0.050
7.542,-0.425,-0.060
7.544,-0.475,-0.070
7.546,-0.545,-0.085
7.548,-0.560,-0.095
7.550,-0.510,-0.100
7.552,-0.430,-0.100
7.554,-0.395,-0.095
7.556,-0.430,-0.085
7.558,-0.405,-0.075
7.560,-0.405,-0.060
7.562,-0.445,-0.050
7.564,-0.480,-0.050
7.566,-0.470,-0.055
7.568,-0.475,-0.065
7.570,-0.505,-0.080
7.572,-0.465,-0.090
7.574,-0.420,-0.105
7.576,-0.450,-0.110
7.578,-0.450,-0.110
7.580,-0.475,-0.105
7.582,-0.475,-0.095
7.584,-0.490,-0.085
7.586,-0.480,-0.075
7.588,-0.485,-0.065
7.590,-0.435,-0.060
7.592,-0.445,-0.060
7.594,-0.400,-0.065
7.596,-0.395,-0.070
7.598,-0.390,-0.075
7.600,-0.460,-0.080
7.602,-0.530,-0.080
7.604,-0.550,-0.075
7.606,-0.420,-0.075
7.608,-0.450,-0.070
7.610,-0.470,-0.065
7.612,-0.415,-0.060
7.614,-0.365,-0.055
7.616,-0.390,-0.050
7.618,-0.390,-0.045
7.620,-0.415,-0.040
7.622,-0.490,-0.035
7.624,-0.425,-0.030
7.626,-0.435,-0.025
7.628,-0.415,-0.020
7.630,-0.390,-0.015
7.632,-0.390,-0.020
7.634,-0.385,-0.025
7.636,-0.355,-0.030
7.638,-0.380,-0.035
7.640,-0.440,-0.040
7.642,-0.450,-0.040
7.644,-0.430,-0.040
7.646,-0.425,-0.035
7.648,-0.415,-0.030
7.650,-0.405,-0.020
7.652,-0.350,-0.010
7.654,-0.310,-0.005
7.656,-0.315,0.000
7.658,-0.385,0.005
7.660,-0.440,0.005
7.662,-0.390,0.000
7.664,-0.405,-0.005
7.666,-0.430,-0.010
7.668,-0.410,-0.010
7.670,-0.410,-0.015
7.672,-0.360,-0.020
7.674,-0.345,-0.020
7.676,-0.380,-0.020
7.678,-0.380,-0.020
7.680,-0.335,-0.015
7.682,-0.385,-0.015
7.684,-0.450,-0.010
7.686,-0.405,-0.005
7.688,-0.380,0.000
7.690,-0.365,0.000
7.692,-0.360,0.000
7.694,-0.350,0.000
7.696,-0.370,-0.005
7.698,-0.370,-0.010
7.700,-0.350,-0.015
7.702,-0.390,-0.015
7.704,-0.385,-0.020
7.706,-0.395,-0.020
7.708,-0.415,-0.015
7.710,-0.425,-0.010
7.712,-0.370,-0.005
7.714,-0.335,0.000
7.716,-0.325,0.005
7.718,-0.355,0.000
7.720,-0.360,0.000
7.722,-0.390,-0.005
7.724,-0.430,-0.010
7.726,-0.420,-0.015
7.728,-0.375,-0.015
7.730,-0.380,-0.015
7.732,-0.315,-0.010
7.734,-0.335,-0.005
7.736,-0.320,0.000
7.738,-0.350,0.005
7.740,-0.390,0.000
7.742,-0.370,0.000
7.744,-0.370,-0.010
7.746,-0.440,-0.020
7.748,-0.400,-0.030
7.750,-0.350,-0.035
7.752,-0.325,-0.040
7.754,-0.360,-0.040
7.756,-0.350,-0.030
7.758,-0.360,-0.020
7.760,-0.350,-0.010
7.762,-0.360,0.000
7.764,-0.400,0.010
7.766,-0.400,0.015
7.768,-0.350,0.015
7.770,-0.345,0.010
7.772,-0.300,0.005
7.774,-0.275,0.000
7.776,-0.315,0.000
7.778,-0.335,-0.005
7.780,-0.350,0.000
7.782,-0.380,0.005
7.784,-0.370,0.010
7.786,-0.375,0.020
7.788,-0.290,0.025
7.790,-0.310,0.035
7.792,-0.275,0.040
7.794,-0.290,0.045
7.796,-0.280,0.045
7.798,-0.260,0.050
7.800,-0.285,0.050
7.802,-0.335,0.055
7.804,-0.335,0.055
7.806,-0.345,0.060
7.808,-0.290,0.060
7.810,-0.270,0.065
7.812,-0.270,0.065
7.814,-0.250,0.060
7.816,-0.225,0.055
7.818,-0.260,0.050
7.820,-0.300,0.040
7.822,-0.365,0.030
7.824,-0.410,0.015
7.826,-0.440,0.005
7.828,-0.385,-0.010
7.830,-0.355,-0.025
7.832,-0.335,-0.035
7.834,-0.350,-0.040
7.836,-0.335,-0.040
7.838,-0.355,-0.035
7.840,-0.355,-0.025
7.842,-0.395,-0.015
7.844,-0.390,-0.010
7.846,-0.400,-0.005
7.848,-0.320,-0.005
7.850,-0.345,-0.010
7.852,-0.350,-0.015
7.854,-0.375,-0.030
7.856,-0.325,-0.040
7.858,-0.380,-0.050
7.860,-0.405,-0.055
7.862,-0.440,-0.060
7.864,-0.440,-0.065
7.866,-0.405,-0.060
7.868,-0.375,-0.060
7.870,-0.380,-0.055
7.872,-0.325,-0.055
7.874,-0.350,-0.050
7.876,-0.395,-0.050
7.878,-0.365,-0.050
7.880,-0.375,-0.050
7.882,-0.450,-0.055
7.884,-0.425,-0.055
7.886,-0.415,-0.055
7.888,-0.335,-0.055
7.890,-0.360,-0.055
7.892,-0.345,-0.055
7.894,-0.380,-0.055
7.896,-0.365,-0.050
7.898,-0.335,-0.045
7.900,-0.350,-0.045
7.902,-0.410,-0.045
7.904,-0.380,-0.045
7.906,-0.405,-0.045
7.908,-0.405,-0.050
7.910,-0.385,-0.055
7.912,-0.340,-0.055
7.914,-0.360,-0.055
7.916,-0.340,-0.050
7.918,-0.310,-0.035
7.920,-0.335,-0.020
7.922,-0.350,0.000
7.924,-0.325,0.020
7.926,-0.305,0.035
7.928,-0.240,0.045
7.930,-0.215,0.045
7.932,-0.225,0.040
7.934,-0.285,0.025
7.936,-0.345,0.015
7.938,-0.365,0.005
7.940,-0.330,0.010
7.942,-0.315,0.020
7.944,-0.275,0.045
7.946,-0.170,0.075
7.948,-0.120,0.110
7.950,-0.080,0.140
7.952,-0.090,0.155
7.954,-0.180,0.160
7.956,-0.240,0.140
7.958,-0.280,0.100
7.960,-0.340,0.045
7.962,-0.365,-0.020
7.964,-0.375,-0.085
7.966,-0.450,-0.145
7.968,-0.575,-0.190
7.970,-0.510,-0.220
7.972,-0.465,-0.230
7.974,-0.450,-0.220
7.976,-0.485,-0.195
7.978,-0.475,-0.165
7.980,-0.450,-0.130
7.982,-0.430,-0.100
7.984,-0.390,-0.075
7.986,-0.390,-0.055
7.988,-0.305,-0.045
7.990,-0.325,-0.040
7.992,-0.305,-0.035
7.994,-0.285,-0.035
7.996,-0.320,-0.035
7.998,-0.345,-0.040
8.000,-0.370,-0.040
8.002,-0.410,-0.045
8.004,-0.375,-0.050
8.006,-0.345,-0.055
8.008,-0.380,-0.060
8.010,-0.320,-0.060
8.012,-0.295,-0.060
8.014,-0.280,-0.050
8.016,-0.325,-0.045
8.018,-0.300,-0.035
8.020,-0.360,-0.025
8.022,-0.360,-0.020
8.024,-0.385,-0.020
8.026,-0.375,-0.020
8.028,-0.380,-0.030
8.030,-0.285,-0.040
8.032,-0.275,-0.050
8.034,-0.315,-0.055
8.036,-0.300,-0.060
8.038,-0.330,-0.055
8.040,-0.395,-0.050
8.042,-0.420,-0.045
8.044,-0.365,-0.035
8.046,-0.360,-0.030
8.048,-0.285,-0.030
8.050,-0.255,-0.030
8.052,-0.290,-0.035
8.054,-0.285,-0.040
8.056,-0.300,-0.045
8.058,-0.350,-0.045
8.060,-0.350,-0.045
8.062,-0.335,-0.040
8.064,-0.370,-0.035
8.066,-0.325,-0.030
8.068,-0.305,-0.025
8.070,-0.280,-0.020
8.072,-0.270,-0.020
8.074,-0.260,-0.020
8.076,-0.275,-0.025
8.078,-0.285,-0.025
8.080,-0.350,-0.020
8.082,-0.335,-0.020
8.084,-0.350,-0.015
8.086,-0.290,-0.005
8.088,-0.270,0.000
8.090,-0.270,0.000
8.092,-0.260,0.005
8.094,-0.245,0.000
8.096,-0.235,0.000
8.098,-0.250,-0.005
8.100,-0.340,-0.005
8.102,-0.305,-0.010
8.104,-0.335,-0.010
8.106,-0.285,-0.005
8.108,-0.245,0.000
8.110,-0.225,0.005
8.112,-0.250,0.010
8.114,-0.235,0.015
8.116,-0.245,0.015
8.118,-0.275,0.015
8.120,-0.305,0.015
8.122,-0.300,0.010
8.124,-0.300,0.010
8.126,-0.260,0.010
8.128,-0.215,0.015
8.130,-0.155,0.020
8.132,-0.180,0.025
8.134,-0.205,0.035
8.136,-0.235,0.045
8.138,-0.245,0.050
8.140,-0.245,0.060
8.142,-0.190,0.065
8.144,-0.195,0.070
8.146,-0.205,0.075
8.148,-0.180,0.080
8.150,-0.110,0.085
8.152,-0.145,0.090
8.154,-0.115,0.095
8.156,-0.125,0.105
8.158,-0.160,0.120
8.160,-0.205,0.130
8.162,-0.150,0.140
8.164,-0.090,0.150
8.166,-0.125,0.155
8.168,-0.110,0.160
8.170,-0.035,0.160
8.172,-0.040,0.160
8.174,-0.095,0.155
8.176,-0.100,0.150
8.178,-0.090,0.145
8.180,-0.160,0.135
8.182,-0.175,0.130
8.184,-0.155,0.125
8.186,-0.120,0.125
8.188,-0.095,0.120
8.190,-0.080,0.115
8.192,-0.075,0.110
8.194,-0.075,0.110
8.196,-0.145,0.105
8.198,-0.155,0.105
8.200,-0.185,0.100
8.202,-0.195,0.100
8.204,-0.220,0.095
8.206,-0.150,0.090
8.208,-0.120,0.080
8.210,-0.145,0.070
8.212,-0.150,0.060
8.214,-0.180,0.045
8.216,-0.250,0.030
8.218,-0.255,0.020
8.220,-0.280,0.010
8.222,-0.280,0.000
8.224,-0.240,0.000
8.226,-0.230,-0.005
8.228,-0.230,-0.005
8.230,-0.230,-0.010
8.232,-0.230,-0.015
8.234,-0.255,-0.020
8.236,-0.290,-0.035
8.238,-0.270,-0.045
8.240,-0.310,-0.060
8.242,-0.360,-0.070
8.244,-0.365,-0.080
8.246,-0.340,-0.090
8.248,-0.285,-0.090
8.250,-0.240,-0.090
8.252,-0.255,-0.080
8.254,-0.265,-0.075
8.256,-0.275,-0.065
8.258,-0.295,-0.055
8.260,-0.265,-0.050
8.262,-0.300,-0.045
8.264,-0.325,-0.045
8.266,-0.300,-0.045
8.268,-0.285,-0.050
8.270,-0.270,-0.055
8.272,-0.280,-0.060
8.274,-0.255,-0.065
8.276,-0.255,-0.065
8.278,-0.315,-0.065
8.280,-0.335,-0.065
8.282,-0.300,-0.065
8.284,-0.275,-0.060
8.286,-0.320,-0.055
8.288,-0.245,-0.055
8.290,-0.180,-0.050
8.292,-0.240,-0.050
8.294,-0.275,-0.050
8.296,-0.245,-0.050
8.298,-0.300,-0.045
8.300,-0.340,-0.045
8.302,-0.270,-0.045
8.304,-0.290,-0.040
8.306,-0.275,-0.040
8.308,-0.255,-0.040
8.310,-0.205,-0.045
8.312,-0.210,-0.045
8.314,-0.235,-0.050
8.316,-0.255,-0.055
8.318,-0.325,-0.060
8.320,-0.335,-0.065
8.322,-0.275,-0.065
8.324,-0.235,-0.065
8.326,-0.250,-0.065
8.328,-0.215,-0.065
8.330,-0.255,-0.065
8.332,-0.265,-0.065
8.334,-0.295,-0.070
8.336,-0.280,-0.070
8.338,-0.300,-0.075
8.340,-0.325,-0.080
8.342,-0.345,-0.085
8.344,-0.310,-0.085
8.346,-0.280,-0.085
8.348,-0.245,-0.080
8.350,-0.230,-0.080
8.352,-0.230,-0.075
8.354,-0.230,-0.070
8.356,-0.260,-0.070
8.358,-0.320,-0.070
8.360,-0.345,-0.070
8.362,-0.315,-0.075
8.364,-0.275,-0.080
8.366,-0.280,-0.085
8.368,-0.270,-0.090
8.370,-0.275,-0.090
8.372,-0.235,-0.085
8.374,-0.215,-0.080
8.376,-0.255,-0.080
8.378,-0.325,-0.075
8.380,-0.305,-0.070
8.382,-0.330,-0.070
8.384,-0.260,-0.075
8.386,-0.255,-0.085
8.388,-0.280,-0.090
8.390,-0.300,-0.100
8.392,-0.270,-0.105
8.394,-0.250,-0.110
8.396,-0.270,-0.110
8.398,-0.320,-0.110
8.400,-0.320,-0.100
8.402,-0.330,-0.095
8.404,-0.315,-0.085
8.406,-0.300,-0.080
8.408,-0.190,-0.075
8.410,-0.225,-0.080
8.412,-0.230,-0.085
8.414,-0.290,-0.090
8.416,-0.290,-0.100
8.418,-0.300,-0.110
8.420,-0.280,-0.120
8.422,-0.345,-0.120
8.424,-0.300,-0.120
8.426,-0.270,-0.120
8.428,-0.240,-0.115
8.430,-0.265,-0.105
8.432,-0.245,-0.100
8.434,-0.270,-0.095
8.436,-0.310,-0.090
8.438,-0.330,-0.090
8.440,-0.285,-0.090
8.442,-0.320,-0.095
8.444,-0.265,-0.095
8.446,-0.240,-0.095
8.448,-0.205,-0.095
8.450,-0.195,-0.090
8.452,-0.190,-0.085
8.454,-0.230,-0.080
8.456,-0.290,-0.080
8.458,-0.315,-0.080
8.460,-0.295,-0.080
8.462,-0.300,-0.085
8.464,-0.295,-0.090
8.466,-0.275,-0.090
8.468,-0.200,-0.095
8.470,-0.190,-0.095
8.472,-0.205,-0.090
8.474,-0.235,-0.090
8.476,-0.285,-0.080
8.478,-0.330,-0.075
8.480,-0.315,-0.070
8.482,-0.265,-0.065
8.484,-0.190,-0.065
8.486,-0.165,-0.060
8.488,-0.165,-0.060
8.490,-0.185,-0.065
8.492,-0.195,-0.065
8.494,-0.285,-0.065
8.496,-0.260,-0.070
8.498,-0.260,-0.070
8.500,-0.265,-0.075
8.502,-0.230,-0.080
8.504,-0.245,-0.080
8.506,-0.205,-0.080
8.508,-0.185,-0.080
8.510,-0.165,-0.075
8.512,-0.150,-0.070
8.514,-0.180,-0.060
8.516,-0.215,-0.050
8.518,-0.225,-0.035
8.520,-0.240,-0.020
8.522,-0.195,-0.010
8.524,-0.180,0.005
8.526,-0.090,0.010
8.528,-0.100,0.020
8.530,-0.100,0.020
8.532,-0.095,0.020
8.534,-0.130,0.020
8.536,-0.155,0.015
8.538,-0.200,0.005
8.540,-0.165,0.000
8.542,-0.140,0.000
8.544,-0.105,0.000
8.546,-0.120,0.000
8.548,-0.110,0.010
8.550,-0.110,0.015
8.552,-0.105,0.025
8.554,-0.065,0.030
8.556,-0.105,0.030
8.558,-0.130,0.025
8.560,-0.170,0.010
8.562,-0.230,-0.005
8.564,-0.205,-0.025
8.566,-0.150,-0.040
8.568,-0.145,-0.055
8.570,-0.175,-0.065
8.572,-0.215,-0.070
8.574,-0.210,-0.065
8.576,-0.190,-0.060
8.578,-0.195,-0.050
8.580,-0.235,-0.045
8.582,-0.190,-0.040
8.584,-0.155,-0.040
8.586,-0.110,-0.045
8.588,-0.135,-0.050
8.590,-0.200,-0.060
8.592,-0.225,-0.070
8.594,-0.225,-0.080
8.596,-0.210,-0.085
8.598,-0.235,-0.085
8.600,-0.265,-0.080
8.602,-0.245,-0.075
8.604,-0.180,-0.070
8.606,-0.120,-0.065
8.608,-0.145,-0.060
8.610,-0.155,-0.055
8.612,-0.185,-0.050
8.614,-0.200,-0.050
8.616,-0.190,-0.050
8.618,-0.185,-0.045
8.620,-0.210,-0.045
8.622,-0.150,-0.045
8.624,-0.180,-0.045
8.626,-0.150,-0.050
8.628,-0.155,-0.050
8.630,-0.170,-0.055
8.632,-0.185,-0.060
8.634,-0.180,-0.060
8.636,-0.215,-0.060
8.638,-0.250,-0.060
8.640,-0.230,-0.060
8.642,-0.135,-0.055
8.644,-0.145,-0.050
8.646,-0.110,-0.045
8.648,-0.110,-0.040
8.650,-0.145,-0.035
8.652,-0.180,-0.030
8.654,-0.215,-0.020
8.656,-0.235,-0.005
8.658,-0.150,0.010
8.660,-0.085,0.025
8.662,-0.040,0.040
8.664,-0.030,0.050
8.666,-0.015,0.060
8.668,0.010,0.060
8.670,-0.005,0.060
8.672,-0.045,0.050
8.674,-0.135,0.040
8.676,-0.190,0.030
8.678,-0.155,0.025
8.680,-0.180,0.030
8.682,-0.095,0.040
8.684,0.010,0.060
8.686,0.090,0.085
8.688,0.125,0.110
8.690,0.115,0.135
8.692,0.100,0.150
8.694,0.040,0.150
8.696,-0.070,0.140
8.698,-0.095,0.105
8.700,-0.115,0.060
8.702,-0.130,0.010
8.704,-0.175,-0.050
8.706,-0.180,-0.100
8.708,-0.195,-0.145
8.710,-0.270,-0.170
8.712,-0.290,-0.185
8.714,-0.300,-0.185
8.716,-0.295,-0.170
8.718,-0.265,-0.145
8.720,-0.235,-0.120
8.722,-0.200,-0.090
8.724,-0.125,-0.065
8.726,-0.085,-0.040
8.728,-0.105,-0.025
8.730,-0.060,-0.015
8.732,-0.110,-0.015
8.734,-0.125,-0.015
8.736,-0.215,-0.020
8.738,-0.185,-0.025
8.740,-0.170,-0.035
8.742,-0.115,-0.040
8.744,-0.105,-0.045
8.746,-0.085,-0.045
8.748,-0.145,-0.040
8.750,-0.105,-0.030
8.752,-0.100,-0.020
8.754,-0.115,-0.005
8.756,-0.095,0.005
8.758,-0.100,0.015
8.760,-0.105,0.025
8.762,-0.105,0.030
8.764,-0.090,0.025
8.766,-0.085,0.020
8.768,-0.120,0.015
8.770,-0.115,0.005
8.772,-0.110,0.000
8.774,-0.045,-0.005
8.776,-0.080,-0.005
8.778,-0.125,-0.005
8.780,-0.140,0.000
8.782,-0.120,0.000
8.784,-0.085,0.005
8.786,-0.085,0.010
8.788,-0.080,0.010
8.790,-0.045,0.010
8.792,-0.060,0.010
8.794,-0.090,0.010
8.796,-0.095,0.010
8.798,-0.085,0.010
8.800,-0.105,0.010
8.802,-0.095,0.015
8.804,-0.045,0.015
8.806,-0.015,0.015
8.808,-0.020,0.010
8.810,-0.075,0.005
8.812,-0.095,0.000
8.814,-0.110,-0.005
8.816,-0.140,-0.005
8.818,-0.125,-0.005
8.820,-0.095,-0.005
8.822,-0.070,0.000
8.824,-0.020,0.005
8.826,-0.030,0.015
8.828,-0.040,0.025
8.830,-0.025,0.030
8.832,-0.030,0.035
8.834,-0.095,0.035
8.836,-0.045,0.035
8.838,-0.075,0.035
8.840,-0.085,0.035
8.842,-0.080,0.035
8.844,-0.035,0.035
8.846,-0.010,0.040
8.848,-0.020,0.045
8.850,0.035,0.050
8.852,0.040,0.055
8.854,-0.040,0.055
8.856,-0.060,0.060
8.858,-0.020,0.065
8.860,0.000,0.065
8.862,-0.015,0.070
8.864,0.005,0.070
8.866,0.030,0.070
8.868,0.040,0.075
8.870,-0.015,0.080
8.872,-0.010,0.085
8.874,-0.035,0.090
8.876,0.045,0.100
8.878,0.070,0.105
8.880,0.090,0.120
8.882,0.020,0.130
8.884,0.080,0.140
8.886,0.130,0.150
8.888,0.165,0.160
8.890,0.095,0.165
8.892,0.070,0.170
8.894,0.030,0.165
8.896,0.055,0.160
8.898,0.060,0.160
8.900,0.090,0.155
8.902,0.080,0.155
8.904,0.145,0.155
8.906,0.170,0.165
8.908,0.180,0.175
8.910,0.185,0.190
8.912,0.110,0.200
8.914,0.105,0.210
8.916,0.140,0.220
8.918,0.100,0.220
8.920,0.110,0.220
8.922,0.145,0.215
8.924,0.180,0.210
8.926,0.180,0.200
8.928,0.160,0.195
8.930,0.160,0.195
8.932,0.135,0.190
8.934,0.080,0.190
8.936,0.055,0.185
8.938,0.040,0.175
8.940,0.045,0.165
8.942,0.105,0.155
8.944,0.170,0.145
8.946,0.130,0.135
8.948,0.135,0.125
8.950,0.120,0.125
8.952,0.050,0.125
8.954,-0.015,0.130
8.956,0.000,0.130
8.958,-0.015,0.130
8.960,0.070,0.130
8.962,0.115,0.120
8.964,0.145,0.105
8.966,0.070,0.090
8.968,0.020,0.075
8.970,-0.025,0.055
8.972,-0.035,0.045
8.974,-0.065,0.035
8.976,-0.050,0.030
8.978,-0.030,0.025
8.980,-0.020,0.025
8.982,-0.010,0.025
8.984,0.045,0.030
8.986,-0.015,0.030
8.988,0.015,0.030
8.990,-0.015,0.030
8.992,-0.025,0.030
8.994,-0.060,0.030
8.996,-0.075,0.035
8.998,-0.070,0.035
9.000,-0.005,0.035
9.002,-0.005,0.035
9.004,0.025,0.030
9.006,0.020,0.025
9.008,0.025,0.020
9.010,-0.045,0.010
9.012,-0.040,0.005
9.014,-0.075,0.005
9.016,-0.080,0.005
9.018,-0.020,0.010
9.020,-0.035,0.015
9.022,-0.025,0.020
9.024,0.050,0.025
9.026,-0.005,0.025
9.028,-0.020,0.020
9.030,-0.040,0.020
9.032,-0.065,0.010
9.034,-0.070,0.005
9.036,-0.050,0.005
9.038,-0.020,0.005
9.040,-0.035,0.005
9.042,-0.005,0.010
9.044,0.060,0.020
9.046,0.055,0.025
9.048,0.040,0.030
9.050,0.045,0.035
9.052,-0.035,0.035
9.054,-0.075,0.030
9.056,-0.060,0.030
9.058,-0.015,0.025
9.060,0.020,0.020
9.062,0.035,0.020
9.064,0.030,0.020
9.066,0.030,0.025
9.068,0.010,0.035
9.070,-0.035,0.040
9.072,-0.010,0.045
9.074,-0.025,0.050
9.076,0.025,0.050
9.078,0.000,0.050
9.080,0.035,0.045
9.082,0.050,0.045
9.084,0.075,0.045
9.086,0.080,0.045
9.088,0.075,0.050
9.090,0.055,0.060
9.092,0.035,0.070
9.094,0.005,0.080
9.096,0.055,0.090
9.098,0.055,0.095
9.100,0.025,0.090
9.102,0.080,0.085
9.104,0.075,0.080
9.106,0.070,0.070
9.108,0.070,0.060
9.110,0.055,0.055
9.112,0.040,0.050
9.114,-0.015,0.050
9.116,0.020,0.055
9.118,0.035,0.060
9.120,0.070,0.065
9.122,0.095,0.065
9.124,0.080,0.070
9.126,0.090,0.070
9.128,0.080,0.065
9.130,0.055,0.065
9.132,0.030,0.060
9.134,0.050,0.055
9.136,-0.010,0.055
9.138,0.015,0.055
9.140,0.025,0.055
9.142,0.075,0.055
9.144,0.085,0.060
9.146,0.090,0.060
9.148,0.070,0.060
9.150,0.065,0.065
9.152,0.020,0.065
9.154,0.025,0.065
9.156,0.035,0.070
9.158,0.085,0.070
9.160,0.095,0.080
9.162,0.110,0.085
9.164,0.110,0.090
9.166,0.115,0.095
9.168,0.105,0.100
9.170,0.075,0.095
9.172,0.035,0.090
9.174,0.075,0.085
9.176,0.105,0.075
9.178,0.020,0.065
9.180,0.045,0.055
9.182,0.095,0.050
9.184,0.110,0.050
9.186,0.120,0.050
9.188,0.105,0.060
9.190,0.065,0.065
9.192,0.020,0.075
9.194,0.005,0.085
9.196,0.000,0.090
9.198,0.090,0.090
9.200,0.115,0.090
9.202,0.105,0.080
9.204,0.110,0.075
9.206,0.130,0.065
9.208,0.090,0.060
9.210,0.080,0.060
9.212,0.000,0.055
9.214,0.005,0.055
9.216,0.005,0.055
9.218,0.020,0.055
9.220,0.075,0.055
9.222,0.090,0.050
9.224,0.095,0.045
9.226,0.105,0.040
9.228,0.020,0.035
9.230,0.040,0.035
9.232,0.060,0.040
9.234,0.025,0.045
9.236,0.015,0.055
9.238,0.095,0.070
9.240,0.095,0.080
9.242,0.140,0.090
9.244,0.125,0.090
9.246,0.145,0.090
9.248,0.105,0.085
9.250,0.050,0.070
9.252,0.005,0.060
9.254,0.030,0.045
9.256,0.015,0.040
9.258,0.020,0.035
9.260,0.070,0.030
9.262,0.065,0.035
9.264,0.095,0.045
9.266,0.125,0.050
9.268,0.110,0.060
9.270,0.095,0.065
9.272,0.055,0.070
9.274,0.050,0.075
9.276,0.045,0.075
9.278,0.060,0.070
9.280,0.095,0.070
9.282,0.130,0.065
9.284,0.110,0.070
9.286,0.145,0.070
9.288,0.160,0.075
9.290,0.090,0.080
9.292,0.015,0.085
9.294,0.060,0.090
9.296,0.110,0.095
9.298,0.105,0.095
9.300,0.160,0.095
9.302,0.155,0.095
9.304,0.125,0.095
9.306,0.140,0.100
9.308,0.190,0.105
9.310,0.110,0.110
9.312,0.065,0.115
9.314,0.130,0.125
9.316,0.140,0.130
9.318,0.175,0.130
9.320,0.190,0.130
9.322,0.190,0.125
9.324,0.165,0.120
9.326,0.150,0.110
9.328,0.090,0.095
9.330,0.095,0.085
9.332,0.060,0.070
9.334,0.055,0.060
9.336,0.045,0.050
9.338,0.050,0.040
9.340,0.095,0.030
9.342,0.065,0.025
9.344,0.050,0.020
9.346,0.080,0.020
9.348,0.065,0.020
9.350,0.030,0.020
9.352,-0.010,0.020
9.354,0.035,0.020
9.356,0.055,0.015
9.358,0.045,0.010
9.360,0.035,0.005
9.362,0.045,-0.005
9.364,0.030,-0.010
9.366,0.030,-0.015
9.368,0.035,-0.020
9.370,0.005,-0.020
9.372,-0.055,-0.020
9.374,0.005,-0.015
9.376,0.055,-0.010
9.378,0.085,-0.005
9.380,0.085,0.000
9.382,0.035,0.005
9.384,0.010,0.005
9.386,0.045,0.005
9.388,0.045,0.005
9.390,0.035,0.005
9.392,-0.005,0.005
9.394,0.055,0.010
9.396,0.090,0.015
9.398,0.070,0.015
9.400,0.065,0.015
9.402,0.075,0.015
9.404,0.105,0.015
9.406,0.050,0.010
9.408,0.015,0.005
9.410,-0.015,-0.005
9.412,-0.010,-0.010
9.414,0.025,-0.010
9.416,0.050,-0.015
9.418,0.050,-0.010
9.420,0.025,0.000
9.422,0.100,0.010
9.424,0.105,0.020
9.426,0.110,0.040
9.428,0.130,0.055
9.430,0.095,0.070
9.432,0.080,0.085
9.434,0.105,0.095
9.436,0.170,0.100
9.438,0.165,0.095
9.440,0.190,0.090
9.442,0.155,0.085
9.444,0.135,0.075
9.446,0.080,0.070
9.448,0.080,0.075
9.450,0.080,0.085
9.452,0.140,0.110
9.454,0.190,0.135
9.456,0.290,0.170
9.458,0.335,0.200
9.460,0.375,0.225
9.462,0.310,0.235
9.464,0.285,0.225
9.466,0.290,0.205
9.468,0.185,0.160
9.470,0.065,0.105
9.472,0.040,0.045
9.474,0.020,-0.020
9.476,-0.030,-0.075
9.478,-0.110,-0.115
9.480,-0.100,-0.145
9.482,-0.035,-0.150
9.484,-0.035,-0.140
9.486,-0.065,-0.115
9.488,-0.020,-0.085
9.490,-0.005,-0.050
9.492,0.060,-0.015
9.494,0.040,0.015
9.496,0.090,0.030
9.498,0.130,0.040
9.500,0.175,0.040
9.502,0.120,0.035
9.504,0.095,0.030
9.506,0.070,0.020
9.508,0.075,0.015
9.510,0.060,0.010
9.512,0.075,0.010
9.514,0.030,0.015
9.516,0.030,0.020
9.518,0.045,0.025
9.520,0.175,0.025
9.522,0.205,0.030
9.524,0.130,0.030
9.526,0.080,0.025
9.528,0.060,0.025
9.530,0.045,0.020
9.532,0.075,0.020
9.534,0.065,0.020
9.536,0.100,0.025
9.538,0.130,0.030
9.540,0.155,0.040
9.542,0.185,0.045
9.544,0.180,0.050
9.546,0.130,0.050
9.548,0.100,0.050
9.550,0.090,0.050
9.552,0.100,0.050
9.554,0.115,0.050
9.556,0.115,0.055
9.558,0.120,0.060
9.560,0.180,0.065
9.562,0.155,0.070
9.564,0.140,0.075
9.566,0.170,0.080
9.568,0.135,0.080
9.570,0.110,0.080
9.572,0.100,0.080
9.574,0.090,0.075
9.576,0.160,0.070
9.578,0.195,0.070
9.580,0.195,0.070
9.582,0.110,0.070
9.584,0.140,0.075
9.586,0.250,0.080
9.588,0.195,0.085
9.590,0.090,0.090
9.592,0.115,0.095
9.594,0.135,0.095
9.596,0.165,0.095
9.598,0.170,0.090
9.600,0.210,0.090
9.602,0.230,0.090
9.604,0.255,0.095
9.606,0.195,0.100
9.608,0.165,0.105
9.610,0.160,0.115
9.612,0.200,0.120
9.614,0.210,0.130
9.616,0.200,0.135
9.618,0.225,0.135
9.620,0.270,0.135
9.622,0.255,0.130
9.624,0.205,0.125
9.626,0.195,0.125
9.628,0.200,0.120
9.630,0.200,0.120
9.632,0.215,0.120
9.634,0.195,0.125
9.636,0.235,0.140
9.638,0.280,0.150
9.640,0.290,0.165
9.642,0.240,0.175
9.644,0.300,0.180
9.646,0.270,0.185
9.648,0.235,0.185
9.650,0.205,0.175
9.652,0.190,0.170
9.654,0.225,0.165
9.656,0.235,0.160
9.658,0.300,0.160
9.660,0.335,0.165
9.662,0.340,0.170
9.664,0.305,0.180
9.666,0.245,0.190
9.668,0.240,0.195
9.670,0.245,0.200
9.672,0.300,0.195
9.674,0.260,0.185
9.676,0.220,0.175
9.678,0.240,0.170
9.680,0.310,0.160
9.682,0.325,0.160
9.684,0.300,0.160
9.686,0.250,0.165
9.688,0.185,0.170
9.690,0.180,0.170
9.692,0.265,0.170
9.694,0.260,0.170
9.696,0.235,0.160
9.698,0.275,0.145
9.700,0.280,0.130
9.702,0.240,0.115
9.704,0.230,0.100
9.706,0.195,0.090
9.708,0.125,0.080
9.710,0.135,0.075
9.712,0.125,0.070
9.714,0.120,0.065
9.716,0.155,0.065
9.718,0.215,0.060
9.720,0.190,0.055
9.722,0.170,0.045
9.724,0.140,0.035
9.726,0.125,0.020
9.728,0.060,0.000
9.730,0.050,-0.015
9.732,0.020,-0.035
9.734,0.020,-0.050
9.736,-0.005,-0.065
9.738,0.025,-0.070
9.740,0.095,-0.080
9.742,0.140,-0.080
9.744,0.065,-0.080
9.746,0.025,-0.080
9.748,-0.035,-0.080
9.750,-0.025,-0.085
9.752,-0.015,-0.090
9.754,0.015,-0.100
9.756,-0.030,-0.110
9.758,0.010,-0.125
9.760,-0.010,-0.140
9.762,0.045,-0.150
9.764,-0.025,-0.155
9.766,-0.060,-0.160
9.768,-0.080,-0.155
9.770,-0.070,-0.155
9.772,-0.085,-0.150
9.774,-0.055,-0.145
9.776,-0.035,-0.140
9.778,-0.020,-0.140
9.780,-0.025,-0.145
9.782,-0.010,-0.150
9.784,-0.050,-0.160
9.786,-0.075,-0.165
9.788,-0.110,-0.175
9.790,-0.105,-0.175
9.792,-0.085,-0.180
9.794,-0.070,-0.175
9.796,-0.075,-0.175
9.798,-0.015,-0.175
9.800,-0.030,-0.170
9.802,-0.050,-0.170
9.804,-0.100,-0.175
9.806,-0.120,-0.175
9.808,-0.110,-0.175
9.810,-0.075,-0.180
9.812,-0.080,-0.175
9.814,-0.050,-0.175
9.816,-0.065,-0.170
9.818,0.010,-0.170
9.820,-0.040,-0.165
9.822,-0.030,-0.165
9.824,-0.090,-0.165
9.826,-0.080,-0.170
9.828,-0.050,-0.170
9.830,-0.090,-0.175
9.832,-0.080,-0.175
9.834,-0.075,-0.180
9.836,-0.075,-0.180
9.838,-0.020,-0.180
9.840,-0.030,-0.180
9.842,-0.025,-0.175
9.844,-0.075,-0.175
9.846,-0.070,-0.175
9.848,-0.065,-0.170
9.850,-0.055,-0.165
9.852,-0.090,-0.160
9.854,-0.050,-0.155
9.856,-0.005,-0.150
9.858,0.000,-0.145
9.860,-0.025,-0.145
9.862,-0.040,-0.145
9.864,-0.035,-0.150
9.866,-0.040,-0.155
9.868,-0.090,-0.165
9.870,-0.110,-0.170
9.872,-0.080,-0.180
9.874,-0.065,-0.180
9.876,-0.065,-0.180
9.878,0.000,-0.180
9.880,-0.040,-0.175
9.882,-0.060,-0.165
9.884,-0.040,-0.160
9.886,-0.030,-0.155
9.888,-0.045,-0.155
9.890,-0.095,-0.155
9.892,-0.030,-0.155
9.894,-0.035,-0.155
9.896,-0.005,-0.160
9.898,-0.025,-0.165
9.900,-0.060,-0.170
9.902,-0.035,-0.170
9.904,-0.055,-0.175
9.906,-0.100,-0.175
9.908,-0.100,-0.175
9.910,-0.075,-0.175
9.912,-0.075,-0.175
9.914,-0.060,-0.175
9.916,-0.010,-0.175
9.918,0.020,-0.180
9.920,-0.050,-0.180
9.922,-0.070,-0.185
9.924,-0.050,-0.185
9.926,-0.105,-0.190
9.928,-0.110,-0.195
9.930,-0.105,-0.195
9.932,-0.085,-0.195
9.934,-0.030,-0.195
9.936,-0.035,-0.195
9.938,-0.025,-0.195
9.940,-0.045,-0.200
9.942,-0.055,-0.200
9.944,-0.065,-0.205
9.946,-0.110,-0.215
9.948,-0.190,-0.220
9.950,-0.160,-0.230
9.952,-0.105,-0.235
9.954,-0.090,-0.240
9.956,-0.050,-0.240
9.958,-0.025,-0.235
9.960,-0.075,-0.230
9.962,-0.090,-0.225
9.964,-0.065,-0.220
9.966,-0.135,-0.220
9.968,-0.165,-0.220
9.970,-0.190,-0.225
9.972,-0.175,-0.230
9.974,-0.100,-0.240
9.976,-0.055,-0.255
9.978,-0.095,-0.265
9.980,-0.090,-0.270
9.982,-0.095,-0.275
9.984,-0.120,-0.275
9.986,-0.205,-0.275
9.988,-0.220,-0.275
9.990,-0.190,-0.270
9.992,-0.130,-0.275
9.994,-0.140,-0.275
9.996,-0.110,-0.285
9.998,-0.150,-0.290
