'Elapsed time','ECG I','ECG I filtered'
'seconds','mV','mV'
0.000,0.280,0.215
0.002,0.215,0.125
0.004,0.130,0.065
0.006,0.095,0.015
0.008,-0.015,-0.010
0.010,-0.065,-0.015
0.012,-0.060,0.000
0.014,0.050,0.020
0.016,0.150,0.040
0.018,0.230,0.050
0.020,0.245,0.050
0.022,0.195,0.030
0.024,0.095,0.005
0.026,0.045,-0.025
0.028,-0.170,-0.055
0.030,-0.190,-0.075
0.032,-0.175,-0.085
0.034,-0.040,-0.080
0.036,0.045,-0.070
0.038,0.165,-0.050
0.040,0.205,-0.035
0.042,0.160,-0.020
0.044,0.080,-0.010
0.046,0.000,-0.010
0.048,-0.160,-0.010
0.050,-0.075,-0.010
0.052,-0.030,-0.010
0.054,0.050,-0.010
0.056,0.115,-0.010
0.058,0.210,-0.010
0.060,0.150,-0.015
0.062,0.140,-0.020
0.064,0.055,-0.030
0.066,-0.005,-0.040
0.068,-0.165,-0.055
0.070,-0.145,-0.065
0.072,-0.150,-0.070
0.074,-0.035,-0.070
0.076,0.005,-0.060
0.078,0.165,-0.050
0.080,0.205,-0.040
0.082,0.185,-0.035
0.084,0.080,-0.030
0.086,-0.010,-0.030
0.088,-0.155,-0.040
0.090,-0.150,-0.050
0.092,-0.170,-0.060
0.094,-0.050,-0.065
0.096,0.010,-0.065
0.098,0.165,-0.065
0.100,0.195,-0.060
0.102,0.130,-0.050
0.104,0.030,-0.040
0.106,-0.005,-0.035
0.108,-0.140,-0.030
0.110,-0.190,-0.030
0.112,-0.125,-0.025
0.114,0.020,-0.025
0.116,0.070,-0.025
0.118,0.225,-0.025
0.120,0.205,-0.025
0.122,0.135,-0.025
0.124,0.050,-0.030
0.126,-0.005,-0.040
0.128,-0.170,-0.050
0.130,-0.170,-0.065
0.132,-0.180,-0.080
0.134,-0.105,-0.090
0.136,-0.035,-0.095
0.138,0.105,-0.095
0.140,0.155,-0.090
0.142,0.140,-0.085
0.144,0.035,-0.075
0.146,-0.025,-0.065
0.148,-0.180,-0.055
0.150,-0.205,-0.050
0.152,-0.105,-0.050
0.154,-0.005,-0.055
0.156,0.000,-0.060
0.158,0.165,-0.065
0.160,0.170,-0.070
0.162,0.060,-0.070
0.164,0.005,-0.065
0.166,-0.050,-0.055
0.168,-0.170,-0.040
0.170,-0.135,-0.030
0.172,-0.040,-0.020
0.174,0.050,-0.010
0.176,0.110,-0.010
0.178,0.200,-0.010
0.180,0.175,-0.015
0.182,0.135,-0.020
0.184,0.045,-0.030
0.186,-0.050,-0.035
0.188,-0.190,-0.040
0.190,-0.185,-0.045
0.192,-0.080,-0.050
0.194,0.015,-0.050
0.196,0.065,-0.050
0.198,0.175,-0.045
0.200,0.185,-0.045
0.202,0.090,-0.040
0.204,-0.025,-0.040
0.206,-0.105,-0.035
0.208,-0.175,-0.035
0.210,-0.115,-0.030
0.212,-0.020,-0.030
0.214,0.045,-0.025
0.216,0.085,-0.025
0.218,0.170,-0.030
0.220,0.160,-0.030
0.222,0.075,-0.035
0.224,-0.055,-0.035
0.226,-0.115,-0.040
0.228,-0.155,-0.040
0.230,-0.160,-0.035
0.232,-0.045,-0.030
0.234,0.065,-0.020
0.236,0.150,-0.015
0.238,0.230,-0.005
0.240,0.210,0.000
0.242,0.120,0.000
0.244,0.000,0.000
0.246,-0.100,-0.005
0.248,-0.170,-0.010
0.250,-0.115,-0.010
0.252,-0.020,-0.015
0.254,0.060,-0.015
0.256,0.145,-0.010
0.258,0.225,-0.005
0.260,0.195,0.000
0.262,0.125,0.005
0.264,0.005,0.010
0.266,-0.110,0.010
0.268,-0.160,0.005
0.270,-0.145,0.000
0.272,-0.025,-0.010
0.274,0.045,-0.020
0.276,0.135,-0.030
0.278,0.205,-0.035
0.280,0.185,-0.035
0.282,0.045,-0.035
0.284,-0.015,-0.030
0.286,-0.150,-0.025
0.288,-0.175,-0.025
0.290,-0.130,-0.030
0.292,-0.045,-0.035
0.294,0.020,-0.040
0.296,0.125,-0.055
0.298,0.190,-0.065
0.300,0.185,-0.075
0.302,0.005,-0.080
0.304,-0.105,-0.085
0.306,-0.240,-0.085
0.308,-0.210,-0.080
0.310,-0.170,-0.070
0.312,-0.070,-0.060
0.314,0.015,-0.045
0.316,0.185,-0.035
0.318,0.210,-0.020
0.320,0.180,-0.015
0.322,0.120,-0.010
0.324,0.000,-0.010
0.326,-0.190,-0.010
0.328,-0.170,-0.020
0.330,-0.150,-0.025
0.332,-0.055,-0.035
0.334,0.030,-0.040
0.336,0.160,-0.040
0.338,0.190,-0.035
0.340,0.175,-0.025
0.342,0.085,-0.005
0.344,0.045,0.015
0.346,-0.085,0.030
0.348,-0.075,0.045
0.350,-0.065,0.055
0.352,0.020,0.050
0.354,0.075,0.040
0.356,0.215,0.020
0.358,0.200,0.000
0.360,0.185,-0.020
0.362,0.075,-0.030
0.364,0.010,-0.035
0.366,-0.145,-0.030
0.368,-0.170,-0.020
0.370,-0.170,-0.005
0.372,-0.060,0.005
0.374,0.005,0.015
0.376,0.255,0.015
0.378,0.300,0.010
0.380,0.220,-0.005
0.382,0.050,-0.025
0.384,-0.055,-0.040
0.386,-0.235,-0.050
0.388,-0.250,-0.055
0.390,-0.170,-0.050
0.392,0.025,-0.045
0.394,0.035,-0.035
0.396,0.210,-0.025
0.398,0.205,-0.015
0.400,0.165,-0.015
0.402,0.045,-0.015
0.404,-0.035,-0.025
0.406,-0.185,-0.030
0.408,-0.205,-0.040
0.410,-0.135,-0.045
0.412,-0.015,-0.040
0.414,0.055,-0.035
0.416,0.195,-0.020
0.418,0.205,-0.010
0.420,0.140,0.005
0.422,0.075,0.015
0.424,0.030,0.020
0.426,-0.150,0.025
0.428,-0.125,0.020
0.430,-0.050,0.020
0.432,0.055,0.015
0.434,0.075,0.010
0.436,0.210,0.005
0.438,0.195,0.000
0.440,0.140,-0.005
0.442,0.035,-0.010
0.444,-0.030,-0.020
0.446,-0.180,-0.025
0.448,-0.200,-0.030
0.450,-0.120,-0.035
0.452,-0.005,-0.035
0.454,0.040,-0.035
0.456,0.175,-0.035
0.458,0.210,-0.035
0.460,0.125,-0.040
0.462,0.020,-0.045
0.464,-0.050,-0.050
0.466,-0.225,-0.060
0.468,-0.275,-0.065
0.470,-0.195,-0.070
0.472,-0.065,-0.075
0.474,0.065,-0.070
0.476,0.210,-0.060
0.478,0.190,-0.050
0.480,0.110,-0.040
0.482,0.005,-0.030
0.484,-0.085,-0.020
0.486,-0.200,-0.015
0.488,-0.170,-0.020
0.490,-0.085,-0.025
0.492,-0.005,-0.030
0.494,0.060,-0.035
0.496,0.180,-0.040
0.498,0.170,-0.040
0.500,0.075,-0.035
0.502,0.030,-0.030
0.504,-0.075,-0.025
0.506,-0.205,-0.015
0.508,-0.155,-0.015
0.510,-0.090,-0.015
0.512,0.010,-0.015
0.514,0.085,-0.020
0.516,0.170,-0.025
0.518,0.170,-0.025
0.520,0.085,-0.025
0.522,0.010,-0.025
0.524,-0.100,-0.020
0.526,-0.205,-0.015
0.528,-0.150,-0.010
0.530,-0.025,-0.005
0.532,0.050,-0.005
0.534,0.115,-0.005
0.536,0.160,0.000
0.538,0.175,0.000
0.540,0.125,0.005
0.542,0.030,0.010
0.544,-0.050,0.020
0.546,-0.100,0.030
0.548,-0.030,0.035
0.550,0.010,0.040
0.552,0.095,0.040
0.554,0.120,0.035
0.556,0.205,0.030
0.558,0.200,0.025
0.560,0.120,0.020
0.562,0.040,0.020
0.564,-0.075,0.020
0.566,-0.085,0.030
0.568,-0.080,0.035
0.570,0.010,0.040
0.572,0.055,0.045
0.574,0.170,0.040
0.576,0.235,0.030
0.578,0.205,0.020
0.580,0.090,0.005
0.582,0.015,-0.005
0.584,-0.120,-0.010
0.586,-0.140,-0.015
0.588,-0.120,-0.010
0.590,-0.070,0.000
0.592,0.005,0.005
0.594,0.190,0.010
0.596,0.195,0.005
0.598,0.165,0.000
0.600,0.050,-0.015
0.602,-0.025,-0.030
0.604,-0.175,-0.050
0.606,-0.195,-0.065
0.608,-0.155,-0.075
0.610,-0.080,-0.075
0.612,-0.050,-0.075
0.614,0.110,-0.065
0.616,0.160,-0.055
0.618,0.105,-0.040
0.620,0.015,-0.030
0.622,-0.005,-0.025
0.624,-0.190,-0.015
0.626,-0.150,-0.015
0.628,-0.120,-0.010
0.630,-0.050,-0.015
0.632,0.015,-0.015
0.634,0.175,-0.025
0.636,0.175,-0.035
0.638,0.095,-0.045
0.640,-0.020,-0.060
0.642,-0.090,-0.065
0.644,-0.275,-0.070
0.646,-0.200,-0.070
0.648,-0.165,-0.060
0.650,-0.015,-0.040
0.652,0.070,-0.020
0.654,0.205,0.005
0.656,0.185,0.025
0.658,0.160,0.035
0.660,0.080,0.040
0.662,0.025,0.035
0.664,-0.115,0.025
0.666,-0.105,0.015
0.668,-0.055,0.000
0.670,0.060,-0.005
0.672,0.010,-0.005
0.674,0.155,0.000
0.676,0.215,0.010
0.678,0.150,0.025
0.680,0.085,0.035
0.682,0.045,0.045
0.684,-0.090,0.045
0.686,-0.100,0.040
0.688,-0.090,0.025
0.690,-0.035,0.005
0.692,0.015,-0.020
0.694,0.140,-0.045
0.696,0.100,-0.070
0.698,0.030,-0.095
0.700,-0.045,-0.115
0.702,-0.175,-0.130
0.704,-0.360,-0.135
0.706,-0.305,-0.130
0.708,-0.215,-0.120
0.710,-0.045,-0.105
0.712,0.040,-0.085
0.714,0.175,-0.065
0.716,0.145,-0.045
0.718,0.040,-0.030
0.720,-0.080,-0.020
0.722,-0.080,-0.015
0.724,-0.170,-0.015
0.726,-0.165,-0.020
0.728,-0.075,-0.025
0.730,0.015,-0.030
0.732,0.065,-0.035
0.734,0.170,-0.035
0.736,0.125,-0.030
0.738,0.085,-0.020
0.740,-0.040,-0.015
0.742,-0.060,-0.005
0.744,-0.130,0.005
0.746,-0.120,0.010
0.748,-0.060,0.015
0.750,0.035,0.020
0.752,0.095,0.025
0.754,0.210,0.025
0.756,0.205,0.030
0.758,0.130,0.025
0.760,0.015,0.025
0.762,-0.060,0.015
0.764,-0.150,0.010
0.766,-0.145,0.000
0.768,-0.085,-0.010
0.770,-0.035,-0.020
0.772,0.075,-0.025
0.774,0.180,-0.020
0.776,0.205,-0.015
0.778,0.125,-0.005
0.780,0.050,0.010
0.782,-0.070,0.020
0.784,-0.160,0.025
0.786,-0.130,0.020
0.788,-0.080,0.010
0.790,-0.010,0.000
0.792,0.060,-0.020
0.794,0.170,-0.035
0.796,0.145,-0.045
0.798,0.055,-0.045
0.800,-0.010,-0.040
0.802,-0.110,-0.030
0.804,-0.185,-0.020
0.806,-0.125,-0.005
0.808,-0.020,0.005
0.810,0.040,0.005
0.812,0.095,0.000
0.814,0.130,-0.010
0.816,0.090,-0.020
0.818,0.025,-0.030
0.820,-0.055,-0.035
0.822,-0.140,-0.035
0.824,-0.140,-0.030
0.826,-0.105,-0.020
0.828,-0.040,-0.005
0.830,0.035,0.005
0.832,0.135,0.015
0.834,0.160,0.015
0.836,0.125,0.015
0.838,0.075,0.010
0.840,0.070,0.005
0.842,-0.095,0.005
0.844,-0.110,0.010
0.846,-0.070,0.015
0.848,-0.025,0.025
0.850,0.050,0.035
0.852,0.195,0.040
0.854,0.220,0.050
0.856,0.185,0.055
0.858,0.120,0.055
0.860,0.065,0.055
0.862,-0.060,0.060
0.864,-0.085,0.065
0.866,-0.075,0.070
0.868,0.040,0.080
0.870,0.160,0.090
0.872,0.280,0.100
0.874,0.330,0.105
0.876,0.255,0.105
0.878,0.165,0.105
0.880,0.105,0.100
0.882,-0.075,0.100
0.884,-0.075,0.095
0.886,-0.050,0.100
0.888,0.080,0.105
0.890,0.145,0.110
0.892,0.340,0.120
0.894,0.330,0.130
0.896,0.270,0.135
0.898,0.185,0.135
0.900,0.090,0.135
0.902,-0.020,0.130
0.904,0.020,0.125
0.906,0.010,0.125
0.908,0.130,0.130
0.910,0.150,0.135
0.912,0.285,0.150
0.914,0.365,0.160
0.916,0.345,0.175
0.918,0.225,0.185
0.920,0.250,0.190
0.922,0.060,0.185
0.924,0.005,0.180
0.926,0.010,0.170
0.928,0.105,0.160
0.930,0.130,0.150
0.932,0.305,0.140
0.934,0.345,0.135
0.936,0.315,0.135
0.938,0.195,0.135
0.940,0.145,0.135
0.942,-0.035,0.140
0.944,-0.025,0.140
0.946,0.000,0.140
0.948,0.120,0.140
0.950,0.160,0.135
0.952,0.325,0.130
0.954,0.335,0.125
0.956,0.270,0.115
0.958,0.110,0.105
0.960,0.050,0.090
0.962,-0.075,0.080
0.964,-0.110,0.065
0.966,-0.065,0.050
0.968,0.065,0.040
0.970,0.085,0.030
0.972,0.215,0.025
0.974,0.210,0.025
0.976,0.145,0.020
0.978,0.055,0.020
0.980,-0.015,0.015
0.982,-0.160,0.015
0.984,-0.160,0.005
0.986,-0.060,0.000
0.988,0.050,-0.010
0.990,0.065,-0.020
0.992,0.150,-0.025
0.994,0.170,-0.030
0.996,0.040,-0.030
0.998,-0.020,-0.030
1.000,-0.055,-0.025
1.002,-0.170,-0.025
1.004,-0.150,-0.025
1.006,-0.100,-0.025
1.008,0.000,-0.030
1.010,-0.005,-0.030
1.012,0.125,-0.030
1.014,0.165,-0.030
1.016,0.125,-0.025
1.018,0.025,-0.020
1.020,-0.050,-0.015
1.022,-0.160,-0.010
1.024,-0.160,-0.010
1.026,-0.110,-0.010
1.028,0.010,-0.015
1.030,0.045,-0.020
1.032,0.175,-0.025
1.034,0.140,-0.030
1.036,0.035,-0.030
1.038,-0.010,-0.025
1.040,-0.040,-0.020
1.042,-0.165,-0.010
1.044,-0.140,0.000
1.046,-0.065,0.005
1.048,0.015,0.010
1.050,0.105,0.015
1.052,0.160,0.010
1.054,0.170,0.010
1.056,0.060,0.000
1.058,0.005,-0.005
1.060,-0.030,-0.010
1.062,-0.125,-0.020
1.064,-0.110,-0.025
1.066,-0.125,-0.030
1.068,-0.045,-0.030
1.070,0.020,-0.035
1.072,0.125,-0.035
1.074,0.135,-0.035
1.076,0.090,-0.030
1.078,-0.005,-0.030
1.080,-0.120,-0.025
1.082,-0.225,-0.020
1.084,-0.195,-0.020
1.086,-0.040,-0.015
1.088,0.035,-0.015
1.090,0.080,-0.015
1.092,0.160,-0.015
1.094,0.140,-0.015
1.096,0.055,-0.015
1.098,-0.020,-0.020
1.100,-0.120,-0.020
1.102,-0.210,-0.025
1.104,-0.150,-0.035
1.106,-0.055,-0.040
1.108,-0.040,-0.050
1.110,0.070,-0.055
1.112,0.105,-0.060
1.114,0.085,-0.060
1.116,0.000,-0.060
1.118,-0.075,-0.055
1.120,-0.170,-0.045
1.122,-0.195,-0.035
1.124,-0.150,-0.025
1.126,-0.025,-0.015
1.128,0.070,-0.005
1.130,0.180,0.000
1.132,0.165,0.010
1.134,0.150,0.015
1.136,0.090,0.025
1.138,0.040,0.030
1.140,-0.100,0.030
1.142,-0.140,0.030
1.144,-0.080,0.025
1.146,-0.040,0.015
1.148,-0.005,0.000
1.150,0.135,-0.015
1.152,0.140,-0.030
1.154,0.125,-0.040
1.156,0.055,-0.050
1.158,-0.025,-0.045
1.160,-0.145,-0.035
1.162,-0.200,-0.025
1.164,-0.145,-0.005
1.166,-0.025,0.010
1.168,0.040,0.025
1.170,0.235,0.035
1.172,0.230,0.035
1.174,0.165,0.025
1.176,0.020,0.015
1.178,-0.045,0.000
1.180,-0.160,-0.015
1.182,-0.165,-0.025
1.184,-0.140,-0.035
1.186,-0.025,-0.035
1.188,-0.005,-0.035
1.190,0.100,-0.030
1.192,0.145,-0.030
1.194,0.165,-0.025
1.196,0.050,-0.025
1.198,-0.035,-0.025
1.200,-0.175,-0.025
1.202,-0.200,-0.025
1.204,-0.145,-0.025
1.206,-0.035,-0.020
1.208,0.035,-0.015
1.210,0.180,-0.010
1.212,0.175,-0.005
1.214,0.110,0.000
1.216,0.020,0.005
1.218,-0.010,0.005
1.220,-0.115,0.005
1.222,-0.125,0.005
1.224,-0.110,0.000
1.226,-0.030,0.000
1.228,0.020,-0.005
1.230,0.160,-0.010
1.232,0.150,-0.015
1.234,0.110,-0.020
1.236,0.025,-0.025
1.238,-0.020,-0.035
1.240,-0.220,-0.040
1.242,-0.195,-0.040
1.244,-0.130,-0.040
1.246,-0.060,-0.040
1.248,-0.030,-0.035
1.250,0.170,-0.030
1.252,0.150,-0.020
1.254,0.065,-0.015
1.256,0.000,-0.010
1.258,0.005,-0.005
1.260,-0.130,0.000
1.262,-0.100,0.000
1.264,-0.105,0.000
1.266,-0.035,0.000
1.268,0.015,0.000
1.270,0.190,-0.005
1.272,0.185,-0.005
1.274,0.065,-0.010
1.276,-0.030,-0.020
1.278,-0.095,-0.025
1.280,-0.185,-0.035
1.282,-0.195,-0.045
1.284,-0.150,-0.055
1.286,-0.055,-0.060
1.288,0.040,-0.055
1.290,0.125,-0.050
1.292,0.135,-0.040
1.294,0.115,-0.025
1.296,0.025,-0.010
1.298,-0.090,0.005
1.300,-0.175,0.015
1.302,-0.140,0.020
1.304,-0.020,0.020
1.306,0.045,0.015
1.308,0.055,0.005
1.310,0.170,-0.005
1.312,0.145,-0.015
1.314,0.050,-0.020
1.316,-0.060,-0.020
1.318,-0.085,-0.020
1.320,-0.155,-0.020
1.322,-0.175,-0.015
1.324,-0.085,-0.015
1.326,-0.010,-0.010
1.328,0.060,-0.010
1.330,0.155,-0.010
1.332,0.150,-0.015
1.334,0.045,-0.020
1.336,-0.005,-0.025
1.338,-0.050,-0.025
1.340,-0.175,-0.025
1.342,-0.165,-0.025
1.344,-0.090,-0.025
1.346,-0.015,-0.020
1.348,0.045,-0.015
1.350,0.150,-0.015
1.352,0.130,-0.015
1.354,0.050,-0.015
1.356,0.015,-0.015
1.358,-0.095,-0.025
1.360,-0.205,-0.030
1.362,-0.190,-0.040
1.364,-0.105,-0.050
1.366,-0.020,-0.055
1.368,0.060,-0.065
1.370,0.135,-0.065
1.372,0.080,-0.065
1.374,0.020,-0.065
1.376,-0.070,-0.055
1.378,-0.150,-0.050
1.380,-0.160,-0.040
1.382,-0.105,-0.030
1.384,-0.060,-0.020
1.386,0.020,-0.010
1.388,0.080,-0.005
1.390,0.140,-0.005
1.392,0.115,-0.005
1.394,0.070,-0.005
1.396,0.035,-0.010
1.398,-0.090,-0.015
1.400,-0.180,-0.020
1.402,-0.180,-0.030
1.404,-0.105,-0.035
1.406,-0.060,-0.045
1.408,0.055,-0.050
1.410,0.135,-0.055
1.412,0.105,-0.060
1.414,0.015,-0.055
1.416,-0.050,-0.050
1.418,-0.120,-0.040
1.420,-0.160,-0.030
1.422,-0.175,-0.015
1.424,-0.045,-0.005
1.426,0.020,0.000
1.428,0.120,0.000
1.430,0.140,-0.005
1.432,0.105,-0.015
1.434,0.060,-0.020
1.436,0.005,-0.025
1.438,-0.150,-0.025
1.440,-0.150,-0.025
1.442,-0.165,-0.015
1.444,-0.040,-0.005
1.446,0.010,0.005
1.448,0.145,0.005
1.450,0.165,0.005
1.452,0.155,0.000
1.454,0.030,-0.010
1.456,-0.020,-0.020
1.458,-0.145,-0.030
1.460,-0.180,-0.035
1.462,-0.170,-0.035
1.464,-0.065,-0.030
1.466,0.020,-0.025
1.468,0.135,-0.020
1.470,0.165,-0.010
1.472,0.135,-0.010
1.474,0.015,-0.010
1.476,-0.055,-0.015
1.478,-0.200,-0.025
1.480,-0.165,-0.030
1.482,-0.155,-0.035
1.484,-0.045,-0.030
1.486,0.005,-0.030
1.488,0.155,-0.025
1.490,0.150,-0.015
1.492,0.115,-0.010
1.494,0.010,-0.005
1.496,-0.025,-0.005
1.498,-0.145,0.000
1.500,-0.140,0.000
1.502,-0.070,0.005
1.504,0.005,0.015
1.506,0.005,0.025
1.508,0.145,0.030
1.510,0.245,0.040
1.512,0.245,0.040
1.514,0.100,0.040
1.516,0.005,0.035
1.518,-0.180,0.025
1.520,-0.210,0.020
1.522,-0.130,0.015
1.524,-0.005,0.010
1.526,0.075,0.015
1.528,0.245,0.020
1.530,0.250,0.030
1.532,0.125,0.035
1.534,0.020,0.035
1.536,0.005,0.030
1.538,-0.150,0.015
1.540,-0.210,-0.005
1.542,-0.155,-0.030
1.544,-0.045,-0.050
1.546,-0.045,-0.065
1.548,0.080,-0.070
1.550,0.160,-0.065
1.552,0.125,-0.050
1.554,0.025,-0.035
1.556,-0.035,-0.015
1.558,-0.190,0.000
1.560,-0.205,0.005
1.562,-0.100,0.005
1.564,0.000,-0.005
1.566,0.010,-0.020
1.568,0.130,-0.035
1.570,0.135,-0.050
1.572,0.070,-0.060
1.574,-0.025,-0.055
1.576,-0.075,-0.050
1.578,-0.205,-0.035
1.580,-0.205,-0.020
1.582,-0.100,-0.010
1.584,-0.020,0.000
1.586,0.065,-0.005
1.588,0.185,-0.010
1.590,0.165,-0.025
1.592,0.030,-0.040
1.594,-0.065,-0.050
1.596,-0.135,-0.060
1.598,-0.230,-0.060
1.600,-0.215,-0.060
1.602,-0.115,-0.050
1.604,-0.025,-0.040
1.606,0.050,-0.035
1.608,0.155,-0.030
1.610,0.125,-0.030
1.612,0.005,-0.030
1.614,-0.065,-0.030
1.616,-0.090,-0.025
1.618,-0.125,-0.010
1.620,-0.070,0.010
1.622,0.005,0.035
1.624,0.095,0.065
1.626,0.190,0.095
1.628,0.320,0.120
1.630,0.335,0.130
1.632,0.210,0.130
1.634,0.055,0.115
1.636,-0.015,0.095
1.638,-0.110,0.070
1.640,-0.080,0.050
1.642,-0.020,0.035
1.644,0.020,0.025
1.646,0.125,0.025
1.648,0.245,0.030
1.650,0.220,0.035
1.652,0.115,0.035
1.654,-0.025,0.020
1.656,-0.155,0.000
1.658,-0.230,-0.035
1.660,-0.270,-0.075
1.662,-0.185,-0.120
1.664,-0.175,-0.155
1.666,-0.075,-0.180
1.668,0.020,-0.190
1.670,0.010,-0.180
1.672,-0.080,-0.160
1.674,-0.135,-0.125
1.676,-0.195,-0.090
1.678,-0.205,-0.050
1.680,-0.135,-0.025
1.682,-0.030,-0.005
1.684,0.040,0.005
1.686,0.100,0.005
1.688,0.175,0.000
1.690,0.155,-0.010
1.692,0.030,-0.015
1.694,-0.075,-0.020
1.696,-0.205,-0.020
1.698,-0.170,-0.015
1.700,-0.140,-0.005
1.702,-0.055,0.005
1.704,0.050,0.015
1.706,0.190,0.025
1.708,0.210,0.025
1.710,0.185,0.025
1.712,0.045,0.015
1.714,-0.015,0.005
1.716,-0.130,-0.005
1.718,-0.175,-0.015
1.720,-0.220,-0.025
1.722,-0.075,-0.035
1.724,-0.025,-0.035
1.726,0.115,-0.035
1.728,0.175,-0.030
1.730,0.150,-0.025
1.732,0.020,-0.015
1.734,-0.020,-0.010
1.736,-0.160,-0.005
1.738,-0.155,-0.005
1.740,-0.150,-0.005
1.742,-0.060,-0.005
1.744,-0.020,-0.005
1.746,0.165,-0.005
1.748,0.195,-0.005
1.750,0.155,0.000
1.752,0.075,0.000
1.754,-0.030,0.005
1.756,-0.140,0.010
1.758,-0.135,0.005
1.760,-0.135,0.000
1.762,-0.025,-0.010
1.764,-0.020,-0.020
1.766,0.120,-0.025
1.768,0.120,-0.030
1.770,0.125,-0.030
1.772,0.065,-0.020
1.774,0.030,-0.005
1.776,-0.150,0.015
1.778,-0.120,0.035
1.780,-0.060,0.055
1.782,0.065,0.065
1.784,0.100,0.075
1.786,0.230,0.070
1.788,0.210,0.065
1.790,0.165,0.055
1.792,0.070,0.045
1.794,0.070,0.040
1.796,-0.150,0.035
1.798,-0.135,0.040
1.800,-0.045,0.045
1.802,0.065,0.050
1.804,0.090,0.055
1.806,0.245,0.060
1.808,0.280,0.060
1.810,0.185,0.055
1.812,0.070,0.045
1.814,-0.040,0.035
1.816,-0.170,0.030
1.818,-0.135,0.020
1.820,-0.100,0.020
1.822,-0.015,0.020
1.824,0.050,0.025
1.826,0.215,0.035
1.828,0.290,0.050
1.830,0.200,0.065
1.832,0.110,0.075
1.834,0.075,0.090
1.836,-0.065,0.105
1.838,-0.075,0.115
1.840,0.035,0.120
1.842,0.135,0.125
1.844,0.190,0.130
1.846,0.330,0.130
1.848,0.295,0.130
1.850,0.255,0.130
1.852,0.170,0.135
1.854,0.110,0.140
1.856,-0.015,0.145
1.858,0.015,0.155
1.860,0.075,0.170
1.862,0.180,0.180
1.864,0.265,0.185
1.866,0.370,0.185
1.868,0.350,0.185
1.870,0.270,0.180
1.872,0.190,0.170
1.874,0.125,0.165
1.876,0.005,0.155
1.878,-0.015,0.155
1.880,0.060,0.150
1.882,0.145,0.150
1.884,0.180,0.150
1.886,0.315,0.155
1.888,0.350,0.155
1.890,0.290,0.150
1.892,0.170,0.150
1.894,0.095,0.145
1.896,-0.025,0.145
1.898,-0.065,0.140
1.900,0.055,0.140
1.902,0.135,0.140
1.904,0.190,0.135
1.906,0.300,0.130
1.908,0.310,0.115
1.910,0.180,0.105
1.912,0.095,0.085
1.914,0.030,0.065
1.916,-0.125,0.045
1.918,-0.135,0.030
1.920,-0.065,0.020
1.922,0.040,0.015
1.924,0.165,0.015
1.926,0.260,0.020
1.928,0.180,0.025
1.930,0.080,0.035
1.932,0.020,0.035
1.934,-0.085,0.035
1.936,-0.145,0.025
1.938,-0.125,0.015
1.940,-0.030,0.005
1.942,0.010,-0.010
1.944,0.120,-0.020
1.946,0.160,-0.025
1.948,0.095,-0.025
1.950,0.060,-0.025
1.952,0.000,-0.025
1.954,-0.095,-0.025
1.956,-0.190,-0.020
1.958,-0.195,-0.025
1.960,-0.075,-0.025
1.962,-0.060,-0.030
1.964,0.105,-0.035
1.966,0.165,-0.040
1.968,0.145,-0.040
1.970,0.035,-0.035
1.972,-0.035,-0.030
1.974,-0.155,-0.025
1.976,-0.160,-0.015
1.978,-0.140,-0.005
1.980,-0.065,0.000
1.982,0.010,0.000
1.984,0.100,0.000
1.986,0.170,-0.005
1.988,0.145,-0.015
1.990,0.050,-0.020
1.992,-0.015,-0.025
1.994,-0.155,-0.030
1.996,-0.155,-0.035
1.998,-0.195,-0.035
2.000,-0.095,-0.030
2.002,0.000,-0.030
2.004,0.115,-0.030
2.006,0.145,-0.025
2.008,0.105,-0.030
2.010,0.055,-0.030
2.012,-0.025,-0.035
2.014,-0.160,-0.040
2.016,-0.180,-0.040
2.018,-0.160,-0.045
2.020,-0.085,-0.045
2.022,-0.050,-0.045
2.024,0.105,-0.045
2.026,0.110,-0.045
2.028,0.080,-0.045
2.030,0.000,-0.050
2.032,-0.055,-0.050
2.034,-0.200,-0.055
2.036,-0.195,-0.060
2.038,-0.175,-0.060
2.040,-0.060,-0.060
2.042,-0.025,-0.060
2.044,0.110,-0.055
2.046,0.075,-0.050
2.048,0.085,-0.045
2.050,0.000,-0.040
2.052,-0.025,-0.035
2.054,-0.160,-0.035
2.056,-0.190,-0.035
2.058,-0.155,-0.040
2.060,-0.085,-0.040
2.062,-0.020,-0.040
2.064,0.130,-0.035
2.066,0.125,-0.030
2.068,0.080,-0.025
2.070,-0.035,-0.015
2.072,0.035,-0.010
2.074,-0.120,-0.005
2.076,-0.155,-0.005
2.078,-0.135,-0.005
2.080,-0.070,-0.005
2.082,-0.045,-0.010
2.084,0.145,-0.015
2.086,0.220,-0.015
2.088,0.145,-0.015
2.090,0.030,-0.010
2.092,0.015,-0.010
2.094,-0.160,-0.010
2.096,-0.195,-0.010
2.098,-0.125,-0.015
2.100,0.005,-0.020
2.102,0.035,-0.030
2.104,0.105,-0.040
2.106,0.100,-0.045
2.108,0.060,-0.045
2.110,-0.025,-0.045
2.112,-0.075,-0.035
2.114,-0.150,-0.025
2.116,-0.120,-0.015
2.118,-0.100,0.000
2.120,0.015,0.005
2.122,0.050,0.010
2.124,0.175,0.005
2.126,0.190,0.000
2.128,0.075,-0.015
2.130,0.005,-0.025
2.132,-0.050,-0.040
2.134,-0.195,-0.050
2.136,-0.230,-0.055
2.138,-0.155,-0.055
2.140,-0.020,-0.050
2.142,0.050,-0.045
2.144,0.155,-0.035
2.146,0.120,-0.025
2.148,0.060,-0.015
2.150,-0.040,-0.005
2.152,-0.050,0.000
2.154,-0.065,0.005
2.156,-0.125,0.005
2.158,-0.075,0.005
2.160,-0.005,0.005
2.162,0.080,0.000
2.164,0.165,0.000
2.166,0.185,-0.005
2.168,0.100,-0.010
2.170,0.050,-0.010
2.172,-0.050,-0.015
2.174,-0.185,-0.015
2.176,-0.200,-0.015
2.178,-0.090,-0.010
2.180,-0.010,-0.010
2.182,0.045,-0.005
2.184,0.210,-0.005
2.186,0.235,0.000
2.188,0.140,0.000
2.190,-0.005,0.000
2.192,-0.090,0.000
2.194,-0.190,-0.005
2.196,-0.155,-0.010
2.198,-0.065,-0.015
2.200,0.040,-0.015
2.202,0.085,-0.015
2.204,0.200,-0.015
2.206,0.180,-0.010
2.208,0.065,0.000
2.210,-0.010,0.005
2.212,-0.075,0.015
2.214,-0.100,0.020
2.216,-0.065,0.020
2.218,-0.035,0.015
2.220,0.015,0.010
2.222,0.085,-0.005
2.224,0.175,-0.015
2.226,0.175,-0.025
2.228,0.000,-0.035
2.230,-0.040,-0.035
2.232,-0.095,-0.035
2.234,-0.150,-0.030
2.236,-0.155,-0.020
2.238,-0.050,-0.015
2.240,0.000,-0.005
2.242,0.090,0.005
2.244,0.180,0.010
2.246,0.210,0.015
2.248,0.155,0.020
2.250,0.075,0.025
2.252,-0.080,0.030
2.254,-0.115,0.035
2.256,-0.095,0.040
2.258,0.020,0.040
2.260,0.060,0.040
2.262,0.180,0.030
2.264,0.195,0.020
2.266,0.175,0.005
2.268,0.015,-0.010
2.270,-0.035,-0.020
2.272,-0.145,-0.020
2.274,-0.155,-0.020
2.276,-0.080,-0.010
2.278,0.015,0.000
2.280,0.055,0.015
2.282,0.185,0.020
2.284,0.190,0.025
2.286,0.170,0.025
2.288,0.050,0.020
2.290,0.015,0.015
2.292,-0.100,0.015
2.294,-0.105,0.015
2.296,-0.115,0.025
2.298,0.020,0.040
2.300,0.095,0.055
2.302,0.280,0.065
2.304,0.245,0.075
2.306,0.195,0.080
2.308,0.090,0.075
2.310,0.040,0.060
2.312,-0.070,0.045
2.314,-0.060,0.030
2.316,-0.105,0.015
2.318,-0.030,0.010
2.320,0.035,0.005
2.322,0.265,0.010
2.324,0.195,0.015
2.326,0.100,0.025
2.328,0.015,0.030
2.330,0.015,0.035
2.332,-0.110,0.035
2.334,-0.095,0.035
2.336,-0.035,0.030
2.338,0.060,0.030
2.340,0.105,0.030
2.342,0.215,0.025
2.344,0.215,0.025
2.346,0.175,0.025
2.348,0.050,0.025
2.350,0.030,0.025
2.352,-0.140,0.020
2.354,-0.170,0.020
2.356,-0.100,0.015
2.358,0.025,0.010
2.360,0.125,0.010
2.362,0.235,0.005
2.364,0.170,0.000
2.366,0.115,0.000
2.368,0.060,0.000
2.370,0.010,0.000
2.372,-0.155,0.000
2.374,-0.155,0.000
2.376,-0.080,0.000
2.378,0.035,0.000
2.380,0.070,0.000
2.382,0.185,-0.005
2.384,0.215,-0.005
2.386,0.105,-0.010
2.388,0.005,-0.015
2.390,-0.030,-0.015
2.392,-0.190,-0.020
2.394,-0.190,-0.020
2.396,-0.090,-0.020
2.398,0.005,-0.020
2.400,0.065,-0.025
2.402,0.175,-0.025
2.404,0.145,-0.035
2.406,0.085,-0.040
2.408,-0.025,-0.050
2.410,-0.075,-0.055
2.412,-0.240,-0.065
2.414,-0.215,-0.065
2.416,-0.130,-0.065
2.418,-0.005,-0.065
2.420,0.035,-0.060
2.422,0.155,-0.050
2.424,0.175,-0.050
2.426,0.075,-0.050
2.428,-0.025,-0.055
2.430,-0.095,-0.060
2.432,-0.240,-0.065
2.434,-0.250,-0.075
2.436,-0.170,-0.075
2.438,-0.070,-0.075
2.440,0.040,-0.070
2.442,0.195,-0.065
2.444,0.155,-0.055
2.446,0.065,-0.050
2.448,-0.020,-0.045
2.450,-0.100,-0.045
2.452,-0.220,-0.050
2.454,-0.215,-0.055
2.456,-0.165,-0.060
2.458,0.005,-0.055
2.460,0.105,-0.050
2.462,0.180,-0.035
2.464,0.210,-0.020
2.466,0.185,0.005
2.468,0.030,0.025
2.470,-0.065,0.040
2.472,-0.110,0.055
2.474,-0.060,0.060
2.476,0.040,0.065
2.478,0.130,0.060
2.480,0.170,0.055
2.482,0.245,0.055
2.484,0.210,0.050
2.486,0.105,0.045
2.488,0.050,0.045
2.490,0.000,0.035
2.492,-0.085,0.020
2.494,-0.125,0.000
2.496,-0.050,-0.030
2.498,-0.045,-0.065
2.500,-0.030,-0.100
2.502,0.000,-0.135
2.504,-0.020,-0.165
2.506,-0.095,-0.180
2.508,-0.155,-0.185
2.510,-0.295,-0.180
2.512,-0.330,-0.165
2.514,-0.280,-0.150
2.516,-0.105,-0.130
2.518,-0.035,-0.110
2.520,0.055,-0.100
2.522,0.130,-0.095
2.524,0.055,-0.095
2.526,-0.005,-0.090
2.528,-0.085,-0.090
2.530,-0.205,-0.085
2.532,-0.210,-0.080
2.534,-0.165,-0.070
2.536,-0.040,-0.055
2.538,0.030,-0.045
2.540,0.125,-0.040
2.542,0.135,-0.035
2.544,0.140,-0.040
2.546,0.010,-0.045
2.548,-0.050,-0.050
2.550,-0.190,-0.060
2.552,-0.170,-0.065
2.554,-0.180,-0.065
2.556,-0.075,-0.060
2.558,-0.015,-0.055
2.560,0.140,-0.050
2.562,0.125,-0.040
2.564,0.150,-0.040
2.566,0.045,-0.040
2.568,-0.025,-0.040
2.570,-0.190,-0.040
2.572,-0.180,-0.040
2.574,-0.120,-0.040
2.576,-0.055,-0.035
2.578,0.005,-0.030
2.580,0.190,-0.025
2.582,0.220,-0.020
2.584,0.125,-0.015
2.586,0.040,-0.015
2.588,-0.060,-0.020
2.590,-0.205,-0.025
2.592,-0.230,-0.030
2.594,-0.125,-0.030
2.596,0.040,-0.035
2.598,0.070,-0.035
2.600,0.195,-0.030
2.602,0.145,-0.030
2.604,0.115,-0.030
2.606,0.025,-0.030
2.608,0.015,-0.030
2.610,-0.175,-0.035
2.612,-0.190,-0.035
2.614,-0.125,-0.040
2.616,0.010,-0.040
2.618,0.055,-0.040
2.620,0.140,-0.035
2.622,0.135,-0.030
2.624,0.130,-0.025
2.626,0.035,-0.020
2.628,-0.005,-0.020
2.630,-0.170,-0.020
2.632,-0.160,-0.020
2.634,-0.090,-0.020
2.636,0.040,-0.020
2.638,0.060,-0.015
2.640,0.205,-0.005
2.642,0.180,0.005
2.644,0.160,0.015
2.646,0.050,0.030
2.648,0.025,0.035
2.650,-0.090,0.040
2.652,-0.075,0.040
2.654,-0.060,0.035
2.656,0.030,0.030
2.658,0.065,0.025
2.660,0.240,0.020
2.662,0.270,0.020
2.664,0.160,0.025
2.666,0.045,0.030
2.668,-0.010,0.035
2.670,-0.095,0.045
2.672,-0.080,0.055
2.674,0.005,0.065
2.676,0.100,0.075
2.678,0.205,0.090
2.680,0.335,0.105
2.682,0.320,0.120
2.684,0.265,0.135
2.686,0.220,0.145
2.688,0.170,0.155
2.690,-0.015,0.155
2.692,-0.035,0.150
2.694,0.085,0.140
2.696,0.185,0.130
2.698,0.190,0.115
2.700,0.265,0.100
2.702,0.295,0.095
2.704,0.265,0.095
2.706,0.195,0.100
2.708,0.115,0.115
2.710,0.015,0.130
2.712,0.010,0.145
2.714,0.100,0.165
2.716,0.195,0.175
2.718,0.255,0.185
2.720,0.370,0.185
2.722,0.395,0.185
2.724,0.320,0.180
2.726,0.210,0.180
2.728,0.130,0.175
2.730,0.050,0.175
2.732,0.025,0.175
2.734,0.095,0.180
2.736,0.220,0.180
2.738,0.305,0.185
2.740,0.410,0.185
2.742,0.410,0.185
2.744,0.290,0.185
2.746,0.220,0.180
2.748,0.100,0.175
2.750,-0.010,0.170
2.752,0.045,0.160
2.754,0.095,0.150
2.756,0.185,0.135
2.758,0.210,0.120
2.760,0.270,0.105
2.762,0.265,0.090
2.764,0.185,0.080
2.766,0.060,0.070
2.768,0.015,0.060
2.770,-0.080,0.055
2.772,-0.045,0.050
2.774,0.060,0.050
2.776,0.085,0.045
2.778,0.145,0.045
2.780,0.225,0.040
2.782,0.230,0.040
2.784,0.145,0.040
2.786,0.075,0.040
2.788,-0.020,0.040
2.790,-0.095,0.040
2.792,-0.110,0.040
2.794,0.000,0.040
2.796,0.040,0.035
2.798,0.185,0.030
2.800,0.235,0.020
2.802,0.225,0.010
2.804,0.090,-0.005
2.806,0.000,-0.015
2.808,-0.135,-0.025
2.810,-0.175,-0.030
2.812,-0.120,-0.035
2.814,-0.025,-0.030
2.816,0.025,-0.025
2.818,0.160,-0.020
2.820,0.220,-0.015
2.822,0.180,-0.010
2.824,0.050,-0.005
2.826,-0.015,-0.005
2.828,-0.115,-0.010
2.830,-0.150,-0.010
2.832,-0.135,-0.015
2.834,-0.010,-0.015
2.836,0.070,-0.010
2.838,0.195,0.000
2.840,0.210,0.010
2.842,0.160,0.015
2.844,0.055,0.025
2.846,0.045,0.030
2.848,-0.060,0.030
2.850,-0.125,0.025
2.852,-0.115,0.020
2.854,0.000,0.010
2.856,0.080,0.000
2.858,0.200,-0.005
2.860,0.210,-0.010
2.862,0.155,-0.010
2.864,0.055,-0.010
2.866,0.010,-0.010
2.868,-0.125,-0.005
2.870,-0.130,-0.005
2.872,-0.120,-0.010
2.874,-0.045,-0.015
2.876,0.025,-0.025
2.878,0.165,-0.030
2.880,0.155,-0.040
2.882,0.145,-0.040
2.884,0.005,-0.045
2.886,-0.010,-0.040
2.888,-0.135,-0.035
2.890,-0.105,-0.025
2.892,-0.125,-0.020
2.894,-0.085,-0.010
2.896,-0.015,-0.010
2.898,0.195,-0.010
2.900,0.200,-0.010
2.902,0.145,-0.020
2.904,0.075,-0.025
2.906,-0.045,-0.035
2.908,-0.180,-0.040
2.910,-0.190,-0.045
2.912,-0.180,-0.045
2.914,-0.060,-0.045
2.916,0.050,-0.040
2.918,0.230,-0.030
2.920,0.185,-0.020
2.922,0.155,-0.010
2.924,0.035,0.000
2.926,0.025,0.010
2.928,-0.115,0.015
2.930,-0.095,0.015
2.932,-0.070,0.010
2.934,-0.005,0.005
2.936,0.015,-0.005
2.938,0.175,-0.015
2.940,0.195,-0.020
2.942,0.130,-0.030
2.944,0.015,-0.030
2.946,-0.030,-0.030
2.948,-0.140,-0.030
2.950,-0.185,-0.030
2.952,-0.125,-0.030
2.954,-0.040,-0.030
2.956,0.035,-0.035
2.958,0.195,-0.040
2.960,0.175,-0.045
2.962,0.085,-0.050
2.964,-0.050,-0.050
2.966,-0.075,-0.055
2.968,-0.160,-0.055
2.970,-0.175,-0.050
2.972,-0.090,-0.050
2.974,-0.015,-0.050
2.976,0.020,-0.055
2.978,0.145,-0.060
2.980,0.140,-0.065
2.982,0.025,-0.070
2.984,-0.090,-0.075
2.986,-0.100,-0.075
2.988,-0.210,-0.075
2.990,-0.155,-0.070
2.992,-0.065,-0.060
2.994,-0.030,-0.050
2.996,0.080,-0.045
2.998,0.185,-0.035
3.000,0.185,-0.030
3.002,0.120,-0.030
3.004,0.000,-0.025
3.006,-0.095,-0.025
3.008,-0.200,-0.025
3.010,-0.160,-0.020
3.012,-0.030,-0.015
3.014,0.055,-0.010
3.016,0.115,-0.010
3.018,0.230,-0.010
3.020,0.200,-0.015
3.022,0.070,-0.025
3.024,-0.035,-0.035
3.026,-0.105,-0.045
3.028,-0.190,-0.055
3.030,-0.165,-0.065
3.032,-0.095,-0.065
3.034,-0.035,-0.065
3.036,0.085,-0.060
3.038,0.165,-0.050
3.040,0.145,-0.045
3.042,0.090,-0.035
3.044,-0.005,-0.035
3.046,-0.100,-0.035
3.048,-0.165,-0.035
3.050,-0.140,-0.045
3.052,-0.080,-0.050
3.054,-0.045,-0.060
3.056,0.045,-0.070
3.058,0.160,-0.075
3.060,0.115,-0.075
3.062,0.005,-0.080
3.064,-0.035,-0.080
3.066,-0.125,-0.080
3.068,-0.175,-0.080
3.070,-0.145,-0.080
3.072,-0.080,-0.085
3.074,-0.025,-0.085
3.076,0.005,-0.085
3.078,0.075,-0.085
3.080,0.100,-0.085
3.082,0.015,-0.085
3.084,-0.065,-0.085
3.086,-0.115,-0.080
3.088,-0.125,-0.080
3.090,-0.155,-0.080
3.092,-0.095,-0.075
3.094,-0.020,-0.070
3.096,0.085,-0.065
3.098,0.135,-0.060
3.100,0.130,-0.050
3.102,0.055,-0.045
3.104,0.010,-0.035
3.106,-0.100,-0.030
3.108,-0.145,-0.020
3.110,-0.125,-0.020
3.112,0.005,-0.020
3.114,0.055,-0.025
3.116,0.135,-0.035
3.118,0.150,-0.040
3.120,0.125,-0.045
3.122,0.000,-0.050
3.124,-0.045,-0.055
3.126,-0.155,-0.055
3.128,-0.175,-0.060
3.130,-0.150,-0.060
3.132,-0.085,-0.065
3.134,0.025,-0.070
3.136,0.135,-0.075
3.138,0.115,-0.085
3.140,0.040,-0.090
3.142,-0.080,-0.095
3.144,-0.110,-0.095
3.146,-0.185,-0.090
3.148,-0.150,-0.080
3.150,-0.150,-0.070
3.152,-0.090,-0.055
3.154,-0.010,-0.050
3.156,0.150,-0.040
3.158,0.135,-0.040
3.160,0.125,-0.045
3.162,0.040,-0.055
3.164,-0.015,-0.065
3.166,-0.210,-0.075
3.168,-0.195,-0.080
3.170,-0.155,-0.085
3.172,-0.085,-0.085
3.174,-0.005,-0.080
3.176,0.135,-0.070
3.178,0.115,-0.065
3.180,0.105,-0.055
3.182,0.000,-0.050
3.184,-0.030,-0.040
3.186,-0.125,-0.035
3.188,-0.115,-0.025
3.190,-0.140,-0.020
3.192,-0.010,-0.015
3.194,0.050,-0.010
3.196,0.180,-0.010
3.198,0.225,-0.010
3.200,0.160,-0.015
3.202,0.045,-0.020
3.204,-0.015,-0.030
3.206,-0.180,-0.035
3.208,-0.210,-0.040
3.210,-0.140,-0.040
3.212,-0.010,-0.040
3.214,0.035,-0.040
3.216,0.180,-0.035
3.218,0.185,-0.035
3.220,0.120,-0.035
3.222,0.010,-0.040
3.224,-0.070,-0.050
3.226,-0.210,-0.060
3.228,-0.200,-0.070
3.230,-0.165,-0.080
3.232,-0.090,-0.085
3.234,-0.015,-0.090
3.236,0.100,-0.085
3.238,0.135,-0.080
3.240,0.110,-0.070
3.242,0.050,-0.055
3.244,-0.005,-0.045
3.246,-0.085,-0.030
3.248,-0.120,-0.020
3.250,-0.095,-0.010
3.252,-0.020,-0.005
3.254,0.035,-0.005
3.256,0.200,-0.010
3.258,0.195,-0.015
3.260,0.105,-0.020
3.262,0.045,-0.020
3.264,-0.015,-0.025
3.266,-0.135,-0.025
3.268,-0.145,-0.020
3.270,-0.045,-0.015
3.272,0.020,-0.010
3.274,0.090,-0.005
3.276,0.190,0.000
3.278,0.210,0.000
3.280,0.130,0.000
3.282,0.030,0.000
3.284,-0.015,-0.005
3.286,-0.125,-0.005
3.288,-0.190,-0.005
3.290,-0.050,-0.005
3.292,0.050,0.000
3.294,0.120,0.010
3.296,0.210,0.010
3.298,0.215,0.015
3.300,0.135,0.010
3.302,0.030,0.005
3.304,-0.045,-0.010
3.306,-0.180,-0.025
3.308,-0.150,-0.040
3.310,-0.140,-0.055
3.312,-0.045,-0.070
3.314,0.030,-0.080
3.316,0.125,-0.080
3.318,0.090,-0.080
3.320,0.020,-0.075
3.322,-0.050,-0.070
3.324,-0.080,-0.065
3.326,-0.160,-0.065
3.328,-0.175,-0.065
3.330,-0.125,-0.065
3.332,-0.075,-0.070
3.334,0.040,-0.070
3.336,0.145,-0.070
3.338,0.150,-0.065
3.340,0.040,-0.060
3.342,-0.060,-0.055
3.344,-0.095,-0.050
3.346,-0.175,-0.040
3.348,-0.190,-0.040
3.350,-0.105,-0.040
3.352,-0.010,-0.045
3.354,0.100,-0.050
3.356,0.185,-0.060
3.358,0.175,-0.065
3.360,0.025,-0.065
3.362,-0.070,-0.065
3.364,-0.125,-0.065
3.366,-0.230,-0.055
3.368,-0.190,-0.050
3.370,-0.045,-0.040
3.372,0.035,-0.030
3.374,0.125,-0.025
3.376,0.190,-0.020
3.378,0.175,-0.010
3.380,0.050,-0.005
3.382,0.010,0.000
3.384,-0.080,0.010
3.386,-0.115,0.020
3.388,-0.100,0.025
3.390,0.025,0.030
3.392,0.095,0.030
3.394,0.215,0.025
3.396,0.235,0.020
3.398,0.130,0.015
3.400,0.050,0.010
3.402,0.005,0.010
3.404,-0.065,0.010
3.406,-0.075,0.015
3.408,-0.060,0.015
3.410,0.040,0.015
3.412,0.060,0.010
3.414,0.150,-0.005
3.416,0.185,-0.030
3.418,0.115,-0.060
3.420,-0.045,-0.090
3.422,-0.130,-0.125
3.424,-0.300,-0.155
3.426,-0.305,-0.170
3.428,-0.260,-0.180
3.430,-0.180,-0.170
3.432,-0.065,-0.155
3.434,0.080,-0.130
3.436,0.095,-0.100
3.438,0.060,-0.075
3.440,0.015,-0.060
3.442,-0.010,-0.050
3.444,-0.170,-0.045
3.446,-0.150,-0.050
3.448,-0.145,-0.060
3.450,-0.055,-0.070
3.452,-0.075,-0.075
3.454,0.095,-0.075
3.456,0.140,-0.070
3.458,0.100,-0.065
3.460,0.020,-0.060
3.462,-0.035,-0.055
3.464,-0.160,-0.050
3.466,-0.165,-0.045
3.468,-0.120,-0.050
3.470,-0.010,-0.050
3.472,-0.015,-0.050
3.474,0.105,-0.050
3.476,0.125,-0.050
3.478,0.115,-0.045
3.480,-0.015,-0.040
3.482,-0.035,-0.035
3.484,-0.110,-0.025
3.486,-0.150,-0.025
3.488,-0.145,-0.025
3.490,-0.030,-0.025
3.492,-0.015,-0.025
3.494,0.165,-0.025
3.496,0.155,-0.030
3.498,0.135,-0.025
3.500,0.085,-0.025
3.502,0.050,-0.020
3.504,-0.140,-0.015
3.506,-0.130,-0.010
3.508,-0.130,-0.010
3.510,-0.060,-0.015
3.512,-0.025,-0.020
3.514,0.155,-0.025
3.516,0.195,-0.030
3.518,0.130,-0.030
3.520,0.025,-0.030
3.522,-0.060,-0.025
3.524,-0.175,-0.015
3.526,-0.115,-0.005
3.528,-0.045,0.010
3.530,0.030,0.015
3.532,0.090,0.020
3.534,0.195,0.020
3.536,0.155,0.015
3.538,0.115,0.010
3.540,0.070,0.000
3.542,0.000,-0.005
3.544,-0.120,-0.005
3.546,-0.120,0.000
3.548,-0.080,0.005
3.550,0.080,0.015
3.552,0.160,0.025
3.554,0.200,0.035
3.556,0.220,0.045
3.558,0.125,0.045
3.560,0.020,0.045
3.562,0.025,0.040
3.564,-0.080,0.040
3.566,-0.120,0.035
3.568,-0.030,0.040
3.570,0.095,0.045
3.572,0.160,0.050
3.574,0.275,0.060
3.576,0.240,0.065
3.578,0.115,0.075
3.580,0.105,0.080
3.582,0.060,0.085
3.584,-0.065,0.090
3.586,-0.070,0.095
3.588,0.045,0.105
3.590,0.195,0.115
3.592,0.275,0.130
3.594,0.330,0.145
3.596,0.295,0.160
3.598,0.290,0.170
3.600,0.200,0.175
3.602,0.110,0.175
3.604,0.035,0.170
3.606,0.055,0.165
3.608,0.125,0.160
3.610,0.155,0.160
3.612,0.270,0.165
3.614,0.370,0.170
3.616,0.360,0.180
3.618,0.330,0.195
3.620,0.235,0.205
3.622,0.165,0.215
3.624,0.090,0.220
3.626,0.100,0.220
3.628,0.180,0.220
3.630,0.225,0.215
3.632,0.300,0.215
3.634,0.395,0.215
3.636,0.360,0.220
3.638,0.295,0.230
3.640,0.275,0.240
3.642,0.180,0.250
3.644,0.155,0.260
3.646,0.145,0.265
3.648,0.180,0.260
3.650,0.290,0.255
3.652,0.380,0.245
3.654,0.435,0.235
3.656,0.390,0.225
3.658,0.290,0.215
3.660,0.220,0.210
3.662,0.130,0.210
3.664,0.065,0.210
3.666,0.115,0.210
3.668,0.160,0.210
3.670,0.185,0.210
3.672,0.295,0.205
3.674,0.410,0.200
3.676,0.385,0.195
3.678,0.285,0.190
3.680,0.220,0.190
3.682,0.085,0.185
3.684,0.005,0.185
3.686,-0.020,0.180
3.688,0.105,0.180
3.690,0.200,0.175
3.692,0.350,0.170
3.694,0.375,0.160
3.696,0.290,0.150
3.698,0.200,0.140
3.700,0.145,0.125
3.702,-0.005,0.120
3.704,-0.045,0.110
3.706,-0.015,0.105
3.708,0.045,0.095
3.710,0.110,0.090
3.712,0.260,0.080
3.714,0.225,0.070
3.716,0.180,0.060
3.718,0.095,0.050
3.720,0.075,0.045
3.722,-0.095,0.040
3.724,-0.110,0.045
3.726,-0.060,0.050
3.728,0.080,0.060
3.730,0.110,0.070
3.732,0.240,0.080
3.734,0.255,0.090
3.736,0.255,0.090
3.738,0.145,0.085
3.740,0.065,0.075
3.742,-0.095,0.065
3.744,-0.065,0.050
3.746,-0.100,0.040
3.748,-0.010,0.035
3.750,0.100,0.035
3.752,0.240,0.035
3.754,0.280,0.045
3.756,0.175,0.055
3.758,0.135,0.065
3.760,0.105,0.075
3.762,-0.100,0.080
3.764,-0.095,0.090
3.766,-0.060,0.095
3.768,0.030,0.095
3.770,0.125,0.095
3.772,0.290,0.090
3.774,0.275,0.080
3.776,0.220,0.070
3.778,0.100,0.055
3.780,0.020,0.035
3.782,-0.160,0.020
3.784,-0.175,0.010
3.786,-0.110,0.005
3.788,0.005,0.005
3.790,0.080,0.010
3.792,0.240,0.020
3.794,0.225,0.035
3.796,0.165,0.050
3.798,0.055,0.060
3.800,-0.010,0.065
3.802,-0.080,0.060
3.804,-0.075,0.055
3.806,-0.005,0.045
3.808,0.005,0.040
3.810,0.065,0.035
3.812,0.210,0.030
3.814,0.235,0.035
3.816,0.180,0.040
3.818,0.075,0.045
3.820,-0.005,0.045
3.822,-0.105,0.045
3.824,-0.100,0.045
3.826,-0.090,0.035
3.828,-0.025,0.025
3.830,0.050,0.015
3.832,0.170,0.010
3.834,0.200,0.005
3.836,0.170,0.005
3.838,0.090,0.005
3.840,0.005,0.010
3.842,-0.125,0.010
3.844,-0.140,0.010
3.846,-0.120,0.005
3.848,-0.015,-0.005
3.850,0.010,-0.015
3.852,0.145,-0.025
3.854,0.140,-0.035
3.856,0.045,-0.040
3.858,0.010,-0.045
3.860,-0.110,-0.040
3.862,-0.185,-0.035
3.864,-0.165,-0.030
3.866,-0.100,-0.020
3.868,0.025,-0.020
3.870,0.050,-0.020
3.872,0.150,-0.020
3.874,0.165,-0.020
3.876,0.065,-0.020
3.878,-0.045,-0.020
3.880,-0.095,-0.020
3.882,-0.200,-0.020
3.884,-0.205,-0.015
3.886,-0.095,-0.015
3.888,0.005,-0.020
3.890,0.055,-0.025
3.892,0.090,-0.035
3.894,0.110,-0.045
3.896,0.055,-0.050
3.898,-0.020,-0.055
3.900,-0.105,-0.050
3.902,-0.255,-0.040
3.904,-0.185,-0.025
3.906,-0.045,-0.010
3.908,0.025,0.005
3.910,0.085,0.015
3.912,0.175,0.015
3.914,0.165,0.005
3.916,0.055,-0.005
3.918,-0.060,-0.025
3.920,-0.200,-0.045
3.922,-0.255,-0.060
3.924,-0.190,-0.070
3.926,-0.115,-0.075
3.928,-0.070,-0.070
3.930,0.070,-0.060
3.932,0.170,-0.045
3.934,0.130,-0.030
3.936,0.010,-0.015
3.938,-0.040,-0.005
3.940,-0.155,-0.005
3.942,-0.160,0.000
3.944,-0.155,-0.005
3.946,-0.050,-0.010
3.948,0.015,-0.015
3.950,0.095,-0.020
3.952,0.135,-0.025
3.954,0.125,-0.030
3.956,0.035,-0.035
3.958,-0.040,-0.040
3.960,-0.205,-0.045
3.962,-0.220,-0.050
3.964,-0.170,-0.055
3.966,-0.125,-0.060
3.968,-0.085,-0.065
3.970,0.055,-0.070
3.972,0.100,-0.070
3.974,0.070,-0.070
3.976,0.020,-0.065
3.978,-0.045,-0.060
3.980,-0.195,-0.055
3.982,-0.195,-0.050
3.984,-0.185,-0.045
3.986,-0.070,-0.045
3.988,-0.045,-0.045
3.990,0.060,-0.055
3.992,0.080,-0.060
3.994,0.100,-0.070
3.996,-0.025,-0.075
3.998,-0.140,-0.080
4.000,-0.260,-0.080
4.002,-0.245,-0.075
4.004,-0.205,-0.065
4.006,-0.125,-0.055
4.008,-0.030,-0.040
4.010,0.120,-0.025
4.012,0.210,-0.015
4.014,0.155,-0.005
4.016,0.005,-0.005
4.018,-0.055,-0.005
4.020,-0.185,-0.010
4.022,-0.195,-0.020
4.024,-0.165,-0.025
4.026,-0.085,-0.035
4.028,-0.050,-0.040
4.030,0.080,-0.040
4.032,0.110,-0.040
4.034,0.075,-0.035
4.036,-0.010,-0.030
4.038,-0.030,-0.020
4.040,-0.150,-0.010
4.042,-0.165,-0.005
4.044,-0.155,0.000
4.046,-0.060,-0.005
4.048,-0.005,-0.010
4.050,0.150,-0.020
4.052,0.130,-0.030
4.054,0.060,-0.045
4.056,-0.020,-0.055
4.058,-0.075,-0.060
4.060,-0.245,-0.065
4.062,-0.235,-0.055
4.064,-0.165,-0.045
4.066,-0.065,-0.030
4.068,0.045,-0.015
4.070,0.200,0.000
4.072,0.165,0.005
4.074,0.095,0.000
4.076,0.030,-0.010
4.078,-0.065,-0.025
4.080,-0.270,-0.045
4.082,-0.255,-0.060
4.084,-0.195,-0.070
4.086,-0.125,-0.070
4.088,-0.040,-0.060
4.090,0.115,-0.050
4.092,0.110,-0.035
4.094,0.055,-0.020
4.096,0.030,-0.010
4.098,-0.065,-0.010
4.100,-0.200,-0.015
4.102,-0.245,-0.025
4.104,-0.170,-0.035
4.106,-0.050,-0.050
4.108,-0.010,-0.055
4.110,0.130,-0.060
4.112,0.095,-0.060
4.114,0.010,-0.055
4.116,-0.050,-0.045
4.118,-0.110,-0.035
4.120,-0.230,-0.030
4.122,-0.180,-0.025
4.124,-0.140,-0.025
4.126,-0.060,-0.025
4.128,0.010,-0.030
4.130,0.145,-0.035
4.132,0.075,-0.045
4.134,-0.010,-0.050
4.136,-0.060,-0.055
4.138,-0.145,-0.060
4.140,-0.265,-0.060
4.142,-0.220,-0.060
4.144,-0.140,-0.060
4.146,-0.010,-0.055
4.148,0.025,-0.055
4.150,0.090,-0.055
4.152,0.080,-0.050
4.154,0.005,-0.055
4.156,-0.045,-0.055
4.158,-0.170,-0.055
4.160,-0.275,-0.060
4.162,-0.260,-0.060
4.164,-0.150,-0.060
4.166,-0.025,-0.060
4.168,0.065,-0.055
4.170,0.130,-0.055
4.172,0.080,-0.050
4.174,-0.005,-0.045
4.176,-0.060,-0.045
4.178,-0.145,-0.045
4.180,-0.230,-0.045
4.182,-0.215,-0.050
4.184,-0.150,-0.050
4.186,-0.085,-0.050
4.188,0.035,-0.045
4.190,0.130,-0.040
4.192,0.120,-0.030
4.194,0.055,-0.020
4.196,-0.050,-0.005
4.198,-0.155,0.000
4.200,-0.190,0.010
4.202,-0.125,0.010
4.204,-0.060,0.010
4.206,-0.005,0.005
4.208,0.070,0.000
4.210,0.125,-0.005
4.212,0.125,-0.005
4.214,0.025,0.000
4.216,0.010,0.000
4.218,-0.080,0.005
4.220,-0.140,0.010
4.222,-0.125,0.010
4.224,-0.060,0.010
4.226,-0.060,0.000
4.228,0.055,-0.010
4.230,0.110,-0.025
4.232,0.105,-0.035
4.234,0.015,-0.045
4.236,-0.075,-0.050
4.238,-0.195,-0.055
4.240,-0.260,-0.050
4.242,-0.225,-0.045
4.244,-0.105,-0.040
4.246,-0.025,-0.035
4.248,0.090,-0.035
4.250,0.085,-0.040
4.252,0.085,-0.040
4.254,0.000,-0.045
4.256,-0.100,-0.050
4.258,-0.215,-0.055
4.260,-0.250,-0.055
4.262,-0.190,-0.055
4.264,-0.080,-0.050
4.266,-0.005,-0.045
4.268,0.075,-0.040
4.270,0.055,-0.040
4.272,0.055,-0.040
4.274,-0.025,-0.040
4.276,-0.080,-0.040
4.278,-0.215,-0.045
4.280,-0.185,-0.045
4.282,-0.155,-0.050
4.284,-0.065,-0.050
4.286,-0.085,-0.055
4.288,0.045,-0.055
4.290,0.060,-0.060
4.292,0.035,-0.065
4.294,-0.030,-0.065
4.296,-0.065,-0.070
4.298,-0.245,-0.075
4.300,-0.250,-0.080
4.302,-0.215,-0.080
4.304,-0.165,-0.080
4.306,-0.060,-0.080
4.308,0.095,-0.075
4.310,0.020,-0.065
4.312,0.020,-0.055
4.314,-0.015,-0.045
4.316,-0.050,-0.030
4.318,-0.160,-0.020
4.320,-0.150,-0.005
4.322,-0.125,0.005
4.324,-0.030,0.015
4.326,-0.015,0.020
4.328,0.150,0.025
4.330,0.150,0.025
4.332,0.135,0.025
4.334,0.035,0.030
4.336,-0.035,0.030
4.338,-0.145,0.035
4.340,-0.120,0.040
4.342,-0.080,0.050
4.344,0.030,0.050
4.346,0.090,0.055
4.348,0.205,0.045
4.350,0.190,0.035
4.352,0.070,0.015
4.354,-0.085,-0.015
4.356,-0.200,-0.050
4.358,-0.300,-0.085
4.360,-0.330,-0.115
4.362,-0.240,-0.140
4.364,-0.140,-0.155
4.366,-0.145,-0.165
4.368,-0.030,-0.155
4.370,-0.015,-0.140
4.372,-0.045,-0.120
4.374,-0.080,-0.095
4.376,-0.095,-0.075
4.378,-0.235,-0.055
4.380,-0.225,-0.045
4.382,-0.180,-0.040
4.384,-0.050,-0.045
4.386,-0.035,-0.050
4.388,0.080,-0.060
4.390,0.050,-0.070
4.392,0.000,-0.075
4.394,-0.075,-0.075
4.396,-0.100,-0.070
4.398,-0.235,-0.060
4.400,-0.250,-0.040
4.402,-0.140,-0.025
4.404,-0.055,-0.010
4.406,-0.010,0.000
4.408,0.130,0.005
4.410,0.145,0.005
4.412,0.115,-0.005
4.414,-0.020,-0.015
4.416,-0.130,-0.025
4.418,-0.290,-0.040
4.420,-0.250,-0.050
4.422,-0.155,-0.055
4.424,-0.060,-0.060
4.426,0.000,-0.060
4.428,0.095,-0.055
4.430,0.080,-0.045
4.432,0.025,-0.040
4.434,-0.055,-0.030
4.436,-0.105,-0.025
4.438,-0.195,-0.020
4.440,-0.190,-0.015
4.442,-0.150,-0.015
4.444,-0.030,-0.010
4.446,0.020,-0.005
4.448,0.140,-0.005
4.450,0.150,-0.005
4.452,0.075,0.000
4.454,-0.055,0.000
4.456,-0.120,0.000
4.458,-0.185,0.000
4.460,-0.165,0.000
4.462,-0.105,0.000
4.464,-0.020,0.000
4.466,0.025,0.000
4.468,0.135,-0.005
4.470,0.160,-0.005
4.472,0.040,-0.005
4.474,-0.070,-0.005
4.476,-0.140,-0.005
4.478,-0.160,0.000
4.480,-0.160,0.000
4.482,-0.100,0.010
4.484,0.000,0.015
4.486,0.135,0.025
4.488,0.205,0.035
4.490,0.165,0.045
4.492,0.070,0.045
4.494,0.015,0.045
4.496,-0.080,0.045
4.498,-0.195,0.035
4.500,-0.145,0.025
4.502,-0.075,0.015
4.504,-0.025,0.010
4.506,0.090,0.005
4.508,0.155,0.010
4.510,0.165,0.020
4.512,0.090,0.035
4.514,0.035,0.055
4.516,-0.095,0.070
4.518,-0.105,0.080
4.520,-0.070,0.085
4.522,-0.020,0.085
4.524,0.050,0.075
4.526,0.150,0.065
4.528,0.180,0.060
4.530,0.190,0.055
4.532,0.065,0.055
4.534,0.055,0.070
4.536,-0.090,0.085
4.538,-0.070,0.105
4.540,-0.030,0.130
4.542,0.095,0.145
4.544,0.150,0.155
4.546,0.260,0.160
4.548,0.320,0.155
4.550,0.270,0.145
4.552,0.145,0.135
4.554,0.015,0.130
4.556,-0.100,0.130
4.558,-0.075,0.140
4.560,0.025,0.150
4.562,0.115,0.170
4.564,0.200,0.190
4.566,0.325,0.210
4.568,0.365,0.220
4.570,0.305,0.220
4.572,0.210,0.215
4.574,0.145,0.200
4.576,-0.030,0.180
4.578,-0.040,0.160
4.580,-0.015,0.140
4.582,0.085,0.130
4.584,0.145,0.125
4.586,0.240,0.135
4.588,0.270,0.145
4.590,0.325,0.160
4.592,0.195,0.175
4.594,0.125,0.185
4.596,-0.050,0.190
4.598,-0.020,0.185
4.600,0.080,0.175
4.602,0.145,0.160
4.604,0.120,0.145
4.606,0.215,0.125
4.608,0.220,0.105
4.610,0.180,0.095
4.612,0.070,0.085
4.614,0.000,0.080
4.616,-0.110,0.075
4.618,-0.120,0.075
4.620,-0.070,0.075
4.622,0.055,0.075
4.624,0.050,0.070
4.626,0.195,0.070
4.628,0.210,0.065
4.630,0.175,0.065
4.632,0.070,0.055
4.634,-0.050,0.045
4.636,-0.195,0.035
4.638,-0.225,0.025
4.640,-0.190,0.010
4.642,-0.100,-0.005
4.644,0.000,-0.020
4.646,0.140,-0.025
4.648,0.140,-0.030
4.650,0.060,-0.030
4.652,-0.045,-0.030
4.654,-0.090,-0.025
4.656,-0.230,-0.020
4.658,-0.190,-0.020
4.660,-0.115,-0.025
4.662,-0.100,-0.030
4.664,-0.095,-0.040
4.666,0.060,-0.050
4.668,0.085,-0.055
4.670,0.015,-0.055
4.672,-0.045,-0.050
4.674,-0.060,-0.035
4.676,-0.180,-0.025
4.678,-0.235,-0.010
4.680,-0.215,0.000
4.682,-0.080,0.005
4.684,0.070,0.005
4.686,0.165,0.000
4.688,0.135,-0.010
4.690,0.030,-0.020
4.692,-0.055,-0.030
4.694,-0.090,-0.035
4.696,-0.200,-0.030
4.698,-0.210,-0.030
4.700,-0.175,-0.020
4.702,-0.115,-0.015
4.704,-0.030,-0.010
4.706,0.150,-0.010
4.708,0.125,-0.015
4.710,0.020,-0.020
4.712,-0.055,-0.025
4.714,-0.110,-0.030
4.716,-0.175,-0.035
4.718,-0.195,-0.035
4.720,-0.160,-0.035
4.722,-0.075,-0.030
4.724,0.005,-0.030
4.726,0.095,-0.025
4.728,0.075,-0.030
4.730,0.005,-0.035
4.732,-0.085,-0.040
4.734,-0.160,-0.050
4.736,-0.225,-0.060
4.738,-0.200,-0.070
4.740,-0.205,-0.070
4.742,-0.115,-0.070
4.744,-0.070,-0.060
4.746,0.075,-0.050
4.748,0.155,-0.040
4.750,0.055,-0.030
4.752,-0.075,-0.025
4.754,-0.160,-0.020
4.756,-0.195,-0.020
4.758,-0.205,-0.025
4.760,-0.150,-0.030
4.762,-0.075,-0.035
4.764,0.040,-0.040
4.766,0.145,-0.040
4.768,0.095,-0.040
4.770,-0.025,-0.030
4.772,-0.070,-0.025
4.774,-0.145,-0.020
4.776,-0.200,-0.015
4.778,-0.200,-0.015
4.780,-0.160,-0.015
4.782,-0.085,-0.020
4.784,0.065,-0.025
4.786,0.150,-0.030
4.788,0.105,-0.035
4.790,0.000,-0.035
4.792,-0.085,-0.030
4.794,-0.180,-0.025
4.796,-0.205,-0.015
4.798,-0.210,-0.010
4.800,-0.090,-0.005
4.802,0.010,-0.005
4.804,0.115,-0.005
4.806,0.160,-0.010
4.808,0.105,-0.015
4.810,-0.025,-0.020
4.812,-0.130,-0.025
4.814,-0.215,-0.025
4.816,-0.155,-0.025
4.818,-0.145,-0.025
4.820,-0.100,-0.020
4.822,-0.055,-0.015
4.824,0.050,-0.015
4.826,0.100,-0.015
4.828,0.090,-0.020
4.830,-0.030,-0.025
4.832,-0.120,-0.035
4.834,-0.230,-0.045
4.836,-0.225,-0.050
4.838,-0.220,-0.060
4.840,-0.150,-0.060
4.842,-0.035,-0.060
4.844,0.100,-0.060
4.846,0.075,-0.050
4.848,-0.005,-0.040
4.850,-0.055,-0.030
4.852,-0.045,-0.015
4.854,-0.140,-0.005
4.856,-0.145,0.005
4.858,-0.135,0.010
4.860,-0.060,0.005
4.862,-0.020,0.000
4.864,0.110,-0.005
4.866,0.080,-0.015
4.868,0.055,-0.025
4.870,-0.035,-0.030
4.872,-0.085,-0.035
4.874,-0.205,-0.030
4.876,-0.205,-0.025
4.878,-0.185,-0.020
4.880,-0.045,-0.015
4.882,-0.020,-0.015
4.884,0.110,-0.015
4.886,0.135,-0.020
4.888,0.025,-0.030
4.890,-0.060,-0.040
4.892,-0.100,-0.050
4.894,-0.215,-0.055
4.896,-0.230,-0.060
4.898,-0.180,-0.055
4.900,-0.100,-0.050
4.902,-0.065,-0.045
4.904,0.070,-0.040
4.906,0.085,-0.035
4.908,0.010,-0.035
4.910,-0.065,-0.035
4.912,-0.085,-0.035
4.914,-0.225,-0.035
4.916,-0.200,-0.030
4.918,-0.160,-0.025
4.920,-0.025,-0.020
4.922,0.030,-0.015
4.924,0.125,-0.010
4.926,0.075,-0.015
4.928,0.010,-0.025
4.930,-0.080,-0.040
4.932,-0.180,-0.055
4.934,-0.285,-0.065
4.936,-0.240,-0.075
4.938,-0.160,-0.075
4.940,-0.050,-0.060
4.942,0.010,-0.040
4.944,0.130,-0.015
4.946,0.140,0.010
4.948,0.120,0.025
4.950,0.055,0.040
4.952,-0.060,0.040
4.954,-0.200,0.030
4.956,-0.180,0.010
4.958,-0.135,-0.005
4.960,-0.060,-0.025
4.962,-0.065,-0.035
4.964,0.085,-0.035
4.966,0.150,-0.030
4.968,0.095,-0.015
4.970,-0.005,-0.005
4.972,-0.025,0.005
4.974,-0.160,0.005
4.976,-0.255,0.000
4.978,-0.180,-0.010
4.980,-0.090,-0.030
4.982,-0.020,-0.050
4.984,0.060,-0.070
4.986,0.095,-0.080
4.988,0.010,-0.090
4.990,-0.060,-0.090
4.992,-0.200,-0.085
4.994,-0.280,-0.080
4.996,-0.220,-0.075
4.998,-0.245,-0.070
5.000,-0.125,-0.070
5.002,-0.010,-0.070
5.004,0.105,-0.075
5.006,0.130,-0.075
5.008,0.005,-0.075
5.010,-0.075,-0.075
5.012,-0.185,-0.070
5.014,-0.245,-0.060
5.016,-0.210,-0.045
5.018,-0.130,-0.035
5.020,-0.065,-0.020
5.022,0.045,-0.010
5.024,0.165,0.000
5.026,0.155,0.010
5.028,0.055,0.010
5.030,-0.015,0.015
5.032,-0.115,0.010
5.034,-0.220,0.005
5.036,-0.150,0.000
5.038,-0.060,-0.005
5.040,-0.065,-0.010
5.042,0.025,-0.015
5.044,0.115,-0.015
5.046,0.145,-0.010
5.048,0.045,-0.005
5.050,0.000,0.005
5.052,-0.105,0.020
5.054,-0.145,0.030
5.056,-0.130,0.040
5.058,-0.020,0.045
5.060,0.045,0.040
5.062,0.070,0.035
5.064,0.105,0.030
5.066,0.150,0.020
5.068,0.060,0.010
5.070,-0.020,0.010
5.072,-0.125,0.005
5.074,-0.140,0.010
5.076,-0.145,0.010
5.078,-0.070,0.015
5.080,-0.020,0.015
5.082,0.080,0.005
5.084,0.120,-0.005
5.086,0.105,-0.015
5.088,-0.025,-0.035
5.090,-0.095,-0.050
5.092,-0.225,-0.060
5.094,-0.225,-0.070
5.096,-0.190,-0.070
5.098,-0.110,-0.070
5.100,-0.065,-0.065
5.102,0.060,-0.055
5.104,0.075,-0.045
5.106,0.010,-0.040
5.108,-0.095,-0.030
5.110,-0.070,-0.030
5.112,-0.165,-0.025
5.114,-0.175,-0.020
5.116,-0.170,-0.020
5.118,-0.085,-0.020
5.120,-0.040,-0.020
5.122,0.130,-0.020
5.124,0.100,-0.020
5.126,0.050,-0.025
5.128,-0.015,-0.030
5.130,-0.060,-0.040
5.132,-0.205,-0.045
5.134,-0.190,-0.045
5.136,-0.225,-0.045
5.138,-0.150,-0.045
5.140,-0.065,-0.040
5.142,0.125,-0.035
5.144,0.125,-0.030
5.146,0.100,-0.025
5.148,0.005,-0.030
5.150,-0.080,-0.030
5.152,-0.240,-0.035
5.154,-0.235,-0.040
5.156,-0.160,-0.045
5.158,-0.075,-0.045
5.160,-0.040,-0.040
5.162,0.115,-0.030
5.164,0.120,-0.020
5.166,0.095,-0.005
5.168,-0.010,0.005
5.170,-0.075,0.015
5.172,-0.120,0.030
5.174,-0.140,0.040
5.176,-0.055,0.050
5.178,0.060,0.060
5.180,0.065,0.070
5.182,0.220,0.085
5.184,0.260,0.095
5.186,0.195,0.105
5.188,0.075,0.110
5.190,0.040,0.105
5.192,-0.095,0.095
5.194,-0.110,0.080
5.196,-0.045,0.055
5.198,-0.015,0.025
5.200,0.005,-0.010
5.202,0.055,-0.040
5.204,0.035,-0.070
5.206,-0.045,-0.095
5.208,-0.135,-0.115
5.210,-0.215,-0.125
5.212,-0.355,-0.125
5.214,-0.280,-0.125
5.216,-0.170,-0.110
5.218,-0.095,-0.095
5.220,-0.045,-0.075
5.222,0.060,-0.060
5.224,0.080,-0.045
5.226,0.060,-0.030
5.228,-0.040,-0.025
5.230,-0.125,-0.020
5.232,-0.215,-0.020
5.234,-0.205,-0.025
5.236,-0.160,-0.025
5.238,-0.050,-0.025
5.240,0.040,-0.025
5.242,0.145,-0.025
5.244,0.145,-0.020
5.246,0.055,-0.020
5.248,-0.060,-0.025
5.250,-0.180,-0.025
5.252,-0.285,-0.030
5.254,-0.235,-0.035
5.256,-0.095,-0.040
5.258,-0.020,-0.035
5.260,-0.010,-0.030
5.262,0.130,-0.020
5.264,0.175,-0.010
5.266,0.095,0.005
5.268,-0.030,0.010
5.270,-0.090,0.015
5.272,-0.215,0.015
5.274,-0.200,0.010
5.276,-0.110,0.000
5.278,-0.035,-0.005
5.280,0.040,-0.010
5.282,0.180,-0.010
5.284,0.155,-0.005
5.286,0.020,0.000
5.288,-0.060,0.005
5.290,-0.065,0.010
5.292,-0.165,0.015
5.294,-0.140,0.010
5.296,-0.090,0.000
5.298,-0.050,-0.005
5.300,0.045,-0.015
5.302,0.115,-0.020
5.304,0.120,-0.025
5.306,0.050,-0.020
5.308,0.010,-0.010
5.310,-0.085,-0.005
5.312,-0.170,0.005
5.314,-0.200,0.010
5.316,-0.150,0.015
5.318,-0.080,0.015
5.320,0.070,0.015
5.322,0.190,0.010
5.324,0.200,0.010
5.326,0.095,0.010
5.328,-0.030,0.015
5.330,-0.095,0.015
5.332,-0.185,0.015
5.334,-0.160,0.015
5.336,-0.070,0.010
5.338,-0.050,0.005
5.340,0.035,0.005
5.342,0.140,0.005
5.344,0.150,0.010
5.346,0.125,0.025
5.348,0.070,0.045
5.350,-0.055,0.065
5.352,-0.090,0.085
5.354,-0.060,0.100
5.356,-0.010,0.105
5.358,0.045,0.105
5.360,0.140,0.100
5.362,0.200,0.085
5.364,0.190,0.070
5.366,0.100,0.060
5.368,0.045,0.055
5.370,-0.095,0.060
5.372,-0.075,0.075
5.374,-0.025,0.090
5.376,0.055,0.105
5.378,0.100,0.115
5.380,0.210,0.120
5.382,0.235,0.120
5.384,0.200,0.120
5.386,0.130,0.115
5.388,0.055,0.110
5.390,-0.045,0.110
5.392,-0.035,0.120
5.394,-0.010,0.130
5.396,0.100,0.145
5.398,0.160,0.160
5.400,0.290,0.165
5.402,0.305,0.170
5.404,0.220,0.165
5.406,0.180,0.160
5.408,0.175,0.150
5.410,-0.035,0.150
5.412,-0.065,0.150
5.414,-0.020,0.160
5.416,0.160,0.175
5.418,0.225,0.190
5.420,0.375,0.200
5.422,0.335,0.205
5.424,0.250,0.200
5.426,0.150,0.190
5.428,0.120,0.170
5.430,-0.025,0.155
5.432,-0.020,0.145
5.434,0.045,0.140
5.436,0.130,0.145
5.438,0.190,0.160
5.440,0.315,0.180
5.442,0.335,0.200
5.444,0.365,0.215
5.446,0.200,0.215
5.448,0.165,0.205
5.450,-0.015,0.185
5.452,-0.065,0.155
5.454,-0.030,0.120
5.456,0.025,0.090
5.458,0.055,0.065
5.460,0.180,0.050
5.462,0.120,0.040
5.464,0.160,0.045
5.466,0.145,0.055
5.468,0.070,0.065
5.470,-0.100,0.075
5.472,-0.135,0.085
5.474,-0.085,0.085
5.476,0.050,0.085
5.478,0.100,0.080
5.480,0.195,0.070
5.482,0.170,0.055
5.484,0.130,0.035
5.486,0.040,0.020
5.488,-0.040,0.000
5.490,-0.215,-0.015
5.492,-0.220,-0.025
5.494,-0.135,-0.035
5.496,-0.075,-0.040
5.498,-0.065,-0.045
5.500,0.095,-0.045
5.502,0.055,-0.040
5.504,0.050,-0.035
5.506,0.020,-0.030
5.508,-0.040,-0.025
5.510,-0.195,-0.020
5.512,-0.200,-0.015
5.514,-0.105,-0.015
5.516,-0.060,-0.010
5.518,0.010,-0.005
5.520,0.155,-0.005
5.522,0.120,-0.005
5.524,0.020,-0.010
5.526,-0.065,-0.015
5.528,-0.070,-0.020
5.530,-0.185,-0.030
5.532,-0.245,-0.035
5.534,-0.150,-0.040
5.536,-0.055,-0.045
5.538,0.040,-0.045
5.540,0.135,-0.045
5.542,0.080,-0.045
5.544,0.030,-0.045
5.546,-0.065,-0.045
5.548,-0.150,-0.050
5.550,-0.270,-0.050
5.552,-0.280,-0.050
5.554,-0.165,-0.055
5.556,-0.055,-0.050
5.558,0.055,-0.050
5.560,0.165,-0.045
5.562,0.140,-0.040
5.564,0.015,-0.035
5.566,-0.100,-0.035
5.568,-0.155,-0.030
5.570,-0.245,-0.030
5.572,-0.230,-0.035
5.574,-0.115,-0.035
5.576,-0.040,-0.040
5.578,0.055,-0.040
5.580,0.130,-0.040
5.582,0.080,-0.045
5.584,-0.030,-0.045
5.586,-0.100,-0.045
5.588,-0.145,-0.050
5.590,-0.230,-0.050
5.592,-0.265,-0.055
5.594,-0.165,-0.055
5.596,-0.045,-0.060
5.598,0.055,-0.060
5.600,0.105,-0.055
5.602,0.090,-0.050
5.604,0.060,-0.040
5.606,-0.045,-0.035
5.608,-0.200,-0.030
5.610,-0.215,-0.025
5.612,-0.180,-0.020
5.614,-0.075,-0.020
5.616,-0.015,-0.025
5.618,0.035,-0.025
5.620,0.065,-0.030
5.622,0.070,-0.030
5.624,0.000,-0.030
5.626,-0.050,-0.025
5.628,-0.135,-0.020
5.630,-0.170,-0.015
5.632,-0.175,-0.010
5.634,-0.080,-0.005
5.636,-0.035,-0.005
5.638,0.095,-0.005
5.640,0.150,-0.010
5.642,0.095,-0.015
5.644,0.010,-0.025
5.646,-0.110,-0.030
5.648,-0.255,-0.035
5.650,-0.225,-0.035
5.652,-0.135,-0.035
5.654,-0.060,-0.030
5.656,-0.080,-0.025
5.658,0.060,-0.020
5.660,0.165,-0.015
5.662,0.100,-0.015
5.664,0.005,-0.010
5.666,-0.060,-0.015
5.668,-0.185,-0.020
5.670,-0.195,-0.025
5.672,-0.200,-0.035
5.674,-0.105,-0.040
5.676,-0.070,-0.050
5.678,0.050,-0.055
5.680,0.080,-0.060
5.682,0.040,-0.065
5.684,-0.040,-0.065
5.686,-0.065,-0.065
5.688,-0.230,-0.060
5.690,-0.255,-0.060
5.692,-0.210,-0.050
5.694,-0.095,-0.045
5.696,-0.010,-0.035
5.698,0.115,-0.025
5.700,0.105,-0.015
5.702,0.100,-0.010
5.704,-0.005,-0.005
5.706,-0.030,-0.005
5.708,-0.190,-0.005
5.710,-0.175,-0.010
5.712,-0.185,-0.015
5.714,-0.090,-0.020
5.716,-0.040,-0.025
5.718,0.135,-0.025
5.720,0.105,-0.025
5.722,0.110,-0.020
5.724,0.030,-0.015
5.726,-0.045,-0.010
5.728,-0.195,-0.010
5.730,-0.210,-0.005
5.732,-0.175,-0.005
5.734,-0.070,-0.010
5.736,-0.010,-0.010
5.738,0.155,-0.015
5.740,0.125,-0.020
5.742,0.065,-0.020
5.744,-0.095,-0.025
5.746,-0.115,-0.025
5.748,-0.190,-0.030
5.750,-0.200,-0.035
5.752,-0.120,-0.040
5.754,-0.085,-0.050
5.756,-0.075,-0.055
5.758,0.050,-0.060
5.760,0.075,-0.065
5.762,0.020,-0.065
5.764,-0.065,-0.065
5.766,-0.110,-0.060
5.768,-0.240,-0.055
5.770,-0.205,-0.045
5.772,-0.155,-0.040
5.774,-0.070,-0.035
5.776,0.005,-0.030
5.778,0.115,-0.030
5.780,0.130,-0.030
5.782,0.030,-0.030
5.784,-0.070,-0.035
5.786,-0.130,-0.035
5.788,-0.235,-0.035
5.790,-0.185,-0.030
5.792,-0.160,-0.025
5.794,-0.080,-0.020
5.796,-0.035,-0.015
5.798,0.145,-0.015
5.800,0.125,-0.015
5.802,0.055,-0.020
5.804,-0.055,-0.030
5.806,-0.130,-0.035
5.808,-0.260,-0.040
5.810,-0.235,-0.040
5.812,-0.140,-0.035
5.814,-0.010,-0.030
5.816,0.065,-0.020
5.818,0.145,-0.015
5.820,0.120,-0.005
5.822,0.010,-0.005
5.824,-0.070,-0.005
5.826,-0.100,-0.010
5.828,-0.195,-0.015
5.830,-0.200,-0.020
5.832,-0.170,-0.030
5.834,-0.095,-0.035
5.836,0.005,-0.040
5.838,0.145,-0.045
5.840,0.135,-0.045
5.842,-0.030,-0.050
5.844,-0.105,-0.050
5.846,-0.180,-0.055
5.848,-0.235,-0.055
5.850,-0.190,-0.050
5.852,-0.165,-0.045
5.854,-0.055,-0.035
5.856,0.025,-0.025
5.858,0.120,-0.015
5.860,0.105,-0.010
5.862,0.025,-0.010
5.864,-0.070,-0.010
5.866,-0.125,-0.025
5.868,-0.185,-0.035
5.870,-0.255,-0.050
5.872,-0.215,-0.065
5.874,-0.115,-0.075
5.876,-0.035,-0.075
5.878,0.100,-0.070
5.880,0.075,-0.060
5.882,-0.010,-0.045
5.884,-0.055,-0.030
5.886,-0.145,-0.015
5.888,-0.230,-0.005
5.890,-0.190,0.000
5.892,-0.070,0.005
5.894,0.000,0.000
5.896,0.090,0.000
5.898,0.170,-0.005
5.900,0.060,-0.005
5.902,-0.030,-0.010
5.904,-0.025,-0.015
5.906,-0.150,-0.020
5.908,-0.215,-0.025
5.910,-0.240,-0.025
5.912,-0.150,-0.030
5.914,-0.055,-0.035
5.916,0.085,-0.035
5.918,0.115,-0.030
5.920,0.110,-0.025
5.922,0.010,-0.015
5.924,-0.020,-0.010
5.926,-0.175,0.000
5.928,-0.185,0.000
5.930,-0.160,0.000
5.932,-0.085,0.000
5.934,-0.035,-0.005
5.936,0.070,-0.010
5.938,0.100,-0.010
5.940,0.115,-0.010
5.942,0.065,-0.005
5.944,0.035,0.000
5.946,-0.140,0.010
5.948,-0.175,0.015
5.950,-0.170,0.020
5.952,-0.110,0.020
5.954,-0.030,0.020
5.956,0.125,0.015
5.958,0.190,0.005
5.960,0.160,0.000
5.962,0.005,-0.010
5.964,-0.070,-0.015
5.966,-0.220,-0.020
5.968,-0.195,-0.020
5.970,-0.190,-0.015
5.972,-0.100,-0.015
5.974,-0.020,-0.015
5.976,0.095,-0.015
5.978,0.100,-0.015
5.980,0.060,-0.020
5.982,0.030,-0.020
5.984,-0.020,-0.025
5.986,-0.185,-0.030
5.988,-0.200,-0.035
5.990,-0.240,-0.035
5.992,-0.175,-0.040
5.994,-0.040,-0.040
5.996,0.150,-0.040
5.998,0.130,-0.040
6.000,0.050,-0.040
6.002,-0.075,-0.040
6.004,-0.130,-0.040
6.006,-0.240,-0.040
6.008,-0.200,-0.040
6.010,-0.185,-0.040
6.012,-0.095,-0.035
6.014,-0.045,-0.035
6.016,0.095,-0.035
6.018,0.100,-0.030
6.020,0.060,-0.030
6.022,-0.025,-0.025
6.024,-0.050,-0.025
6.026,-0.235,-0.025
6.028,-0.220,-0.030
6.030,-0.150,-0.035
6.032,-0.070,-0.045
6.034,-0.100,-0.060
6.036,0.045,-0.070
6.038,0.035,-0.080
6.040,-0.030,-0.085
6.042,-0.090,-0.080
6.044,-0.120,-0.065
6.046,-0.245,-0.045
6.048,-0.180,-0.020
6.050,-0.080,0.015
6.052,0.015,0.040
6.054,0.095,0.065
6.056,0.205,0.080
6.058,0.230,0.085
6.060,0.150,0.080
6.062,0.045,0.065
6.064,-0.030,0.045
6.066,-0.195,0.030
6.068,-0.215,0.020
6.070,-0.130,0.015
6.072,0.000,0.020
6.074,0.060,0.035
6.076,0.235,0.050
6.078,0.260,0.065
6.080,0.155,0.075
6.082,0.030,0.070
6.084,-0.075,0.055
6.086,-0.220,0.030
6.088,-0.195,-0.010
6.090,-0.145,-0.050
6.092,-0.095,-0.095
6.094,-0.115,-0.130
6.096,-0.045,-0.160
6.098,-0.070,-0.170
6.100,-0.180,-0.170
6.102,-0.240,-0.160
6.104,-0.180,-0.140
6.106,-0.220,-0.115
6.108,-0.245,-0.090
6.110,-0.190,-0.065
6.112,-0.110,-0.045
6.114,-0.010,-0.030
6.116,0.115,-0.015
6.118,0.120,-0.005
6.120,0.085,0.000
6.122,-0.010,0.005
6.124,-0.075,0.010
6.126,-0.190,0.010
6.128,-0.225,0.010
6.130,-0.105,0.005
6.132,-0.020,0.000
6.134,0.025,-0.005
6.136,0.090,-0.015
6.138,0.085,-0.025
6.140,0.020,-0.035
6.142,-0.080,-0.040
6.144,-0.160,-0.045
6.146,-0.245,-0.040
6.148,-0.230,-0.035
6.150,-0.110,-0.030
6.152,-0.010,-0.020
6.154,0.040,-0.015
6.156,0.140,-0.005
6.158,0.145,0.000
6.160,0.060,0.010
6.162,-0.045,0.015
6.164,-0.090,0.020
6.166,-0.135,0.020
6.168,-0.160,0.025
6.170,-0.090,0.020
6.172,-0.015,0.015
6.174,0.095,0.010
6.176,0.145,-0.005
6.178,0.110,-0.015
6.180,-0.005,-0.025
6.182,-0.080,-0.035
6.184,-0.195,-0.040
6.186,-0.260,-0.045
6.188,-0.250,-0.040
6.190,-0.145,-0.030
6.192,-0.050,-0.020
6.194,0.125,-0.010
6.196,0.210,0.000
6.198,0.160,0.010
6.200,0.030,0.015
6.202,-0.055,0.015
6.204,-0.225,0.015
6.206,-0.220,0.010
6.208,-0.145,0.005
6.210,-0.055,0.000
6.212,0.005,0.000
6.214,0.085,0.000
6.216,0.145,0.005
6.218,0.110,0.015
6.220,-0.005,0.025
6.222,-0.030,0.035
6.224,-0.115,0.050
6.226,-0.100,0.060
6.228,-0.105,0.070
6.230,-0.035,0.075
6.232,0.085,0.075
6.234,0.215,0.075
6.236,0.195,0.070
6.238,0.200,0.060
6.240,0.065,0.055
6.242,-0.040,0.045
6.244,-0.130,0.040
6.246,-0.150,0.040
6.248,-0.145,0.035
6.250,-0.060,0.035
6.252,0.030,0.040
6.254,0.175,0.045
6.256,0.190,0.050
6.258,0.140,0.055
6.260,0.055,0.060
6.262,0.035,0.070
6.264,-0.100,0.080
6.266,-0.075,0.090
6.268,-0.085,0.100
6.270,0.045,0.110
6.272,0.095,0.120
6.274,0.250,0.130
6.276,0.265,0.135
6.278,0.230,0.140
6.280,0.125,0.135
6.282,0.025,0.135
6.284,-0.095,0.130
6.286,-0.065,0.125
6.288,0.010,0.125
6.290,0.075,0.125
6.292,0.105,0.130
6.294,0.260,0.145
6.296,0.325,0.155
6.298,0.290,0.170
6.300,0.180,0.185
6.302,0.145,0.195
6.304,0.000,0.200
6.306,-0.010,0.200
6.308,0.025,0.200
6.310,0.115,0.195
6.312,0.160,0.190
6.314,0.315,0.180
6.316,0.305,0.175
6.318,0.255,0.170
6.320,0.120,0.165
6.322,0.120,0.160
6.324,-0.025,0.160
6.326,-0.055,0.155
6.328,-0.035,0.150
6.330,0.050,0.145
6.332,0.125,0.140
6.334,0.275,0.130
6.336,0.270,0.125
6.338,0.220,0.115
6.340,0.100,0.110
6.342,0.010,0.100
6.344,-0.120,0.095
6.346,-0.105,0.085
6.348,-0.075,0.075
6.350,-0.045,0.065
6.352,0.025,0.050
6.354,0.170,0.040
6.356,0.190,0.035
6.358,0.115,0.025
6.360,0.005,0.025
6.362,-0.050,0.025
6.364,-0.210,0.025
6.366,-0.195,0.030
6.368,-0.080,0.035
6.370,0.010,0.035
6.372,0.070,0.035
6.374,0.165,0.035
6.376,0.135,0.030
6.378,0.070,0.020
6.380,-0.010,0.015
6.382,-0.080,0.010
6.384,-0.185,0.005
6.386,-0.160,0.000
6.388,-0.105,-0.005
6.390,-0.040,-0.010
6.392,-0.010,-0.015
6.394,0.080,-0.020
6.396,0.115,-0.030
6.398,0.010,-0.035
6.400,-0.075,-0.035
6.402,-0.150,-0.035
6.404,-0.230,-0.030
6.406,-0.210,-0.020
6.408,-0.095,-0.010
6.410,0.015,0.005
6.412,0.080,0.010
6.414,0.155,0.015
6.416,0.120,0.010
6.418,0.010,-0.005
6.420,-0.085,-0.020
6.422,-0.155,-0.040
6.424,-0.265,-0.060
6.426,-0.230,-0.075
6.428,-0.155,-0.080
6.430,-0.100,-0.080
6.432,-0.025,-0.075
6.434,0.085,-0.060
6.436,0.090,-0.045
6.438,0.035,-0.025
6.440,-0.045,-0.010
6.442,-0.120,0.000
6.444,-0.170,0.000
6.446,-0.190,0.000
6.448,-0.145,-0.005
6.450,-0.080,-0.015
6.452,0.015,-0.020
6.454,0.080,-0.030
6.456,0.060,-0.035
6.458,0.000,-0.040
6.460,-0.090,-0.040
6.462,-0.190,-0.040
6.464,-0.195,-0.035
6.466,-0.205,-0.030
6.468,-0.145,-0.025
6.470,-0.095,-0.020
6.472,0.050,-0.015
6.474,0.180,-0.010
6.476,0.155,0.000
6.478,0.025,0.005
6.480,-0.080,0.010
6.482,-0.160,0.015
6.484,-0.160,0.010
6.486,-0.180,0.000
6.488,-0.130,-0.010
6.490,-0.065,-0.025
6.492,0.055,-0.040
6.494,0.150,-0.050
6.496,0.045,-0.055
6.498,-0.075,-0.055
6.500,-0.115,-0.050
6.502,-0.225,-0.040
6.504,-0.210,-0.030
6.506,-0.205,-0.020
6.508,-0.085,-0.015
6.510,-0.025,-0.015
6.512,0.095,-0.020
6.514,0.110,-0.030
6.516,0.025,-0.040
6.518,-0.040,-0.050
6.520,-0.105,-0.050
6.522,-0.200,-0.050
6.524,-0.225,-0.040
6.526,-0.205,-0.025
6.528,-0.045,-0.010
6.530,0.030,0.005
6.532,0.115,0.020
6.534,0.150,0.025
6.536,0.125,0.025
6.538,0.025,0.025
6.540,-0.055,0.020
6.542,-0.190,0.015
6.544,-0.165,0.010
6.546,-0.150,0.005
6.548,-0.085,0.000
6.550,-0.055,0.000
6.552,0.120,-0.005
6.554,0.100,-0.010
6.556,0.050,-0.015
6.558,-0.025,-0.020
6.560,-0.070,-0.025
6.562,-0.200,-0.025
6.564,-0.195,-0.025
6.566,-0.185,-0.020
6.568,-0.130,-0.015
6.570,-0.075,-0.010
6.572,0.140,0.000
6.574,0.120,0.005
6.576,0.120,0.010
6.578,0.010,0.005
6.580,-0.025,0.000
6.582,-0.200,-0.005
6.584,-0.195,-0.015
6.586,-0.145,-0.025
6.588,-0.070,-0.035
6.590,-0.085,-0.040
6.592,0.050,-0.040
6.594,0.095,-0.040
6.596,0.045,-0.035
6.598,-0.010,-0.030
6.600,-0.065,-0.025
6.602,-0.185,-0.015
6.604,-0.200,-0.010
6.606,-0.135,-0.005
6.608,-0.080,0.000
6.610,-0.045,0.000
6.612,0.105,0.000
6.614,0.125,-0.005
6.616,0.110,-0.010
6.618,-0.025,-0.015
6.620,-0.115,-0.020
6.622,-0.245,-0.020
6.624,-0.235,-0.020
6.626,-0.130,-0.015
6.628,-0.055,-0.015
6.630,0.010,-0.015
6.632,0.100,-0.015
6.634,0.125,-0.020
6.636,0.065,-0.030
6.638,-0.100,-0.035
6.640,-0.125,-0.045
6.642,-0.260,-0.055
6.644,-0.285,-0.060
6.646,-0.200,-0.060
6.648,-0.080,-0.060
6.650,-0.030,-0.055
6.652,0.090,-0.050
6.654,0.120,-0.045
6.656,0.030,-0.040
6.658,-0.100,-0.040
6.660,-0.155,-0.035
6.662,-0.225,-0.030
6.664,-0.155,-0.025
6.666,-0.080,-0.025
6.668,-0.100,-0.020
6.670,-0.030,-0.015
6.672,0.110,-0.010
6.674,0.095,-0.010
6.676,0.040,-0.010
6.678,-0.025,-0.010
6.680,-0.110,-0.010
6.682,-0.215,-0.010
6.684,-0.265,-0.010
6.686,-0.130,-0.010
6.688,0.010,-0.005
6.690,0.055,-0.005
6.692,0.155,-0.005
6.694,0.110,-0.005
6.696,0.000,-0.010
6.698,-0.065,-0.020
6.700,-0.135,-0.030
6.702,-0.230,-0.035
6.704,-0.215,-0.040
6.706,-0.145,-0.045
6.708,-0.035,-0.040
6.710,0.025,-0.035
6.712,0.120,-0.025
6.714,0.080,-0.015
6.716,0.020,-0.010
6.718,-0.035,-0.005
6.720,-0.055,-0.005
6.722,-0.230,-0.015
6.724,-0.240,-0.020
6.726,-0.145,-0.030
6.728,-0.050,-0.035
6.730,0.060,-0.035
6.732,0.135,-0.035
6.734,0.140,-0.035
6.736,0.020,-0.030
6.738,-0.105,-0.030
6.740,-0.225,-0.030
6.742,-0.270,-0.035
6.744,-0.255,-0.045
6.746,-0.195,-0.055
6.748,-0.070,-0.065
6.750,0.020,-0.070
6.752,0.080,-0.070
6.754,0.085,-0.065
6.756,-0.020,-0.055
6.758,-0.095,-0.040
6.760,-0.225,-0.025
6.762,-0.205,-0.015
6.764,-0.200,-0.015
6.766,-0.105,-0.015
6.768,-0.045,-0.025
6.770,0.065,-0.030
6.772,0.095,-0.040
6.774,0.060,-0.045
6.776,-0.010,-0.045
6.778,-0.075,-0.040
6.780,-0.165,-0.025
6.782,-0.185,-0.015
6.784,-0.200,-0.005
6.786,-0.085,0.005
6.788,-0.020,0.005
6.790,0.140,0.000
6.792,0.120,-0.010
6.794,0.045,-0.020
6.796,-0.060,-0.030
6.798,-0.125,-0.030
6.800,-0.210,-0.030
6.802,-0.175,-0.025
6.804,-0.115,-0.015
6.806,-0.045,-0.005
6.808,-0.020,0.000
6.810,0.035,0.005
6.812,0.045,0.005
6.814,0.085,-0.005
6.816,-0.005,-0.015
6.818,-0.035,-0.030
6.820,-0.190,-0.040
6.822,-0.245,-0.045
6.824,-0.210,-0.050
6.826,-0.105,-0.050
6.828,-0.075,-0.050
6.830,0.075,-0.045
6.832,0.100,-0.045
6.834,0.065,-0.045
6.836,-0.085,-0.045
6.838,-0.140,-0.045
6.840,-0.240,-0.040
6.842,-0.215,-0.035
6.844,-0.160,-0.025
6.846,0.015,-0.010
6.848,0.045,0.005
6.850,0.120,0.020
6.852,0.105,0.030
6.854,0.120,0.035
6.856,0.005,0.030
6.858,-0.035,0.025
6.860,-0.195,0.015
6.862,-0.200,0.000
6.864,-0.135,-0.005
6.866,-0.040,-0.010
6.868,0.025,-0.010
6.870,0.110,0.000
6.872,0.130,0.015
6.874,0.105,0.025
6.876,0.085,0.040
6.878,0.035,0.045
6.880,-0.125,0.050
6.882,-0.135,0.045
6.884,-0.135,0.035
6.886,-0.120,0.025
6.888,-0.055,0.010
6.890,0.135,-0.005
6.892,0.120,-0.015
6.894,0.090,-0.020
6.896,-0.060,-0.025
6.898,-0.105,-0.025
6.900,-0.200,-0.025
6.902,-0.220,-0.025
6.904,-0.140,-0.025
6.906,-0.090,-0.025
6.908,-0.040,-0.025
6.910,0.115,-0.025
6.912,0.080,-0.025
6.914,0.005,-0.025
6.916,-0.085,-0.020
6.918,-0.110,-0.020
6.920,-0.180,-0.015
6.922,-0.150,-0.015
6.924,-0.120,-0.010
6.926,-0.070,-0.010
6.928,-0.050,-0.015
6.930,0.100,-0.015
6.932,0.060,-0.020
6.934,0.000,-0.025
6.936,-0.080,-0.030
6.938,-0.110,-0.030
6.940,-0.130,-0.030
6.942,-0.185,-0.025
6.944,-0.175,-0.020
6.946,-0.045,-0.010
6.948,0.025,-0.005
6.950,0.130,-0.005
6.952,0.125,-0.005
6.954,0.025,-0.010
6.956,-0.095,-0.020
6.958,-0.145,-0.030
6.960,-0.225,-0.040
6.962,-0.210,-0.045
6.964,-0.160,-0.050
6.966,-0.095,-0.045
6.968,-0.020,-0.040
6.970,0.120,-0.030
6.972,0.110,-0.015
6.974,0.055,-0.005
6.976,-0.005,0.005
6.978,-0.070,0.010
6.980,-0.170,0.015
6.982,-0.160,0.015
6.984,-0.105,0.010
6.986,-0.010,0.010
6.988,0.095,0.015
6.990,0.185,0.020
6.992,0.150,0.030
6.994,0.090,0.040
6.996,-0.015,0.050
6.998,-0.090,0.060
7.000,-0.145,0.070
7.002,-0.090,0.075
7.004,0.000,0.070
7.006,0.065,0.060
7.008,0.130,0.040
7.010,0.170,0.015
7.012,0.090,-0.015
7.014,-0.065,-0.045
7.016,-0.195,-0.080
7.018,-0.290,-0.105
7.020,-0.320,-0.125
7.022,-0.305,-0.135
7.024,-0.210,-0.130
7.026,-0.120,-0.115
7.028,-0.015,-0.090
7.030,0.100,-0.060
7.032,0.130,-0.025
7.034,0.070,0.000
7.036,0.000,0.020
7.038,-0.130,0.025
7.040,-0.215,0.020
7.042,-0.210,0.005
7.044,-0.130,-0.020
7.046,-0.075,-0.040
7.048,0.000,-0.055
7.050,0.095,-0.065
7.052,0.070,-0.065
7.054,-0.050,-0.055
7.056,-0.090,-0.040
7.058,-0.170,-0.025
7.060,-0.165,-0.010
7.062,-0.155,-0.005
7.064,-0.075,-0.005
7.066,-0.045,-0.010
7.068,0.070,-0.020
7.070,0.070,-0.030
7.072,0.035,-0.035
7.074,-0.045,-0.035
7.076,-0.075,-0.025
7.078,-0.180,-0.010
7.080,-0.130,0.005
7.082,-0.105,0.025
7.084,-0.075,0.040
7.086,-0.020,0.045
7.088,0.130,0.045
7.090,0.170,0.035
7.092,0.095,0.025
7.094,0.040,0.010
7.096,-0.005,0.000
7.098,-0.160,-0.010
7.100,-0.185,-0.010
7.102,-0.150,-0.005
7.104,-0.050,0.005
7.106,-0.020,0.015
7.108,0.120,0.030
7.110,0.170,0.040
7.112,0.145,0.045
7.114,0.055,0.050
7.116,-0.010,0.045
7.118,-0.150,0.040
7.120,-0.120,0.030
7.122,-0.120,0.025
7.124,-0.050,0.020
7.126,-0.070,0.015
7.128,0.095,0.015
7.130,0.130,0.015
7.132,0.125,0.025
7.134,0.065,0.030
7.136,-0.025,0.040
7.138,-0.120,0.045
7.140,-0.140,0.050
7.142,-0.135,0.050
7.144,-0.055,0.045
7.146,0.040,0.040
7.148,0.200,0.030
7.150,0.145,0.025
7.152,0.085,0.025
7.154,0.030,0.025
7.156,-0.040,0.030
7.158,-0.115,0.040
7.160,-0.120,0.055
7.162,-0.090,0.070
7.164,0.065,0.080
7.166,0.105,0.090
7.168,0.225,0.095
7.170,0.220,0.090
7.172,0.120,0.080
7.174,0.050,0.070
7.176,-0.005,0.060
7.178,-0.115,0.050
7.180,-0.115,0.050
7.182,-0.085,0.055
7.184,-0.025,0.070
7.186,0.075,0.085
7.188,0.245,0.100
7.190,0.270,0.115
7.192,0.210,0.125
7.194,0.130,0.130
7.196,0.100,0.135
7.198,-0.070,0.130
7.200,-0.130,0.130
7.202,-0.045,0.125
7.204,0.080,0.125
7.206,0.165,0.130
7.208,0.320,0.135
7.210,0.320,0.140
7.212,0.165,0.150
7.214,0.115,0.160
7.216,0.105,0.175
7.218,0.010,0.185
7.220,-0.005,0.190
7.222,0.080,0.195
7.224,0.160,0.200
7.226,0.235,0.205
7.228,0.345,0.205
7.230,0.345,0.200
7.232,0.220,0.195
7.234,0.160,0.190
7.236,0.105,0.180
7.238,-0.030,0.175
7.240,0.010,0.165
7.242,0.075,0.155
7.244,0.120,0.150
7.246,0.210,0.150
7.248,0.295,0.150
7.250,0.305,0.155
7.252,0.200,0.165
7.254,0.070,0.175
7.256,0.070,0.180
7.258,0.020,0.185
7.260,0.020,0.190
7.262,0.050,0.185
7.264,0.110,0.170
7.266,0.195,0.155
7.268,0.240,0.135
7.270,0.180,0.110
7.272,0.150,0.090
7.274,0.065,0.070
7.276,-0.055,0.055
7.278,-0.105,0.045
7.280,-0.170,0.045
7.282,-0.080,0.045
7.284,0.030,0.045
7.286,0.150,0.045
7.288,0.215,0.045
7.290,0.170,0.040
7.292,0.070,0.030
7.294,-0.055,0.025
7.296,-0.160,0.015
7.298,-0.210,0.005
7.300,-0.175,0.000
7.302,-0.080,0.000
7.304,0.000,0.000
7.306,0.160,0.005
7.308,0.175,0.015
7.310,0.150,0.020
7.312,0.035,0.025
7.314,-0.055,0.030
7.316,-0.155,0.030
7.318,-0.160,0.025
7.320,-0.150,0.020
7.322,-0.065,0.010
7.324,-0.030,0.005
7.326,0.090,-0.005
7.328,0.140,-0.010
7.330,0.080,-0.015
7.332,0.005,-0.015
7.334,-0.045,-0.015
7.336,-0.140,-0.015
7.338,-0.185,-0.010
7.340,-0.190,0.000
7.342,-0.095,0.005
7.344,-0.015,0.010
7.346,0.140,0.015
7.348,0.165,0.020
7.350,0.110,0.020
7.352,0.030,0.020
7.354,-0.015,0.015
7.356,-0.180,0.005
7.358,-0.220,0.000
7.360,-0.150,-0.010
7.362,-0.055,-0.015
7.364,-0.045,-0.020
7.366,0.115,-0.020
7.368,0.150,-0.020
7.370,0.125,-0.020
7.372,0.015,-0.015
7.374,-0.045,-0.015
7.376,-0.230,-0.010
7.378,-0.220,-0.015
7.380,-0.200,-0.015
7.382,-0.120,-0.015
7.384,-0.035,-0.020
7.386,0.125,-0.020
7.388,0.140,-0.020
7.390,0.070,-0.015
7.392,-0.020,-0.010
7.394,-0.050,-0.005
7.396,-0.150,0.000
7.398,-0.175,0.005
7.400,-0.165,0.005
7.402,-0.090,0.005
7.404,-0.025,-0.005
7.406,0.100,-0.010
7.408,0.165,-0.015
7.410,0.110,-0.015
7.412,-0.015,-0.015
7.414,-0.065,-0.015
7.416,-0.195,-0.005
7.418,-0.170,0.000
7.420,-0.135,0.000
7.422,-0.065,0.000
7.424,-0.020,-0.005
7.426,0.140,-0.015
7.428,0.090,-0.025
7.430,0.040,-0.040
7.432,-0.090,-0.050
7.434,-0.105,-0.050
7.436,-0.220,-0.045
7.438,-0.195,-0.035
7.440,-0.140,-0.020
7.442,-0.015,0.000
7.444,0.030,0.015
7.446,0.165,0.025
7.448,0.165,0.030
7.450,0.115,0.025
7.452,0.010,0.015
7.454,-0.065,0.000
7.456,-0.205,-0.015
7.458,-0.210,-0.030
7.460,-0.155,-0.035
7.462,-0.080,-0.035
7.464,-0.010,-0.030
7.466,0.145,-0.020
7.468,0.110,-0.005
7.470,0.050,0.000
7.472,-0.050,0.005
7.474,-0.050,0.010
7.476,-0.195,0.005
7.478,-0.155,-0.005
7.480,-0.075,-0.010
7.482,-0.025,-0.015
7.484,0.015,-0.015
7.486,0.120,-0.015
7.488,0.110,-0.010
7.490,0.055,0.000
7.492,-0.020,0.005
7.494,0.025,0.010
7.496,-0.115,0.015
7.498,-0.165,0.015
7.500,-0.155,0.015
7.502,-0.060,0.010
7.504,0.015,0.000
7.506,0.115,-0.005
7.508,0.140,-0.010
7.510,0.075,-0.010
7.512,-0.045,-0.010
7.514,-0.090,-0.010
7.516,-0.175,-0.010
7.518,-0.150,-0.005
7.520,-0.095,-0.005
7.522,-0.055,-0.005
7.524,0.025,-0.010
7.526,0.090,-0.015
7.528,0.120,-0.025
7.530,0.065,-0.035
7.532,-0.065,-0.045
7.534,-0.155,-0.050
7.536,-0.205,-0.055
7.538,-0.225,-0.060
7.540,-0.165,-0.060
7.542,-0.070,-0.055
7.544,0.025,-0.050
7.546,0.155,-0.045
7.548,0.100,-0.040
7.550,-0.010,-0.040
7.552,-0.080,-0.040
7.554,-0.145,-0.040
7.556,-0.220,-0.040
7.558,-0.210,-0.040
7.560,-0.105,-0.040
7.562,0.025,-0.035
7.564,0.075,-0.025
7.566,0.120,-0.015
7.568,0.095,-0.005
7.570,0.020,0.005
7.572,0.015,0.010
7.574,-0.110,0.010
7.576,-0.190,0.010
7.578,-0.120,0.005
7.580,-0.065,-0.005
7.582,-0.070,-0.015
7.584,0.045,-0.025
7.586,0.085,-0.035
7.588,0.120,-0.035
7.590,0.020,-0.040
7.592,-0.050,-0.035
7.594,-0.155,-0.030
7.596,-0.220,-0.025
7.598,-0.195,-0.020
7.600,-0.090,-0.020
7.602,-0.015,-0.015
7.604,0.075,-0.020
7.606,0.125,-0.020
7.608,0.115,-0.025
7.610,-0.010,-0.030
7.612,-0.085,-0.035
7.614,-0.180,-0.040
7.616,-0.195,-0.040
7.618,-0.180,-0.045
7.620,-0.095,-0.040
7.622,-0.050,-0.035
7.624,0.070,-0.030
7.626,0.110,-0.025
7.628,0.080,-0.020
7.630,-0.010,-0.020
7.632,-0.035,-0.020
7.634,-0.170,-0.025
7.636,-0.230,-0.035
7.638,-0.180,-0.045
7.640,-0.100,-0.050
7.642,-0.055,-0.060
7.644,0.065,-0.060
7.646,0.050,-0.055
7.648,0.060,-0.050
7.650,-0.015,-0.035
7.652,-0.005,-0.020
7.654,-0.095,-0.010
7.656,-0.130,0.000
7.658,-0.135,0.005
7.660,-0.105,0.010
7.662,-0.055,0.005
7.664,0.090,-0.005
7.666,0.140,-0.010
7.668,0.085,-0.020
7.670,0.005,-0.030
7.672,-0.085,-0.035
7.674,-0.210,-0.040
7.676,-0.190,-0.045
7.678,-0.175,-0.045
7.680,-0.100,-0.045
7.682,0.000,-0.040
7.684,0.105,-0.040
7.686,0.115,-0.035
7.688,0.110,-0.030
7.690,-0.010,-0.025
7.692,-0.065,-0.020
7.694,-0.195,-0.020
7.696,-0.175,-0.020
7.698,-0.155,-0.025
7.700,-0.070,-0.035
7.702,-0.035,-0.040
7.704,0.115,-0.045
7.706,0.085,-0.050
7.708,0.025,-0.050
7.710,-0.035,-0.045
7.712,-0.040,-0.035
7.714,-0.180,-0.030
7.716,-0.150,-0.020
7.718,-0.160,-0.015
7.720,-0.050,-0.010
7.722,0.015,-0.010
7.724,0.125,-0.015
7.726,0.125,-0.025
7.728,0.065,-0.030
7.730,-0.045,-0.040
7.732,-0.105,-0.050
7.734,-0.220,-0.055
7.736,-0.215,-0.060
7.738,-0.165,-0.060
7.740,-0.080,-0.060
7.742,-0.020,-0.055
7.744,0.110,-0.050
7.746,0.095,-0.045
7.748,0.025,-0.040
7.750,-0.095,-0.030
7.752,-0.075,-0.025
7.754,-0.150,-0.020
7.756,-0.180,-0.015
7.758,-0.150,-0.010
7.760,-0.020,-0.010
7.762,0.025,-0.015
7.764,0.170,-0.015
7.766,0.125,-0.020
7.768,0.095,-0.020
7.770,-0.005,-0.020
7.772,-0.065,-0.020
7.774,-0.230,-0.020
7.776,-0.255,-0.015
7.778,-0.095,-0.015
7.780,-0.010,-0.015
7.782,0.000,-0.015
7.784,0.165,-0.010
7.786,0.150,-0.010
7.788,0.130,0.000
7.790,0.010,0.005
7.792,-0.040,0.020
7.794,-0.135,0.030
7.796,-0.170,0.045
7.798,-0.090,0.055
7.800,0.060,0.060
7.802,0.170,0.055
7.804,0.220,0.045
7.806,0.205,0.030
7.808,0.090,0.010
7.810,-0.070,-0.005
7.812,-0.160,-0.025
7.814,-0.200,-0.035
7.816,-0.145,-0.040
7.818,-0.075,-0.040
7.820,0.025,-0.030
7.822,0.105,-0.025
7.824,0.140,-0.015
7.826,0.110,-0.010
7.828,-0.005,-0.010
7.830,-0.060,-0.010
7.832,-0.105,-0.020
7.834,-0.180,-0.025
7.836,-0.150,-0.035
7.838,-0.105,-0.050
7.840,-0.080,-0.055
7.842,-0.025,-0.065
7.844,0.080,-0.075
7.846,0.075,-0.080
7.848,0.005,-0.085
7.850,-0.065,-0.085
7.852,-0.195,-0.085
7.854,-0.250,-0.080
7.856,-0.235,-0.075
7.858,-0.120,-0.065
7.860,-0.050,-0.055
7.862,0.045,-0.050
7.864,0.155,-0.040
7.866,0.115,-0.040
7.868,0.050,-0.040
7.870,-0.020,-0.040
7.872,-0.130,-0.050
7.874,-0.240,-0.060
7.876,-0.260,-0.065
7.878,-0.175,-0.070
7.880,-0.095,-0.075
7.882,0.040,-0.070
7.884,0.100,-0.060
7.886,0.105,-0.050
7.888,0.035,-0.035
7.890,0.010,-0.020
7.892,-0.105,-0.010
7.894,-0.175,0.005
7.896,-0.175,0.010
7.898,-0.075,0.015
7.900,0.070,0.020
7.902,0.205,0.025
7.904,0.265,0.035
7.906,0.220,0.040
7.908,0.135,0.045
7.910,0.050,0.055
7.912,-0.115,0.060
7.914,-0.095,0.065
7.916,-0.075,0.070
7.918,0.015,0.065
7.920,0.100,0.055
7.922,0.195,0.040
7.924,0.195,0.025
7.926,0.120,0.000
7.928,-0.005,-0.020
7.930,-0.070,-0.045
7.932,-0.230,-0.070
7.934,-0.230,-0.095
7.936,-0.235,-0.115
7.938,-0.165,-0.130
7.940,-0.145,-0.140
7.942,-0.025,-0.145
7.944,0.005,-0.145
7.946,0.025,-0.140
7.948,-0.075,-0.130
7.950,-0.125,-0.115
7.952,-0.255,-0.095
7.954,-0.210,-0.075
7.956,-0.150,-0.055
7.958,-0.040,-0.040
7.960,0.025,-0.025
7.962,0.130,-0.015
7.964,0.175,-0.010
7.966,0.140,-0.010
7.968,0.025,-0.020
7.970,-0.050,-0.030
7.972,-0.255,-0.045
7.974,-0.220,-0.060
7.976,-0.195,-0.070
7.978,-0.080,-0.080
7.980,-0.005,-0.075
7.982,0.115,-0.070
7.984,0.095,-0.060
7.986,0.035,-0.045
7.988,-0.020,-0.030
7.990,0.010,-0.015
7.992,-0.155,-0.005
7.994,-0.180,-0.005
7.996,-0.100,-0.005
7.998,0.005,-0.010
8.000,0.065,-0.020
8.002,0.155,-0.025
8.004,0.120,-0.030
8.006,0.040,-0.030
8.008,0.000,-0.030
8.010,-0.045,-0.025
8.012,-0.160,-0.020
8.014,-0.175,-0.020
8.016,-0.150,-0.020
8.018,-0.030,-0.020
8.020,0.065,-0.025
8.022,0.085,-0.025
8.024,0.085,-0.025
8.026,0.120,-0.025
8.028,0.060,-0.015
8.030,0.005,-0.005
8.032,-0.130,0.005
8.034,-0.095,0.015
8.036,-0.080,0.020
8.038,-0.020,0.020
8.040,0.010,0.015
8.042,0.145,0.005
8.044,0.165,-0.005
8.046,0.095,-0.015
8.048,-0.005,-0.020
8.050,-0.060,-0.020
8.052,-0.155,-0.010
8.054,-0.095,0.000
8.056,-0.020,0.015
8.058,0.025,0.030
8.060,0.090,0.035
8.062,0.165,0.035
8.064,0.180,0.030
8.066,0.080,0.015
8.068,0.000,0.005
8.070,-0.045,-0.010
8.072,-0.120,-0.020
8.074,-0.120,-0.020
8.076,-0.060,-0.020
8.078,0.015,-0.010
8.080,0.050,0.000
8.082,0.185,0.010
8.084,0.215,0.015
8.086,0.105,0.020
8.088,0.025,0.020
8.090,-0.020,0.015
8.092,-0.120,0.015
8.094,-0.100,0.015
8.096,-0.020,0.020
8.098,0.015,0.030
8.100,0.135,0.045
8.102,0.270,0.055
8.104,0.285,0.070
8.106,0.170,0.080
8.108,0.085,0.085
8.110,0.020,0.090
8.112,-0.040,0.085
8.114,-0.040,0.085
8.116,-0.005,0.080
8.118,0.085,0.080
8.120,0.175,0.085
8.122,0.285,0.090
8.124,0.290,0.095
8.126,0.210,0.105
8.128,0.090,0.110
8.130,0.040,0.115
8.132,-0.005,0.120
8.134,0.015,0.120
8.136,0.100,0.120
8.138,0.155,0.120
8.140,0.235,0.125
8.142,0.330,0.130
8.144,0.295,0.130
8.146,0.215,0.140
8.148,0.095,0.145
8.150,0.035,0.150
8.152,0.040,0.150
8.154,0.055,0.155
8.156,0.130,0.155
8.158,0.145,0.155
8.160,0.265,0.155
8.162,0.370,0.155
8.164,0.330,0.155
8.166,0.270,0.150
8.168,0.170,0.145
8.170,0.000,0.140
8.172,-0.035,0.135
8.174,-0.030,0.125
8.176,0.075,0.120
8.178,0.165,0.115
8.180,0.290,0.110
8.182,0.305,0.105
8.184,0.265,0.105
8.186,0.130,0.100
8.188,0.085,0.095
8.190,-0.025,0.090
8.192,-0.015,0.085
8.194,-0.070,0.075
8.196,-0.005,0.060
8.198,0.095,0.045
8.200,0.210,0.030
8.202,0.185,0.015
8.204,0.150,0.000
8.206,0.025,-0.015
8.208,-0.030,-0.025
8.210,-0.140,-0.030
8.212,-0.165,-0.035
8.214,-0.100,-0.035
8.216,-0.080,-0.030
8.218,-0.005,-0.025
8.220,0.165,-0.020
8.222,0.195,-0.020
8.224,0.155,-0.015
8.226,0.030,-0.015
8.228,-0.055,-0.015
8.230,-0.155,-0.020
8.232,-0.145,-0.020
8.234,-0.120,-0.025
8.236,-0.040,-0.030
8.238,0.010,-0.035
8.240,0.125,-0.035
8.242,0.125,-0.035
8.244,0.105,-0.040
8.246,0.035,-0.040
8.248,-0.060,-0.040
8.250,-0.160,-0.045
8.252,-0.160,-0.045
8.254,-0.180,-0.050
8.256,-0.105,-0.050
8.258,-0.045,-0.050
8.260,0.145,-0.050
8.262,0.170,-0.050
8.264,0.080,-0.050
8.266,0.000,-0.045
8.268,-0.050,-0.045
8.270,-0.175,-0.040
8.272,-0.165,-0.040
8.274,-0.115,-0.035
8.276,0.025,-0.040
8.278,0.040,-0.040
8.280,0.145,-0.050
8.282,0.115,-0.060
8.284,0.015,-0.070
8.286,-0.050,-0.085
8.288,-0.075,-0.100
8.290,-0.250,-0.110
8.292,-0.265,-0.120
8.294,-0.210,-0.125
8.296,-0.075,-0.125
8.298,-0.045,-0.120
8.300,0.070,-0.115
8.302,0.110,-0.105
8.304,0.045,-0.095
8.306,-0.035,-0.090
8.308,-0.095,-0.085
8.310,-0.230,-0.080
8.312,-0.195,-0.075
8.314,-0.135,-0.075
8.316,-0.030,-0.075
8.318,0.000,-0.075
8.320,0.150,-0.070
8.322,0.140,-0.070
8.324,0.045,-0.065
8.326,-0.075,-0.060
8.328,-0.140,-0.055
8.330,-0.240,-0.050
8.332,-0.145,-0.045
8.334,-0.065,-0.040
8.336,0.010,-0.035
8.338,0.070,-0.035
8.340,0.155,-0.035
8.342,0.140,-0.035
8.344,0.045,-0.035
8.346,-0.060,-0.040
8.348,-0.095,-0.040
8.350,-0.155,-0.045
8.352,-0.170,-0.045
8.354,-0.090,-0.045
8.356,-0.020,-0.045
8.358,0.045,-0.045
8.360,0.165,-0.050
8.362,0.160,-0.050
8.364,0.060,-0.055
8.366,-0.025,-0.065
8.368,-0.085,-0.075
8.370,-0.245,-0.080
8.372,-0.225,-0.085
8.374,-0.125,-0.090
8.376,-0.040,-0.090
8.378,-0.005,-0.085
8.380,0.115,-0.080
8.382,0.150,-0.070
8.384,0.055,-0.060
8.386,-0.040,-0.055
8.388,-0.110,-0.050
8.390,-0.200,-0.050
8.392,-0.195,-0.050
8.394,-0.120,-0.060
8.396,0.005,-0.065
8.398,0.095,-0.070
8.400,0.175,-0.070
8.402,0.125,-0.070
8.404,-0.015,-0.065
8.406,-0.105,-0.060
8.408,-0.110,-0.055
8.410,-0.150,-0.050
8.412,-0.160,-0.050
8.414,-0.100,-0.050
8.416,-0.040,-0.055
8.418,0.045,-0.060
8.420,0.105,-0.065
8.422,0.110,-0.070
8.424,0.035,-0.070
8.426,-0.040,-0.070
8.428,-0.095,-0.065
8.430,-0.170,-0.060
8.432,-0.145,-0.050
8.434,-0.050,-0.050
8.436,-0.005,-0.045
8.438,0.060,-0.050
8.440,0.100,-0.050
8.442,0.090,-0.060
8.444,0.010,-0.065
8.446,-0.040,-0.070
8.448,-0.120,-0.070
8.450,-0.190,-0.065
8.452,-0.150,-0.065
8.454,-0.065,-0.055
8.456,-0.025,-0.050
8.458,0.115,-0.050
8.460,0.170,-0.050
8.462,0.125,-0.055
8.464,0.000,-0.060
8.466,-0.060,-0.070
8.468,-0.190,-0.075
8.470,-0.230,-0.075
8.472,-0.210,-0.075
8.474,-0.070,-0.070
8.476,0.040,-0.065
8.478,0.105,-0.060
8.480,0.120,-0.055
8.482,0.105,-0.060
8.484,0.015,-0.065
8.486,-0.015,-0.070
8.488,-0.210,-0.085
8.490,-0.225,-0.095
8.492,-0.190,-0.105
8.494,-0.105,-0.110
8.496,0.000,-0.110
8.498,0.100,-0.100
8.500,0.105,-0.095
8.502,0.095,-0.085
8.504,-0.025,-0.075
8.506,-0.075,-0.070
8.508,-0.210,-0.070
8.510,-0.210,-0.070
8.512,-0.180,-0.075
8.514,-0.050,-0.080
8.516,0.015,-0.080
8.518,0.100,-0.075
8.520,0.150,-0.070
8.522,0.160,-0.065
8.524,0.000,-0.060
8.526,-0.055,-0.055
8.528,-0.210,-0.060
8.530,-0.195,-0.070
8.532,-0.180,-0.080
8.534,-0.100,-0.095
8.536,-0.085,-0.105
8.538,0.040,-0.115
8.540,0.110,-0.115
8.542,0.100,-0.110
8.544,0.005,-0.100
8.546,-0.035,-0.085
8.548,-0.175,-0.065
8.550,-0.225,-0.050
8.552,-0.145,-0.035
8.554,-0.030,-0.030
8.556,0.040,-0.025
8.558,0.185,-0.025
8.560,0.205,-0.030
8.562,0.120,-0.035
8.564,-0.010,-0.045
8.566,-0.060,-0.050
8.568,-0.195,-0.055
8.570,-0.200,-0.060
8.572,-0.140,-0.060
8.574,0.000,-0.060
8.576,0.015,-0.060
8.578,0.170,-0.055
8.580,0.160,-0.045
8.582,0.080,-0.040
8.584,-0.005,-0.030
8.586,-0.020,-0.025
8.588,-0.185,-0.025
8.590,-0.115,-0.025
8.592,-0.040,-0.030
8.594,-0.015,-0.030
8.596,0.005,-0.035
8.598,0.135,-0.040
8.600,0.185,-0.040
8.602,0.145,-0.040
8.604,0.025,-0.040
8.606,-0.035,-0.040
8.608,-0.180,-0.040
8.610,-0.195,-0.045
8.612,-0.145,-0.055
8.614,-0.090,-0.060
8.616,0.000,-0.070
8.618,0.115,-0.080
8.620,0.115,-0.080
8.622,0.080,-0.080
8.624,0.015,-0.075
8.626,-0.010,-0.060
8.628,-0.155,-0.050
8.630,-0.180,-0.040
8.632,-0.120,-0.035
8.634,-0.045,-0.030
8.636,0.035,-0.040
8.638,0.145,-0.045
8.640,0.115,-0.060
8.642,0.065,-0.070
8.644,-0.025,-0.075
8.646,-0.090,-0.080
8.648,-0.190,-0.080
8.650,-0.265,-0.070
8.652,-0.135,-0.065
8.654,-0.025,-0.055
8.656,0.075,-0.055
8.658,0.200,-0.055
8.660,0.145,-0.060
8.662,0.020,-0.065
8.664,-0.070,-0.075
8.666,-0.110,-0.085
8.668,-0.210,-0.090
8.670,-0.200,-0.090
8.672,-0.130,-0.085
8.674,-0.020,-0.080
8.676,0.100,-0.075
8.678,0.110,-0.075
8.680,0.095,-0.075
8.682,0.045,-0.075
8.684,-0.070,-0.085
8.686,-0.200,-0.090
8.688,-0.260,-0.100
8.690,-0.260,-0.105
8.692,-0.190,-0.110
8.694,-0.100,-0.110
8.696,0.040,-0.105
8.698,0.145,-0.095
8.700,0.140,-0.085
8.702,0.080,-0.070
8.704,-0.005,-0.050
8.706,-0.100,-0.030
8.708,-0.105,-0.010
8.710,-0.115,0.005
8.712,-0.020,0.025
8.714,0.105,0.035
8.716,0.205,0.050
8.718,0.260,0.060
8.720,0.255,0.065
8.722,0.180,0.070
8.724,0.115,0.075
8.726,0.020,0.075
8.728,-0.055,0.070
8.730,-0.050,0.065
8.732,0.005,0.055
8.734,0.025,0.040
8.736,0.170,0.015
8.738,0.215,-0.010
8.740,0.155,-0.040
8.742,-0.010,-0.075
8.744,-0.080,-0.105
8.746,-0.260,-0.135
8.748,-0.295,-0.160
8.750,-0.280,-0.175
8.752,-0.215,-0.185
8.754,-0.105,-0.180
8.756,0.010,-0.165
8.758,0.065,-0.140
8.760,0.105,-0.115
8.762,0.000,-0.085
8.764,-0.035,-0.060
8.766,-0.185,-0.035
8.768,-0.165,-0.020
8.770,-0.065,-0.010
8.772,0.020,-0.010
8.774,0.015,-0.015
8.776,0.160,-0.020
8.778,0.165,-0.025
8.780,0.155,-0.025
8.782,0.060,-0.025
8.784,-0.025,-0.020
8.786,-0.150,-0.005
8.788,-0.120,0.010
8.790,-0.065,0.025
8.792,0.050,0.040
8.794,0.130,0.055
8.796,0.270,0.065
8.798,0.255,0.070
8.800,0.235,0.070
8.802,0.130,0.070
8.804,0.080,0.065
8.806,-0.085,0.060
8.808,-0.085,0.050
8.810,-0.070,0.045
8.812,0.025,0.045
8.814,0.110,0.045
8.816,0.240,0.045
8.818,0.280,0.050
8.820,0.270,0.055
8.822,0.125,0.060
8.824,0.075,0.065
8.826,-0.105,0.065
8.828,-0.085,0.070
8.830,-0.055,0.070
8.832,0.060,0.075
8.834,0.125,0.075
8.836,0.285,0.075
8.838,0.305,0.080
8.840,0.250,0.085
8.842,0.160,0.090
8.844,0.085,0.095
8.846,-0.060,0.100
8.848,-0.020,0.100
8.850,0.050,0.105
8.852,0.100,0.100
8.854,0.100,0.100
8.856,0.280,0.100
8.858,0.285,0.095
8.860,0.245,0.095
8.862,0.140,0.100
8.864,0.110,0.100
8.866,-0.055,0.105
8.868,-0.055,0.110
8.870,0.065,0.115
8.872,0.120,0.115
8.874,0.190,0.115
8.876,0.330,0.115
8.878,0.315,0.115
8.880,0.200,0.115
8.882,0.090,0.115
8.884,0.075,0.120
8.886,-0.005,0.125
8.888,0.025,0.130
8.890,0.040,0.135
8.892,0.185,0.140
8.894,0.250,0.140
8.896,0.380,0.135
8.898,0.275,0.130
8.900,0.200,0.120
8.902,0.120,0.110
8.904,0.060,0.100
8.906,-0.060,0.095
8.908,-0.005,0.095
8.910,0.035,0.105
8.912,0.115,0.115
8.914,0.190,0.135
8.916,0.345,0.150
8.918,0.370,0.165
8.920,0.295,0.175
8.922,0.190,0.180
8.924,0.090,0.185
8.926,0.050,0.185
8.928,0.045,0.180
8.930,0.125,0.180
8.932,0.225,0.185
8.934,0.325,0.195
8.936,0.425,0.210
8.938,0.460,0.230
8.940,0.355,0.250
8.942,0.290,0.270
8.944,0.210,0.285
8.946,0.125,0.300
8.948,0.160,0.305
8.950,0.275,0.300
8.952,0.315,0.295
8.954,0.405,0.285
8.956,0.485,0.275
8.958,0.410,0.265
8.960,0.330,0.260
8.962,0.270,0.255
8.964,0.185,0.260
8.966,0.120,0.265
8.968,0.125,0.275
8.970,0.225,0.280
8.972,0.320,0.285
8.974,0.385,0.285
8.976,0.425,0.280
8.978,0.410,0.275
8.980,0.335,0.265
8.982,0.280,0.250
8.984,0.160,0.235
8.986,0.040,0.220
8.988,0.105,0.210
8.990,0.140,0.195
8.992,0.195,0.185
8.994,0.310,0.180
8.996,0.365,0.175
8.998,0.360,0.170
9.000,0.235,0.165
9.002,0.175,0.170
9.004,0.080,0.170
9.006,-0.005,0.175
9.008,0.055,0.180
9.010,0.160,0.190
9.012,0.195,0.195
9.014,0.355,0.200
9.016,0.390,0.200
9.018,0.340,0.195
9.020,0.235,0.180
9.022,0.145,0.165
9.024,0.035,0.140
9.026,-0.010,0.120
9.028,-0.035,0.100
9.030,0.045,0.085
9.032,0.090,0.080
9.034,0.210,0.080
9.036,0.290,0.090
9.038,0.285,0.105
9.040,0.185,0.120
9.042,0.125,0.135
9.044,0.010,0.145
9.046,0.020,0.145
9.048,0.040,0.140
9.050,0.130,0.135
9.052,0.140,0.125
9.054,0.245,0.120
9.056,0.295,0.115
9.058,0.255,0.120
9.060,0.200,0.125
9.062,0.165,0.130
9.064,0.020,0.140
9.066,0.000,0.140
9.068,-0.030,0.135
9.070,0.080,0.130
9.072,0.125,0.115
9.074,0.260,0.105
9.076,0.265,0.095
9.078,0.250,0.090
9.080,0.200,0.095
9.082,0.100,0.105
9.084,-0.030,0.120
9.086,-0.005,0.130
9.088,0.035,0.140
9.090,0.105,0.140
9.092,0.125,0.130
9.094,0.260,0.115
9.096,0.215,0.100
9.098,0.195,0.085
9.100,0.100,0.075
9.102,0.065,0.075
9.104,-0.025,0.085
9.106,-0.035,0.105
9.108,0.010,0.125
9.110,0.150,0.150
9.112,0.165,0.170
9.114,0.350,0.180
9.116,0.345,0.180
9.118,0.270,0.170
9.120,0.195,0.150
9.122,0.100,0.135
9.124,-0.070,0.115
9.126,-0.065,0.105
9.128,0.015,0.105
9.130,0.065,0.110
9.132,0.170,0.120
9.134,0.355,0.135
9.136,0.310,0.145
9.138,0.220,0.155
9.140,0.150,0.155
9.142,0.155,0.150
9.144,-0.025,0.140
9.146,0.000,0.125
9.148,-0.005,0.110
9.150,0.000,0.095
9.152,0.085,0.080
9.154,0.210,0.075
9.156,0.215,0.065
9.158,0.220,0.065
9.160,0.120,0.060
9.162,0.040,0.055
9.164,-0.165,0.050
9.166,-0.160,0.045
9.168,-0.040,0.045
9.170,0.060,0.040
9.172,0.075,0.040
9.174,0.200,0.040
9.176,0.225,0.040
9.178,0.135,0.040
9.180,0.035,0.045
9.182,-0.030,0.050
9.184,-0.130,0.055
9.186,-0.160,0.055
9.188,-0.070,0.055
9.190,0.045,0.055
9.192,0.150,0.045
9.194,0.265,0.040
9.196,0.195,0.025
9.198,0.070,0.010
9.200,-0.040,-0.005
9.202,-0.115,-0.020
9.204,-0.230,-0.030
9.206,-0.225,-0.040
9.208,-0.150,-0.040
9.210,0.025,-0.035
9.212,0.075,-0.020
9.214,0.165,-0.005
9.216,0.155,0.015
9.218,0.140,0.030
9.220,0.060,0.045
9.222,-0.050,0.050
9.224,-0.185,0.050
9.226,-0.165,0.045
9.228,-0.045,0.030
9.230,0.045,0.015
9.232,0.070,0.000
9.234,0.130,-0.010
9.236,0.065,-0.020
9.238,-0.010,-0.025
9.240,-0.055,-0.030
9.242,-0.145,-0.025
9.244,-0.230,-0.025
9.246,-0.190,-0.025
9.248,-0.075,-0.025
9.250,0.020,-0.030
9.252,0.035,-0.030
9.254,0.075,-0.030
9.256,0.085,-0.030
9.258,0.000,-0.025
9.260,-0.045,-0.020
9.262,-0.070,-0.010
9.264,-0.170,0.000
9.266,-0.190,0.005
9.268,-0.095,0.010
9.270,0.000,0.010
9.272,0.050,0.000
9.274,0.085,-0.010
9.276,0.070,-0.025
9.278,-0.015,-0.040
9.280,-0.085,-0.050
9.282,-0.190,-0.055
9.284,-0.230,-0.055
9.286,-0.215,-0.050
9.288,-0.115,-0.045
9.290,-0.055,-0.030
9.292,0.070,-0.020
9.294,0.155,-0.015
9.296,0.110,-0.015
9.298,-0.025,-0.015
9.300,-0.065,-0.025
9.302,-0.190,-0.030
9.304,-0.220,-0.040
9.306,-0.245,-0.050
9.308,-0.170,-0.050
9.310,-0.075,-0.050
9.312,0.105,-0.045
9.314,0.135,-0.040
9.316,0.085,-0.030
9.318,-0.070,-0.030
9.320,-0.125,-0.030
9.322,-0.220,-0.035
9.324,-0.235,-0.045
9.326,-0.200,-0.055
9.328,-0.110,-0.065
9.330,-0.075,-0.070
9.332,0.030,-0.075
9.334,0.040,-0.075
9.336,0.015,-0.070
9.338,-0.085,-0.065
9.340,-0.130,-0.060
9.342,-0.205,-0.055
9.344,-0.225,-0.055
9.346,-0.240,-0.060
9.348,-0.150,-0.065
9.350,-0.090,-0.080
9.352,0.030,-0.090
9.354,-0.020,-0.100
9.356,-0.065,-0.105
9.358,-0.120,-0.105
9.360,-0.140,-0.095
9.362,-0.245,-0.085
9.364,-0.205,-0.065
9.366,-0.215,-0.050
9.368,-0.155,-0.035
9.370,-0.170,-0.030
9.372,0.080,-0.025
9.374,0.090,-0.030
9.376,0.040,-0.040
9.378,-0.060,-0.055
9.380,-0.095,-0.065
9.382,-0.280,-0.075
9.384,-0.270,-0.080
9.386,-0.230,-0.080
9.388,-0.190,-0.080
9.390,-0.130,-0.080
9.392,0.030,-0.080
9.394,0.015,-0.080
9.396,-0.050,-0.085
9.398,-0.115,-0.095
9.400,-0.140,-0.100
9.402,-0.320,-0.105
9.404,-0.285,-0.105
9.406,-0.225,-0.105
9.408,-0.150,-0.095
9.410,-0.125,-0.080
9.412,0.025,-0.070
9.414,0.050,-0.065
9.416,-0.010,-0.065
9.418,-0.135,-0.070
9.420,-0.180,-0.080
9.422,-0.335,-0.095
9.424,-0.310,-0.110
9.426,-0.245,-0.120
9.428,-0.180,-0.125
9.430,-0.115,-0.120
9.432,0.015,-0.105
9.434,0.045,-0.090
9.436,-0.060,-0.075
9.438,-0.175,-0.060
9.440,-0.205,-0.055
9.442,-0.270,-0.055
9.444,-0.270,-0.065
9.446,-0.235,-0.075
9.448,-0.125,-0.090
9.450,-0.150,-0.105
9.452,0.010,-0.110
9.454,-0.030,-0.115
9.456,-0.115,-0.115
9.458,-0.220,-0.110
9.460,-0.220,-0.105
9.462,-0.350,-0.100
9.464,-0.355,-0.095
9.466,-0.250,-0.095
9.468,-0.110,-0.095
9.470,-0.065,-0.095
9.472,0.025,-0.095
9.474,-0.020,-0.100
9.476,-0.115,-0.100
9.478,-0.185,-0.100
9.480,-0.225,-0.100
9.482,-0.360,-0.100
9.484,-0.375,-0.095
9.486,-0.240,-0.095
9.488,-0.160,-0.090
9.490,-0.090,-0.090
9.492,0.025,-0.085
9.494,0.020,-0.080
9.496,-0.075,-0.075
9.498,-0.145,-0.070
9.500,-0.145,-0.065
9.502,-0.340,-0.060
9.504,-0.330,-0.055
9.506,-0.195,-0.055
9.508,-0.125,-0.055
9.510,-0.060,-0.055
9.512,0.020,-0.055
9.514,0.040,-0.055
9.516,-0.040,-0.050
9.518,-0.130,-0.050
9.520,-0.205,-0.040
9.522,-0.275,-0.030
9.524,-0.250,-0.025
9.526,-0.175,-0.015
9.528,-0.050,-0.010
9.530,-0.010,-0.010
9.532,0.080,-0.010
9.534,0.080,-0.020
9.536,-0.055,-0.030
9.538,-0.180,-0.045
9.540,-0.250,-0.060
9.542,-0.340,-0.075
9.544,-0.345,-0.085
9.546,-0.275,-0.095
9.548,-0.180,-0.095
9.550,-0.070,-0.095
9.552,-0.030,-0.085
9.554,-0.045,-0.080
9.556,-0.065,-0.075
9.558,-0.155,-0.070
9.560,-0.245,-0.070
9.562,-0.330,-0.070
9.564,-0.325,-0.075
9.566,-0.290,-0.080
9.568,-0.220,-0.085
9.570,-0.135,-0.090
9.572,-0.025,-0.090
9.574,-0.020,-0.090
9.576,-0.095,-0.085
9.578,-0.150,-0.080
9.580,-0.280,-0.075
9.582,-0.355,-0.070
9.584,-0.355,-0.075
9.586,-0.255,-0.075
9.588,-0.215,-0.085
9.590,-0.065,-0.090
9.592,0.060,-0.100
9.594,-0.035,-0.105
9.596,-0.190,-0.110
9.598,-0.240,-0.110
9.600,-0.375,-0.110
9.602,-0.400,-0.105
9.604,-0.360,-0.100
9.606,-0.250,-0.095
9.608,-0.155,-0.095
9.610,-0.030,-0.095
9.612,-0.015,-0.095
9.614,-0.035,-0.100
9.616,-0.195,-0.100
9.618,-0.295,-0.100
9.620,-0.385,-0.090
9.622,-0.350,-0.085
9.624,-0.320,-0.070
9.626,-0.205,-0.060
9.628,-0.125,-0.050
9.630,-0.010,-0.040
9.632,0.010,-0.035
9.634,-0.030,-0.035
9.636,-0.120,-0.035
9.638,-0.135,-0.030
9.640,-0.295,-0.025
9.642,-0.325,-0.020
9.644,-0.280,-0.010
9.646,-0.115,0.000
9.648,-0.070,0.010
9.650,0.055,0.015
9.652,0.085,0.010
9.654,0.035,0.000
9.656,-0.125,-0.020
9.658,-0.210,-0.045
9.660,-0.395,-0.075
9.662,-0.390,-0.110
9.664,-0.460,-0.145
9.666,-0.360,-0.175
9.668,-0.265,-0.200
9.670,-0.090,-0.210
9.672,-0.215,-0.215
9.674,-0.230,-0.210
9.676,-0.275,-0.200
9.678,-0.345,-0.185
9.680,-0.515,-0.165
9.682,-0.465,-0.140
9.684,-0.340,-0.120
9.686,-0.200,-0.105
9.688,-0.150,-0.090
9.690,-0.040,-0.080
9.692,-0.070,-0.070
9.694,-0.130,-0.070
9.696,-0.195,-0.065
9.698,-0.225,-0.065
9.700,-0.365,-0.060
9.702,-0.400,-0.055
9.704,-0.300,-0.050
9.706,-0.175,-0.045
9.708,-0.085,-0.035
9.710,-0.005,-0.030
9.712,-0.050,-0.025
9.714,-0.045,-0.025
9.716,-0.130,-0.025
9.718,-0.170,-0.025
9.720,-0.335,-0.030
9.722,-0.390,-0.040
9.724,-0.320,-0.045
9.726,-0.230,-0.055
9.728,-0.145,-0.060
9.730,-0.020,-0.065
9.732,-0.070,-0.070
9.734,-0.135,-0.075
9.736,-0.205,-0.075
9.738,-0.285,-0.070
9.740,-0.390,-0.060
9.742,-0.365,-0.050
9.744,-0.285,-0.040
9.746,-0.155,-0.025
9.748,-0.090,-0.010
9.750,0.045,0.000
9.752,-0.015,0.005
9.754,-0.085,0.000
9.756,-0.200,-0.005
9.758,-0.240,-0.015
9.760,-0.405,-0.025
9.762,-0.390,-0.040
9.764,-0.275,-0.045
9.766,-0.165,-0.050
9.768,-0.130,-0.045
9.770,-0.015,-0.040
9.772,0.010,-0.030
9.774,-0.070,-0.025
9.776,-0.245,-0.020
9.778,-0.305,-0.015
9.780,-0.405,-0.020
9.782,-0.420,-0.025
9.784,-0.285,-0.035
9.786,-0.180,-0.040
9.788,-0.085,-0.045
9.790,0.000,-0.045
9.792,-0.060,-0.035
9.794,-0.135,-0.025
9.796,-0.220,-0.010
9.798,-0.245,0.005
9.800,-0.280,0.025
9.802,-0.255,0.035
9.804,-0.190,0.040
9.806,-0.130,0.045
9.808,-0.115,0.040
9.810,-0.005,0.035
9.812,0.015,0.030
9.814,-0.075,0.025
9.816,-0.165,0.025
9.818,-0.260,0.025
9.820,-0.310,0.030
9.822,-0.305,0.040
9.824,-0.215,0.050
9.826,-0.125,0.060
9.828,-0.045,0.065
9.830,0.060,0.070
9.832,0.030,0.070
9.834,-0.055,0.070
9.836,-0.135,0.065
9.838,-0.220,0.065
9.840,-0.310,0.060
9.842,-0.305,0.055
9.844,-0.175,0.055
9.846,-0.140,0.055
9.848,-0.010,0.060
9.850,0.080,0.060
9.852,0.025,0.065
9.854,-0.055,0.075
9.856,-0.215,0.080
9.858,-0.240,0.085
9.860,-0.275,0.095
9.862,-0.235,0.100
9.864,-0.075,0.105
9.866,-0.030,0.115
9.868,0.025,0.120
9.870,0.095,0.125
9.872,0.080,0.130
9.874,0.005,0.140
9.876,-0.060,0.145
9.878,-0.215,0.150
9.880,-0.265,0.155
9.882,-0.180,0.160
9.884,-0.060,0.165
9.886,0.025,0.165
9.888,0.090,0.165
9.890,0.095,0.165
9.892,0.030,0.160
9.894,-0.045,0.150
9.896,-0.105,0.145
9.898,-0.185,0.135
9.900,-0.215,0.130
9.902,-0.215,0.125
9.904,-0.150,0.115
9.906,-0.090,0.115
9.908,0.010,0.110
9.910,0.060,0.105
9.912,0.010,0.105
9.914,-0.080,0.105
9.916,-0.120,0.105
9.918,-0.260,0.105
9.920,-0.250,0.100
9.922,-0.255,0.095
9.924,-0.175,0.085
9.926,-0.150,0.075
9.928,-0.050,0.060
9.930,-0.015,0.040
9.932,-0.025,0.025
9.934,-0.195,0.005
9.936,-0.225,-0.005
9.938,-0.400,-0.015
9.940,-0.430,-0.020
9.942,-0.375,-0.015
9.944,-0.300,-0.015
9.946,-0.215,-0.005
9.948,-0.070,0.000
9.950,-0.100,0.005
9.952,-0.130,0.005
9.954,-0.165,0.010
9.956,-0.200,0.010
9.958,-0.390,0.010
9.960,-0.380,0.010
9.962,-0.330,0.010
9.964,-0.230,0.010
9.966,-0.195,0.010
9.968,-0.060,0.005
9.970,-0.110,-0.005
9.972,-0.190,-0.020
9.974,-0.290,-0.035
9.976,-0.320,-0.050
9.978,-0.495,-0.065
9.980,-0.500,-0.075
9.982,-0.410,-0.080
9.984,-0.280,-0.075
9.986,-0.265,-0.060
9.988,-0.135,-0.045
9.990,-0.105,-0.025
9.992,-0.140,-0.005
9.994,-0.180,0.010
9.996,-0.225,0.020
9.998,-0.385,0.020
