'Elapsed time','ECG I','ECG I filtered'
'seconds','mV','mV'
0.000,-0.270,-0.150
0.002,-0.230,-0.095
0.004,-0.160,-0.060
0.006,-0.150,-0.025
0.008,-0.060,-0.010
0.010,-0.040,-0.005
0.012,-0.030,-0.015
0.014,-0.165,-0.030
0.016,-0.180,-0.050
0.018,-0.285,-0.060
0.020,-0.265,-0.070
0.022,-0.210,-0.070
0.024,-0.165,-0.065
0.026,-0.125,-0.060
0.028,-0.055,-0.050
0.030,-0.045,-0.045
0.032,-0.080,-0.045
0.034,-0.225,-0.045
0.036,-0.255,-0.050
0.038,-0.320,-0.055
0.040,-0.265,-0.060
0.042,-0.185,-0.060
0.044,-0.105,-0.055
0.046,-0.100,-0.050
0.048,-0.020,-0.040
0.050,-0.030,-0.030
0.052,-0.080,-0.025
0.054,-0.170,-0.020
0.056,-0.220,-0.020
0.058,-0.270,-0.025
0.060,-0.275,-0.030
0.062,-0.235,-0.040
0.064,-0.125,-0.045
0.066,-0.095,-0.050
0.068,-0.050,-0.055
0.070,-0.040,-0.055
0.072,-0.100,-0.050
0.074,-0.165,-0.045
0.076,-0.215,-0.040
0.078,-0.265,-0.030
0.080,-0.230,-0.030
0.082,-0.190,-0.030
0.084,-0.120,-0.030
0.086,-0.105,-0.035
0.088,-0.025,-0.045
0.090,-0.010,-0.050
0.092,-0.130,-0.050
0.094,-0.190,-0.050
0.096,-0.195,-0.040
0.098,-0.230,-0.030
0.100,-0.235,-0.020
0.102,-0.195,-0.010
0.104,-0.110,0.000
0.106,0.005,0.005
0.108,0.035,0.010
0.110,-0.010,0.005
0.112,-0.085,0.000
0.114,-0.185,-0.010
0.116,-0.225,-0.015
0.118,-0.290,-0.025
0.120,-0.255,-0.030
0.122,-0.135,-0.035
0.124,-0.065,-0.035
0.126,-0.040,-0.040
0.128,-0.075,-0.040
0.130,-0.130,-0.040
0.132,-0.215,-0.045
0.134,-0.210,-0.050
0.136,-0.190,-0.055
0.138,-0.255,-0.060
0.140,-0.265,-0.065
0.142,-0.200,-0.065
0.144,-0.115,-0.065
0.146,-0.075,-0.065
0.148,-0.045,-0.060
0.150,-0.080,-0.060
0.152,-0.180,-0.060
0.154,-0.220,-0.060
0.156,-0.250,-0.060
0.158,-0.285,-0.060
0.160,-0.225,-0.055
0.162,-0.140,-0.050
0.164,-0.130,-0.040
0.166,-0.040,-0.030
0.168,0.005,-0.020
0.170,-0.045,-0.015
0.172,-0.105,-0.015
0.174,-0.130,-0.015
0.176,-0.245,-0.020
0.178,-0.275,-0.030
0.180,-0.225,-0.035
0.182,-0.140,-0.040
0.184,-0.145,-0.040
0.186,-0.045,-0.040
0.188,0.020,-0.035
0.190,-0.045,-0.030
0.192,-0.100,-0.025
0.194,-0.145,-0.020
0.196,-0.260,-0.020
0.198,-0.235,-0.025
0.200,-0.240,-0.030
0.202,-0.215,-0.040
0.204,-0.125,-0.045
0.206,0.020,-0.050
0.208,-0.065,-0.055
0.210,-0.120,-0.055
0.212,-0.110,-0.050
0.214,-0.165,-0.045
0.216,-0.270,-0.040
0.218,-0.240,-0.035
0.220,-0.205,-0.030
0.222,-0.145,-0.025
0.224,-0.145,-0.025
0.226,-0.020,-0.020
0.228,-0.015,-0.020
0.230,-0.055,-0.015
0.232,-0.140,-0.010
0.234,-0.155,0.000
0.236,-0.170,0.010
0.238,-0.185,0.020
0.240,-0.195,0.030
0.242,-0.045,0.035
0.244,-0.020,0.035
0.246,0.085,0.030
0.248,-0.025,0.020
0.250,-0.075,0.010
0.252,-0.135,0.000
0.254,-0.170,-0.010
0.256,-0.250,-0.020
0.258,-0.200,-0.025
0.260,-0.185,-0.025
0.262,-0.140,-0.025
0.264,-0.070,-0.025
0.266,0.005,-0.020
0.268,-0.030,-0.020
0.270,-0.085,-0.015
0.272,-0.175,-0.015
0.274,-0.200,-0.020
0.276,-0.250,-0.020
0.278,-0.210,-0.020
0.280,-0.160,-0.025
0.282,-0.085,-0.025
0.284,-0.060,-0.025
0.286,-0.010,-0.025
0.288,-0.065,-0.030
0.290,-0.155,-0.030
0.292,-0.135,-0.035
0.294,-0.170,-0.040
0.296,-0.280,-0.045
0.298,-0.230,-0.050
0.300,-0.180,-0.050
0.302,-0.135,-0.050
0.304,-0.165,-0.050
0.306,-0.065,-0.045
0.308,-0.025,-0.045
0.310,-0.090,-0.045
0.312,-0.175,-0.045
0.314,-0.195,-0.045
0.316,-0.265,-0.055
0.318,-0.290,-0.060
0.320,-0.260,-0.065
0.322,-0.170,-0.065
0.324,-0.095,-0.070
0.326,0.000,-0.070
0.328,-0.040,-0.070
0.330,-0.090,-0.075
0.332,-0.215,-0.085
0.334,-0.260,-0.100
0.336,-0.395,-0.120
0.338,-0.405,-0.145
0.340,-0.365,-0.165
0.342,-0.300,-0.175
0.344,-0.215,-0.170
0.346,-0.095,-0.140
0.348,-0.075,-0.085
0.350,-0.090,-0.005
0.352,-0.045,0.105
0.354,0.075,0.230
0.356,0.175,0.375
0.358,0.355,0.525
0.360,0.565,0.675
0.362,0.755,0.815
0.364,0.900,0.950
0.366,1.105,1.065
0.368,1.225,1.160
0.370,1.250,1.225
0.372,1.190,1.255
0.374,1.160,1.250
0.376,1.040,1.195
0.378,0.885,1.100
0.380,0.795,0.965
0.382,0.675,0.800
0.384,0.535,0.625
0.386,0.415,0.450
0.388,0.220,0.295
0.390,0.030,0.165
0.392,-0.060,0.075
0.394,-0.110,0.025
0.396,-0.210,0.005
0.398,-0.190,0.005
0.400,-0.105,0.020
0.402,-0.075,0.030
0.404,-0.035,0.035
0.406,-0.020,0.025
0.408,-0.050,0.005
0.410,-0.110,-0.020
0.412,-0.175,-0.045
0.414,-0.215,-0.065
0.416,-0.255,-0.075
0.418,-0.275,-0.080
0.420,-0.265,-0.075
0.422,-0.155,-0.065
0.424,-0.065,-0.055
0.426,-0.035,-0.050
0.428,-0.095,-0.050
0.430,-0.165,-0.055
0.432,-0.220,-0.060
0.434,-0.220,-0.070
0.436,-0.275,-0.075
0.438,-0.300,-0.075
0.440,-0.185,-0.075
0.442,-0.160,-0.070
0.444,-0.100,-0.060
0.446,-0.040,-0.050
0.448,-0.045,-0.045
0.450,-0.095,-0.045
0.452,-0.160,-0.050
0.454,-0.280,-0.055
0.456,-0.290,-0.065
0.458,-0.260,-0.075
0.460,-0.215,-0.085
0.462,-0.175,-0.095
0.464,-0.115,-0.100
0.466,-0.110,-0.105
0.468,-0.170,-0.105
0.470,-0.170,-0.100
0.472,-0.205,-0.095
0.474,-0.290,-0.085
0.476,-0.275,-0.080
0.478,-0.220,-0.070
0.480,-0.105,-0.065
0.482,-0.170,-0.060
0.484,-0.110,-0.060
0.486,-0.045,-0.065
0.488,-0.090,-0.070
0.490,-0.175,-0.075
0.492,-0.235,-0.080
0.494,-0.305,-0.080
0.496,-0.270,-0.080
0.498,-0.255,-0.080
0.500,-0.210,-0.070
0.502,-0.185,-0.065
0.504,-0.060,-0.060
0.506,-0.015,-0.055
0.508,-0.060,-0.055
0.510,-0.175,-0.055
0.512,-0.215,-0.060
0.514,-0.260,-0.065
0.516,-0.275,-0.065
0.518,-0.250,-0.070
0.520,-0.155,-0.065
0.522,-0.090,-0.060
0.524,0.005,-0.055
0.526,-0.050,-0.040
0.528,-0.075,-0.030
0.530,-0.115,-0.015
0.532,-0.135,-0.005
0.534,-0.220,0.000
0.536,-0.200,0.000
0.538,-0.180,-0.005
0.540,-0.115,-0.010
0.542,-0.080,-0.020
0.544,-0.020,-0.030
0.546,-0.070,-0.040
0.548,-0.065,-0.045
0.550,-0.140,-0.045
0.552,-0.220,-0.035
0.554,-0.270,-0.020
0.556,-0.195,0.000
0.558,-0.115,0.020
0.560,-0.065,0.035
0.562,0.010,0.045
0.564,0.105,0.050
0.566,0.110,0.050
0.568,0.000,0.040
0.570,-0.150,0.025
0.572,-0.190,0.015
0.574,-0.215,0.000
0.576,-0.175,-0.005
0.578,-0.170,-0.005
0.580,-0.110,0.005
0.582,-0.050,0.015
0.584,0.070,0.035
0.586,0.080,0.050
0.588,0.055,0.065
0.590,-0.025,0.080
0.592,-0.055,0.085
0.594,-0.175,0.090
0.596,-0.125,0.085
0.598,-0.080,0.085
0.600,0.005,0.080
0.602,0.025,0.080
0.604,0.105,0.080
0.606,0.095,0.080
0.608,0.050,0.090
0.610,-0.010,0.095
0.612,-0.070,0.100
0.614,-0.115,0.100
0.616,-0.085,0.100
0.618,-0.045,0.095
0.620,-0.020,0.090
0.622,-0.005,0.080
0.624,0.080,0.075
0.626,0.045,0.065
0.628,0.025,0.060
0.630,-0.060,0.055
0.632,-0.140,0.050
0.634,-0.195,0.050
0.636,-0.150,0.045
0.638,-0.140,0.045
0.640,-0.075,0.045
0.642,-0.025,0.045
0.644,0.045,0.045
0.646,0.035,0.040
0.648,-0.015,0.040
0.650,-0.095,0.040
0.652,-0.110,0.035
0.654,-0.200,0.030
0.656,-0.185,0.025
0.658,-0.140,0.015
0.660,-0.115,0.000
0.662,-0.100,-0.015
0.664,-0.035,-0.030
0.666,-0.045,-0.045
0.668,-0.155,-0.055
0.670,-0.170,-0.060
0.672,-0.210,-0.055
0.674,-0.260,-0.050
0.676,-0.220,-0.040
0.678,-0.190,-0.030
0.680,-0.115,-0.020
0.682,-0.070,-0.015
0.684,-0.025,-0.015
0.686,-0.060,-0.020
0.688,-0.085,-0.030
0.690,-0.165,-0.035
0.692,-0.190,-0.045
0.694,-0.260,-0.055
0.696,-0.250,-0.060
0.698,-0.200,-0.065
0.700,-0.150,-0.065
0.702,-0.145,-0.060
0.704,-0.095,-0.060
0.706,-0.065,-0.055
0.708,-0.130,-0.055
0.710,-0.160,-0.060
0.712,-0.225,-0.060
0.714,-0.250,-0.065
0.716,-0.225,-0.065
0.718,-0.220,-0.065
0.720,-0.170,-0.060
0.722,-0.100,-0.060
0.724,-0.055,-0.050
0.726,-0.065,-0.045
0.728,-0.115,-0.035
0.730,-0.180,-0.030
0.732,-0.230,-0.025
0.734,-0.210,-0.020
0.736,-0.200,-0.020
0.738,-0.165,-0.020
0.740,-0.110,-0.025
0.742,-0.075,-0.035
0.744,-0.050,-0.040
0.746,-0.070,-0.050
0.748,-0.180,-0.055
0.750,-0.185,-0.060
0.752,-0.280,-0.065
0.754,-0.275,-0.065
0.756,-0.250,-0.065
0.758,-0.180,-0.060
0.760,-0.160,-0.055
0.762,-0.075,-0.050
0.764,-0.025,-0.045
0.766,-0.025,-0.045
0.768,-0.155,-0.045
0.770,-0.175,-0.050
0.772,-0.270,-0.055
0.774,-0.275,-0.065
0.776,-0.250,-0.070
0.778,-0.185,-0.075
0.780,-0.175,-0.080
0.782,-0.105,-0.075
0.784,-0.090,-0.065
0.786,-0.065,-0.055
0.788,-0.140,-0.045
0.790,-0.180,-0.035
0.792,-0.260,-0.020
0.794,-0.210,-0.015
0.796,-0.160,-0.010
0.798,-0.130,-0.010
0.800,-0.095,-0.010
0.802,-0.040,-0.015
0.804,-0.050,-0.020
0.806,-0.075,-0.025
0.808,-0.090,-0.030
0.810,-0.165,-0.035
0.812,-0.260,-0.040
0.814,-0.270,-0.045
0.816,-0.230,-0.050
0.818,-0.195,-0.055
0.820,-0.110,-0.055
0.822,-0.035,-0.055
0.824,-0.075,-0.055
0.826,-0.100,-0.055
0.828,-0.165,-0.050
0.830,-0.185,-0.050
0.832,-0.245,-0.050
0.834,-0.315,-0.050
0.836,-0.265,-0.050
0.838,-0.150,-0.050
0.840,-0.115,-0.050
0.842,-0.040,-0.050
0.844,-0.045,-0.050
0.846,-0.085,-0.050
0.848,-0.130,-0.045
0.850,-0.175,-0.040
0.852,-0.260,-0.040
0.854,-0.260,-0.035
0.856,-0.210,-0.035
0.858,-0.130,-0.040
0.860,-0.130,-0.045
0.862,-0.050,-0.050
0.864,-0.075,-0.055
0.866,-0.105,-0.055
0.868,-0.145,-0.055
0.870,-0.175,-0.055
0.872,-0.260,-0.055
0.874,-0.265,-0.050
0.876,-0.220,-0.045
0.878,-0.180,-0.040
0.880,-0.160,-0.040
0.882,-0.025,-0.040
0.884,-0.075,-0.040
0.886,-0.115,-0.045
0.888,-0.160,-0.045
0.890,-0.180,-0.050
0.892,-0.255,-0.050
0.894,-0.255,-0.050
0.896,-0.165,-0.045
0.898,-0.160,-0.045
0.900,-0.175,-0.040
0.902,-0.070,-0.035
0.904,-0.060,-0.035
0.906,-0.065,-0.030
0.908,-0.090,-0.030
0.910,-0.180,-0.025
0.912,-0.235,-0.025
0.914,-0.225,-0.020
0.916,-0.180,-0.020
0.918,-0.120,-0.020
0.920,-0.140,-0.025
0.922,-0.050,-0.030
0.924,-0.065,-0.035
0.926,-0.110,-0.040
0.928,-0.185,-0.050
0.930,-0.215,-0.055
0.932,-0.285,-0.055
0.934,-0.270,-0.050
0.936,-0.185,-0.045
0.938,-0.130,-0.040
0.940,-0.110,-0.030
0.942,-0.040,-0.025
0.944,-0.075,-0.020
0.946,-0.110,-0.025
0.948,-0.165,-0.030
0.950,-0.160,-0.040
0.952,-0.255,-0.050
0.954,-0.300,-0.055
0.956,-0.250,-0.060
0.958,-0.185,-0.060
0.960,-0.080,-0.055
0.962,-0.015,-0.050
0.964,-0.065,-0.045
0.966,-0.085,-0.035
0.968,-0.145,-0.030
0.970,-0.185,-0.030
0.972,-0.275,-0.025
0.974,-0.255,-0.025
0.976,-0.235,-0.025
0.978,-0.110,-0.020
0.980,-0.070,-0.015
0.982,0.005,-0.005
0.984,-0.035,0.000
0.986,-0.055,0.005
0.988,-0.110,0.010
0.990,-0.220,0.005
0.992,-0.235,0.000
0.994,-0.185,-0.005
0.996,-0.185,-0.015
0.998,-0.120,-0.025
1.000,-0.085,-0.030
1.002,-0.020,-0.030
1.004,-0.085,-0.030
1.006,-0.130,-0.025
1.008,-0.115,-0.015
1.010,-0.200,-0.010
1.012,-0.230,-0.005
1.014,-0.195,0.000
1.016,-0.115,0.000
1.018,-0.075,0.000
1.020,-0.080,-0.005
1.022,-0.070,-0.010
1.024,-0.050,-0.020
1.026,-0.110,-0.030
1.028,-0.175,-0.040
1.030,-0.295,-0.050
1.032,-0.325,-0.060
1.034,-0.310,-0.065
1.036,-0.230,-0.070
1.038,-0.135,-0.075
1.040,-0.055,-0.070
1.042,-0.050,-0.060
1.044,-0.085,-0.050
1.046,-0.155,-0.035
1.048,-0.170,-0.030
1.050,-0.240,-0.025
1.052,-0.290,-0.030
1.054,-0.295,-0.040
1.056,-0.205,-0.055
1.058,-0.170,-0.070
1.060,-0.090,-0.085
1.062,-0.090,-0.095
1.064,-0.150,-0.095
1.066,-0.205,-0.085
1.068,-0.205,-0.070
1.070,-0.235,-0.060
1.072,-0.215,-0.050
1.074,-0.265,-0.050
1.076,-0.245,-0.065
1.078,-0.225,-0.090
1.080,-0.195,-0.125
1.082,-0.240,-0.165
1.084,-0.275,-0.195
1.086,-0.340,-0.210
1.088,-0.340,-0.200
1.090,-0.370,-0.160
1.092,-0.300,-0.095
1.094,-0.175,0.005
1.096,-0.010,0.125
1.098,0.165,0.260
1.100,0.355,0.405
1.102,0.540,0.550
1.104,0.665,0.695
1.106,0.755,0.830
1.108,0.885,0.955
1.110,0.795,1.060
1.112,0.965,1.140
1.114,1.060,1.190
1.116,1.110,1.205
1.118,1.120,1.180
1.120,1.135,1.115
1.122,0.970,1.010
1.124,0.815,0.870
1.126,0.585,0.710
1.128,0.350,0.545
1.130,0.060,0.385
1.132,-0.035,0.245
1.134,-0.095,0.135
1.136,-0.090,0.055
1.138,-0.130,0.000
1.140,-0.050,-0.025
1.142,-0.005,-0.035
1.144,-0.090,-0.035
1.146,-0.205,-0.035
1.148,-0.200,-0.035
1.150,-0.300,-0.040
1.152,-0.280,-0.050
1.154,-0.230,-0.065
1.156,-0.155,-0.075
1.158,-0.120,-0.080
1.160,-0.100,-0.085
1.162,-0.135,-0.090
1.164,-0.180,-0.090
1.166,-0.255,-0.090
1.168,-0.275,-0.090
1.170,-0.345,-0.095
1.172,-0.310,-0.100
1.174,-0.245,-0.105
1.176,-0.165,-0.105
1.178,-0.180,-0.110
1.180,-0.125,-0.105
1.182,-0.135,-0.105
1.184,-0.165,-0.105
1.186,-0.210,-0.105
1.188,-0.255,-0.105
1.190,-0.385,-0.105
1.192,-0.310,-0.100
1.194,-0.285,-0.100
1.196,-0.250,-0.095
1.198,-0.180,-0.090
1.200,-0.080,-0.080
1.202,-0.075,-0.070
1.204,-0.120,-0.060
1.206,-0.140,-0.050
1.208,-0.235,-0.050
1.210,-0.310,-0.050
1.212,-0.295,-0.055
1.214,-0.250,-0.065
1.216,-0.200,-0.075
1.218,-0.165,-0.085
1.220,-0.145,-0.095
1.222,-0.170,-0.095
1.224,-0.175,-0.095
1.226,-0.245,-0.090
1.228,-0.240,-0.085
1.230,-0.295,-0.080
1.232,-0.285,-0.070
1.234,-0.215,-0.070
1.236,-0.150,-0.065
1.238,-0.120,-0.065
1.240,-0.105,-0.065
1.242,-0.115,-0.065
1.244,-0.165,-0.065
1.246,-0.200,-0.065
1.248,-0.260,-0.060
1.250,-0.315,-0.060
1.252,-0.315,-0.060
1.254,-0.220,-0.060
1.256,-0.160,-0.065
1.258,-0.190,-0.065
1.260,-0.070,-0.075
1.262,-0.110,-0.080
1.264,-0.190,-0.085
1.266,-0.235,-0.085
1.268,-0.255,-0.085
1.270,-0.335,-0.080
1.272,-0.275,-0.075
1.274,-0.220,-0.070
1.276,-0.140,-0.065
1.278,-0.110,-0.060
1.280,-0.110,-0.055
1.282,-0.130,-0.050
1.284,-0.145,-0.045
1.286,-0.175,-0.045
1.288,-0.205,-0.040
1.290,-0.200,-0.035
1.292,-0.185,-0.025
1.294,-0.135,-0.015
1.296,-0.140,-0.005
1.298,-0.090,0.000
1.300,-0.055,0.005
1.302,-0.025,0.010
1.304,-0.065,0.005
1.306,-0.185,0.000
1.308,-0.225,-0.010
1.310,-0.225,-0.020
1.312,-0.220,-0.030
1.314,-0.160,-0.035
1.316,-0.110,-0.035
1.318,-0.070,-0.030
1.320,-0.055,-0.020
1.322,-0.085,-0.005
1.324,-0.130,0.015
1.326,-0.090,0.030
1.328,-0.160,0.045
1.330,-0.160,0.060
1.332,-0.140,0.065
1.334,-0.075,0.070
1.336,-0.030,0.070
1.338,0.030,0.070
1.340,0.015,0.070
1.342,0.010,0.065
1.344,-0.060,0.065
1.346,-0.085,0.070
1.348,-0.145,0.070
1.350,-0.155,0.070
1.352,-0.120,0.065
1.354,-0.065,0.065
1.356,-0.035,0.060
1.358,0.010,0.060
1.360,0.000,0.060
1.362,-0.060,0.060
1.364,-0.095,0.060
1.366,-0.080,0.060
1.368,-0.125,0.060
1.370,-0.110,0.065
1.372,-0.135,0.060
1.374,-0.060,0.060
1.376,-0.045,0.055
1.378,-0.010,0.045
1.380,-0.045,0.035
1.382,-0.070,0.030
1.384,-0.125,0.020
1.386,-0.130,0.010
1.388,-0.200,0.005
1.390,-0.185,0.000
1.392,-0.195,0.000
1.394,-0.130,0.000
1.396,-0.080,0.000
1.398,-0.045,0.000
1.400,-0.045,0.000
1.402,-0.070,-0.005
1.404,-0.145,-0.005
1.406,-0.195,-0.010
1.408,-0.245,-0.020
1.410,-0.220,-0.030
1.412,-0.255,-0.040
1.414,-0.205,-0.055
1.416,-0.175,-0.065
1.418,-0.100,-0.070
1.420,-0.155,-0.075
1.422,-0.160,-0.080
1.424,-0.205,-0.080
1.426,-0.240,-0.075
1.428,-0.295,-0.070
1.430,-0.260,-0.070
1.432,-0.220,-0.065
1.434,-0.160,-0.070
1.436,-0.185,-0.070
1.438,-0.120,-0.075
1.440,-0.115,-0.075
1.442,-0.160,-0.075
1.444,-0.230,-0.075
1.446,-0.285,-0.070
1.448,-0.265,-0.070
1.450,-0.285,-0.065
1.452,-0.220,-0.065
1.454,-0.170,-0.070
1.456,-0.185,-0.075
1.458,-0.120,-0.090
1.460,-0.160,-0.100
1.462,-0.245,-0.110
1.464,-0.295,-0.115
1.466,-0.285,-0.120
1.468,-0.335,-0.110
1.470,-0.280,-0.100
1.472,-0.230,-0.085
1.474,-0.130,-0.070
1.476,-0.115,-0.055
1.478,-0.085,-0.045
1.480,-0.125,-0.040
1.482,-0.195,-0.045
1.484,-0.255,-0.055
1.486,-0.280,-0.070
1.488,-0.320,-0.085
1.490,-0.300,-0.095
1.492,-0.235,-0.100
1.494,-0.195,-0.100
1.496,-0.135,-0.095
1.498,-0.090,-0.085
1.500,-0.115,-0.070
1.502,-0.150,-0.060
1.504,-0.215,-0.055
1.506,-0.290,-0.050
1.508,-0.330,-0.055
1.510,-0.295,-0.060
1.512,-0.235,-0.065
1.514,-0.185,-0.070
1.516,-0.115,-0.070
1.518,-0.055,-0.070
1.520,-0.095,-0.065
1.522,-0.155,-0.060
1.524,-0.250,-0.055
1.526,-0.285,-0.050
1.528,-0.295,-0.055
1.530,-0.275,-0.065
1.532,-0.240,-0.075
1.534,-0.220,-0.090
1.536,-0.190,-0.105
1.538,-0.175,-0.115
1.540,-0.180,-0.120
1.542,-0.220,-0.120
1.544,-0.270,-0.115
1.546,-0.270,-0.105
1.548,-0.285,-0.095
1.550,-0.265,-0.090
1.552,-0.215,-0.085
1.554,-0.190,-0.085
1.556,-0.155,-0.085
1.558,-0.120,-0.090
1.560,-0.185,-0.095
1.562,-0.200,-0.095
1.564,-0.245,-0.090
1.566,-0.260,-0.080
1.568,-0.280,-0.075
1.570,-0.275,-0.065
1.572,-0.205,-0.055
1.574,-0.145,-0.050
1.576,-0.125,-0.050
1.578,-0.090,-0.050
1.580,-0.095,-0.055
1.582,-0.140,-0.060
1.584,-0.275,-0.065
1.586,-0.295,-0.065
1.588,-0.280,-0.065
1.590,-0.215,-0.065
1.592,-0.155,-0.065
1.594,-0.155,-0.065
1.596,-0.145,-0.070
1.598,-0.145,-0.075
1.600,-0.165,-0.085
1.602,-0.230,-0.095
1.604,-0.260,-0.100
1.606,-0.310,-0.100
1.608,-0.295,-0.095
1.610,-0.260,-0.085
1.612,-0.210,-0.070
1.614,-0.100,-0.055
1.616,-0.080,-0.040
1.618,-0.055,-0.030
1.620,-0.115,-0.030
1.622,-0.160,-0.035
1.624,-0.255,-0.045
1.626,-0.325,-0.060
1.628,-0.300,-0.080
1.630,-0.290,-0.095
1.632,-0.225,-0.105
1.634,-0.195,-0.115
1.636,-0.140,-0.115
1.638,-0.110,-0.115
1.640,-0.170,-0.110
1.642,-0.280,-0.100
1.644,-0.315,-0.090
1.646,-0.330,-0.075
1.648,-0.255,-0.065
1.650,-0.210,-0.050
1.652,-0.170,-0.040
1.654,-0.130,-0.035
1.656,-0.045,-0.030
1.658,-0.075,-0.025
1.660,-0.145,-0.030
1.662,-0.215,-0.035
1.664,-0.255,-0.045
1.666,-0.280,-0.050
1.668,-0.250,-0.060
1.670,-0.230,-0.060
1.672,-0.170,-0.060
1.674,-0.120,-0.055
1.676,-0.065,-0.045
1.678,-0.030,-0.030
1.680,-0.075,-0.015
1.682,-0.125,0.000
1.684,-0.175,0.010
1.686,-0.210,0.015
1.688,-0.210,0.015
1.690,-0.200,0.010
1.692,-0.155,-0.005
1.694,-0.140,-0.020
1.696,-0.060,-0.040
1.698,-0.095,-0.055
1.700,-0.155,-0.070
1.702,-0.250,-0.080
1.704,-0.310,-0.085
1.706,-0.335,-0.085
1.708,-0.280,-0.085
1.710,-0.250,-0.080
1.712,-0.200,-0.075
1.714,-0.190,-0.075
1.716,-0.095,-0.075
1.718,-0.095,-0.080
1.720,-0.175,-0.085
1.722,-0.255,-0.085
1.724,-0.295,-0.090
1.726,-0.340,-0.085
1.728,-0.295,-0.085
1.730,-0.225,-0.075
1.732,-0.170,-0.070
1.734,-0.135,-0.065
1.736,-0.080,-0.065
1.738,-0.165,-0.065
1.740,-0.195,-0.070
1.742,-0.245,-0.080
1.744,-0.265,-0.090
1.746,-0.305,-0.095
1.748,-0.290,-0.095
1.750,-0.235,-0.090
1.752,-0.180,-0.080
1.754,-0.135,-0.065
1.756,-0.045,-0.050
1.758,-0.070,-0.035
1.760,-0.125,-0.030
1.762,-0.195,-0.030
1.764,-0.245,-0.045
1.766,-0.335,-0.070
1.768,-0.330,-0.100
1.770,-0.340,-0.135
1.772,-0.290,-0.165
1.774,-0.285,-0.185
1.776,-0.225,-0.190
1.778,-0.245,-0.175
1.780,-0.240,-0.140
1.782,-0.245,-0.085
1.784,-0.210,-0.010
1.786,-0.130,0.080
1.788,-0.015,0.190
1.790,0.175,0.310
1.792,0.350,0.440
1.794,0.495,0.575
1.796,0.695,0.710
1.798,0.795,0.835
1.800,0.865,0.950
1.802,0.960,1.035
1.804,0.980,1.095
1.806,0.965,1.110
1.808,0.895,1.085
1.810,0.840,1.010
1.812,0.775,0.900
1.814,0.690,0.760
1.816,0.555,0.605
1.818,0.315,0.440
1.820,0.110,0.290
1.822,-0.060,0.160
1.824,-0.170,0.065
1.826,-0.235,-0.005
1.828,-0.230,-0.040
1.830,-0.220,-0.050
1.832,-0.150,-0.050
1.834,-0.090,-0.040
1.836,-0.080,-0.035
1.838,-0.130,-0.030
1.840,-0.185,-0.035
1.842,-0.270,-0.045
1.844,-0.305,-0.060
1.846,-0.270,-0.070
1.848,-0.275,-0.080
1.850,-0.215,-0.085
1.852,-0.170,-0.080
1.854,-0.100,-0.075
1.856,-0.085,-0.065
1.858,-0.115,-0.055
1.860,-0.220,-0.050
1.862,-0.295,-0.050
1.864,-0.300,-0.055
1.866,-0.305,-0.065
1.868,-0.250,-0.075
1.870,-0.170,-0.085
1.872,-0.160,-0.095
1.874,-0.160,-0.100
1.876,-0.140,-0.105
1.878,-0.175,-0.105
1.880,-0.235,-0.100
1.882,-0.270,-0.100
1.884,-0.305,-0.100
1.886,-0.310,-0.100
1.888,-0.280,-0.110
1.890,-0.230,-0.115
1.892,-0.235,-0.125
1.894,-0.200,-0.130
1.896,-0.165,-0.130
1.898,-0.170,-0.125
1.900,-0.250,-0.115
1.902,-0.275,-0.100
1.904,-0.325,-0.080
1.906,-0.295,-0.060
1.908,-0.210,-0.045
1.910,-0.175,-0.035
1.912,-0.130,-0.035
1.914,-0.120,-0.040
1.916,-0.130,-0.050
1.918,-0.115,-0.065
1.920,-0.240,-0.085
1.922,-0.310,-0.100
1.924,-0.350,-0.110
1.926,-0.325,-0.110
1.928,-0.285,-0.110
1.930,-0.195,-0.100
1.932,-0.185,-0.090
1.934,-0.120,-0.080
1.936,-0.080,-0.075
1.938,-0.115,-0.070
1.940,-0.225,-0.070
1.942,-0.265,-0.075
1.944,-0.350,-0.080
1.946,-0.320,-0.085
1.948,-0.265,-0.085
1.950,-0.210,-0.085
1.952,-0.155,-0.080
1.954,-0.115,-0.070
1.956,-0.100,-0.060
1.958,-0.135,-0.050
1.960,-0.175,-0.040
1.962,-0.205,-0.035
1.964,-0.225,-0.030
1.966,-0.235,-0.030
1.968,-0.260,-0.035
1.970,-0.190,-0.035
1.972,-0.125,-0.040
1.974,-0.065,-0.040
1.976,-0.085,-0.040
1.978,-0.105,-0.040
1.980,-0.150,-0.040
1.982,-0.195,-0.035
1.984,-0.265,-0.030
1.986,-0.245,-0.025
1.988,-0.200,-0.020
1.990,-0.135,-0.015
1.992,-0.095,-0.010
1.994,-0.055,-0.005
1.996,-0.070,0.000
1.998,-0.115,0.005
2.000,-0.135,0.010
2.002,-0.160,0.015
2.004,-0.195,0.020
2.006,-0.170,0.020
2.008,-0.155,0.025
2.010,-0.105,0.025
2.012,-0.050,0.025
2.014,0.010,0.025
2.016,-0.070,0.030
2.018,-0.030,0.035
2.020,-0.120,0.040
2.022,-0.140,0.050
2.024,-0.170,0.055
2.026,-0.120,0.065
2.028,-0.065,0.070
2.030,-0.040,0.070
2.032,-0.035,0.075
2.034,0.010,0.070
2.036,-0.005,0.070
2.038,-0.035,0.070
2.040,-0.145,0.065
2.042,-0.105,0.065
2.044,-0.150,0.070
2.046,-0.125,0.075
2.048,-0.040,0.085
2.050,0.020,0.090
2.052,0.020,0.095
2.054,0.040,0.100
2.056,0.040,0.100
2.058,0.000,0.100
2.060,-0.065,0.090
2.062,-0.105,0.075
2.064,-0.190,0.065
2.066,-0.210,0.050
2.068,-0.120,0.035
2.070,-0.085,0.025
2.072,-0.105,0.015
2.074,-0.025,0.015
2.076,-0.050,0.015
2.078,-0.105,0.020
2.080,-0.145,0.025
2.082,-0.170,0.025
2.084,-0.190,0.020
2.086,-0.190,0.015
2.088,-0.190,0.000
2.090,-0.135,-0.015
2.092,-0.120,-0.035
2.094,-0.095,-0.055
2.096,-0.140,-0.070
2.098,-0.235,-0.080
2.100,-0.295,-0.085
2.102,-0.305,-0.085
2.104,-0.285,-0.080
2.106,-0.240,-0.075
2.108,-0.140,-0.065
2.110,-0.145,-0.055
2.112,-0.145,-0.050
2.114,-0.140,-0.045
2.116,-0.145,-0.045
2.118,-0.170,-0.045
2.120,-0.195,-0.050
2.122,-0.220,-0.050
2.124,-0.250,-0.055
2.126,-0.250,-0.060
2.128,-0.220,-0.060
2.130,-0.210,-0.065
2.132,-0.155,-0.065
2.134,-0.140,-0.070
2.136,-0.130,-0.070
2.138,-0.200,-0.070
2.140,-0.270,-0.065
2.142,-0.255,-0.060
2.144,-0.290,-0.050
2.146,-0.245,-0.045
2.148,-0.145,-0.035
2.150,-0.115,-0.030
2.152,-0.075,-0.035
2.154,-0.100,-0.040
2.156,-0.155,-0.050
2.158,-0.270,-0.065
2.160,-0.330,-0.085
2.162,-0.345,-0.100
2.164,-0.335,-0.110
2.166,-0.260,-0.115
2.168,-0.185,-0.110
2.170,-0.190,-0.100
2.172,-0.150,-0.080
2.174,-0.130,-0.060
2.176,-0.115,-0.040
2.178,-0.150,-0.025
2.180,-0.160,-0.020
2.182,-0.215,-0.020
2.184,-0.305,-0.030
2.186,-0.290,-0.045
2.188,-0.215,-0.065
2.190,-0.205,-0.085
2.192,-0.200,-0.095
2.194,-0.150,-0.100
2.196,-0.145,-0.100
2.198,-0.200,-0.085
2.200,-0.225,-0.070
2.202,-0.290,-0.050
2.204,-0.270,-0.035
2.206,-0.230,-0.020
2.208,-0.140,-0.015
2.210,-0.105,-0.015
2.212,-0.065,-0.025
2.214,-0.090,-0.035
2.216,-0.170,-0.050
2.218,-0.210,-0.065
2.220,-0.245,-0.080
2.222,-0.325,-0.085
2.224,-0.320,-0.085
2.226,-0.280,-0.080
2.228,-0.180,-0.070
2.230,-0.105,-0.055
2.232,-0.045,-0.045
2.234,-0.120,-0.030
2.236,-0.115,-0.025
2.238,-0.135,-0.020
2.240,-0.235,-0.025
2.242,-0.295,-0.030
2.244,-0.295,-0.040
2.246,-0.285,-0.055
2.248,-0.215,-0.070
2.250,-0.185,-0.080
2.252,-0.150,-0.085
2.254,-0.155,-0.085
2.256,-0.185,-0.080
2.258,-0.230,-0.070
2.260,-0.220,-0.055
2.262,-0.260,-0.040
2.264,-0.230,-0.030
2.266,-0.170,-0.020
2.268,-0.100,-0.020
2.270,-0.135,-0.025
2.272,-0.115,-0.035
2.274,-0.145,-0.045
2.276,-0.170,-0.055
2.278,-0.250,-0.060
2.280,-0.260,-0.065
2.282,-0.245,-0.060
2.284,-0.220,-0.055
2.286,-0.190,-0.045
2.288,-0.195,-0.035
2.290,-0.160,-0.030
2.292,-0.075,-0.025
2.294,-0.140,-0.030
2.296,-0.175,-0.035
2.298,-0.195,-0.040
2.300,-0.195,-0.045
2.302,-0.280,-0.050
2.304,-0.250,-0.050
2.306,-0.205,-0.045
2.308,-0.135,-0.035
2.310,-0.095,-0.020
2.312,-0.045,-0.010
2.314,-0.060,0.000
2.316,-0.120,0.005
2.318,-0.205,0.005
2.320,-0.205,0.005
2.322,-0.270,0.005
2.324,-0.215,0.005
2.326,-0.150,0.005
2.328,-0.065,0.010
2.330,-0.045,0.010
2.332,-0.005,0.020
2.334,-0.020,0.025
2.336,-0.100,0.025
2.338,-0.170,0.025
2.340,-0.250,0.020
2.342,-0.270,0.010
2.344,-0.245,0.000
2.346,-0.225,-0.010
2.348,-0.165,-0.020
2.350,-0.115,-0.030
2.352,-0.065,-0.035
2.354,-0.080,-0.040
2.356,-0.155,-0.040
2.358,-0.245,-0.040
2.360,-0.275,-0.040
2.362,-0.330,-0.040
2.364,-0.270,-0.045
2.366,-0.235,-0.045
2.368,-0.180,-0.055
2.370,-0.150,-0.060
2.372,-0.095,-0.065
2.374,-0.145,-0.070
2.376,-0.215,-0.075
2.378,-0.270,-0.075
2.380,-0.290,-0.070
2.382,-0.295,-0.065
2.384,-0.230,-0.055
2.386,-0.225,-0.040
2.388,-0.105,-0.030
2.390,-0.130,-0.020
2.392,-0.075,-0.015
2.394,-0.080,-0.015
2.396,-0.115,-0.015
2.398,-0.210,-0.025
2.400,-0.285,-0.035
2.402,-0.320,-0.045
2.404,-0.270,-0.060
2.406,-0.260,-0.070
2.408,-0.200,-0.075
2.410,-0.165,-0.075
2.412,-0.090,-0.075
2.414,-0.160,-0.070
2.416,-0.225,-0.070
2.418,-0.265,-0.070
2.420,-0.310,-0.075
2.422,-0.340,-0.085
2.424,-0.290,-0.100
2.426,-0.275,-0.120
2.428,-0.300,-0.140
2.430,-0.295,-0.160
2.432,-0.255,-0.175
2.434,-0.290,-0.180
2.436,-0.335,-0.175
2.438,-0.315,-0.150
2.440,-0.295,-0.110
2.442,-0.275,-0.050
2.444,-0.210,0.030
2.446,-0.055,0.125
2.448,0.115,0.235
2.450,0.305,0.360
2.452,0.420,0.495
2.454,0.550,0.635
2.456,0.700,0.775
2.458,0.775,0.910
2.460,0.850,1.020
2.462,0.915,1.105
2.464,0.955,1.155
2.466,1.035,1.155
2.468,1.045,1.115
2.470,0.970,1.030
2.472,0.865,0.905
2.474,0.665,0.755
2.476,0.375,0.595
2.478,0.200,0.435
2.480,-0.020,0.290
2.482,-0.155,0.175
2.484,-0.180,0.090
2.486,-0.125,0.030
2.488,-0.115,0.005
2.490,-0.100,-0.005
2.492,-0.055,-0.005
2.494,-0.120,-0.005
2.496,-0.200,-0.010
2.498,-0.230,-0.020
2.500,-0.265,-0.035
2.502,-0.295,-0.055
2.504,-0.325,-0.080
2.506,-0.260,-0.095
2.508,-0.250,-0.110
2.510,-0.175,-0.115
2.512,-0.150,-0.115
2.514,-0.165,-0.110
2.516,-0.245,-0.105
2.518,-0.290,-0.095
2.520,-0.385,-0.095
2.522,-0.345,-0.095
2.524,-0.300,-0.095
2.526,-0.270,-0.100
2.528,-0.225,-0.110
2.530,-0.195,-0.115
2.532,-0.200,-0.120
2.534,-0.210,-0.120
2.536,-0.280,-0.125
2.538,-0.325,-0.120
2.540,-0.345,-0.115
2.542,-0.345,-0.110
2.544,-0.320,-0.100
2.546,-0.215,-0.095
2.548,-0.215,-0.085
2.550,-0.150,-0.075
2.552,-0.160,-0.070
2.554,-0.200,-0.065
2.556,-0.225,-0.065
2.558,-0.285,-0.070
2.560,-0.335,-0.075
2.562,-0.350,-0.080
2.564,-0.305,-0.090
2.566,-0.200,-0.095
2.568,-0.225,-0.100
2.570,-0.165,-0.100
2.572,-0.175,-0.100
2.574,-0.195,-0.095
2.576,-0.275,-0.090
2.578,-0.305,-0.085
2.580,-0.345,-0.080
2.582,-0.350,-0.080
2.584,-0.305,-0.075
2.586,-0.225,-0.075
2.588,-0.190,-0.080
2.590,-0.090,-0.080
2.592,-0.085,-0.080
2.594,-0.205,-0.080
2.596,-0.265,-0.080
2.598,-0.275,-0.075
2.600,-0.370,-0.075
2.602,-0.350,-0.075
2.604,-0.280,-0.075
2.606,-0.215,-0.075
2.608,-0.185,-0.080
2.610,-0.130,-0.085
2.612,-0.170,-0.090
2.614,-0.210,-0.090
2.616,-0.265,-0.090
2.618,-0.280,-0.080
2.620,-0.295,-0.075
2.622,-0.270,-0.065
2.624,-0.235,-0.055
2.626,-0.190,-0.045
2.628,-0.165,-0.045
2.630,-0.085,-0.045
2.632,-0.155,-0.050
2.634,-0.250,-0.060
2.636,-0.265,-0.070
2.638,-0.275,-0.075
2.640,-0.355,-0.075
2.642,-0.280,-0.065
2.644,-0.245,-0.050
2.646,-0.140,-0.025
2.648,-0.090,-0.005
2.650,-0.040,0.020
2.652,-0.030,0.035
2.654,-0.075,0.045
2.656,-0.190,0.045
2.658,-0.190,0.040
2.660,-0.255,0.030
2.662,-0.230,0.020
2.664,-0.170,0.015
2.666,-0.115,0.010
2.668,-0.080,0.015
2.670,-0.040,0.025
2.672,-0.075,0.040
2.674,-0.085,0.055
2.676,-0.110,0.070
2.678,-0.175,0.080
2.680,-0.210,0.085
2.682,-0.150,0.085
2.684,-0.105,0.080
2.686,-0.070,0.075
2.688,-0.055,0.070
2.690,-0.015,0.065
2.692,-0.020,0.065
2.694,-0.075,0.070
2.696,-0.125,0.070
2.698,-0.155,0.075
2.700,-0.190,0.080
2.702,-0.195,0.080
2.704,-0.155,0.080
2.706,-0.005,0.080
2.708,-0.005,0.080
2.710,0.025,0.075
2.712,-0.030,0.075
2.714,-0.070,0.070
2.716,-0.125,0.070
2.718,-0.180,0.065
2.720,-0.205,0.060
2.722,-0.170,0.055
2.724,-0.140,0.050
2.726,-0.090,0.045
2.728,-0.040,0.040
2.730,0.005,0.035
2.732,-0.055,0.025
2.734,-0.175,0.020
2.736,-0.230,0.015
2.738,-0.215,0.010
2.740,-0.260,0.000
2.742,-0.235,-0.015
2.744,-0.200,-0.025
2.746,-0.220,-0.045
2.748,-0.195,-0.060
2.750,-0.160,-0.075
2.752,-0.210,-0.085
2.754,-0.235,-0.090
2.756,-0.265,-0.085
2.758,-0.295,-0.080
2.760,-0.315,-0.065
2.762,-0.270,-0.050
2.764,-0.200,-0.035
2.766,-0.165,-0.025
2.768,-0.155,-0.015
2.770,-0.120,-0.015
2.772,-0.155,-0.025
2.774,-0.225,-0.035
2.776,-0.285,-0.045
2.778,-0.290,-0.055
2.780,-0.290,-0.060
2.782,-0.285,-0.065
2.784,-0.240,-0.065
2.786,-0.210,-0.060
2.788,-0.165,-0.055
2.790,-0.160,-0.050
2.792,-0.160,-0.050
2.794,-0.235,-0.055
2.796,-0.300,-0.060
2.798,-0.300,-0.065
2.800,-0.320,-0.075
2.802,-0.300,-0.080
2.804,-0.250,-0.080
2.806,-0.180,-0.080
2.808,-0.130,-0.070
2.810,-0.120,-0.060
2.812,-0.200,-0.050
2.814,-0.200,-0.040
2.816,-0.240,-0.030
2.818,-0.320,-0.025
2.820,-0.295,-0.030
2.822,-0.215,-0.035
2.824,-0.200,-0.050
2.826,-0.210,-0.060
2.828,-0.170,-0.075
2.830,-0.195,-0.085
2.832,-0.245,-0.090
2.834,-0.285,-0.090
2.836,-0.305,-0.085
2.838,-0.345,-0.080
2.840,-0.295,-0.070
2.842,-0.270,-0.060
2.844,-0.220,-0.055
2.846,-0.155,-0.050
2.848,-0.095,-0.045
2.850,-0.160,-0.050
2.852,-0.190,-0.055
2.854,-0.250,-0.060
2.856,-0.305,-0.070
2.858,-0.375,-0.075
2.860,-0.330,-0.080
2.862,-0.310,-0.085
2.864,-0.235,-0.090
2.866,-0.200,-0.085
2.868,-0.170,-0.080
2.870,-0.205,-0.075
2.872,-0.195,-0.065
2.874,-0.255,-0.055
2.876,-0.240,-0.045
2.878,-0.310,-0.040
2.880,-0.320,-0.040
2.882,-0.280,-0.040
2.884,-0.220,-0.045
2.886,-0.195,-0.050
2.888,-0.140,-0.060
2.890,-0.160,-0.065
2.892,-0.190,-0.065
2.894,-0.255,-0.065
2.896,-0.280,-0.060
2.898,-0.335,-0.055
2.900,-0.310,-0.050
2.902,-0.270,-0.045
2.904,-0.190,-0.040
2.906,-0.155,-0.040
2.908,-0.105,-0.040
2.910,-0.110,-0.045
2.912,-0.150,-0.050
2.914,-0.265,-0.055
2.916,-0.260,-0.055
2.918,-0.390,-0.060
2.920,-0.335,-0.060
2.922,-0.290,-0.055
2.924,-0.225,-0.050
2.926,-0.150,-0.045
2.928,-0.075,-0.035
2.930,-0.085,-0.030
2.932,-0.165,-0.020
2.934,-0.240,-0.015
2.936,-0.255,-0.015
2.938,-0.305,-0.010
2.940,-0.290,-0.010
2.942,-0.255,-0.015
2.944,-0.125,-0.020
2.946,-0.160,-0.025
2.948,-0.130,-0.025
2.950,-0.130,-0.030
2.952,-0.160,-0.030
2.954,-0.205,-0.030
2.956,-0.245,-0.025
2.958,-0.280,-0.015
2.960,-0.245,-0.005
2.962,-0.210,0.000
2.964,-0.170,0.010
2.966,-0.155,0.010
2.968,-0.095,0.010
2.970,-0.130,0.005
2.972,-0.160,-0.005
2.974,-0.220,-0.020
2.976,-0.240,-0.030
2.978,-0.315,-0.040
2.980,-0.320,-0.045
2.982,-0.300,-0.045
2.984,-0.250,-0.045
2.986,-0.155,-0.035
2.988,-0.090,-0.030
2.990,-0.100,-0.020
2.992,-0.145,-0.015
2.994,-0.225,-0.015
2.996,-0.285,-0.020
2.998,-0.340,-0.030
3.000,-0.305,-0.040
3.002,-0.285,-0.055
3.004,-0.255,-0.065
3.006,-0.195,-0.075
3.008,-0.145,-0.080
3.010,-0.160,-0.085
3.012,-0.200,-0.080
3.014,-0.260,-0.080
3.016,-0.315,-0.075
3.018,-0.330,-0.070
3.020,-0.325,-0.070
3.022,-0.260,-0.070
3.024,-0.260,-0.070
3.026,-0.225,-0.075
3.028,-0.185,-0.080
3.030,-0.170,-0.080
3.032,-0.215,-0.080
3.034,-0.320,-0.080
3.036,-0.355,-0.070
3.038,-0.325,-0.060
3.040,-0.310,-0.050
3.042,-0.210,-0.040
3.044,-0.170,-0.040
3.046,-0.135,-0.040
3.048,-0.165,-0.050
3.050,-0.180,-0.070
3.052,-0.295,-0.100
3.054,-0.410,-0.135
3.056,-0.460,-0.170
3.058,-0.475,-0.200
3.060,-0.505,-0.220
3.062,-0.385,-0.215
3.064,-0.305,-0.190
3.066,-0.230,-0.135
3.068,-0.185,-0.050
3.070,-0.075,0.060
3.072,-0.010,0.195
3.074,0.145,0.340
3.076,0.235,0.495
3.078,0.385,0.650
3.080,0.580,0.800
3.082,0.820,0.935
3.084,0.975,1.050
3.086,1.080,1.140
3.088,1.140,1.205
3.090,1.140,1.235
3.092,1.065,1.225
3.094,0.975,1.180
3.096,0.805,1.090
3.098,0.670,0.965
3.100,0.565,0.815
3.102,0.465,0.650
3.104,0.330,0.480
3.106,0.155,0.325
3.108,0.025,0.195
3.110,-0.135,0.095
3.112,-0.200,0.030
3.114,-0.195,-0.010
3.116,-0.245,-0.025
3.118,-0.290,-0.025
3.120,-0.315,-0.025
3.122,-0.240,-0.025
3.124,-0.200,-0.030
3.126,-0.130,-0.045
3.128,-0.185,-0.065
3.130,-0.230,-0.080
3.132,-0.300,-0.095
3.134,-0.325,-0.105
3.136,-0.385,-0.105
3.138,-0.375,-0.105
3.140,-0.350,-0.095
3.142,-0.320,-0.090
3.144,-0.285,-0.085
3.146,-0.165,-0.085
3.148,-0.190,-0.085
3.150,-0.220,-0.085
3.152,-0.315,-0.085
3.154,-0.315,-0.085
3.156,-0.330,-0.080
3.158,-0.315,-0.075
3.160,-0.300,-0.075
3.162,-0.260,-0.075
3.164,-0.275,-0.080
3.166,-0.210,-0.085
3.168,-0.235,-0.095
3.170,-0.265,-0.100
3.172,-0.320,-0.110
3.174,-0.350,-0.110
3.176,-0.380,-0.105
3.178,-0.320,-0.095
3.180,-0.310,-0.085
3.182,-0.280,-0.075
3.184,-0.250,-0.075
3.186,-0.195,-0.075
3.188,-0.205,-0.080
3.190,-0.275,-0.090
3.192,-0.310,-0.100
3.194,-0.375,-0.110
3.196,-0.395,-0.110
3.198,-0.330,-0.105
3.200,-0.305,-0.095
3.202,-0.235,-0.080
3.204,-0.225,-0.065
3.206,-0.140,-0.055
3.208,-0.200,-0.050
3.210,-0.245,-0.055
3.212,-0.295,-0.065
3.214,-0.305,-0.075
3.216,-0.405,-0.090
3.218,-0.410,-0.105
3.220,-0.315,-0.115
3.222,-0.240,-0.115
3.224,-0.215,-0.115
3.226,-0.195,-0.105
3.228,-0.215,-0.090
3.230,-0.230,-0.075
3.232,-0.305,-0.065
3.234,-0.300,-0.055
3.236,-0.330,-0.050
3.238,-0.315,-0.045
3.240,-0.265,-0.045
3.242,-0.245,-0.050
3.244,-0.225,-0.050
3.246,-0.165,-0.055
3.248,-0.170,-0.055
3.250,-0.200,-0.055
3.252,-0.225,-0.055
3.254,-0.280,-0.055
3.256,-0.355,-0.055
3.258,-0.330,-0.055
3.260,-0.285,-0.055
3.262,-0.225,-0.050
3.264,-0.195,-0.045
3.266,-0.125,-0.040
3.268,-0.145,-0.030
3.270,-0.160,-0.015
3.272,-0.200,-0.005
3.274,-0.245,0.005
3.276,-0.255,0.010
3.278,-0.265,0.015
3.280,-0.245,0.015
3.282,-0.185,0.010
3.284,-0.150,0.005
3.286,-0.095,-0.005
3.288,-0.125,-0.010
3.290,-0.180,-0.010
3.292,-0.215,-0.005
3.294,-0.240,0.000
3.296,-0.240,0.015
3.298,-0.210,0.030
3.300,-0.150,0.045
3.302,-0.070,0.060
3.304,-0.045,0.070
3.306,-0.045,0.080
3.308,-0.100,0.080
3.310,-0.090,0.080
3.312,-0.145,0.075
3.314,-0.215,0.075
3.316,-0.200,0.070
3.318,-0.160,0.070
3.320,-0.130,0.070
3.322,-0.085,0.075
3.324,-0.005,0.085
3.326,0.025,0.090
3.328,-0.025,0.095
3.330,-0.125,0.095
3.332,-0.175,0.095
3.334,-0.195,0.085
3.336,-0.215,0.080
3.338,-0.130,0.075
3.340,-0.125,0.065
3.342,-0.105,0.065
3.344,-0.105,0.065
3.346,-0.040,0.065
3.348,-0.055,0.065
3.350,-0.120,0.065
3.352,-0.200,0.060
3.354,-0.235,0.055
3.356,-0.230,0.040
3.358,-0.235,0.025
3.360,-0.195,0.010
3.362,-0.190,-0.005
3.364,-0.150,-0.020
3.366,-0.150,-0.030
3.368,-0.185,-0.035
3.370,-0.245,-0.040
3.372,-0.265,-0.040
3.374,-0.315,-0.035
3.376,-0.350,-0.035
3.378,-0.280,-0.030
3.380,-0.230,-0.035
3.382,-0.190,-0.035
3.384,-0.155,-0.040
3.386,-0.155,-0.045
3.388,-0.205,-0.045
3.390,-0.240,-0.050
3.392,-0.280,-0.050
3.394,-0.325,-0.050
3.396,-0.340,-0.050
3.398,-0.300,-0.050
3.400,-0.255,-0.050
3.402,-0.225,-0.050
3.404,-0.170,-0.055
3.406,-0.180,-0.055
3.408,-0.190,-0.055
3.410,-0.265,-0.055
3.412,-0.265,-0.055
3.414,-0.340,-0.055
3.416,-0.285,-0.055
3.418,-0.310,-0.055
3.420,-0.305,-0.060
3.422,-0.230,-0.060
3.424,-0.195,-0.065
3.426,-0.195,-0.065
3.428,-0.245,-0.065
3.430,-0.285,-0.060
3.432,-0.325,-0.055
3.434,-0.305,-0.050
3.436,-0.290,-0.045
3.438,-0.255,-0.035
3.440,-0.200,-0.035
3.442,-0.170,-0.035
3.444,-0.130,-0.035
3.446,-0.185,-0.040
3.448,-0.220,-0.050
3.450,-0.305,-0.060
3.452,-0.310,-0.065
3.454,-0.365,-0.070
3.456,-0.310,-0.070
3.458,-0.290,-0.065
3.460,-0.225,-0.060
3.462,-0.190,-0.055
3.464,-0.110,-0.050
3.466,-0.115,-0.050
3.468,-0.205,-0.055
3.470,-0.305,-0.060
3.472,-0.405,-0.075
3.474,-0.445,-0.085
3.476,-0.395,-0.100
3.478,-0.335,-0.105
3.480,-0.250,-0.110
3.482,-0.235,-0.110
3.484,-0.150,-0.105
3.486,-0.205,-0.100
3.488,-0.240,-0.090
3.490,-0.310,-0.075
3.492,-0.325,-0.065
3.494,-0.335,-0.055
3.496,-0.315,-0.045
3.498,-0.215,-0.040
3.500,-0.190,-0.040
3.502,-0.185,-0.040
3.504,-0.160,-0.040
3.506,-0.185,-0.045
3.508,-0.225,-0.045
3.510,-0.280,-0.050
3.512,-0.310,-0.055
3.514,-0.350,-0.065
3.516,-0.315,-0.070
3.518,-0.320,-0.075
3.520,-0.220,-0.080
3.522,-0.170,-0.085
3.524,-0.210,-0.090
3.526,-0.225,-0.090
3.528,-0.255,-0.085
3.530,-0.290,-0.080
3.532,-0.285,-0.075
3.534,-0.335,-0.070
3.536,-0.375,-0.060
3.538,-0.300,-0.055
3.540,-0.200,-0.050
3.542,-0.175,-0.050
3.544,-0.135,-0.050
3.546,-0.190,-0.055
3.548,-0.265,-0.055
3.550,-0.295,-0.060
3.552,-0.275,-0.065
3.554,-0.340,-0.065
3.556,-0.320,-0.065
3.558,-0.270,-0.065
3.560,-0.240,-0.065
3.562,-0.225,-0.065
3.564,-0.190,-0.065
3.566,-0.190,-0.065
3.568,-0.230,-0.065
3.570,-0.270,-0.060
3.572,-0.290,-0.055
3.574,-0.345,-0.050
3.576,-0.300,-0.045
3.578,-0.205,-0.035
3.580,-0.180,-0.035
3.582,-0.180,-0.030
3.584,-0.210,-0.035
3.586,-0.195,-0.040
3.588,-0.260,-0.050
3.590,-0.305,-0.060
3.592,-0.335,-0.065
3.594,-0.330,-0.070
3.596,-0.290,-0.070
3.598,-0.220,-0.070
3.600,-0.185,-0.060
3.602,-0.175,-0.050
3.604,-0.165,-0.040
3.606,-0.210,-0.030
3.608,-0.220,-0.020
3.610,-0.240,-0.015
3.612,-0.260,-0.010
3.614,-0.295,-0.010
3.616,-0.270,-0.005
3.618,-0.220,-0.005
3.620,-0.115,0.000
3.622,-0.100,0.005
3.624,-0.110,0.010
3.626,-0.160,0.015
3.628,-0.225,0.020
3.630,-0.230,0.015
3.632,-0.270,0.010
3.634,-0.285,0.000
3.636,-0.270,-0.015
3.638,-0.220,-0.030
3.640,-0.160,-0.045
3.642,-0.185,-0.055
3.644,-0.180,-0.070
3.646,-0.235,-0.075
3.648,-0.280,-0.080
3.650,-0.335,-0.075
3.652,-0.335,-0.075
3.654,-0.325,-0.070
3.656,-0.280,-0.065
3.658,-0.230,-0.055
3.660,-0.180,-0.055
3.662,-0.180,-0.050
3.664,-0.160,-0.050
3.666,-0.210,-0.050
3.668,-0.275,-0.050
3.670,-0.320,-0.055
3.672,-0.365,-0.060
3.674,-0.335,-0.070
3.676,-0.290,-0.080
3.678,-0.260,-0.085
3.680,-0.220,-0.090
3.682,-0.185,-0.090
3.684,-0.190,-0.085
3.686,-0.210,-0.080
3.688,-0.255,-0.070
3.690,-0.265,-0.060
3.692,-0.295,-0.050
3.694,-0.290,-0.045
3.696,-0.295,-0.050
3.698,-0.270,-0.060
3.700,-0.240,-0.070
3.702,-0.230,-0.085
3.704,-0.215,-0.100
3.706,-0.265,-0.110
3.708,-0.315,-0.115
3.710,-0.340,-0.115
3.712,-0.375,-0.115
3.714,-0.355,-0.115
3.716,-0.355,-0.120
3.718,-0.360,-0.130
3.720,-0.345,-0.150
3.722,-0.325,-0.175
3.724,-0.350,-0.190
3.726,-0.375,-0.200
3.728,-0.365,-0.185
3.730,-0.410,-0.145
3.732,-0.415,-0.075
3.734,-0.250,0.025
3.736,-0.050,0.155
3.738,0.170,0.305
3.740,0.370,0.470
3.742,0.560,0.640
3.744,0.645,0.805
3.746,0.845,0.955
3.748,0.930,1.080
3.750,0.990,1.175
3.752,1.010,1.235
3.754,1.060,1.255
3.756,1.100,1.235
3.758,1.045,1.165
3.760,0.925,1.060
3.762,0.815,0.925
3.764,0.585,0.760
3.766,0.365,0.595
3.768,0.150,0.430
3.770,-0.035,0.285
3.772,-0.160,0.170
3.774,-0.185,0.090
3.776,-0.155,0.040
3.778,-0.110,0.015
3.780,-0.065,0.010
3.782,-0.045,0.010
3.784,-0.125,0.005
3.786,-0.200,-0.005
3.788,-0.350,-0.030
3.790,-0.370,-0.060
3.792,-0.405,-0.095
3.794,-0.385,-0.130
3.796,-0.345,-0.150
3.798,-0.315,-0.165
3.800,-0.280,-0.165
3.802,-0.220,-0.155
3.804,-0.270,-0.135
3.806,-0.310,-0.120
3.808,-0.335,-0.105
3.810,-0.330,-0.095
3.812,-0.320,-0.095
3.814,-0.340,-0.100
3.816,-0.300,-0.105
3.818,-0.240,-0.115
3.820,-0.260,-0.125
3.822,-0.290,-0.135
3.824,-0.305,-0.140
3.826,-0.320,-0.150
3.828,-0.370,-0.155
3.830,-0.380,-0.160
3.832,-0.430,-0.160
3.834,-0.435,-0.155
3.836,-0.365,-0.150
3.838,-0.270,-0.135
3.840,-0.240,-0.120
3.842,-0.170,-0.100
3.844,-0.180,-0.085
3.846,-0.240,-0.070
3.848,-0.305,-0.065
3.850,-0.355,-0.065
3.852,-0.400,-0.075
3.854,-0.380,-0.090
3.856,-0.315,-0.105
3.858,-0.270,-0.125
3.860,-0.285,-0.135
3.862,-0.230,-0.140
3.864,-0.245,-0.135
3.866,-0.310,-0.125
3.868,-0.325,-0.110
3.870,-0.345,-0.095
3.872,-0.360,-0.085
3.874,-0.330,-0.075
3.876,-0.305,-0.075
3.878,-0.250,-0.080
3.880,-0.240,-0.090
3.882,-0.235,-0.105
3.884,-0.260,-0.115
3.886,-0.310,-0.125
3.888,-0.350,-0.130
3.890,-0.400,-0.125
3.892,-0.420,-0.115
3.894,-0.345,-0.105
3.896,-0.235,-0.090
3.898,-0.215,-0.070
3.900,-0.225,-0.055
3.902,-0.130,-0.045
3.904,-0.140,-0.035
3.906,-0.215,-0.035
3.908,-0.230,-0.035
3.910,-0.350,-0.045
3.912,-0.335,-0.060
3.914,-0.310,-0.075
3.916,-0.270,-0.090
3.918,-0.290,-0.105
3.920,-0.245,-0.115
3.922,-0.230,-0.120
3.924,-0.250,-0.115
3.926,-0.315,-0.105
3.928,-0.305,-0.090
3.930,-0.305,-0.070
3.932,-0.280,-0.045
3.934,-0.265,-0.025
3.936,-0.160,-0.010
3.938,-0.150,0.000
3.940,-0.115,0.000
3.942,-0.150,-0.005
3.944,-0.210,-0.020
3.946,-0.250,-0.035
3.948,-0.265,-0.045
3.950,-0.320,-0.050
3.952,-0.300,-0.050
3.954,-0.250,-0.040
3.956,-0.145,-0.020
3.958,-0.120,0.000
3.960,-0.085,0.025
3.962,-0.075,0.050
3.964,-0.055,0.070
3.966,-0.120,0.080
3.968,-0.170,0.085
3.970,-0.245,0.080
3.972,-0.195,0.070
3.974,-0.170,0.055
3.976,-0.120,0.040
3.978,-0.120,0.030
3.980,-0.080,0.020
3.982,-0.075,0.020
3.984,-0.135,0.020
3.986,-0.195,0.025
3.988,-0.215,0.030
3.990,-0.250,0.035
3.992,-0.220,0.040
3.994,-0.165,0.045
3.996,-0.115,0.045
3.998,-0.075,0.045
4.000,-0.050,0.045
4.002,-0.045,0.045
4.004,-0.115,0.045
4.006,-0.190,0.040
4.008,-0.205,0.040
4.010,-0.260,0.030
4.012,-0.240,0.025
4.014,-0.200,0.015
4.016,-0.125,0.005
4.018,-0.140,-0.005
4.020,-0.105,-0.010
4.022,-0.160,-0.010
4.024,-0.145,-0.010
4.026,-0.195,-0.005
4.028,-0.220,-0.005
4.030,-0.255,0.000
4.032,-0.270,0.000
4.034,-0.255,-0.005
4.036,-0.205,-0.015
4.038,-0.190,-0.025
4.040,-0.110,-0.045
4.042,-0.185,-0.060
4.044,-0.235,-0.070
4.046,-0.265,-0.080
4.048,-0.295,-0.080
4.050,-0.335,-0.075
4.052,-0.320,-0.065
4.054,-0.280,-0.055
4.056,-0.195,-0.045
4.058,-0.170,-0.040
4.060,-0.125,-0.035
4.062,-0.160,-0.040
4.064,-0.215,-0.050
4.066,-0.295,-0.065
4.068,-0.330,-0.085
4.070,-0.395,-0.100
4.072,-0.375,-0.115
4.074,-0.335,-0.130
4.076,-0.270,-0.135
4.078,-0.265,-0.135
4.080,-0.210,-0.130
4.082,-0.240,-0.125
4.084,-0.285,-0.110
4.086,-0.310,-0.095
4.088,-0.305,-0.080
4.090,-0.340,-0.065
4.092,-0.285,-0.055
4.094,-0.210,-0.050
4.096,-0.160,-0.045
4.098,-0.180,-0.050
4.100,-0.140,-0.055
4.102,-0.195,-0.065
4.104,-0.285,-0.070
4.106,-0.325,-0.075
4.108,-0.320,-0.075
4.110,-0.325,-0.070
4.112,-0.295,-0.065
4.114,-0.250,-0.050
4.116,-0.210,-0.040
4.118,-0.120,-0.030
4.120,-0.065,-0.020
4.122,-0.155,-0.020
4.124,-0.240,-0.025
4.126,-0.270,-0.035
4.128,-0.270,-0.045
4.130,-0.325,-0.060
4.132,-0.310,-0.075
4.134,-0.305,-0.085
4.136,-0.270,-0.095
4.138,-0.240,-0.095
4.140,-0.200,-0.095
4.142,-0.200,-0.085
4.144,-0.180,-0.075
4.146,-0.245,-0.065
4.148,-0.280,-0.060
4.150,-0.290,-0.050
4.152,-0.275,-0.050
4.154,-0.245,-0.050
4.156,-0.235,-0.060
4.158,-0.210,-0.065
4.160,-0.200,-0.080
4.162,-0.225,-0.090
4.164,-0.285,-0.095
4.166,-0.335,-0.095
4.168,-0.345,-0.095
4.170,-0.325,-0.085
4.172,-0.255,-0.075
4.174,-0.190,-0.060
4.176,-0.155,-0.045
4.178,-0.115,-0.035
4.180,-0.145,-0.030
4.182,-0.185,-0.030
4.184,-0.240,-0.035
4.186,-0.315,-0.040
4.188,-0.305,-0.050
4.190,-0.325,-0.055
4.192,-0.290,-0.060
4.194,-0.245,-0.060
4.196,-0.210,-0.055
4.198,-0.180,-0.050
4.200,-0.120,-0.040
4.202,-0.095,-0.030
4.204,-0.180,-0.025
4.206,-0.235,-0.020
4.208,-0.300,-0.020
4.210,-0.300,-0.025
4.212,-0.255,-0.030
4.214,-0.225,-0.040
4.216,-0.195,-0.045
4.218,-0.175,-0.050
4.220,-0.160,-0.055
4.222,-0.160,-0.060
4.224,-0.250,-0.060
4.226,-0.295,-0.060
4.228,-0.330,-0.065
4.230,-0.290,-0.065
4.232,-0.260,-0.070
4.234,-0.215,-0.075
4.236,-0.165,-0.075
4.238,-0.210,-0.075
4.240,-0.200,-0.075
4.242,-0.190,-0.065
4.244,-0.255,-0.060
4.246,-0.255,-0.050
4.248,-0.330,-0.040
4.250,-0.290,-0.035
4.252,-0.225,-0.035
4.254,-0.185,-0.035
4.256,-0.160,-0.040
4.258,-0.175,-0.050
4.260,-0.190,-0.055
4.262,-0.195,-0.060
4.264,-0.270,-0.055
4.266,-0.275,-0.050
4.268,-0.255,-0.040
4.270,-0.235,-0.030
4.272,-0.220,-0.020
4.274,-0.155,-0.010
4.276,-0.125,-0.010
4.278,-0.095,-0.015
4.280,-0.155,-0.025
4.282,-0.195,-0.040
4.284,-0.230,-0.050
4.286,-0.310,-0.060
4.288,-0.325,-0.065
4.290,-0.300,-0.060
4.292,-0.215,-0.050
4.294,-0.135,-0.030
4.296,-0.120,-0.015
4.298,-0.105,0.000
4.300,-0.100,0.015
4.302,-0.150,0.020
4.304,-0.205,0.015
4.306,-0.270,0.005
4.308,-0.295,-0.005
4.310,-0.270,-0.015
4.312,-0.260,-0.025
4.314,-0.205,-0.025
4.316,-0.165,-0.020
4.318,-0.080,-0.010
4.320,-0.065,0.000
4.322,-0.100,0.015
4.324,-0.150,0.020
4.326,-0.220,0.025
4.328,-0.295,0.020
4.330,-0.245,0.010
4.332,-0.195,-0.005
4.334,-0.190,-0.020
4.336,-0.170,-0.030
4.338,-0.120,-0.040
4.340,-0.145,-0.045
4.342,-0.200,-0.045
4.344,-0.265,-0.045
4.346,-0.295,-0.040
4.348,-0.315,-0.040
4.350,-0.285,-0.040
4.352,-0.250,-0.045
4.354,-0.180,-0.050
4.356,-0.160,-0.055
4.358,-0.160,-0.055
4.360,-0.160,-0.055
4.362,-0.210,-0.050
4.364,-0.270,-0.045
4.366,-0.240,-0.035
4.368,-0.285,-0.025
4.370,-0.260,-0.025
4.372,-0.230,-0.025
4.374,-0.140,-0.030
4.376,-0.155,-0.035
4.378,-0.135,-0.045
4.380,-0.175,-0.055
4.382,-0.220,-0.060
4.384,-0.255,-0.065
4.386,-0.285,-0.065
4.388,-0.340,-0.060
4.390,-0.255,-0.055
4.392,-0.235,-0.050
4.394,-0.220,-0.050
4.396,-0.180,-0.050
4.398,-0.150,-0.055
4.400,-0.155,-0.055
4.402,-0.240,-0.060
4.404,-0.325,-0.065
4.406,-0.285,-0.065
4.408,-0.310,-0.070
4.410,-0.285,-0.070
4.412,-0.240,-0.080
4.414,-0.215,-0.090
4.416,-0.180,-0.110
4.418,-0.235,-0.130
4.420,-0.340,-0.155
4.422,-0.395,-0.175
4.424,-0.435,-0.190
4.426,-0.415,-0.190
4.428,-0.420,-0.170
4.430,-0.330,-0.130
4.432,-0.265,-0.065
4.434,-0.135,0.020
4.436,0.035,0.135
4.438,0.225,0.265
4.440,0.310,0.405
4.442,0.360,0.560
4.444,0.480,0.710
4.446,0.660,0.855
4.448,0.775,0.985
4.450,0.930,1.085
4.452,1.065,1.155
4.454,1.145,1.180
4.456,1.085,1.160
4.458,0.965,1.100
4.460,0.850,0.990
4.462,0.710,0.850
4.464,0.490,0.690
4.466,0.220,0.525
4.468,0.050,0.365
4.470,-0.095,0.225
4.472,-0.105,0.110
4.474,-0.140,0.030
4.476,-0.065,-0.015
4.478,-0.090,-0.040
4.480,-0.195,-0.045
4.482,-0.235,-0.040
4.484,-0.295,-0.040
4.486,-0.295,-0.040
4.488,-0.330,-0.045
4.490,-0.290,-0.060
4.492,-0.260,-0.075
4.494,-0.225,-0.090
4.496,-0.190,-0.105
4.498,-0.155,-0.105
4.500,-0.170,-0.105
4.502,-0.290,-0.095
4.504,-0.360,-0.085
4.506,-0.330,-0.070
4.508,-0.290,-0.060
4.510,-0.270,-0.055
4.512,-0.235,-0.060
4.514,-0.210,-0.065
4.516,-0.190,-0.070
4.518,-0.185,-0.080
4.520,-0.230,-0.090
4.522,-0.285,-0.095
4.524,-0.290,-0.100
4.526,-0.350,-0.105
4.528,-0.340,-0.105
4.530,-0.290,-0.105
4.532,-0.270,-0.100
4.534,-0.210,-0.100
4.536,-0.190,-0.095
4.538,-0.200,-0.095
4.540,-0.245,-0.095
4.542,-0.295,-0.095
4.544,-0.340,-0.095
4.546,-0.360,-0.095
4.548,-0.325,-0.100
4.550,-0.270,-0.100
4.552,-0.230,-0.100
4.554,-0.235,-0.100
4.556,-0.205,-0.095
4.558,-0.225,-0.090
4.560,-0.210,-0.085
4.562,-0.250,-0.080
4.564,-0.285,-0.075
4.566,-0.310,-0.065
4.568,-0.280,-0.060
4.570,-0.200,-0.050
4.572,-0.180,-0.045
4.574,-0.220,-0.040
4.576,-0.140,-0.035
4.578,-0.120,-0.030
4.580,-0.155,-0.035
4.582,-0.265,-0.045
4.584,-0.320,-0.060
4.586,-0.375,-0.075
4.588,-0.315,-0.085
4.590,-0.250,-0.095
4.592,-0.220,-0.095
4.594,-0.145,-0.085
4.596,-0.130,-0.065
4.598,-0.160,-0.040
4.600,-0.320,-0.015
4.602,-0.300,0.005
4.604,-0.175,0.020
4.606,-0.135,0.020
4.608,-0.100,0.005
4.610,-0.145,-0.020
4.612,-0.190,-0.050
4.614,-0.265,-0.075
4.616,-0.280,-0.090
4.618,-0.290,-0.090
4.620,-0.285,-0.075
4.622,-0.245,-0.045
4.624,-0.165,-0.010
4.626,-0.165,0.020
4.628,-0.025,0.045
4.630,-0.035,0.060
4.632,-0.100,0.060
4.634,-0.165,0.050
4.636,-0.190,0.030
4.638,-0.245,0.010
4.640,-0.225,-0.005
4.642,-0.200,-0.010
4.644,-0.120,-0.005
4.646,-0.110,0.010
4.648,-0.020,0.030
4.650,-0.075,0.055
4.652,-0.075,0.075
4.654,-0.090,0.090
4.656,-0.155,0.100
4.658,-0.170,0.100
4.660,-0.100,0.100
4.662,-0.070,0.100
4.664,-0.020,0.095
4.666,-0.050,0.090
4.668,-0.015,0.085
4.670,-0.035,0.080
4.672,-0.060,0.080
4.674,-0.150,0.075
4.676,-0.105,0.070
4.678,-0.180,0.070
4.680,-0.170,0.075
4.682,-0.085,0.080
4.684,-0.010,0.090
4.686,-0.025,0.100
4.688,0.050,0.110
4.690,0.000,0.110
4.692,-0.070,0.110
4.694,-0.135,0.100
4.696,-0.155,0.085
4.698,-0.220,0.065
4.700,-0.185,0.045
4.702,-0.150,0.030
4.704,-0.100,0.020
4.706,-0.115,0.015
4.708,-0.065,0.020
4.710,-0.035,0.035
4.712,-0.085,0.045
4.714,-0.140,0.060
4.716,-0.185,0.065
4.718,-0.205,0.065
4.720,-0.195,0.060
4.722,-0.150,0.045
4.724,-0.120,0.030
4.726,-0.100,0.015
4.728,-0.080,0.000
4.730,-0.115,-0.005
4.732,-0.185,-0.010
4.734,-0.225,-0.010
4.736,-0.260,-0.005
4.738,-0.275,0.000
4.740,-0.230,0.005
4.742,-0.115,0.005
4.744,-0.100,0.005
4.746,-0.065,-0.005
4.748,-0.050,-0.010
4.750,-0.155,-0.025
4.752,-0.215,-0.035
4.754,-0.285,-0.045
4.756,-0.290,-0.055
4.758,-0.335,-0.065
4.760,-0.300,-0.075
4.762,-0.220,-0.080
4.764,-0.205,-0.085
4.766,-0.160,-0.090
4.768,-0.150,-0.085
4.770,-0.170,-0.080
4.772,-0.210,-0.070
4.774,-0.230,-0.055
4.776,-0.260,-0.040
4.778,-0.255,-0.030
4.780,-0.230,-0.015
4.782,-0.200,-0.010
4.784,-0.135,-0.010
4.786,-0.125,-0.015
4.788,-0.125,-0.025
4.790,-0.160,-0.035
4.792,-0.240,-0.045
4.794,-0.280,-0.050
4.796,-0.300,-0.050
4.798,-0.260,-0.045
4.800,-0.235,-0.035
4.802,-0.190,-0.025
4.804,-0.190,-0.015
4.806,-0.095,-0.010
4.808,-0.040,-0.010
4.810,-0.155,-0.015
4.812,-0.210,-0.020
4.814,-0.260,-0.030
4.816,-0.290,-0.040
4.818,-0.280,-0.050
4.820,-0.230,-0.055
4.822,-0.190,-0.055
4.824,-0.150,-0.055
4.826,-0.125,-0.050
4.828,-0.145,-0.045
4.830,-0.195,-0.035
4.832,-0.230,-0.030
4.834,-0.230,-0.020
4.836,-0.255,-0.020
4.838,-0.230,-0.015
4.840,-0.210,-0.015
4.842,-0.165,-0.020
4.844,-0.180,-0.025
4.846,-0.110,-0.030
4.848,-0.145,-0.035
4.850,-0.200,-0.045
4.852,-0.240,-0.055
4.854,-0.280,-0.060
4.856,-0.320,-0.060
4.858,-0.280,-0.055
4.860,-0.230,-0.045
4.862,-0.145,-0.035
4.864,-0.110,-0.020
4.866,-0.070,-0.010
4.868,-0.115,0.000
4.870,-0.135,0.000
4.872,-0.205,-0.005
4.874,-0.240,-0.020
4.876,-0.320,-0.035
4.878,-0.285,-0.055
4.880,-0.265,-0.070
4.882,-0.195,-0.080
4.884,-0.150,-0.080
4.886,-0.095,-0.065
4.888,-0.125,-0.050
4.890,-0.140,-0.025
4.892,-0.225,-0.005
4.894,-0.230,0.010
4.896,-0.270,0.020
4.898,-0.190,0.020
4.900,-0.180,0.010
4.902,-0.145,-0.005
4.904,-0.150,-0.025
4.906,-0.115,-0.040
4.908,-0.120,-0.050
4.910,-0.185,-0.055
4.912,-0.250,-0.050
4.914,-0.265,-0.040
4.916,-0.305,-0.030
4.918,-0.255,-0.020
4.920,-0.220,-0.010
4.922,-0.175,-0.010
4.924,-0.130,-0.010
4.926,-0.075,-0.015
4.928,-0.115,-0.025
4.930,-0.185,-0.035
4.932,-0.220,-0.040
4.934,-0.235,-0.045
4.936,-0.280,-0.045
4.938,-0.275,-0.040
4.940,-0.225,-0.040
4.942,-0.185,-0.035
4.944,-0.160,-0.035
4.946,-0.110,-0.040
4.948,-0.160,-0.050
4.950,-0.210,-0.055
4.952,-0.280,-0.065
4.954,-0.285,-0.075
4.956,-0.370,-0.075
4.958,-0.290,-0.075
4.960,-0.225,-0.065
4.962,-0.120,-0.055
4.964,-0.140,-0.040
4.966,-0.080,-0.025
4.968,-0.085,-0.015
4.970,-0.140,-0.005
4.972,-0.190,0.000
4.974,-0.225,0.005
4.976,-0.255,0.000
4.978,-0.210,0.000
4.980,-0.175,-0.005
4.982,-0.125,-0.005
4.984,-0.140,-0.005
4.986,-0.075,-0.005
4.988,-0.080,0.000
4.990,-0.110,0.005
4.992,-0.180,0.010
4.994,-0.205,0.010
4.996,-0.250,0.010
4.998,-0.210,0.005
5.000,-0.170,-0.005
5.002,-0.125,-0.015
5.004,-0.180,-0.030
5.006,-0.150,-0.040
5.008,-0.160,-0.050
5.010,-0.215,-0.055
5.012,-0.270,-0.060
5.014,-0.315,-0.060
5.016,-0.295,-0.055
5.018,-0.270,-0.050
5.020,-0.230,-0.045
5.022,-0.200,-0.045
5.024,-0.175,-0.050
5.026,-0.125,-0.055
5.028,-0.165,-0.065
5.030,-0.240,-0.070
5.032,-0.275,-0.080
5.034,-0.305,-0.085
5.036,-0.315,-0.085
5.038,-0.300,-0.085
5.040,-0.245,-0.080
5.042,-0.200,-0.075
5.044,-0.175,-0.065
5.046,-0.145,-0.065
5.048,-0.140,-0.060
5.050,-0.195,-0.060
5.052,-0.245,-0.060
5.054,-0.275,-0.060
5.056,-0.280,-0.060
5.058,-0.235,-0.060
5.060,-0.195,-0.060
5.062,-0.210,-0.060
5.064,-0.155,-0.060
5.066,-0.175,-0.065
5.068,-0.195,-0.070
5.070,-0.245,-0.075
5.072,-0.240,-0.075
5.074,-0.295,-0.080
5.076,-0.370,-0.075
5.078,-0.290,-0.075
5.080,-0.185,-0.070
5.082,-0.180,-0.065
5.084,-0.185,-0.070
5.086,-0.140,-0.085
5.088,-0.215,-0.110
5.090,-0.335,-0.140
5.092,-0.435,-0.170
5.094,-0.485,-0.200
5.096,-0.505,-0.215
5.098,-0.400,-0.210
5.100,-0.310,-0.175
5.102,-0.215,-0.115
5.104,-0.100,-0.025
5.106,0.005,0.090
5.108,0.105,0.225
5.110,0.250,0.370
5.112,0.330,0.510
5.114,0.385,0.650
5.116,0.575,0.780
5.118,0.725,0.890
5.120,0.885,0.980
5.122,0.980,1.045
5.124,1.070,1.080
5.126,1.035,1.085
5.128,0.955,1.055
5.130,0.785,0.990
5.132,0.690,0.890
5.134,0.490,0.765
5.136,0.390,0.620
5.138,0.220,0.470
5.140,0.120,0.330
5.142,0.020,0.205
5.144,0.010,0.110
5.146,-0.025,0.045
5.148,-0.085,0.010
5.150,-0.175,-0.005
5.152,-0.230,-0.010
5.154,-0.310,-0.010
5.156,-0.315,-0.015
5.158,-0.245,-0.030
5.160,-0.200,-0.050
5.162,-0.170,-0.075
5.164,-0.155,-0.100
5.166,-0.165,-0.115
5.168,-0.275,-0.125
5.170,-0.345,-0.120
5.172,-0.315,-0.110
5.174,-0.325,-0.090
5.176,-0.255,-0.075
5.178,-0.250,-0.065
5.180,-0.195,-0.060
5.182,-0.210,-0.070
5.184,-0.200,-0.080
5.186,-0.235,-0.100
5.188,-0.270,-0.115
5.190,-0.320,-0.125
5.192,-0.335,-0.125
5.194,-0.355,-0.120
5.196,-0.285,-0.115
5.198,-0.265,-0.100
5.200,-0.210,-0.090
5.202,-0.175,-0.080
5.204,-0.170,-0.075
5.206,-0.220,-0.075
5.208,-0.245,-0.075
5.210,-0.300,-0.080
5.212,-0.275,-0.085
5.214,-0.330,-0.090
5.216,-0.315,-0.090
5.218,-0.235,-0.085
5.220,-0.185,-0.080
5.222,-0.180,-0.075
5.224,-0.140,-0.070
5.226,-0.155,-0.070
5.228,-0.230,-0.065
5.230,-0.305,-0.065
5.232,-0.295,-0.060
5.234,-0.280,-0.060
5.236,-0.275,-0.060
5.238,-0.250,-0.065
5.240,-0.160,-0.065
5.242,-0.170,-0.070
5.244,-0.160,-0.070
5.246,-0.190,-0.075
5.248,-0.255,-0.080
5.250,-0.300,-0.085
5.252,-0.285,-0.090
5.254,-0.310,-0.090
5.256,-0.345,-0.090
5.258,-0.275,-0.090
5.260,-0.195,-0.090
5.262,-0.190,-0.085
5.264,-0.120,-0.080
5.266,-0.145,-0.070
5.268,-0.190,-0.060
5.270,-0.270,-0.050
5.272,-0.255,-0.045
5.274,-0.270,-0.040
5.276,-0.245,-0.035
5.278,-0.210,-0.035
5.280,-0.170,-0.040
5.282,-0.175,-0.050
5.284,-0.175,-0.055
5.286,-0.195,-0.060
5.288,-0.190,-0.065
5.290,-0.260,-0.065
5.292,-0.270,-0.060
5.294,-0.285,-0.050
5.296,-0.225,-0.035
5.298,-0.170,-0.020
5.300,-0.100,-0.005
5.302,-0.085,0.010
5.304,-0.085,0.020
5.306,-0.120,0.025
5.308,-0.135,0.030
5.310,-0.200,0.030
5.312,-0.170,0.030
5.314,-0.180,0.035
5.316,-0.145,0.035
5.318,-0.095,0.035
5.320,-0.085,0.040
5.322,-0.085,0.040
5.324,-0.105,0.040
5.326,-0.095,0.040
5.328,-0.095,0.035
5.330,-0.195,0.035
5.332,-0.190,0.035
5.334,-0.175,0.035
5.336,-0.145,0.040
5.338,-0.080,0.045
5.340,-0.015,0.055
5.342,0.010,0.070
5.344,-0.055,0.080
5.346,-0.050,0.090
5.348,-0.080,0.100
5.350,-0.120,0.105
5.352,-0.140,0.110
5.354,-0.095,0.115
5.356,-0.075,0.120
5.358,-0.010,0.120
5.360,0.025,0.120
5.362,0.020,0.120
5.364,-0.025,0.115
5.366,-0.065,0.105
5.368,-0.130,0.090
5.370,-0.150,0.080
5.372,-0.165,0.065
5.374,-0.175,0.050
5.376,-0.165,0.045
5.378,-0.075,0.040
5.380,-0.065,0.040
5.382,-0.050,0.045
5.384,-0.030,0.055
5.386,-0.085,0.065
5.388,-0.090,0.070
5.390,-0.120,0.075
5.392,-0.170,0.070
5.394,-0.185,0.065
5.396,-0.165,0.050
5.398,-0.105,0.035
5.400,-0.105,0.020
5.402,-0.070,0.010
5.404,-0.115,0.000
5.406,-0.155,-0.005
5.408,-0.205,-0.010
5.410,-0.250,-0.015
5.412,-0.290,-0.015
5.414,-0.285,-0.020
5.416,-0.245,-0.025
5.418,-0.175,-0.035
5.420,-0.160,-0.045
5.422,-0.110,-0.055
5.424,-0.130,-0.065
5.426,-0.195,-0.070
5.428,-0.255,-0.070
5.430,-0.320,-0.070
5.432,-0.345,-0.065
5.434,-0.285,-0.060
5.436,-0.250,-0.055
5.438,-0.170,-0.050
5.440,-0.160,-0.045
5.442,-0.090,-0.045
5.444,-0.125,-0.045
5.446,-0.205,-0.045
5.448,-0.245,-0.045
5.450,-0.265,-0.045
5.452,-0.305,-0.050
5.454,-0.280,-0.050
5.456,-0.225,-0.050
5.458,-0.170,-0.055
5.460,-0.165,-0.055
5.462,-0.135,-0.055
5.464,-0.160,-0.060
5.466,-0.235,-0.060
5.468,-0.285,-0.060
5.470,-0.280,-0.065
5.472,-0.320,-0.065
5.474,-0.250,-0.060
5.476,-0.240,-0.060
5.478,-0.175,-0.060
5.480,-0.160,-0.055
5.482,-0.125,-0.050
5.484,-0.150,-0.050
5.486,-0.205,-0.045
5.488,-0.275,-0.045
5.490,-0.260,-0.045
5.492,-0.350,-0.045
5.494,-0.255,-0.045
5.496,-0.190,-0.045
5.498,-0.155,-0.050
5.500,-0.115,-0.050
5.502,-0.095,-0.055
5.504,-0.170,-0.060
5.506,-0.230,-0.060
5.508,-0.290,-0.065
5.510,-0.285,-0.070
5.512,-0.330,-0.070
5.514,-0.315,-0.075
5.516,-0.265,-0.070
5.518,-0.185,-0.070
5.520,-0.150,-0.060
5.522,-0.100,-0.050
5.524,-0.120,-0.040
5.526,-0.155,-0.030
5.528,-0.200,-0.020
5.530,-0.250,-0.010
5.532,-0.290,-0.005
5.534,-0.240,-0.005
5.536,-0.205,-0.010
5.538,-0.150,-0.015
5.540,-0.170,-0.025
5.542,-0.155,-0.040
5.544,-0.185,-0.045
5.546,-0.215,-0.055
5.548,-0.250,-0.055
5.550,-0.240,-0.055
5.552,-0.280,-0.055
5.554,-0.255,-0.050
5.556,-0.245,-0.050
5.558,-0.185,-0.050
5.560,-0.150,-0.055
5.562,-0.155,-0.060
5.564,-0.220,-0.070
5.566,-0.265,-0.075
5.568,-0.305,-0.085
5.570,-0.330,-0.085
5.572,-0.310,-0.085
5.574,-0.255,-0.080
5.576,-0.190,-0.070
5.578,-0.165,-0.060
5.580,-0.155,-0.055
5.582,-0.130,-0.045
5.584,-0.190,-0.045
5.586,-0.230,-0.045
5.588,-0.240,-0.050
5.590,-0.290,-0.055
5.592,-0.325,-0.060
5.594,-0.285,-0.065
5.596,-0.220,-0.065
5.598,-0.150,-0.065
5.600,-0.115,-0.065
5.602,-0.115,-0.060
5.604,-0.145,-0.055
5.606,-0.230,-0.050
5.608,-0.255,-0.040
5.610,-0.320,-0.035
5.612,-0.350,-0.035
5.614,-0.275,-0.030
5.616,-0.185,-0.025
5.618,-0.120,-0.025
5.620,-0.085,-0.020
5.622,-0.060,-0.015
5.624,-0.135,-0.015
5.626,-0.165,-0.015
5.628,-0.255,-0.015
5.630,-0.285,-0.020
5.632,-0.310,-0.025
5.634,-0.290,-0.035
5.636,-0.245,-0.045
5.638,-0.215,-0.055
5.640,-0.165,-0.065
5.642,-0.145,-0.075
5.644,-0.175,-0.080
5.646,-0.220,-0.085
5.648,-0.255,-0.085
5.650,-0.345,-0.080
5.652,-0.340,-0.080
5.654,-0.315,-0.075
5.656,-0.240,-0.075
5.658,-0.190,-0.075
5.660,-0.140,-0.075
5.662,-0.180,-0.080
5.664,-0.180,-0.080
5.666,-0.300,-0.080
5.668,-0.300,-0.075
5.670,-0.290,-0.075
5.672,-0.290,-0.070
5.674,-0.245,-0.060
5.676,-0.185,-0.055
5.678,-0.135,-0.045
5.680,-0.105,-0.040
5.682,-0.130,-0.030
5.684,-0.175,-0.025
5.686,-0.220,-0.020
5.688,-0.220,-0.020
5.690,-0.275,-0.015
5.692,-0.255,-0.015
5.694,-0.225,-0.015
5.696,-0.140,-0.020
5.698,-0.150,-0.025
5.700,-0.130,-0.030
5.702,-0.125,-0.035
5.704,-0.150,-0.045
5.706,-0.235,-0.050
5.708,-0.290,-0.050
5.710,-0.340,-0.055
5.712,-0.320,-0.055
5.714,-0.250,-0.055
5.716,-0.230,-0.060
5.718,-0.185,-0.065
5.720,-0.150,-0.070
5.722,-0.185,-0.080
5.724,-0.230,-0.090
5.726,-0.285,-0.100
5.728,-0.330,-0.105
5.730,-0.335,-0.110
5.732,-0.320,-0.110
5.734,-0.325,-0.105
5.736,-0.250,-0.095
5.738,-0.210,-0.090
5.740,-0.155,-0.085
5.742,-0.170,-0.080
5.744,-0.235,-0.085
5.746,-0.295,-0.085
5.748,-0.350,-0.090
5.750,-0.365,-0.095
5.752,-0.315,-0.095
5.754,-0.285,-0.095
5.756,-0.210,-0.090
5.758,-0.200,-0.085
5.760,-0.170,-0.080
5.762,-0.200,-0.075
5.764,-0.225,-0.075
5.766,-0.300,-0.080
5.768,-0.320,-0.090
5.770,-0.375,-0.095
5.772,-0.335,-0.105
5.774,-0.300,-0.110
5.776,-0.260,-0.110
5.778,-0.210,-0.110
5.780,-0.190,-0.110
5.782,-0.235,-0.110
5.784,-0.285,-0.120
5.786,-0.355,-0.135
5.788,-0.420,-0.155
5.790,-0.480,-0.180
5.792,-0.510,-0.205
5.794,-0.480,-0.220
5.796,-0.335,-0.220
5.798,-0.290,-0.190
5.800,-0.225,-0.135
5.802,-0.180,-0.050
5.804,-0.105,0.060
5.806,0.005,0.195
5.808,0.145,0.340
5.810,0.210,0.495
5.812,0.405,0.650
5.814,0.635,0.790
5.816,0.830,0.920
5.818,0.955,1.030
5.820,1.100,1.115
5.822,1.135,1.170
5.824,1.085,1.190
5.826,0.980,1.175
5.828,0.895,1.125
5.830,0.715,1.030
5.832,0.650,0.905
5.834,0.570,0.755
5.836,0.435,0.595
5.838,0.275,0.430
5.840,0.140,0.285
5.842,-0.020,0.165
5.844,-0.115,0.075
5.846,-0.225,0.020
5.848,-0.220,-0.005
5.850,-0.295,-0.005
5.852,-0.255,0.005
5.854,-0.180,0.025
5.856,-0.070,0.045
5.858,-0.070,0.055
5.860,-0.005,0.060
5.862,-0.020,0.055
5.864,-0.085,0.050
5.866,-0.135,0.040
5.868,-0.210,0.035
5.870,-0.245,0.030
5.872,-0.265,0.020
5.874,-0.225,0.015
5.876,-0.175,0.005
5.878,-0.145,-0.005
5.880,-0.100,-0.015
5.882,-0.125,-0.030
5.884,-0.195,-0.040
5.886,-0.250,-0.050
5.888,-0.280,-0.050
5.890,-0.315,-0.055
5.892,-0.300,-0.050
5.894,-0.245,-0.045
5.896,-0.175,-0.040
5.898,-0.155,-0.035
5.900,-0.135,-0.035
5.902,-0.150,-0.040
5.904,-0.205,-0.045
5.906,-0.240,-0.055
5.908,-0.365,-0.065
5.910,-0.375,-0.080
5.912,-0.335,-0.090
5.914,-0.265,-0.105
5.916,-0.235,-0.115
5.918,-0.195,-0.130
5.920,-0.170,-0.140
5.922,-0.305,-0.145
5.924,-0.380,-0.155
5.926,-0.425,-0.160
5.928,-0.415,-0.165
5.930,-0.445,-0.165
5.932,-0.430,-0.170
5.934,-0.395,-0.175
5.936,-0.295,-0.175
5.938,-0.280,-0.180
5.940,-0.260,-0.185
5.942,-0.290,-0.185
5.944,-0.350,-0.180
5.946,-0.400,-0.180
5.948,-0.445,-0.170
5.950,-0.475,-0.160
5.952,-0.425,-0.150
5.954,-0.325,-0.140
5.956,-0.255,-0.135
5.958,-0.230,-0.125
5.960,-0.210,-0.125
5.962,-0.235,-0.120
5.964,-0.350,-0.120
5.966,-0.330,-0.120
5.968,-0.360,-0.115
5.970,-0.350,-0.110
5.972,-0.365,-0.110
5.974,-0.325,-0.105
5.976,-0.255,-0.105
5.978,-0.225,-0.110
5.980,-0.225,-0.115
5.982,-0.270,-0.120
5.984,-0.330,-0.125
5.986,-0.370,-0.130
5.988,-0.415,-0.125
5.990,-0.425,-0.120
5.992,-0.365,-0.110
5.994,-0.235,-0.095
5.996,-0.165,-0.080
5.998,-0.100,-0.065
6.000,-0.130,-0.050
6.002,-0.185,-0.045
6.004,-0.255,-0.045
6.006,-0.315,-0.050
6.008,-0.395,-0.055
6.010,-0.345,-0.065
6.012,-0.310,-0.070
6.014,-0.255,-0.075
6.016,-0.185,-0.075
6.018,-0.160,-0.075
6.020,-0.175,-0.065
6.022,-0.205,-0.055
6.024,-0.240,-0.040
6.026,-0.235,-0.030
6.028,-0.330,-0.015
6.030,-0.280,-0.005
6.032,-0.195,0.005
6.034,-0.150,0.010
6.036,-0.105,0.015
6.038,-0.065,0.020
6.040,-0.085,0.025
6.042,-0.150,0.025
6.044,-0.185,0.030
6.046,-0.215,0.030
6.048,-0.255,0.035
6.050,-0.200,0.045
6.052,-0.190,0.050
6.054,-0.090,0.060
6.056,-0.070,0.065
6.058,-0.030,0.075
6.060,-0.050,0.075
6.062,-0.065,0.075
6.064,-0.130,0.075
6.066,-0.185,0.065
6.068,-0.275,0.055
6.070,-0.250,0.045
6.072,-0.215,0.040
6.074,-0.110,0.030
6.076,-0.100,0.025
6.078,-0.060,0.025
6.080,-0.050,0.030
6.082,-0.060,0.030
6.084,-0.165,0.035
6.086,-0.225,0.035
6.088,-0.310,0.030
6.090,-0.280,0.025
6.092,-0.240,0.015
6.094,-0.200,0.005
6.096,-0.150,-0.010
6.098,-0.100,-0.020
6.100,-0.075,-0.030
6.102,-0.180,-0.035
6.104,-0.265,-0.045
6.106,-0.315,-0.045
6.108,-0.365,-0.050
6.110,-0.335,-0.050
6.112,-0.300,-0.050
6.114,-0.235,-0.055
6.116,-0.200,-0.055
6.118,-0.135,-0.060
6.120,-0.160,-0.060
6.122,-0.235,-0.065
6.124,-0.275,-0.065
6.126,-0.275,-0.065
6.128,-0.390,-0.065
6.130,-0.345,-0.065
6.132,-0.320,-0.060
6.134,-0.270,-0.060
6.136,-0.180,-0.060
6.138,-0.125,-0.055
6.140,-0.170,-0.055
6.142,-0.225,-0.055
6.144,-0.290,-0.055
6.146,-0.285,-0.055
6.148,-0.375,-0.055
6.150,-0.375,-0.060
6.152,-0.315,-0.060
6.154,-0.245,-0.060
6.156,-0.190,-0.060
6.158,-0.170,-0.065
6.160,-0.200,-0.065
6.162,-0.245,-0.065
6.164,-0.315,-0.070
6.166,-0.365,-0.070
6.168,-0.420,-0.075
6.170,-0.330,-0.075
6.172,-0.310,-0.080
6.174,-0.245,-0.080
6.176,-0.220,-0.080
6.178,-0.190,-0.085
6.180,-0.190,-0.085
6.182,-0.235,-0.085
6.184,-0.300,-0.085
6.186,-0.340,-0.090
6.188,-0.385,-0.090
6.190,-0.360,-0.090
6.192,-0.345,-0.090
6.194,-0.275,-0.090
6.196,-0.200,-0.085
6.198,-0.170,-0.080
6.200,-0.225,-0.075
6.202,-0.235,-0.070
6.204,-0.255,-0.060
6.206,-0.305,-0.055
6.208,-0.360,-0.050
6.210,-0.370,-0.050
6.212,-0.340,-0.055
6.214,-0.250,-0.060
6.216,-0.200,-0.070
6.218,-0.145,-0.080
6.220,-0.210,-0.090
6.222,-0.245,-0.095
6.224,-0.340,-0.095
6.226,-0.420,-0.090
6.228,-0.390,-0.080
6.230,-0.365,-0.070
6.232,-0.260,-0.060
6.234,-0.205,-0.055
6.236,-0.170,-0.055
6.238,-0.165,-0.055
6.240,-0.220,-0.060
6.242,-0.280,-0.070
6.244,-0.330,-0.080
6.246,-0.390,-0.085
6.248,-0.390,-0.090
6.250,-0.350,-0.085
6.252,-0.285,-0.080
6.254,-0.185,-0.070
6.256,-0.160,-0.060
6.258,-0.150,-0.050
6.260,-0.160,-0.040
6.262,-0.210,-0.040
6.264,-0.310,-0.040
6.266,-0.370,-0.045
6.268,-0.355,-0.055
6.270,-0.355,-0.070
6.272,-0.295,-0.080
6.274,-0.245,-0.085
6.276,-0.165,-0.090
6.278,-0.190,-0.085
6.280,-0.215,-0.080
6.282,-0.290,-0.070
6.284,-0.320,-0.060
6.286,-0.375,-0.050
6.288,-0.310,-0.040
6.290,-0.290,-0.030
6.292,-0.230,-0.025
6.294,-0.200,-0.030
6.296,-0.165,-0.035
6.298,-0.170,-0.040
6.300,-0.195,-0.050
6.302,-0.260,-0.060
6.304,-0.295,-0.065
6.306,-0.400,-0.065
6.308,-0.355,-0.065
6.310,-0.290,-0.060
6.312,-0.250,-0.055
6.314,-0.200,-0.045
6.316,-0.125,-0.040
6.318,-0.170,-0.035
6.320,-0.180,-0.030
6.322,-0.240,-0.035
6.324,-0.275,-0.035
6.326,-0.365,-0.040
6.328,-0.335,-0.045
6.330,-0.330,-0.050
6.332,-0.260,-0.050
6.334,-0.210,-0.045
6.336,-0.140,-0.045
6.338,-0.135,-0.035
6.340,-0.115,-0.030
6.342,-0.215,-0.020
6.344,-0.280,-0.015
6.346,-0.350,-0.010
6.348,-0.315,-0.010
6.350,-0.305,-0.015
6.352,-0.220,-0.015
6.354,-0.195,-0.020
6.356,-0.105,-0.025
6.358,-0.145,-0.030
6.360,-0.195,-0.030
6.362,-0.235,-0.030
6.364,-0.260,-0.030
6.366,-0.330,-0.020
6.368,-0.345,-0.015
6.370,-0.335,-0.005
6.372,-0.220,0.005
6.374,-0.155,0.015
6.376,-0.055,0.025
6.378,-0.060,0.030
6.380,-0.115,0.040
6.382,-0.185,0.045
6.384,-0.210,0.050
6.386,-0.260,0.055
6.388,-0.270,0.055
6.390,-0.270,0.060
6.392,-0.165,0.060
6.394,-0.090,0.060
6.396,-0.005,0.060
6.398,-0.040,0.060
6.400,-0.095,0.060
6.402,-0.145,0.055
6.404,-0.215,0.055
6.406,-0.275,0.055
6.408,-0.245,0.050
6.410,-0.195,0.050
6.412,-0.130,0.045
6.414,-0.125,0.045
6.416,-0.045,0.045
6.418,-0.075,0.045
6.420,-0.120,0.040
6.422,-0.205,0.040
6.424,-0.225,0.040
6.426,-0.265,0.035
6.428,-0.265,0.030
6.430,-0.245,0.025
6.432,-0.170,0.015
6.434,-0.180,0.005
6.436,-0.115,0.000
6.438,-0.115,-0.010
6.440,-0.175,-0.015
6.442,-0.265,-0.015
6.444,-0.315,-0.020
6.446,-0.355,-0.015
6.448,-0.320,-0.015
6.450,-0.265,-0.010
6.452,-0.200,-0.005
6.454,-0.180,-0.005
6.456,-0.110,-0.005
6.458,-0.120,-0.010
6.460,-0.220,-0.015
6.462,-0.235,-0.020
6.464,-0.305,-0.025
6.466,-0.365,-0.035
6.468,-0.355,-0.040
6.470,-0.300,-0.045
6.472,-0.230,-0.050
6.474,-0.210,-0.050
6.476,-0.155,-0.050
6.478,-0.145,-0.045
6.480,-0.185,-0.040
6.482,-0.260,-0.030
6.484,-0.305,-0.025
6.486,-0.355,-0.015
6.488,-0.315,-0.010
6.490,-0.225,-0.015
6.492,-0.225,-0.025
6.494,-0.210,-0.040
6.496,-0.155,-0.065
6.498,-0.220,-0.095
6.500,-0.325,-0.125
6.502,-0.425,-0.150
6.504,-0.495,-0.165
6.506,-0.540,-0.160
6.508,-0.450,-0.140
6.510,-0.325,-0.090
6.512,-0.250,-0.020
6.514,-0.060,0.075
6.516,0.065,0.195
6.518,0.270,0.325
6.520,0.300,0.465
6.522,0.400,0.610
6.524,0.500,0.755
6.526,0.585,0.895
6.528,0.720,1.015
6.530,0.905,1.120
6.532,1.060,1.195
6.534,1.175,1.240
6.536,1.230,1.250
6.538,1.140,1.215
6.540,0.935,1.140
6.542,0.790,1.030
6.544,0.600,0.885
6.546,0.385,0.725
6.548,0.170,0.555
6.550,0.070,0.390
6.552,0.000,0.250
6.554,-0.045,0.135
6.556,-0.065,0.055
6.558,-0.135,0.005
6.560,-0.220,-0.015
6.562,-0.250,-0.020
6.564,-0.330,-0.010
6.566,-0.345,0.000
6.568,-0.325,0.005
6.570,-0.265,0.005
6.572,-0.210,-0.005
6.574,-0.125,-0.025
6.576,-0.150,-0.040
6.578,-0.180,-0.060
6.580,-0.275,-0.075
6.582,-0.330,-0.080
6.584,-0.430,-0.085
6.586,-0.415,-0.080
6.588,-0.400,-0.075
6.590,-0.310,-0.070
6.592,-0.260,-0.070
6.594,-0.150,-0.065
6.596,-0.145,-0.065
6.598,-0.175,-0.060
6.600,-0.240,-0.060
6.602,-0.340,-0.065
6.604,-0.390,-0.065
6.606,-0.415,-0.065
6.608,-0.380,-0.070
6.610,-0.295,-0.075
6.612,-0.245,-0.075
6.614,-0.185,-0.080
6.616,-0.225,-0.075
6.618,-0.235,-0.070
6.620,-0.265,-0.065
6.622,-0.250,-0.055
6.624,-0.350,-0.050
6.626,-0.385,-0.050
6.628,-0.410,-0.050
6.630,-0.315,-0.060
6.632,-0.245,-0.075
6.634,-0.175,-0.090
6.636,-0.235,-0.105
6.638,-0.290,-0.115
6.640,-0.310,-0.120
6.642,-0.335,-0.115
6.644,-0.445,-0.110
6.646,-0.405,-0.095
6.648,-0.395,-0.080
6.650,-0.310,-0.070
6.652,-0.275,-0.060
6.654,-0.135,-0.060
6.656,-0.165,-0.060
6.658,-0.225,-0.065
6.660,-0.325,-0.075
6.662,-0.355,-0.080
6.664,-0.430,-0.085
6.666,-0.385,-0.085
6.668,-0.355,-0.085
6.670,-0.275,-0.080
6.672,-0.280,-0.075
6.674,-0.195,-0.070
6.676,-0.180,-0.070
6.678,-0.205,-0.065
6.680,-0.255,-0.060
6.682,-0.310,-0.060
6.684,-0.390,-0.055
6.686,-0.350,-0.050
6.688,-0.345,-0.045
6.690,-0.315,-0.040
6.692,-0.220,-0.040
6.694,-0.165,-0.045
6.696,-0.200,-0.045
6.698,-0.220,-0.050
6.700,-0.280,-0.050
6.702,-0.345,-0.050
6.704,-0.380,-0.050
6.706,-0.340,-0.045
6.708,-0.300,-0.035
6.710,-0.225,-0.030
6.712,-0.200,-0.025
6.714,-0.140,-0.020
6.716,-0.135,-0.020
6.718,-0.180,-0.020
6.720,-0.275,-0.025
6.722,-0.325,-0.030
6.724,-0.335,-0.025
6.726,-0.335,-0.025
6.728,-0.285,-0.015
6.730,-0.205,-0.005
6.732,-0.165,0.005
6.734,-0.085,0.015
6.736,-0.110,0.020
6.738,-0.165,0.020
6.740,-0.250,0.015
6.742,-0.295,0.010
6.744,-0.355,0.005
6.746,-0.325,0.000
6.748,-0.235,0.000
6.750,-0.185,0.005
6.752,-0.120,0.020
6.754,-0.045,0.040
6.756,-0.020,0.060
6.758,-0.070,0.075
6.760,-0.170,0.095
6.762,-0.215,0.105
6.764,-0.245,0.110
6.766,-0.215,0.110
6.768,-0.195,0.100
6.770,-0.125,0.095
6.772,-0.065,0.085
6.774,-0.025,0.075
6.776,-0.050,0.065
6.778,-0.125,0.055
6.780,-0.195,0.050
6.782,-0.285,0.045
6.784,-0.310,0.045
6.786,-0.260,0.040
6.788,-0.200,0.040
6.790,-0.130,0.040
6.792,-0.125,0.040
6.794,-0.070,0.045
6.796,-0.090,0.045
6.798,-0.120,0.040
6.800,-0.145,0.040
6.802,-0.235,0.030
6.804,-0.355,0.020
6.806,-0.330,0.005
6.808,-0.320,-0.010
6.810,-0.265,-0.025
6.812,-0.200,-0.035
6.814,-0.110,-0.045
6.816,-0.185,-0.055
6.818,-0.205,-0.055
6.820,-0.275,-0.055
6.822,-0.360,-0.050
6.824,-0.405,-0.045
6.826,-0.370,-0.045
6.828,-0.315,-0.050
6.830,-0.260,-0.055
6.832,-0.215,-0.060
6.834,-0.205,-0.070
6.836,-0.225,-0.075
6.838,-0.305,-0.080
6.840,-0.335,-0.080
6.842,-0.410,-0.075
6.844,-0.380,-0.065
6.846,-0.355,-0.055
6.848,-0.310,-0.045
6.850,-0.255,-0.040
6.852,-0.160,-0.035
6.854,-0.170,-0.040
6.856,-0.215,-0.050
6.858,-0.300,-0.065
6.860,-0.355,-0.075
6.862,-0.405,-0.090
6.864,-0.400,-0.095
6.866,-0.390,-0.095
6.868,-0.315,-0.090
6.870,-0.250,-0.080
6.872,-0.180,-0.065
6.874,-0.170,-0.050
6.876,-0.230,-0.040
6.878,-0.310,-0.035
6.880,-0.270,-0.035
6.882,-0.380,-0.040
6.884,-0.410,-0.050
6.886,-0.355,-0.060
6.888,-0.290,-0.065
6.890,-0.265,-0.075
6.892,-0.185,-0.075
6.894,-0.170,-0.070
6.896,-0.200,-0.065
6.898,-0.265,-0.055
6.900,-0.325,-0.050
6.902,-0.395,-0.050
6.904,-0.375,-0.050
6.906,-0.380,-0.060
6.908,-0.330,-0.070
6.910,-0.295,-0.080
6.912,-0.225,-0.090
6.914,-0.235,-0.100
6.916,-0.230,-0.100
6.918,-0.290,-0.095
6.920,-0.365,-0.085
6.922,-0.445,-0.075
6.924,-0.395,-0.065
6.926,-0.360,-0.055
6.928,-0.300,-0.055
6.930,-0.250,-0.055
6.932,-0.160,-0.065
6.934,-0.205,-0.070
6.936,-0.240,-0.075
6.938,-0.315,-0.080
6.940,-0.355,-0.075
6.942,-0.455,-0.070
6.944,-0.385,-0.060
6.946,-0.350,-0.055
6.948,-0.290,-0.045
6.950,-0.190,-0.040
6.952,-0.170,-0.045
6.954,-0.160,-0.050
6.956,-0.230,-0.055
6.958,-0.290,-0.065
6.960,-0.310,-0.070
6.962,-0.410,-0.075
6.964,-0.415,-0.075
6.966,-0.350,-0.070
6.968,-0.265,-0.060
6.970,-0.235,-0.050
6.972,-0.165,-0.045
6.974,-0.190,-0.040
6.976,-0.190,-0.035
6.978,-0.245,-0.035
6.980,-0.285,-0.040
6.982,-0.335,-0.040
6.984,-0.345,-0.045
6.986,-0.405,-0.050
6.988,-0.295,-0.055
6.990,-0.255,-0.060
6.992,-0.190,-0.065
6.994,-0.205,-0.070
6.996,-0.270,-0.080
6.998,-0.315,-0.085
7.000,-0.330,-0.090
7.002,-0.420,-0.090
7.004,-0.385,-0.085
7.006,-0.340,-0.080
7.008,-0.290,-0.070
7.010,-0.270,-0.060
7.012,-0.175,-0.055
7.014,-0.180,-0.050
7.016,-0.225,-0.045
7.018,-0.285,-0.050
7.020,-0.345,-0.055
7.022,-0.435,-0.060
7.024,-0.410,-0.070
7.026,-0.340,-0.070
7.028,-0.315,-0.070
7.030,-0.270,-0.065
7.032,-0.140,-0.060
7.034,-0.170,-0.055
7.036,-0.195,-0.045
7.038,-0.260,-0.045
7.040,-0.340,-0.045
7.042,-0.435,-0.045
7.044,-0.405,-0.050
7.046,-0.345,-0.060
7.048,-0.280,-0.065
7.050,-0.205,-0.070
7.052,-0.140,-0.070
7.054,-0.165,-0.070
7.056,-0.275,-0.065
7.058,-0.350,-0.060
7.060,-0.350,-0.055
7.062,-0.440,-0.055
7.064,-0.370,-0.050
7.066,-0.305,-0.050
7.068,-0.210,-0.045
7.070,-0.140,-0.040
7.072,-0.100,-0.035
7.074,-0.160,-0.030
7.076,-0.225,-0.025
7.078,-0.280,-0.025
7.080,-0.350,-0.020
7.082,-0.390,-0.020
7.084,-0.390,-0.025
7.086,-0.310,-0.035
7.088,-0.215,-0.040
7.090,-0.170,-0.045
7.092,-0.140,-0.050
7.094,-0.150,-0.050
7.096,-0.205,-0.045
7.098,-0.275,-0.035
7.100,-0.335,-0.025
7.102,-0.390,-0.020
7.104,-0.345,-0.015
7.106,-0.290,-0.015
7.108,-0.225,-0.015
7.110,-0.185,-0.025
7.112,-0.175,-0.035
7.114,-0.210,-0.045
7.116,-0.245,-0.055
7.118,-0.300,-0.060
7.120,-0.375,-0.055
7.122,-0.380,-0.050
7.124,-0.335,-0.040
7.126,-0.245,-0.030
7.128,-0.230,-0.025
7.130,-0.180,-0.025
7.132,-0.180,-0.030
7.134,-0.210,-0.045
7.136,-0.305,-0.060
7.138,-0.355,-0.080
7.140,-0.435,-0.095
7.142,-0.430,-0.105
7.144,-0.405,-0.105
7.146,-0.330,-0.100
7.148,-0.260,-0.090
7.150,-0.195,-0.070
7.152,-0.140,-0.050
7.154,-0.185,-0.035
7.156,-0.270,-0.025
7.158,-0.315,-0.025
7.160,-0.400,-0.030
7.162,-0.385,-0.040
7.164,-0.320,-0.060
7.166,-0.305,-0.080
7.168,-0.305,-0.095
7.170,-0.235,-0.105
7.172,-0.220,-0.105
7.174,-0.215,-0.100
7.176,-0.275,-0.085
7.178,-0.340,-0.070
7.180,-0.400,-0.055
7.182,-0.400,-0.045
7.184,-0.370,-0.040
7.186,-0.315,-0.045
7.188,-0.255,-0.065
7.190,-0.220,-0.090
7.192,-0.275,-0.120
7.194,-0.355,-0.150
7.196,-0.435,-0.175
7.198,-0.490,-0.190
7.200,-0.550,-0.185
7.202,-0.525,-0.160
7.204,-0.390,-0.115
7.206,-0.260,-0.055
7.208,-0.165,0.025
7.210,0.015,0.120
7.212,0.100,0.225
7.214,0.200,0.335
7.216,0.240,0.455
7.218,0.300,0.570
7.220,0.345,0.690
7.222,0.505,0.800
7.224,0.630,0.900
7.226,0.805,0.985
7.228,0.900,1.040
7.230,1.025,1.060
7.232,0.935,1.040
7.234,0.810,0.975
7.236,0.635,0.875
7.238,0.465,0.740
7.240,0.220,0.590
7.242,0.025,0.430
7.244,-0.105,0.285
7.246,-0.130,0.155
7.248,-0.185,0.055
7.250,-0.100,-0.010
7.252,-0.130,-0.045
7.254,-0.220,-0.060
7.256,-0.305,-0.060
7.258,-0.405,-0.055
7.260,-0.410,-0.050
7.262,-0.445,-0.055
7.264,-0.370,-0.065
7.266,-0.250,-0.075
7.268,-0.245,-0.090
7.270,-0.180,-0.105
7.272,-0.245,-0.110
7.274,-0.295,-0.110
7.276,-0.340,-0.105
7.278,-0.335,-0.095
7.280,-0.450,-0.085
7.282,-0.505,-0.080
7.284,-0.415,-0.080
7.286,-0.325,-0.080
7.288,-0.255,-0.090
7.290,-0.165,-0.095
7.292,-0.215,-0.100
7.294,-0.255,-0.105
7.296,-0.330,-0.105
7.298,-0.370,-0.105
7.300,-0.480,-0.105
7.302,-0.470,-0.100
7.304,-0.390,-0.100
7.306,-0.340,-0.105
7.308,-0.260,-0.105
7.310,-0.205,-0.105
7.312,-0.220,-0.105
7.314,-0.285,-0.100
7.316,-0.350,-0.090
7.318,-0.375,-0.085
7.320,-0.435,-0.075
7.322,-0.445,-0.070
7.324,-0.375,-0.065
7.326,-0.275,-0.070
7.328,-0.190,-0.075
7.330,-0.125,-0.080
7.332,-0.195,-0.090
7.334,-0.305,-0.095
7.336,-0.375,-0.100
7.338,-0.430,-0.100
7.340,-0.470,-0.095
7.342,-0.410,-0.085
7.344,-0.320,-0.075
7.346,-0.255,-0.070
7.348,-0.210,-0.065
7.350,-0.205,-0.065
7.352,-0.235,-0.065
7.354,-0.280,-0.070
7.356,-0.305,-0.080
7.358,-0.365,-0.085
7.360,-0.475,-0.090
7.362,-0.425,-0.090
7.364,-0.370,-0.085
7.366,-0.300,-0.080
7.368,-0.225,-0.075
7.370,-0.160,-0.070
7.372,-0.175,-0.070
7.374,-0.235,-0.065
7.376,-0.375,-0.070
7.378,-0.410,-0.070
7.380,-0.430,-0.075
7.382,-0.410,-0.080
7.384,-0.355,-0.085
7.386,-0.290,-0.085
7.388,-0.225,-0.085
7.390,-0.170,-0.075
7.392,-0.230,-0.065
7.394,-0.245,-0.055
7.396,-0.305,-0.040
7.398,-0.315,-0.030
7.400,-0.380,-0.020
7.402,-0.335,-0.015
7.404,-0.260,-0.010
7.406,-0.230,-0.010
7.408,-0.155,-0.010
7.410,-0.155,-0.015
7.412,-0.165,-0.015
7.414,-0.230,-0.010
7.416,-0.265,0.000
7.418,-0.300,0.010
7.420,-0.280,0.025
7.422,-0.270,0.040
7.424,-0.200,0.050
7.426,-0.155,0.055
7.428,-0.110,0.055
7.430,-0.110,0.050
7.432,-0.155,0.040
7.434,-0.180,0.030
7.436,-0.235,0.025
7.438,-0.325,0.020
7.440,-0.280,0.030
7.442,-0.300,0.040
7.444,-0.205,0.060
7.446,-0.125,0.085
7.448,-0.010,0.105
7.450,-0.020,0.120
7.452,0.010,0.130
7.454,-0.040,0.125
7.456,-0.105,0.120
7.458,-0.295,0.105
7.460,-0.305,0.085
7.462,-0.255,0.075
7.464,-0.220,0.060
7.466,-0.160,0.060
7.468,-0.065,0.060
7.470,-0.050,0.065
7.472,-0.075,0.070
7.474,-0.145,0.080
7.476,-0.180,0.085
7.478,-0.255,0.085
7.480,-0.270,0.085
7.482,-0.255,0.080
7.484,-0.195,0.075
7.486,-0.145,0.065
7.488,-0.055,0.060
7.490,-0.065,0.055
7.492,-0.125,0.045
7.494,-0.215,0.040
7.496,-0.290,0.035
7.498,-0.370,0.030
7.500,-0.315,0.025
7.502,-0.285,0.025
7.504,-0.235,0.025
7.506,-0.215,0.030
7.508,-0.080,0.035
7.510,-0.055,0.035
7.512,-0.085,0.035
7.514,-0.175,0.030
7.516,-0.230,0.015
7.518,-0.360,0.000
7.520,-0.440,-0.025
7.522,-0.410,-0.045
7.524,-0.325,-0.065
7.526,-0.290,-0.080
7.528,-0.200,-0.090
7.530,-0.185,-0.090
7.532,-0.215,-0.085
7.534,-0.305,-0.075
7.536,-0.350,-0.060
7.538,-0.410,-0.050
7.540,-0.360,-0.045
7.542,-0.365,-0.040
7.544,-0.300,-0.045
7.546,-0.285,-0.055
7.548,-0.175,-0.065
7.550,-0.205,-0.075
7.552,-0.230,-0.080
7.554,-0.320,-0.080
7.556,-0.350,-0.080
7.558,-0.450,-0.075
7.560,-0.445,-0.065
7.562,-0.360,-0.060
7.564,-0.255,-0.050
7.566,-0.255,-0.045
7.568,-0.120,-0.045
7.570,-0.180,-0.045
7.572,-0.230,-0.045
7.574,-0.290,-0.050
7.576,-0.310,-0.050
7.578,-0.405,-0.055
7.580,-0.400,-0.055
7.582,-0.360,-0.060
7.584,-0.285,-0.060
7.586,-0.260,-0.060
7.588,-0.180,-0.060
7.590,-0.190,-0.060
7.592,-0.240,-0.060
7.594,-0.300,-0.065
7.596,-0.340,-0.065
7.598,-0.415,-0.065
7.600,-0.430,-0.065
7.602,-0.385,-0.070
7.604,-0.305,-0.070
7.606,-0.275,-0.075
7.608,-0.195,-0.080
7.610,-0.205,-0.085
7.612,-0.290,-0.090
7.614,-0.335,-0.090
7.616,-0.390,-0.095
7.618,-0.465,-0.090
7.620,-0.420,-0.090
7.622,-0.375,-0.080
7.624,-0.290,-0.075
7.626,-0.250,-0.065
7.628,-0.140,-0.055
7.630,-0.165,-0.050
7.632,-0.290,-0.050
7.634,-0.335,-0.050
7.636,-0.385,-0.055
7.638,-0.435,-0.060
7.640,-0.420,-0.065
7.642,-0.305,-0.070
7.644,-0.300,-0.070
7.646,-0.240,-0.075
7.648,-0.170,-0.070
7.650,-0.230,-0.065
7.652,-0.250,-0.060
7.654,-0.320,-0.050
7.656,-0.370,-0.040
7.658,-0.440,-0.035
7.660,-0.365,-0.030
7.662,-0.280,-0.030
7.664,-0.220,-0.030
7.666,-0.210,-0.030
7.668,-0.155,-0.035
7.670,-0.165,-0.035
7.672,-0.260,-0.040
7.674,-0.320,-0.040
7.676,-0.350,-0.040
7.678,-0.400,-0.040
7.680,-0.360,-0.035
7.682,-0.330,-0.030
7.684,-0.235,-0.030
7.686,-0.200,-0.025
7.688,-0.180,-0.030
7.690,-0.190,-0.035
7.692,-0.245,-0.040
7.694,-0.350,-0.050
7.696,-0.425,-0.060
7.698,-0.460,-0.070
7.700,-0.405,-0.075
7.702,-0.370,-0.080
7.704,-0.275,-0.075
7.706,-0.220,-0.065
7.708,-0.170,-0.055
7.710,-0.165,-0.040
7.712,-0.260,-0.025
7.714,-0.265,-0.015
7.716,-0.375,-0.010
7.718,-0.365,-0.010
7.720,-0.355,-0.020
7.722,-0.340,-0.035
7.724,-0.260,-0.050
7.726,-0.245,-0.065
7.728,-0.225,-0.080
7.730,-0.230,-0.085
7.732,-0.320,-0.085
7.734,-0.350,-0.075
7.736,-0.415,-0.065
7.738,-0.380,-0.045
7.740,-0.340,-0.025
7.742,-0.245,-0.010
7.744,-0.225,0.000
7.746,-0.150,0.005
7.748,-0.115,0.000
7.750,-0.150,-0.010
7.752,-0.265,-0.020
7.754,-0.320,-0.030
7.756,-0.415,-0.035
7.758,-0.405,-0.035
7.760,-0.340,-0.030
7.762,-0.275,-0.015
7.764,-0.190,0.000
7.766,-0.105,0.015
7.768,-0.095,0.025
7.770,-0.110,0.035
7.772,-0.205,0.035
7.774,-0.295,0.025
7.776,-0.390,0.015
7.778,-0.380,-0.005
7.780,-0.355,-0.025
7.782,-0.305,-0.040
7.784,-0.295,-0.055
7.786,-0.205,-0.060
7.788,-0.180,-0.060
7.790,-0.220,-0.055
7.792,-0.285,-0.050
7.794,-0.310,-0.040
7.796,-0.405,-0.030
7.798,-0.385,-0.030
7.800,-0.320,-0.030
7.802,-0.290,-0.030
7.804,-0.275,-0.040
7.806,-0.180,-0.045
7.808,-0.210,-0.055
7.810,-0.260,-0.060
7.812,-0.300,-0.060
7.814,-0.300,-0.060
7.816,-0.410,-0.060
7.818,-0.445,-0.060
7.820,-0.395,-0.065
7.822,-0.310,-0.065
7.824,-0.285,-0.070
7.826,-0.205,-0.080
7.828,-0.215,-0.085
7.830,-0.245,-0.085
7.832,-0.305,-0.085
7.834,-0.370,-0.085
7.836,-0.450,-0.075
7.838,-0.420,-0.065
7.840,-0.405,-0.050
7.842,-0.295,-0.040
7.844,-0.230,-0.025
7.846,-0.110,-0.015
7.848,-0.160,-0.010
7.850,-0.220,-0.015
7.852,-0.285,-0.020
7.854,-0.335,-0.030
7.856,-0.410,-0.050
7.858,-0.445,-0.075
7.860,-0.405,-0.105
7.862,-0.360,-0.135
7.864,-0.405,-0.165
7.866,-0.370,-0.185
7.868,-0.400,-0.195
7.870,-0.385,-0.185
7.872,-0.430,-0.160
7.874,-0.400,-0.110
7.876,-0.440,-0.035
7.878,-0.305,0.065
7.880,-0.105,0.175
7.882,0.095,0.305
7.884,0.250,0.445
7.886,0.475,0.585
7.888,0.610,0.725
7.890,0.705,0.855
7.892,0.780,0.970
7.894,0.795,1.065
7.896,0.805,1.135
7.898,0.860,1.165
7.900,0.910,1.160
7.902,0.925,1.115
7.904,0.825,1.030
7.906,0.785,0.905
7.908,0.625,0.760
7.910,0.365,0.595
7.912,0.110,0.435
7.914,-0.090,0.285
7.916,-0.295,0.160
7.918,-0.345,0.065
7.920,-0.280,0.005
7.922,-0.245,-0.030
7.924,-0.210,-0.035
7.926,-0.160,-0.030
7.928,-0.185,-0.020
7.930,-0.245,-0.010
7.932,-0.315,-0.005
7.934,-0.395,-0.015
7.936,-0.440,-0.025
7.938,-0.420,-0.045
7.940,-0.365,-0.065
7.942,-0.245,-0.085
7.944,-0.240,-0.095
7.946,-0.215,-0.105
7.948,-0.260,-0.105
7.950,-0.360,-0.100
7.952,-0.415,-0.095
7.954,-0.440,-0.090
7.956,-0.420,-0.085
7.958,-0.385,-0.080
7.960,-0.325,-0.075
7.962,-0.265,-0.075
7.964,-0.255,-0.075
7.966,-0.205,-0.080
7.968,-0.230,-0.080
7.970,-0.335,-0.085
7.972,-0.400,-0.095
7.974,-0.450,-0.100
7.976,-0.485,-0.105
7.978,-0.425,-0.105
7.980,-0.355,-0.105
7.982,-0.330,-0.100
7.984,-0.250,-0.095
7.986,-0.185,-0.090
7.988,-0.245,-0.080
7.990,-0.285,-0.075
7.992,-0.330,-0.070
7.994,-0.430,-0.070
7.996,-0.470,-0.070
7.998,-0.445,-0.075
8.000,-0.350,-0.080
8.002,-0.285,-0.090
8.004,-0.215,-0.095
8.006,-0.230,-0.100
8.008,-0.270,-0.105
8.010,-0.345,-0.105
8.012,-0.410,-0.105
8.014,-0.475,-0.105
8.016,-0.460,-0.100
8.018,-0.425,-0.090
8.020,-0.345,-0.085
8.022,-0.295,-0.075
8.024,-0.200,-0.065
8.026,-0.195,-0.055
8.028,-0.200,-0.050
8.030,-0.275,-0.045
8.032,-0.355,-0.045
8.034,-0.450,-0.045
8.036,-0.400,-0.055
8.038,-0.430,-0.060
8.040,-0.360,-0.070
8.042,-0.315,-0.080
8.044,-0.260,-0.085
8.046,-0.190,-0.085
8.048,-0.205,-0.080
8.050,-0.300,-0.070
8.052,-0.350,-0.060
8.054,-0.430,-0.050
8.056,-0.385,-0.040
8.058,-0.345,-0.035
8.060,-0.275,-0.040
8.062,-0.270,-0.045
8.064,-0.225,-0.050
8.066,-0.205,-0.060
8.068,-0.230,-0.060
8.070,-0.285,-0.060
8.072,-0.315,-0.050
8.074,-0.420,-0.040
8.076,-0.390,-0.020
8.078,-0.315,-0.005
8.080,-0.240,0.010
8.082,-0.210,0.015
8.084,-0.090,0.020
8.086,-0.125,0.015
8.088,-0.160,0.005
8.090,-0.215,-0.005
8.092,-0.275,-0.010
8.094,-0.420,-0.015
8.096,-0.375,-0.010
8.098,-0.355,0.000
8.100,-0.235,0.010
8.102,-0.210,0.025
8.104,-0.090,0.040
8.106,-0.090,0.050
8.108,-0.135,0.055
8.110,-0.185,0.055
8.112,-0.220,0.060
8.114,-0.295,0.060
8.116,-0.285,0.060
8.118,-0.250,0.065
8.120,-0.155,0.070
8.122,-0.130,0.080
8.124,-0.045,0.085
8.126,-0.060,0.085
8.128,-0.135,0.085
8.130,-0.185,0.085
8.132,-0.245,0.080
8.134,-0.345,0.075
8.136,-0.275,0.075
8.138,-0.160,0.075
8.140,-0.145,0.080
8.142,-0.140,0.085
8.144,-0.025,0.095
8.146,-0.080,0.095
8.148,-0.135,0.095
8.150,-0.215,0.090
8.152,-0.265,0.075
8.154,-0.335,0.065
8.156,-0.330,0.050
8.158,-0.285,0.035
8.160,-0.185,0.030
8.162,-0.135,0.025
8.164,-0.090,0.030
8.166,-0.130,0.035
8.168,-0.150,0.040
8.170,-0.240,0.040
8.172,-0.265,0.040
8.174,-0.345,0.030
8.176,-0.340,0.015
8.178,-0.350,0.000
8.180,-0.320,-0.020
8.182,-0.295,-0.040
8.184,-0.170,-0.055
8.186,-0.170,-0.065
8.188,-0.240,-0.070
8.190,-0.365,-0.070
8.192,-0.400,-0.065
8.194,-0.460,-0.060
8.196,-0.410,-0.050
8.198,-0.335,-0.045
8.200,-0.255,-0.035
8.202,-0.230,-0.030
8.204,-0.155,-0.030
8.206,-0.190,-0.035
8.208,-0.260,-0.040
8.210,-0.315,-0.045
8.212,-0.360,-0.050
8.214,-0.425,-0.060
8.216,-0.425,-0.065
8.218,-0.360,-0.065
8.220,-0.310,-0.065
8.222,-0.305,-0.065
8.224,-0.195,-0.060
8.226,-0.215,-0.060
8.228,-0.270,-0.055
8.230,-0.345,-0.055
8.232,-0.410,-0.055
8.234,-0.425,-0.060
8.236,-0.385,-0.060
8.238,-0.345,-0.060
8.240,-0.275,-0.055
8.242,-0.225,-0.050
8.244,-0.150,-0.045
8.246,-0.205,-0.040
8.248,-0.280,-0.035
8.250,-0.340,-0.030
8.252,-0.375,-0.030
8.254,-0.405,-0.035
8.256,-0.380,-0.040
8.258,-0.315,-0.045
8.260,-0.230,-0.055
8.262,-0.205,-0.060
8.264,-0.195,-0.065
8.266,-0.230,-0.070
8.268,-0.290,-0.075
8.270,-0.380,-0.080
8.272,-0.470,-0.085
8.274,-0.460,-0.085
8.276,-0.415,-0.090
8.278,-0.330,-0.090
8.280,-0.280,-0.090
8.282,-0.275,-0.080
8.284,-0.210,-0.070
8.286,-0.265,-0.060
8.288,-0.260,-0.045
8.290,-0.290,-0.035
8.292,-0.370,-0.025
8.294,-0.410,-0.025
8.296,-0.380,-0.030
8.298,-0.325,-0.040
8.300,-0.320,-0.055
8.302,-0.245,-0.070
8.304,-0.240,-0.085
8.306,-0.260,-0.095
8.308,-0.300,-0.095
8.310,-0.360,-0.090
8.312,-0.400,-0.085
8.314,-0.425,-0.070
8.316,-0.360,-0.055
8.318,-0.310,-0.040
8.320,-0.280,-0.030
8.322,-0.190,-0.025
8.324,-0.175,-0.020
8.326,-0.195,-0.025
8.328,-0.270,-0.030
8.330,-0.330,-0.040
8.332,-0.420,-0.050
8.334,-0.400,-0.055
8.336,-0.415,-0.060
8.338,-0.330,-0.060
8.340,-0.255,-0.055
8.342,-0.150,-0.050
8.344,-0.160,-0.040
8.346,-0.225,-0.035
8.348,-0.290,-0.030
8.350,-0.320,-0.030
8.352,-0.425,-0.030
8.354,-0.380,-0.035
8.356,-0.330,-0.040
8.358,-0.250,-0.045
8.360,-0.270,-0.045
8.362,-0.170,-0.045
8.364,-0.190,-0.040
8.366,-0.260,-0.035
8.368,-0.345,-0.025
8.370,-0.325,-0.020
8.372,-0.395,-0.020
8.374,-0.390,-0.025
8.376,-0.370,-0.030
8.378,-0.275,-0.040
8.380,-0.205,-0.045
8.382,-0.210,-0.050
8.384,-0.210,-0.055
8.386,-0.210,-0.050
8.388,-0.310,-0.045
8.390,-0.340,-0.035
8.392,-0.415,-0.030
8.394,-0.405,-0.030
8.396,-0.310,-0.040
8.398,-0.275,-0.050
8.400,-0.290,-0.060
8.402,-0.210,-0.075
8.404,-0.210,-0.080
8.406,-0.250,-0.080
8.408,-0.315,-0.075
8.410,-0.340,-0.060
8.412,-0.410,-0.040
8.414,-0.365,-0.020
8.416,-0.275,-0.005
8.418,-0.280,0.005
8.420,-0.245,0.005
8.422,-0.140,-0.005
8.424,-0.180,-0.020
8.426,-0.235,-0.040
8.428,-0.290,-0.050
8.430,-0.340,-0.060
8.432,-0.420,-0.060
8.434,-0.395,-0.050
8.436,-0.325,-0.035
8.438,-0.260,-0.015
8.440,-0.210,0.000
8.442,-0.120,0.010
8.444,-0.140,0.015
8.446,-0.205,0.015
8.448,-0.260,0.010
8.450,-0.265,0.005
8.452,-0.370,0.000
8.454,-0.365,-0.005
8.456,-0.300,0.000
8.458,-0.255,0.005
8.460,-0.210,0.010
8.462,-0.130,0.020
8.464,-0.115,0.020
8.466,-0.175,0.015
8.468,-0.240,0.010
8.470,-0.285,-0.005
8.472,-0.390,-0.015
8.474,-0.410,-0.030
8.476,-0.395,-0.040
8.478,-0.310,-0.045
8.480,-0.250,-0.045
8.482,-0.175,-0.045
8.484,-0.180,-0.040
8.486,-0.250,-0.040
8.488,-0.310,-0.040
8.490,-0.320,-0.040
8.492,-0.435,-0.045
8.494,-0.410,-0.050
8.496,-0.340,-0.055
8.498,-0.250,-0.060
8.500,-0.255,-0.060
8.502,-0.215,-0.065
8.504,-0.200,-0.065
8.506,-0.250,-0.065
8.508,-0.310,-0.065
8.510,-0.390,-0.065
8.512,-0.465,-0.060
8.514,-0.445,-0.060
8.516,-0.365,-0.060
8.518,-0.280,-0.055
8.520,-0.225,-0.055
8.522,-0.160,-0.050
8.524,-0.205,-0.050
8.526,-0.275,-0.050
8.528,-0.320,-0.055
8.530,-0.370,-0.055
8.532,-0.440,-0.060
8.534,-0.425,-0.065
8.536,-0.355,-0.065
8.538,-0.320,-0.070
8.540,-0.255,-0.070
8.542,-0.160,-0.075
8.544,-0.215,-0.080
8.546,-0.270,-0.095
8.548,-0.370,-0.120
8.550,-0.500,-0.145
8.552,-0.625,-0.170
8.554,-0.605,-0.195
8.556,-0.510,-0.210
8.558,-0.380,-0.205
8.560,-0.310,-0.170
8.562,-0.245,-0.110
8.564,-0.185,-0.020
8.566,-0.140,0.095
8.568,-0.055,0.235
8.570,0.060,0.385
8.572,0.190,0.545
8.574,0.370,0.705
8.576,0.605,0.850
8.578,0.815,0.980
8.580,1.000,1.090
8.582,1.120,1.170
8.584,1.105,1.215
8.586,1.030,1.225
8.588,0.945,1.195
8.590,0.800,1.130
8.592,0.645,1.025
8.594,0.540,0.890
8.596,0.455,0.740
8.598,0.315,0.575
8.600,0.235,0.420
8.602,0.105,0.280
8.604,-0.065,0.165
8.606,-0.170,0.080
8.608,-0.280,0.020
8.610,-0.380,-0.015
8.612,-0.410,-0.030
8.614,-0.375,-0.035
8.616,-0.265,-0.035
8.618,-0.260,-0.040
8.620,-0.215,-0.045
8.622,-0.210,-0.055
8.624,-0.225,-0.065
8.626,-0.285,-0.075
8.628,-0.345,-0.080
8.630,-0.435,-0.085
8.632,-0.435,-0.090
8.634,-0.435,-0.095
8.636,-0.355,-0.095
8.638,-0.340,-0.100
8.640,-0.285,-0.110
8.642,-0.295,-0.115
8.644,-0.305,-0.120
8.646,-0.365,-0.120
8.648,-0.375,-0.120
8.650,-0.410,-0.110
8.652,-0.405,-0.095
8.654,-0.420,-0.080
8.656,-0.320,-0.070
8.658,-0.260,-0.060
8.660,-0.175,-0.060
8.662,-0.225,-0.065
8.664,-0.265,-0.075
8.666,-0.340,-0.090
8.668,-0.450,-0.105
8.670,-0.540,-0.115
8.672,-0.470,-0.125
8.674,-0.445,-0.125
8.676,-0.330,-0.120
8.678,-0.320,-0.115
8.680,-0.210,-0.105
8.682,-0.210,-0.090
8.684,-0.265,-0.085
8.686,-0.350,-0.080
8.688,-0.395,-0.080
8.690,-0.470,-0.085
8.692,-0.450,-0.095
8.694,-0.410,-0.105
8.696,-0.325,-0.115
8.698,-0.360,-0.120
8.700,-0.245,-0.125
8.702,-0.220,-0.120
8.704,-0.270,-0.115
8.706,-0.350,-0.110
8.708,-0.410,-0.100
8.710,-0.480,-0.090
8.712,-0.435,-0.080
8.714,-0.375,-0.075
8.716,-0.315,-0.070
8.718,-0.275,-0.075
8.720,-0.180,-0.080
8.722,-0.230,-0.085
8.724,-0.300,-0.090
8.726,-0.385,-0.095
8.728,-0.430,-0.100
8.730,-0.465,-0.100
8.732,-0.440,-0.095
8.734,-0.410,-0.090
8.736,-0.310,-0.080
8.738,-0.265,-0.070
8.740,-0.140,-0.060
8.742,-0.180,-0.050
8.744,-0.245,-0.040
8.746,-0.330,-0.035
8.748,-0.340,-0.035
8.750,-0.410,-0.040
8.752,-0.410,-0.045
8.754,-0.365,-0.050
8.756,-0.325,-0.055
8.758,-0.240,-0.055
8.760,-0.150,-0.055
8.762,-0.175,-0.045
8.764,-0.205,-0.035
8.766,-0.285,-0.020
8.768,-0.325,-0.010
8.770,-0.380,0.005
8.772,-0.325,0.010
8.774,-0.270,0.015
8.776,-0.225,0.015
8.778,-0.165,0.010
8.780,-0.150,0.005
8.782,-0.155,-0.005
8.784,-0.220,-0.010
8.786,-0.290,-0.010
8.788,-0.325,-0.010
8.790,-0.375,-0.005
8.792,-0.320,0.005
8.794,-0.280,0.015
8.796,-0.200,0.025
8.798,-0.120,0.040
8.800,-0.055,0.050
8.802,-0.065,0.055
8.804,-0.145,0.060
8.806,-0.220,0.060
8.808,-0.295,0.055
8.810,-0.340,0.055
8.812,-0.305,0.050
8.814,-0.260,0.045
8.816,-0.200,0.045
8.818,-0.125,0.045
8.820,-0.065,0.050
8.822,-0.090,0.055
8.824,-0.160,0.060
8.826,-0.175,0.065
8.828,-0.225,0.070
8.830,-0.295,0.075
8.832,-0.275,0.070
8.834,-0.220,0.070
8.836,-0.190,0.060
8.838,-0.155,0.055
8.840,-0.080,0.045
8.842,-0.095,0.040
8.844,-0.185,0.040
8.846,-0.255,0.040
8.848,-0.315,0.040
8.850,-0.325,0.045
8.852,-0.260,0.045
8.854,-0.220,0.040
8.856,-0.185,0.035
8.858,-0.130,0.025
8.860,-0.080,0.010
8.862,-0.150,-0.005
8.864,-0.265,-0.025
8.866,-0.370,-0.045
8.868,-0.455,-0.060
8.870,-0.450,-0.070
8.872,-0.400,-0.075
8.874,-0.325,-0.075
8.876,-0.285,-0.070
8.878,-0.190,-0.060
8.880,-0.145,-0.050
8.882,-0.185,-0.045
8.884,-0.250,-0.040
8.886,-0.315,-0.035
8.888,-0.400,-0.040
8.890,-0.450,-0.045
8.892,-0.385,-0.060
8.894,-0.310,-0.070
8.896,-0.290,-0.080
8.898,-0.210,-0.090
8.900,-0.215,-0.095
8.902,-0.280,-0.095
8.904,-0.330,-0.095
8.906,-0.360,-0.085
8.908,-0.430,-0.080
8.910,-0.430,-0.070
8.912,-0.400,-0.065
8.914,-0.315,-0.060
8.916,-0.225,-0.060
8.918,-0.185,-0.065
8.920,-0.205,-0.070
8.922,-0.265,-0.075
8.924,-0.335,-0.085
8.926,-0.365,-0.090
8.928,-0.460,-0.095
8.930,-0.440,-0.095
8.932,-0.415,-0.090
8.934,-0.325,-0.080
8.936,-0.265,-0.070
8.938,-0.165,-0.055
8.940,-0.185,-0.045
8.942,-0.195,-0.035
8.944,-0.275,-0.035
8.946,-0.365,-0.035
8.948,-0.420,-0.040
8.950,-0.430,-0.050
8.952,-0.415,-0.065
8.954,-0.330,-0.075
8.956,-0.265,-0.080
8.958,-0.210,-0.085
8.960,-0.185,-0.080
8.962,-0.215,-0.070
8.964,-0.270,-0.055
8.966,-0.300,-0.045
8.968,-0.385,-0.035
8.970,-0.365,-0.035
8.972,-0.390,-0.040
8.974,-0.315,-0.055
8.976,-0.310,-0.075
8.978,-0.205,-0.090
8.980,-0.255,-0.105
8.982,-0.295,-0.110
8.984,-0.320,-0.105
8.986,-0.345,-0.095
8.988,-0.435,-0.075
8.990,-0.375,-0.055
8.992,-0.380,-0.040
8.994,-0.290,-0.030
8.996,-0.230,-0.030
8.998,-0.185,-0.040
9.000,-0.225,-0.055
9.002,-0.270,-0.075
9.004,-0.345,-0.090
9.006,-0.385,-0.100
9.008,-0.455,-0.100
9.010,-0.415,-0.090
9.012,-0.390,-0.075
9.014,-0.300,-0.055
9.016,-0.245,-0.040
9.018,-0.140,-0.030
9.020,-0.155,-0.025
9.022,-0.190,-0.035
9.024,-0.295,-0.050
9.026,-0.340,-0.065
9.028,-0.475,-0.085
9.030,-0.440,-0.100
9.032,-0.400,-0.105
9.034,-0.295,-0.100
9.036,-0.295,-0.090
9.038,-0.185,-0.075
9.040,-0.190,-0.060
9.042,-0.210,-0.045
9.044,-0.280,-0.030
9.046,-0.295,-0.025
9.048,-0.385,-0.025
9.050,-0.390,-0.035
9.052,-0.330,-0.045
9.054,-0.255,-0.055
9.056,-0.235,-0.065
9.058,-0.200,-0.070
9.060,-0.210,-0.075
9.062,-0.280,-0.075
9.064,-0.330,-0.070
9.066,-0.375,-0.060
9.068,-0.435,-0.045
9.070,-0.355,-0.035
9.072,-0.270,-0.025
9.074,-0.215,-0.015
9.076,-0.185,-0.010
9.078,-0.115,-0.010
9.080,-0.175,-0.015
9.082,-0.265,-0.030
9.084,-0.340,-0.045
9.086,-0.400,-0.060
9.088,-0.475,-0.075
9.090,-0.450,-0.085
9.092,-0.370,-0.085
9.094,-0.260,-0.085
9.096,-0.200,-0.080
9.098,-0.140,-0.070
9.100,-0.195,-0.060
9.102,-0.285,-0.050
9.104,-0.320,-0.045
9.106,-0.365,-0.045
9.108,-0.445,-0.050
9.110,-0.445,-0.055
9.112,-0.335,-0.065
9.114,-0.245,-0.070
9.116,-0.225,-0.075
9.118,-0.175,-0.070
9.120,-0.180,-0.065
9.122,-0.230,-0.055
9.124,-0.270,-0.040
9.126,-0.325,-0.035
9.128,-0.425,-0.030
9.130,-0.420,-0.030
9.132,-0.315,-0.035
9.134,-0.260,-0.045
9.136,-0.185,-0.055
9.138,-0.125,-0.065
9.140,-0.240,-0.070
9.142,-0.270,-0.070
9.144,-0.315,-0.065
9.146,-0.360,-0.050
9.148,-0.345,-0.035
9.150,-0.325,-0.015
9.152,-0.225,0.005
9.154,-0.160,0.020
9.156,-0.175,0.030
9.158,-0.095,0.035
9.160,-0.140,0.030
9.162,-0.205,0.020
9.164,-0.280,0.005
9.166,-0.340,-0.010
9.168,-0.345,-0.025
9.170,-0.380,-0.035
9.172,-0.355,-0.045
9.174,-0.270,-0.050
9.176,-0.210,-0.055
9.178,-0.145,-0.055
9.180,-0.185,-0.050
9.182,-0.240,-0.050
9.184,-0.310,-0.050
9.186,-0.390,-0.050
9.188,-0.395,-0.050
9.190,-0.375,-0.055
9.192,-0.320,-0.060
9.194,-0.305,-0.065
9.196,-0.205,-0.070
9.198,-0.200,-0.075
9.200,-0.245,-0.080
9.202,-0.315,-0.080
9.204,-0.350,-0.080
9.206,-0.430,-0.080
9.208,-0.415,-0.070
9.210,-0.390,-0.065
9.212,-0.295,-0.055
9.214,-0.260,-0.050
9.216,-0.165,-0.040
9.218,-0.115,-0.035
9.220,-0.190,-0.040
9.222,-0.280,-0.040
9.224,-0.320,-0.050
9.226,-0.435,-0.065
9.228,-0.470,-0.075
9.230,-0.430,-0.085
9.232,-0.315,-0.090
9.234,-0.255,-0.090
9.236,-0.170,-0.085
9.238,-0.190,-0.075
9.240,-0.220,-0.070
9.242,-0.265,-0.065
9.244,-0.350,-0.075
9.246,-0.480,-0.090
9.248,-0.485,-0.120
9.250,-0.480,-0.155
9.252,-0.470,-0.190
9.254,-0.465,-0.220
9.256,-0.340,-0.230
9.258,-0.345,-0.215
9.260,-0.335,-0.175
9.262,-0.310,-0.105
9.264,-0.315,-0.010
9.266,-0.280,0.105
9.268,-0.080,0.235
9.270,0.125,0.370
9.272,0.265,0.505
9.274,0.435,0.640
9.276,0.690,0.765
9.278,0.795,0.880
9.280,0.875,0.985
9.282,0.890,1.070
9.284,0.890,1.125
9.286,0.805,1.155
9.288,0.855,1.145
9.290,0.835,1.095
9.292,0.755,1.000
9.294,0.655,0.870
9.296,0.600,0.715
9.298,0.405,0.545
9.300,0.160,0.380
9.302,-0.070,0.230
9.304,-0.205,0.110
9.306,-0.370,0.025
9.308,-0.380,-0.030
9.310,-0.365,-0.055
9.312,-0.285,-0.055
9.314,-0.260,-0.050
9.316,-0.150,-0.040
9.318,-0.185,-0.035
9.320,-0.230,-0.040
9.322,-0.300,-0.050
9.324,-0.310,-0.060
9.326,-0.430,-0.075
9.328,-0.435,-0.085
9.330,-0.370,-0.090
9.332,-0.305,-0.090
9.334,-0.280,-0.085
9.336,-0.210,-0.080
9.338,-0.230,-0.080
9.340,-0.285,-0.080
9.342,-0.360,-0.085
9.344,-0.345,-0.095
9.346,-0.455,-0.100
9.348,-0.485,-0.105
9.350,-0.400,-0.105
9.352,-0.300,-0.100
9.354,-0.245,-0.090
9.356,-0.170,-0.075
9.358,-0.195,-0.070
9.360,-0.235,-0.065
9.362,-0.335,-0.065
9.364,-0.365,-0.070
9.366,-0.435,-0.075
9.368,-0.420,-0.085
9.370,-0.360,-0.090
9.372,-0.300,-0.095
9.374,-0.280,-0.090
9.376,-0.195,-0.080
9.378,-0.215,-0.070
9.380,-0.285,-0.060
9.382,-0.320,-0.055
9.384,-0.320,-0.055
9.386,-0.390,-0.060
9.388,-0.350,-0.070
9.390,-0.380,-0.080
9.392,-0.315,-0.090
9.394,-0.250,-0.100
9.396,-0.210,-0.105
9.398,-0.235,-0.100
9.400,-0.300,-0.095
9.402,-0.300,-0.085
9.404,-0.380,-0.075
9.406,-0.415,-0.065
9.408,-0.435,-0.060
9.410,-0.370,-0.060
9.412,-0.300,-0.060
9.414,-0.215,-0.065
9.416,-0.145,-0.070
9.418,-0.155,-0.075
9.420,-0.235,-0.075
9.422,-0.325,-0.075
9.424,-0.400,-0.070
9.426,-0.450,-0.070
9.428,-0.425,-0.070
9.430,-0.345,-0.070
9.432,-0.280,-0.075
9.434,-0.225,-0.075
9.436,-0.200,-0.080
9.438,-0.215,-0.080
9.440,-0.265,-0.080
9.442,-0.335,-0.075
9.444,-0.370,-0.070
9.446,-0.395,-0.055
9.448,-0.360,-0.045
9.450,-0.260,-0.035
9.452,-0.220,-0.025
9.454,-0.185,-0.015
9.456,-0.145,-0.010
9.458,-0.180,-0.010
9.460,-0.205,-0.010
9.462,-0.250,-0.005
9.464,-0.330,-0.005
9.466,-0.325,0.000
9.468,-0.275,0.005
9.470,-0.185,0.010
9.472,-0.195,0.015
9.474,-0.125,0.015
9.476,-0.125,0.015
9.478,-0.115,0.010
9.480,-0.215,0.005
9.482,-0.265,0.000
9.484,-0.330,-0.005
9.486,-0.330,-0.005
9.488,-0.380,0.000
9.490,-0.220,0.005
9.492,-0.165,0.020
9.494,-0.085,0.035
9.496,-0.070,0.050
9.498,-0.090,0.060
9.500,-0.150,0.070
9.502,-0.180,0.075
9.504,-0.300,0.080
9.506,-0.255,0.080
9.508,-0.210,0.080
9.510,-0.105,0.080
9.512,-0.130,0.075
9.514,-0.015,0.075
9.516,-0.010,0.075
9.518,-0.100,0.075
9.520,-0.150,0.080
9.522,-0.245,0.080
9.524,-0.295,0.080
9.526,-0.245,0.075
9.528,-0.245,0.075
9.530,-0.210,0.070
9.532,-0.095,0.065
9.534,0.000,0.060
9.536,-0.050,0.055
9.538,-0.080,0.050
9.540,-0.195,0.045
9.542,-0.245,0.045
9.544,-0.340,0.045
9.546,-0.300,0.045
9.548,-0.250,0.050
9.550,-0.160,0.055
9.552,-0.120,0.060
9.554,-0.025,0.060
9.556,-0.030,0.060
9.558,-0.065,0.055
9.560,-0.190,0.045
9.562,-0.295,0.035
9.564,-0.410,0.020
9.566,-0.365,0.005
9.568,-0.340,-0.010
9.570,-0.265,-0.025
9.572,-0.210,-0.035
9.574,-0.080,-0.040
9.576,-0.140,-0.045
9.578,-0.225,-0.045
9.580,-0.310,-0.045
9.582,-0.310,-0.040
9.584,-0.425,-0.045
9.586,-0.365,-0.045
9.588,-0.365,-0.050
9.590,-0.300,-0.060
9.592,-0.275,-0.065
9.594,-0.195,-0.075
9.596,-0.195,-0.075
9.598,-0.225,-0.075
9.600,-0.285,-0.075
9.602,-0.300,-0.070
9.604,-0.400,-0.060
9.606,-0.385,-0.055
9.608,-0.355,-0.055
9.610,-0.300,-0.055
9.612,-0.235,-0.060
9.614,-0.160,-0.065
9.616,-0.200,-0.070
9.618,-0.275,-0.075
9.620,-0.345,-0.080
9.622,-0.355,-0.080
9.624,-0.430,-0.075
9.626,-0.395,-0.070
9.628,-0.345,-0.060
9.630,-0.270,-0.050
9.632,-0.190,-0.045
9.634,-0.120,-0.035
9.636,-0.160,-0.035
9.638,-0.230,-0.035
9.640,-0.295,-0.040
9.642,-0.330,-0.050
9.644,-0.420,-0.060
9.646,-0.420,-0.065
9.648,-0.370,-0.070
9.650,-0.280,-0.070
9.652,-0.230,-0.070
9.654,-0.150,-0.060
9.656,-0.125,-0.045
9.658,-0.200,-0.035
9.660,-0.270,-0.020
9.662,-0.300,-0.015
9.664,-0.375,-0.010
9.666,-0.360,-0.010
9.668,-0.295,-0.015
9.670,-0.245,-0.025
9.672,-0.150,-0.035
9.674,-0.090,-0.045
9.676,-0.210,-0.055
9.678,-0.250,-0.055
9.680,-0.295,-0.050
9.682,-0.305,-0.045
9.684,-0.385,-0.040
9.686,-0.400,-0.030
9.688,-0.370,-0.030
9.690,-0.270,-0.030
9.692,-0.190,-0.035
9.694,-0.140,-0.045
9.696,-0.195,-0.055
9.698,-0.270,-0.060
9.700,-0.295,-0.070
9.702,-0.345,-0.070
9.704,-0.405,-0.070
9.706,-0.405,-0.065
9.708,-0.385,-0.060
9.710,-0.250,-0.055
9.712,-0.165,-0.055
9.714,-0.160,-0.055
9.716,-0.225,-0.060
9.718,-0.285,-0.065
9.720,-0.340,-0.070
9.722,-0.395,-0.075
9.724,-0.420,-0.080
9.726,-0.375,-0.075
9.728,-0.305,-0.070
9.730,-0.230,-0.060
9.732,-0.160,-0.050
9.734,-0.110,-0.040
9.736,-0.115,-0.035
9.738,-0.255,-0.030
9.740,-0.325,-0.025
9.742,-0.385,-0.025
9.744,-0.375,-0.025
9.746,-0.345,-0.025
9.748,-0.255,-0.025
9.750,-0.185,-0.025
9.752,-0.130,-0.025
9.754,-0.110,-0.025
9.756,-0.170,-0.020
9.758,-0.285,-0.020
9.760,-0.320,-0.025
9.762,-0.380,-0.030
9.764,-0.400,-0.035
9.766,-0.375,-0.045
9.768,-0.280,-0.050
9.770,-0.250,-0.055
9.772,-0.170,-0.055
9.774,-0.170,-0.055
9.776,-0.215,-0.055
9.778,-0.265,-0.050
9.780,-0.275,-0.040
9.782,-0.380,-0.035
9.784,-0.385,-0.035
9.786,-0.335,-0.035
9.788,-0.245,-0.035
9.790,-0.220,-0.040
9.792,-0.175,-0.045
9.794,-0.200,-0.045
9.796,-0.225,-0.050
9.798,-0.300,-0.050
9.800,-0.305,-0.045
9.802,-0.390,-0.045
9.804,-0.335,-0.040
9.806,-0.340,-0.040
9.808,-0.260,-0.040
9.810,-0.240,-0.040
9.812,-0.170,-0.045
9.814,-0.170,-0.045
9.816,-0.205,-0.050
9.818,-0.275,-0.050
9.820,-0.330,-0.045
9.822,-0.395,-0.035
9.824,-0.350,-0.025
9.826,-0.310,-0.010
9.828,-0.240,0.005
9.830,-0.175,0.015
9.832,-0.060,0.025
9.834,-0.085,0.035
9.836,-0.110,0.035
9.838,-0.165,0.030
9.840,-0.265,0.025
9.842,-0.350,0.015
9.844,-0.345,0.005
9.846,-0.320,0.000
9.848,-0.220,-0.005
9.850,-0.205,-0.010
9.852,-0.120,-0.015
9.854,-0.125,-0.015
9.856,-0.180,-0.015
9.858,-0.285,-0.020
9.860,-0.325,-0.025
9.862,-0.390,-0.030
9.864,-0.360,-0.035
9.866,-0.330,-0.045
9.868,-0.245,-0.050
9.870,-0.250,-0.055
9.872,-0.185,-0.060
9.874,-0.205,-0.055
9.876,-0.185,-0.055
9.878,-0.260,-0.050
9.880,-0.300,-0.045
9.882,-0.390,-0.045
9.884,-0.380,-0.045
9.886,-0.355,-0.045
9.888,-0.275,-0.050
9.890,-0.245,-0.055
9.892,-0.190,-0.060
9.894,-0.180,-0.065
9.896,-0.220,-0.065
9.898,-0.275,-0.065
9.900,-0.315,-0.065
9.902,-0.385,-0.060
9.904,-0.370,-0.055
9.906,-0.385,-0.055
9.908,-0.305,-0.055
9.910,-0.285,-0.055
9.912,-0.165,-0.060
9.914,-0.190,-0.065
9.916,-0.225,-0.070
9.918,-0.285,-0.075
9.920,-0.325,-0.075
9.922,-0.435,-0.075
9.924,-0.405,-0.070
9.926,-0.350,-0.070
9.928,-0.260,-0.070
9.930,-0.230,-0.080
9.932,-0.195,-0.090
9.934,-0.265,-0.110
9.936,-0.345,-0.130
9.938,-0.440,-0.150
9.940,-0.500,-0.165
9.942,-0.570,-0.170
9.944,-0.485,-0.150
9.946,-0.365,-0.115
9.948,-0.250,-0.050
9.950,-0.125,0.035
9.952,0.060,0.140
9.954,0.175,0.260
9.956,0.235,0.390
9.958,0.270,0.525
9.960,0.325,0.655
9.962,0.445,0.780
9.964,0.600,0.890
9.966,0.760,0.975
9.968,0.910,1.040
9.970,0.995,1.075
9.972,1.045,1.075
9.974,0.925,1.040
9.976,0.735,0.965
9.978,0.590,0.855
9.980,0.440,0.715
9.982,0.150,0.560
9.984,0.010,0.405
9.986,-0.055,0.255
9.988,-0.150,0.130
9.990,-0.160,0.035
9.992,-0.145,-0.030
9.994,-0.160,-0.060
9.996,-0.260,-0.070
9.998,-0.315,-0.065
