'Elapsed time','ECG I','ECG I filtered'
'seconds','mV','mV'
0.000,-0.170,0.010
0.002,-0.070,0.015
0.004,-0.085,0.015
0.006,-0.090,0.010
0.008,-0.215,0.000
0.010,-0.240,-0.010
0.012,-0.325,-0.025
0.014,-0.315,-0.035
0.016,-0.275,-0.040
0.018,-0.200,-0.035
0.020,-0.185,-0.025
0.022,-0.075,-0.015
0.024,-0.090,0.000
0.026,-0.135,0.010
0.028,-0.185,0.015
0.030,-0.250,0.010
0.032,-0.330,0.005
0.034,-0.305,-0.005
0.036,-0.285,-0.015
0.038,-0.175,-0.020
0.040,-0.115,-0.025
0.042,-0.030,-0.020
0.044,-0.050,-0.015
0.046,-0.155,-0.010
0.048,-0.265,-0.005
0.050,-0.270,0.000
0.052,-0.335,0.000
0.054,-0.285,0.000
0.056,-0.240,-0.005
0.058,-0.160,-0.010
0.060,-0.160,-0.015
0.062,-0.050,-0.015
0.064,-0.095,-0.020
0.066,-0.155,-0.025
0.068,-0.255,-0.025
0.070,-0.290,-0.035
0.072,-0.380,-0.040
0.074,-0.340,-0.045
0.076,-0.280,-0.045
0.078,-0.180,-0.045
0.080,-0.145,-0.040
0.082,-0.060,-0.030
0.084,-0.065,-0.020
0.086,-0.130,-0.010
0.088,-0.215,0.000
0.090,-0.265,0.010
0.092,-0.305,0.010
0.094,-0.295,0.010
0.096,-0.220,0.010
0.098,-0.165,0.005
0.100,-0.125,0.000
0.102,-0.035,0.000
0.104,-0.045,0.000
0.106,-0.110,0.005
0.108,-0.215,0.015
0.110,-0.260,0.025
0.112,-0.285,0.030
0.114,-0.225,0.035
0.116,-0.175,0.040
0.118,-0.070,0.035
0.120,-0.065,0.025
0.122,-0.040,0.015
0.124,-0.110,0.005
0.126,-0.160,-0.005
0.128,-0.220,-0.010
0.130,-0.265,-0.010
0.132,-0.275,-0.010
0.134,-0.250,0.000
0.136,-0.150,0.010
0.138,-0.100,0.025
0.140,-0.035,0.040
0.142,0.005,0.050
0.144,-0.030,0.060
0.146,-0.075,0.070
0.148,-0.155,0.070
0.150,-0.205,0.070
0.152,-0.255,0.070
0.154,-0.235,0.070
0.156,-0.130,0.070
0.158,-0.035,0.075
0.160,-0.015,0.080
0.162,0.040,0.085
0.164,0.020,0.095
0.166,-0.025,0.105
0.168,-0.110,0.110
0.170,-0.165,0.115
0.172,-0.165,0.120
0.174,-0.165,0.125
0.176,-0.065,0.125
0.178,-0.030,0.130
0.180,0.030,0.135
0.182,0.085,0.140
0.184,0.075,0.145
0.186,-0.030,0.150
0.188,-0.065,0.160
0.190,-0.095,0.165
0.192,-0.100,0.170
0.194,-0.090,0.175
0.196,-0.030,0.175
0.198,0.050,0.180
0.200,0.115,0.185
0.202,0.120,0.185
0.204,0.115,0.190
0.206,0.015,0.195
0.208,-0.040,0.200
0.210,-0.105,0.205
0.212,-0.080,0.210
0.214,-0.055,0.210
0.216,0.035,0.210
0.218,0.060,0.210
0.220,0.150,0.205
0.222,0.130,0.200
0.224,0.080,0.200
0.226,-0.040,0.200
0.228,-0.030,0.200
0.230,-0.100,0.195
0.232,-0.090,0.195
0.234,-0.070,0.190
0.236,0.015,0.185
0.238,0.030,0.180
0.240,0.120,0.170
0.242,0.090,0.165
0.244,0.065,0.165
0.246,-0.005,0.165
0.248,-0.060,0.165
0.250,-0.120,0.170
0.252,-0.140,0.175
0.254,-0.120,0.175
0.256,-0.045,0.170
0.258,0.020,0.160
0.260,0.110,0.150
0.262,0.075,0.135
0.264,0.000,0.125
0.266,-0.100,0.115
0.268,-0.115,0.105
0.270,-0.225,0.105
0.272,-0.180,0.105
0.274,-0.140,0.105
0.276,-0.060,0.105
0.278,-0.025,0.105
0.280,0.075,0.100
0.282,0.020,0.095
0.284,-0.060,0.080
0.286,-0.140,0.070
0.288,-0.155,0.060
0.290,-0.270,0.050
0.292,-0.250,0.045
0.294,-0.225,0.045
0.296,-0.155,0.040
0.298,-0.100,0.040
0.300,-0.030,0.040
0.302,-0.045,0.035
0.304,-0.100,0.030
0.306,-0.175,0.025
0.308,-0.235,0.020
0.310,-0.315,0.015
0.312,-0.270,0.015
0.314,-0.255,0.015
0.316,-0.125,0.020
0.318,-0.080,0.025
0.320,-0.025,0.030
0.322,-0.065,0.030
0.324,-0.120,0.030
0.326,-0.200,0.030
0.328,-0.225,0.025
0.330,-0.335,0.020
0.332,-0.265,0.015
0.334,-0.215,0.015
0.336,-0.125,0.010
0.338,-0.085,0.010
0.340,-0.015,0.010
0.342,-0.100,0.005
0.344,-0.165,0.000
0.346,-0.245,-0.005
0.348,-0.265,-0.010
0.350,-0.320,-0.015
0.352,-0.295,-0.020
0.354,-0.260,-0.020
0.356,-0.180,-0.020
0.358,-0.175,-0.015
0.360,-0.025,-0.010
0.362,-0.035,0.000
0.364,-0.140,0.005
0.366,-0.230,0.010
0.368,-0.240,0.015
0.370,-0.330,0.010
0.372,-0.300,0.005
0.374,-0.225,0.000
0.376,-0.150,-0.010
0.378,-0.140,-0.020
0.380,-0.060,-0.025
0.382,-0.080,-0.025
0.384,-0.165,-0.025
0.386,-0.245,-0.020
0.388,-0.275,-0.015
0.390,-0.340,-0.010
0.392,-0.335,-0.010
0.394,-0.250,-0.005
0.396,-0.175,-0.005
0.398,-0.125,-0.010
0.400,-0.055,-0.015
0.402,-0.085,-0.025
0.404,-0.210,-0.030
0.406,-0.250,-0.035
0.408,-0.335,-0.040
0.410,-0.350,-0.040
0.412,-0.345,-0.040
0.414,-0.255,-0.040
0.416,-0.190,-0.035
0.418,-0.145,-0.035
0.420,-0.100,-0.035
0.422,-0.130,-0.035
0.424,-0.225,-0.040
0.426,-0.265,-0.045
0.428,-0.305,-0.050
0.430,-0.370,-0.055
0.432,-0.330,-0.055
0.434,-0.240,-0.055
0.436,-0.185,-0.055
0.438,-0.145,-0.050
0.440,-0.110,-0.045
0.442,-0.160,-0.045
0.444,-0.245,-0.045
0.446,-0.280,-0.045
0.448,-0.350,-0.050
0.450,-0.385,-0.055
0.452,-0.325,-0.060
0.454,-0.240,-0.060
0.456,-0.190,-0.065
0.458,-0.130,-0.065
0.460,-0.120,-0.060
0.462,-0.165,-0.055
0.464,-0.240,-0.050
0.466,-0.270,-0.050
0.468,-0.340,-0.045
0.470,-0.350,-0.045
0.472,-0.340,-0.040
0.474,-0.225,-0.040
0.476,-0.185,-0.040
0.478,-0.125,-0.040
0.480,-0.120,-0.040
0.482,-0.165,-0.040
0.484,-0.250,-0.045
0.486,-0.285,-0.045
0.488,-0.380,-0.050
0.490,-0.360,-0.060
0.492,-0.325,-0.065
0.494,-0.235,-0.070
0.496,-0.230,-0.075
0.498,-0.135,-0.075
0.500,-0.125,-0.075
0.502,-0.190,-0.070
0.504,-0.285,-0.065
0.506,-0.315,-0.065
0.508,-0.395,-0.060
0.510,-0.370,-0.065
0.512,-0.340,-0.065
0.514,-0.240,-0.070
0.516,-0.205,-0.070
0.518,-0.135,-0.070
0.520,-0.135,-0.070
0.522,-0.170,-0.065
0.524,-0.265,-0.055
0.526,-0.300,-0.050
0.528,-0.380,-0.045
0.530,-0.350,-0.040
0.532,-0.325,-0.045
0.534,-0.245,-0.050
0.536,-0.200,-0.060
0.538,-0.160,-0.070
0.540,-0.190,-0.080
0.542,-0.200,-0.085
0.544,-0.310,-0.085
0.546,-0.310,-0.080
0.548,-0.390,-0.075
0.550,-0.345,-0.065
0.552,-0.330,-0.060
0.554,-0.230,-0.055
0.556,-0.200,-0.050
0.558,-0.120,-0.050
0.560,-0.155,-0.055
0.562,-0.180,-0.055
0.564,-0.225,-0.055
0.566,-0.305,-0.055
0.568,-0.385,-0.055
0.570,-0.355,-0.055
0.572,-0.335,-0.055
0.574,-0.240,-0.055
0.576,-0.190,-0.055
0.578,-0.125,-0.060
0.580,-0.165,-0.070
0.582,-0.215,-0.075
0.584,-0.275,-0.080
0.586,-0.310,-0.080
0.588,-0.405,-0.080
0.590,-0.365,-0.075
0.592,-0.330,-0.065
0.594,-0.250,-0.060
0.596,-0.215,-0.055
0.598,-0.105,-0.055
0.600,-0.125,-0.055
0.602,-0.205,-0.060
0.604,-0.310,-0.065
0.606,-0.355,-0.070
0.608,-0.395,-0.075
0.610,-0.370,-0.075
0.612,-0.320,-0.075
0.614,-0.225,-0.075
0.616,-0.215,-0.070
0.618,-0.130,-0.060
0.620,-0.150,-0.055
0.622,-0.205,-0.050
0.624,-0.310,-0.050
0.626,-0.315,-0.045
0.628,-0.370,-0.045
0.630,-0.370,-0.040
0.632,-0.280,-0.040
0.634,-0.210,-0.040
0.636,-0.180,-0.045
0.638,-0.095,-0.050
0.640,-0.120,-0.055
0.642,-0.210,-0.065
0.644,-0.355,-0.070
0.646,-0.380,-0.080
0.648,-0.445,-0.090
0.650,-0.405,-0.095
0.652,-0.305,-0.095
0.654,-0.240,-0.095
0.656,-0.195,-0.095
0.658,-0.145,-0.090
0.660,-0.165,-0.085
0.662,-0.210,-0.080
0.664,-0.315,-0.075
0.666,-0.365,-0.070
0.668,-0.425,-0.070
0.670,-0.390,-0.065
0.672,-0.275,-0.065
0.674,-0.200,-0.065
0.676,-0.165,-0.065
0.678,-0.135,-0.065
0.680,-0.160,-0.065
0.682,-0.235,-0.070
0.684,-0.300,-0.070
0.686,-0.355,-0.070
0.688,-0.430,-0.075
0.690,-0.435,-0.075
0.692,-0.325,-0.080
0.694,-0.250,-0.080
0.696,-0.185,-0.080
0.698,-0.130,-0.075
0.700,-0.155,-0.075
0.702,-0.240,-0.070
0.704,-0.315,-0.070
0.706,-0.380,-0.070
0.708,-0.400,-0.065
0.710,-0.330,-0.065
0.712,-0.285,-0.065
0.714,-0.260,-0.065
0.716,-0.210,-0.065
0.718,-0.130,-0.065
0.720,-0.150,-0.065
0.722,-0.255,-0.065
0.724,-0.335,-0.065
0.726,-0.400,-0.070
0.728,-0.425,-0.070
0.730,-0.400,-0.070
0.732,-0.285,-0.075
0.734,-0.230,-0.075
0.736,-0.175,-0.075
0.738,-0.150,-0.075
0.740,-0.160,-0.075
0.742,-0.245,-0.075
0.744,-0.290,-0.070
0.746,-0.375,-0.065
0.748,-0.390,-0.060
0.750,-0.355,-0.055
0.752,-0.270,-0.055
0.754,-0.215,-0.055
0.756,-0.165,-0.060
0.758,-0.120,-0.070
0.760,-0.180,-0.075
0.762,-0.325,-0.085
0.764,-0.355,-0.090
0.766,-0.395,-0.095
0.768,-0.380,-0.090
0.770,-0.365,-0.090
0.772,-0.275,-0.080
0.774,-0.195,-0.070
0.776,-0.120,-0.065
0.778,-0.145,-0.055
0.780,-0.215,-0.050
0.782,-0.315,-0.050
0.784,-0.305,-0.055
0.786,-0.395,-0.055
0.788,-0.375,-0.055
0.790,-0.315,-0.055
0.792,-0.235,-0.055
0.794,-0.190,-0.050
0.796,-0.100,-0.040
0.798,-0.105,-0.030
0.800,-0.115,-0.020
0.802,-0.225,-0.015
0.804,-0.290,-0.010
0.806,-0.375,-0.010
0.808,-0.335,-0.015
0.810,-0.280,-0.020
0.812,-0.170,-0.025
0.814,-0.165,-0.030
0.816,-0.095,-0.035
0.818,-0.105,-0.035
0.820,-0.175,-0.030
0.822,-0.230,-0.025
0.824,-0.280,-0.015
0.826,-0.370,-0.005
0.828,-0.315,0.005
0.830,-0.270,0.010
0.832,-0.175,0.020
0.834,-0.135,0.025
0.836,-0.020,0.030
0.838,-0.040,0.030
0.840,-0.070,0.030
0.842,-0.195,0.025
0.844,-0.275,0.015
0.846,-0.345,0.010
0.848,-0.320,0.000
0.850,-0.295,-0.010
0.852,-0.210,-0.015
0.854,-0.205,-0.020
0.856,-0.050,-0.025
0.858,-0.110,-0.030
0.860,-0.180,-0.030
0.862,-0.245,-0.030
0.864,-0.280,-0.030
0.866,-0.390,-0.030
0.868,-0.370,-0.030
0.870,-0.315,-0.030
0.872,-0.240,-0.035
0.874,-0.195,-0.040
0.876,-0.115,-0.045
0.878,-0.145,-0.050
0.880,-0.215,-0.055
0.882,-0.315,-0.065
0.884,-0.340,-0.070
0.886,-0.420,-0.075
0.888,-0.395,-0.075
0.890,-0.315,-0.075
0.892,-0.225,-0.075
0.894,-0.195,-0.070
0.896,-0.125,-0.070
0.898,-0.150,-0.065
0.900,-0.250,-0.065
0.902,-0.310,-0.070
0.904,-0.330,-0.070
0.906,-0.415,-0.075
0.908,-0.390,-0.080
0.910,-0.350,-0.080
0.912,-0.300,-0.080
0.914,-0.245,-0.075
0.916,-0.165,-0.065
0.918,-0.140,-0.050
0.920,-0.185,-0.030
0.922,-0.235,-0.005
0.924,-0.200,0.020
0.926,-0.255,0.050
0.928,-0.235,0.070
0.930,-0.175,0.085
0.932,-0.085,0.095
0.934,-0.070,0.085
0.936,0.010,0.070
0.938,-0.050,0.035
0.940,-0.170,-0.010
0.942,-0.270,-0.060
0.944,-0.445,-0.110
0.946,-0.595,-0.160
0.948,-0.585,-0.200
0.950,-0.540,-0.230
0.952,-0.390,-0.245
0.954,-0.345,-0.245
0.956,-0.320,-0.235
0.958,-0.310,-0.215
0.960,-0.350,-0.190
0.962,-0.370,-0.160
0.964,-0.400,-0.135
0.966,-0.430,-0.115
0.968,-0.385,-0.100
0.970,-0.315,-0.085
0.972,-0.240,-0.075
0.974,-0.225,-0.070
0.976,-0.160,-0.065
0.978,-0.150,-0.060
0.980,-0.220,-0.055
0.982,-0.285,-0.050
0.984,-0.330,-0.050
0.986,-0.370,-0.050
0.988,-0.395,-0.055
0.990,-0.325,-0.060
0.992,-0.245,-0.065
0.994,-0.185,-0.065
0.996,-0.155,-0.070
0.998,-0.160,-0.065
1.000,-0.230,-0.060
1.002,-0.295,-0.050
1.004,-0.320,-0.040
1.006,-0.360,-0.030
1.008,-0.345,-0.020
1.010,-0.255,-0.015
1.012,-0.190,-0.010
1.014,-0.140,-0.005
1.016,-0.105,-0.010
1.018,-0.135,-0.010
1.020,-0.230,-0.015
1.022,-0.275,-0.020
1.024,-0.330,-0.025
1.026,-0.345,-0.025
1.028,-0.310,-0.025
1.030,-0.235,-0.020
1.032,-0.185,-0.015
1.034,-0.110,-0.010
1.036,-0.080,-0.005
1.038,-0.135,0.005
1.040,-0.235,0.005
1.042,-0.275,0.005
1.044,-0.335,0.005
1.046,-0.320,0.000
1.048,-0.295,-0.005
1.050,-0.220,-0.010
1.052,-0.185,-0.015
1.054,-0.100,-0.015
1.056,-0.090,-0.015
1.058,-0.125,-0.015
1.060,-0.250,-0.010
1.062,-0.265,-0.005
1.064,-0.350,0.000
1.066,-0.335,0.000
1.068,-0.315,0.005
1.070,-0.210,0.005
1.072,-0.155,0.005
1.074,-0.105,0.005
1.076,-0.080,0.010
1.078,-0.140,0.010
1.080,-0.220,0.010
1.082,-0.270,0.010
1.084,-0.335,0.010
1.086,-0.300,0.005
1.088,-0.290,0.005
1.090,-0.215,0.000
1.092,-0.185,-0.005
1.094,-0.105,-0.005
1.096,-0.080,-0.005
1.098,-0.135,0.000
1.100,-0.205,0.010
1.102,-0.220,0.025
1.104,-0.305,0.040
1.106,-0.270,0.055
1.108,-0.250,0.065
1.110,-0.190,0.070
1.112,-0.105,0.070
1.114,-0.045,0.065
1.116,-0.045,0.055
1.118,-0.105,0.045
1.120,-0.205,0.035
1.122,-0.245,0.030
1.124,-0.330,0.030
1.126,-0.285,0.035
1.128,-0.240,0.040
1.130,-0.125,0.050
1.132,-0.090,0.060
1.134,-0.010,0.065
1.136,-0.035,0.065
1.138,-0.130,0.065
1.140,-0.215,0.065
1.142,-0.240,0.060
1.144,-0.315,0.060
1.146,-0.275,0.060
1.148,-0.205,0.060
1.150,-0.130,0.065
1.152,-0.090,0.070
1.154,-0.010,0.075
1.156,-0.020,0.080
1.158,-0.060,0.085
1.160,-0.120,0.085
1.162,-0.155,0.090
1.164,-0.250,0.100
1.166,-0.240,0.105
1.168,-0.155,0.115
1.170,-0.070,0.125
1.172,-0.040,0.135
1.174,0.070,0.145
1.176,0.035,0.150
1.178,-0.040,0.150
1.180,-0.095,0.150
1.182,-0.120,0.145
1.184,-0.210,0.145
1.186,-0.165,0.150
1.188,-0.090,0.155
1.190,-0.010,0.165
1.192,0.020,0.180
1.194,0.110,0.195
1.196,0.100,0.210
1.198,0.040,0.220
1.200,-0.050,0.225
1.202,-0.070,0.230
1.204,-0.130,0.230
1.206,-0.125,0.230
1.208,-0.030,0.230
1.210,0.030,0.235
1.212,0.075,0.240
1.214,0.160,0.240
1.216,0.135,0.245
1.218,0.055,0.245
1.220,-0.010,0.245
1.222,-0.050,0.240
1.224,-0.135,0.235
1.226,-0.090,0.230
1.228,0.010,0.230
1.230,0.085,0.230
1.232,0.075,0.230
1.234,0.115,0.235
1.236,0.130,0.235
1.238,0.055,0.240
1.240,-0.020,0.245
1.242,-0.060,0.245
1.244,-0.115,0.240
1.246,-0.095,0.240
1.248,-0.035,0.235
1.250,0.055,0.235
1.252,0.100,0.235
1.254,0.160,0.240
1.256,0.150,0.245
1.258,0.065,0.250
1.260,-0.020,0.255
1.262,-0.060,0.250
1.264,-0.145,0.240
1.266,-0.140,0.230
1.268,-0.055,0.215
1.270,0.000,0.195
1.272,0.055,0.175
1.274,0.080,0.160
1.276,0.025,0.140
1.278,-0.075,0.130
1.280,-0.155,0.115
1.282,-0.210,0.105
1.284,-0.275,0.090
1.286,-0.295,0.075
1.288,-0.195,0.060
1.290,-0.150,0.040
1.292,-0.115,0.025
1.294,-0.090,0.010
1.296,-0.105,0.000
1.298,-0.220,-0.010
1.300,-0.265,-0.010
1.302,-0.315,-0.005
1.304,-0.345,0.000
1.306,-0.320,0.010
1.308,-0.245,0.015
1.310,-0.135,0.020
1.312,-0.080,0.020
1.314,-0.105,0.015
1.316,-0.135,0.010
1.318,-0.230,-0.005
1.320,-0.310,-0.020
1.322,-0.405,-0.035
1.324,-0.405,-0.045
1.326,-0.360,-0.055
1.328,-0.270,-0.065
1.330,-0.230,-0.065
1.332,-0.150,-0.065
1.334,-0.145,-0.065
1.336,-0.180,-0.060
1.338,-0.260,-0.055
1.340,-0.320,-0.055
1.342,-0.430,-0.050
1.344,-0.420,-0.050
1.346,-0.350,-0.050
1.348,-0.270,-0.050
1.350,-0.225,-0.050
1.352,-0.140,-0.050
1.354,-0.120,-0.050
1.356,-0.145,-0.045
1.358,-0.280,-0.040
1.360,-0.350,-0.040
1.362,-0.415,-0.035
1.364,-0.390,-0.035
1.366,-0.335,-0.030
1.368,-0.230,-0.030
1.370,-0.200,-0.030
1.372,-0.110,-0.030
1.374,-0.120,-0.025
1.376,-0.170,-0.025
1.378,-0.275,-0.020
1.380,-0.310,-0.015
1.382,-0.405,-0.015
1.384,-0.365,-0.015
1.386,-0.335,-0.015
1.388,-0.260,-0.015
1.390,-0.215,-0.020
1.392,-0.110,-0.020
1.394,-0.135,-0.025
1.396,-0.190,-0.020
1.398,-0.280,-0.020
1.400,-0.310,-0.015
1.402,-0.405,-0.010
1.404,-0.345,-0.005
1.406,-0.290,0.000
1.408,-0.215,0.000
1.410,-0.205,-0.005
1.412,-0.125,-0.010
1.414,-0.140,-0.015
1.416,-0.175,-0.020
1.418,-0.285,-0.025
1.420,-0.300,-0.025
1.422,-0.370,-0.020
1.424,-0.345,-0.015
1.426,-0.295,-0.005
1.428,-0.215,0.005
1.430,-0.165,0.010
1.432,-0.075,0.015
1.434,-0.110,0.015
1.436,-0.170,0.010
1.438,-0.280,0.005
1.440,-0.300,0.000
1.442,-0.415,-0.005
1.444,-0.360,-0.010
1.446,-0.270,-0.015
1.448,-0.185,-0.015
1.450,-0.195,-0.015
1.452,-0.100,-0.010
1.454,-0.140,-0.005
1.456,-0.195,0.000
1.458,-0.265,0.005
1.460,-0.270,0.005
1.462,-0.360,0.005
1.464,-0.345,0.000
1.466,-0.305,-0.005
1.468,-0.215,-0.015
1.470,-0.225,-0.025
1.472,-0.145,-0.035
1.474,-0.190,-0.045
1.476,-0.245,-0.050
1.478,-0.300,-0.050
1.480,-0.315,-0.045
1.482,-0.405,-0.040
1.484,-0.370,-0.030
1.486,-0.325,-0.020
1.488,-0.225,-0.010
1.490,-0.175,0.000
1.492,-0.080,0.010
1.494,-0.120,0.010
1.496,-0.195,0.010
1.498,-0.280,0.005
1.500,-0.360,0.000
1.502,-0.395,-0.005
1.504,-0.380,-0.015
1.506,-0.310,-0.020
1.508,-0.225,-0.025
1.510,-0.180,-0.030
1.512,-0.125,-0.030
1.514,-0.150,-0.030
1.516,-0.235,-0.025
1.518,-0.310,-0.025
1.520,-0.350,-0.020
1.522,-0.375,-0.015
1.524,-0.340,-0.015
1.526,-0.275,-0.015
1.528,-0.220,-0.020
1.530,-0.185,-0.020
1.532,-0.145,-0.025
1.534,-0.145,-0.030
1.536,-0.245,-0.035
1.538,-0.315,-0.040
1.540,-0.345,-0.045
1.542,-0.415,-0.045
1.544,-0.405,-0.045
1.546,-0.320,-0.045
1.548,-0.240,-0.040
1.550,-0.195,-0.040
1.552,-0.150,-0.035
1.554,-0.165,-0.035
1.556,-0.230,-0.030
1.558,-0.300,-0.020
1.560,-0.350,-0.015
1.562,-0.390,-0.010
1.564,-0.375,-0.005
1.566,-0.255,-0.005
1.568,-0.200,-0.005
1.570,-0.170,-0.010
1.572,-0.140,-0.020
1.574,-0.190,-0.030
1.576,-0.275,-0.040
1.578,-0.325,-0.050
1.580,-0.410,-0.060
1.582,-0.420,-0.060
1.584,-0.375,-0.055
1.586,-0.270,-0.045
1.588,-0.210,-0.035
1.590,-0.155,-0.025
1.592,-0.135,-0.015
1.594,-0.180,-0.005
1.596,-0.250,0.000
1.598,-0.280,0.000
1.600,-0.360,0.000
1.602,-0.380,0.000
1.604,-0.370,-0.005
1.606,-0.260,-0.005
1.608,-0.190,-0.005
1.610,-0.145,-0.010
1.612,-0.140,-0.010
1.614,-0.200,-0.010
1.616,-0.275,-0.015
1.618,-0.320,-0.020
1.620,-0.395,-0.030
1.622,-0.415,-0.035
1.624,-0.375,-0.045
1.626,-0.290,-0.050
1.628,-0.255,-0.050
1.630,-0.165,-0.050
1.632,-0.170,-0.050
1.634,-0.205,-0.045
1.636,-0.290,-0.035
1.638,-0.310,-0.030
1.640,-0.410,-0.020
1.642,-0.365,-0.015
1.644,-0.305,-0.015
1.646,-0.240,-0.015
1.648,-0.240,-0.020
1.650,-0.165,-0.030
1.652,-0.180,-0.040
1.654,-0.220,-0.050
1.656,-0.295,-0.060
1.658,-0.350,-0.065
1.660,-0.445,-0.070
1.662,-0.425,-0.065
1.664,-0.365,-0.060
1.666,-0.280,-0.055
1.668,-0.240,-0.045
1.670,-0.135,-0.035
1.672,-0.150,-0.025
1.674,-0.200,-0.020
1.676,-0.290,-0.015
1.678,-0.310,-0.015
1.680,-0.410,-0.015
1.682,-0.365,-0.020
1.684,-0.335,-0.020
1.686,-0.240,-0.025
1.688,-0.225,-0.030
1.690,-0.140,-0.030
1.692,-0.175,-0.030
1.694,-0.210,-0.030
1.696,-0.290,-0.030
1.698,-0.345,-0.025
1.700,-0.415,-0.015
1.702,-0.360,-0.010
1.704,-0.325,0.000
1.706,-0.200,0.005
1.708,-0.160,0.005
1.710,-0.085,0.005
1.712,-0.155,0.000
1.714,-0.230,-0.010
1.716,-0.325,-0.020
1.718,-0.335,-0.030
1.720,-0.445,-0.045
1.722,-0.405,-0.050
1.724,-0.355,-0.055
1.726,-0.275,-0.055
1.728,-0.230,-0.055
1.730,-0.140,-0.045
1.732,-0.170,-0.040
1.734,-0.240,-0.035
1.736,-0.330,-0.030
1.738,-0.355,-0.030
1.740,-0.430,-0.030
1.742,-0.380,-0.035
1.744,-0.330,-0.035
1.746,-0.280,-0.035
1.748,-0.230,-0.030
1.750,-0.145,-0.030
1.752,-0.175,-0.025
1.754,-0.235,-0.020
1.756,-0.320,-0.020
1.758,-0.345,-0.020
1.760,-0.415,-0.020
1.762,-0.400,-0.025
1.764,-0.345,-0.025
1.766,-0.230,-0.025
1.768,-0.190,-0.030
1.770,-0.155,-0.025
1.772,-0.145,-0.025
1.774,-0.215,-0.020
1.776,-0.305,-0.020
1.778,-0.350,-0.015
1.780,-0.415,-0.015
1.782,-0.395,-0.015
1.784,-0.300,-0.015
1.786,-0.215,-0.020
1.788,-0.210,-0.020
1.790,-0.135,-0.020
1.792,-0.160,-0.020
1.794,-0.235,-0.020
1.796,-0.305,-0.015
1.798,-0.380,-0.015
1.800,-0.440,-0.010
1.802,-0.370,-0.010
1.804,-0.300,-0.015
1.806,-0.225,-0.015
1.808,-0.195,-0.015
1.810,-0.145,-0.015
1.812,-0.165,-0.015
1.814,-0.220,-0.015
1.816,-0.290,-0.010
1.818,-0.335,-0.005
1.820,-0.370,0.000
1.822,-0.345,0.005
1.824,-0.240,0.010
1.826,-0.170,0.015
1.828,-0.160,0.020
1.830,-0.115,0.025
1.832,-0.155,0.025
1.834,-0.220,0.025
1.836,-0.300,0.025
1.838,-0.330,0.020
1.840,-0.360,0.015
1.842,-0.350,0.010
1.844,-0.260,0.005
1.846,-0.205,0.000
1.848,-0.165,-0.005
1.850,-0.135,-0.005
1.852,-0.205,-0.010
1.854,-0.280,-0.010
1.856,-0.310,-0.010
1.858,-0.350,-0.010
1.860,-0.370,-0.010
1.862,-0.360,-0.015
1.864,-0.295,-0.015
1.866,-0.240,-0.020
1.868,-0.195,-0.025
1.870,-0.180,-0.030
1.872,-0.215,-0.030
1.874,-0.305,-0.035
1.876,-0.340,-0.035
1.878,-0.400,-0.035
1.880,-0.390,-0.030
1.882,-0.360,-0.030
1.884,-0.260,-0.025
1.886,-0.230,-0.025
1.888,-0.185,-0.025
1.890,-0.185,-0.025
1.892,-0.200,-0.030
1.894,-0.310,-0.035
1.896,-0.355,-0.040
1.898,-0.420,-0.045
1.900,-0.425,-0.050
1.902,-0.390,-0.050
1.904,-0.280,-0.045
1.906,-0.250,-0.040
1.908,-0.165,-0.035
1.910,-0.170,-0.025
1.912,-0.210,-0.020
1.914,-0.310,-0.015
1.916,-0.320,-0.020
1.918,-0.385,-0.025
1.920,-0.380,-0.035
1.922,-0.400,-0.045
1.924,-0.320,-0.060
1.926,-0.285,-0.065
1.928,-0.205,-0.060
1.930,-0.180,-0.050
1.932,-0.200,-0.025
1.934,-0.250,0.005
1.936,-0.230,0.035
1.938,-0.295,0.070
1.940,-0.250,0.095
1.942,-0.220,0.110
1.944,-0.145,0.115
1.946,-0.105,0.100
1.948,-0.050,0.075
1.950,-0.115,0.035
1.952,-0.180,-0.010
1.954,-0.350,-0.065
1.956,-0.485,-0.115
1.958,-0.610,-0.160
1.960,-0.600,-0.200
1.962,-0.565,-0.225
1.964,-0.475,-0.240
1.966,-0.450,-0.245
1.968,-0.355,-0.235
1.970,-0.380,-0.220
1.972,-0.380,-0.195
1.974,-0.445,-0.170
1.976,-0.440,-0.140
1.978,-0.485,-0.115
1.980,-0.445,-0.095
1.982,-0.390,-0.085
1.984,-0.290,-0.075
1.986,-0.275,-0.070
1.988,-0.185,-0.070
1.990,-0.245,-0.075
1.992,-0.300,-0.075
1.994,-0.360,-0.075
1.996,-0.380,-0.070
1.998,-0.470,-0.065
2.000,-0.395,-0.055
2.002,-0.360,-0.045
2.004,-0.255,-0.035
2.006,-0.255,-0.030
2.008,-0.170,-0.025
2.010,-0.200,-0.030
2.012,-0.245,-0.030
2.014,-0.335,-0.035
2.016,-0.360,-0.035
2.018,-0.435,-0.040
2.020,-0.390,-0.035
2.022,-0.320,-0.030
2.024,-0.240,-0.025
2.026,-0.210,-0.020
2.028,-0.145,-0.015
2.030,-0.165,-0.010
2.032,-0.250,-0.010
2.034,-0.340,-0.010
2.036,-0.360,-0.015
2.038,-0.440,-0.020
2.040,-0.395,-0.025
2.042,-0.330,-0.030
2.044,-0.235,-0.030
2.046,-0.225,-0.030
2.048,-0.170,-0.025
2.050,-0.200,-0.020
2.052,-0.235,-0.010
2.054,-0.325,-0.005
2.056,-0.345,0.005
2.058,-0.385,0.010
2.060,-0.355,0.010
2.062,-0.290,0.015
2.064,-0.210,0.015
2.066,-0.190,0.010
2.068,-0.120,0.005
2.070,-0.160,0.000
2.072,-0.265,-0.005
2.074,-0.340,-0.015
2.076,-0.375,-0.025
2.078,-0.420,-0.030
2.080,-0.390,-0.030
2.082,-0.315,-0.030
2.084,-0.235,-0.020
2.086,-0.160,-0.005
2.088,-0.095,0.010
2.090,-0.110,0.030
2.092,-0.185,0.045
2.094,-0.240,0.060
2.096,-0.260,0.065
2.098,-0.350,0.070
2.100,-0.305,0.065
2.102,-0.270,0.055
2.104,-0.220,0.045
2.106,-0.180,0.035
2.108,-0.125,0.030
2.110,-0.140,0.025
2.112,-0.230,0.025
2.114,-0.275,0.025
2.116,-0.345,0.030
2.118,-0.345,0.030
2.120,-0.340,0.035
2.122,-0.280,0.035
2.124,-0.185,0.035
2.126,-0.150,0.030
2.128,-0.115,0.025
2.130,-0.145,0.020
2.132,-0.255,0.020
2.134,-0.320,0.015
2.136,-0.385,0.010
2.138,-0.420,0.005
2.140,-0.390,-0.005
2.142,-0.280,-0.010
2.144,-0.220,-0.015
2.146,-0.150,-0.020
2.148,-0.180,-0.020
2.150,-0.220,-0.020
2.152,-0.305,-0.015
2.154,-0.325,-0.010
2.156,-0.380,0.000
2.158,-0.375,0.010
2.160,-0.340,0.020
2.162,-0.280,0.030
2.164,-0.215,0.035
2.166,-0.140,0.040
2.168,-0.100,0.045
2.170,-0.135,0.050
2.172,-0.225,0.055
2.174,-0.260,0.060
2.176,-0.310,0.070
2.178,-0.320,0.080
2.180,-0.275,0.090
2.182,-0.170,0.095
2.184,-0.125,0.105
2.186,-0.040,0.110
2.188,-0.045,0.115
2.190,-0.120,0.115
2.192,-0.165,0.125
2.194,-0.210,0.130
2.196,-0.255,0.140
2.198,-0.220,0.150
2.200,-0.185,0.165
2.202,-0.090,0.175
2.204,-0.050,0.180
2.206,0.010,0.185
2.208,0.010,0.185
2.210,-0.015,0.185
2.212,-0.115,0.180
2.214,-0.150,0.180
2.216,-0.245,0.185
2.218,-0.200,0.190
2.220,-0.160,0.195
2.222,-0.060,0.205
2.224,-0.010,0.210
2.226,0.060,0.220
2.228,0.045,0.225
2.230,0.005,0.225
2.232,-0.065,0.225
2.234,-0.100,0.225
2.236,-0.195,0.230
2.238,-0.145,0.230
2.240,-0.135,0.230
2.242,-0.045,0.235
2.244,0.000,0.240
2.246,0.110,0.240
2.248,0.055,0.240
2.250,0.015,0.235
2.252,-0.090,0.230
2.254,-0.105,0.225
2.256,-0.180,0.220
2.258,-0.180,0.215
2.260,-0.140,0.215
2.262,-0.070,0.215
2.264,-0.040,0.210
2.266,0.065,0.210
2.268,0.025,0.205
2.270,-0.035,0.195
2.272,-0.155,0.185
2.274,-0.165,0.170
2.276,-0.275,0.150
2.278,-0.255,0.140
2.280,-0.225,0.125
2.282,-0.155,0.120
2.284,-0.115,0.115
2.286,-0.015,0.110
2.288,-0.070,0.110
2.290,-0.170,0.105
2.292,-0.255,0.100
2.294,-0.270,0.095
2.296,-0.340,0.085
2.298,-0.325,0.075
2.300,-0.280,0.070
2.302,-0.205,0.060
2.304,-0.180,0.050
2.306,-0.100,0.045
2.308,-0.135,0.040
2.310,-0.215,0.035
2.312,-0.320,0.025
2.314,-0.355,0.020
2.316,-0.445,0.010
2.318,-0.400,0.005
2.320,-0.345,0.000
2.322,-0.240,-0.005
2.324,-0.210,-0.005
2.326,-0.140,0.000
2.328,-0.175,0.000
2.330,-0.270,0.005
2.332,-0.345,0.005
2.334,-0.365,0.005
2.336,-0.435,0.005
2.338,-0.415,0.000
2.340,-0.325,-0.010
2.342,-0.270,-0.015
2.344,-0.235,-0.020
2.346,-0.200,-0.020
2.348,-0.225,-0.025
2.350,-0.305,-0.025
2.352,-0.360,-0.025
2.354,-0.375,-0.025
2.356,-0.450,-0.025
2.358,-0.435,-0.030
2.360,-0.385,-0.035
2.362,-0.315,-0.040
2.364,-0.280,-0.040
2.366,-0.205,-0.040
2.368,-0.230,-0.035
2.370,-0.305,-0.035
2.372,-0.350,-0.025
2.374,-0.395,-0.020
2.376,-0.435,-0.015
2.378,-0.385,-0.015
2.380,-0.330,-0.015
2.382,-0.320,-0.020
2.384,-0.290,-0.025
2.386,-0.220,-0.030
2.388,-0.240,-0.030
2.390,-0.315,-0.035
2.392,-0.370,-0.035
2.394,-0.395,-0.035
2.396,-0.415,-0.035
2.398,-0.435,-0.030
2.400,-0.355,-0.030
2.402,-0.290,-0.030
2.404,-0.265,-0.035
2.406,-0.220,-0.035
2.408,-0.235,-0.035
2.410,-0.310,-0.035
2.412,-0.360,-0.030
2.414,-0.385,-0.020
2.416,-0.420,-0.015
2.418,-0.420,-0.005
2.420,-0.325,0.000
2.422,-0.290,0.005
2.424,-0.220,0.000
2.426,-0.195,-0.005
2.428,-0.230,-0.020
2.430,-0.345,-0.030
2.432,-0.385,-0.040
2.434,-0.460,-0.050
2.436,-0.450,-0.050
2.438,-0.415,-0.045
2.440,-0.315,-0.040
2.442,-0.290,-0.025
2.444,-0.205,-0.015
2.446,-0.205,-0.010
2.448,-0.235,-0.005
2.450,-0.340,-0.005
2.452,-0.360,-0.010
2.454,-0.445,-0.015
2.456,-0.450,-0.020
2.458,-0.410,-0.025
2.460,-0.305,-0.025
2.462,-0.275,-0.020
2.464,-0.185,-0.015
2.466,-0.175,-0.010
2.468,-0.240,-0.005
2.470,-0.335,0.000
2.472,-0.380,-0.005
2.474,-0.460,-0.010
2.476,-0.430,-0.020
2.478,-0.420,-0.030
2.480,-0.380,-0.040
2.482,-0.310,-0.050
2.484,-0.240,-0.055
2.486,-0.260,-0.060
2.488,-0.310,-0.060
2.490,-0.395,-0.055
2.492,-0.430,-0.050
2.494,-0.485,-0.040
2.496,-0.445,-0.035
2.498,-0.385,-0.030
2.500,-0.325,-0.030
2.502,-0.285,-0.025
2.504,-0.210,-0.025
2.506,-0.255,-0.030
2.508,-0.280,-0.030
2.510,-0.360,-0.030
2.512,-0.395,-0.030
2.514,-0.495,-0.030
2.516,-0.445,-0.030
2.518,-0.405,-0.030
2.520,-0.310,-0.030
2.522,-0.285,-0.030
2.524,-0.205,-0.030
2.526,-0.250,-0.035
2.528,-0.300,-0.035
2.530,-0.360,-0.040
2.532,-0.395,-0.045
2.534,-0.465,-0.045
2.536,-0.460,-0.045
2.538,-0.400,-0.040
2.540,-0.330,-0.035
2.542,-0.295,-0.035
2.544,-0.205,-0.030
2.546,-0.265,-0.030
2.548,-0.325,-0.035
2.550,-0.420,-0.040
2.552,-0.425,-0.045
2.554,-0.510,-0.050
2.556,-0.475,-0.050
2.558,-0.410,-0.050
2.560,-0.320,-0.045
2.562,-0.285,-0.040
2.564,-0.205,-0.035
2.566,-0.230,-0.030
2.568,-0.285,-0.025
2.570,-0.375,-0.025
2.572,-0.400,-0.030
2.574,-0.520,-0.035
2.576,-0.485,-0.045
2.578,-0.405,-0.050
2.580,-0.340,-0.060
2.582,-0.325,-0.065
2.584,-0.255,-0.065
2.586,-0.270,-0.065
2.588,-0.320,-0.065
2.590,-0.430,-0.065
2.592,-0.445,-0.065
2.594,-0.530,-0.065
2.596,-0.505,-0.065
2.598,-0.410,-0.065
2.600,-0.335,-0.060
2.602,-0.320,-0.055
2.604,-0.230,-0.050
2.606,-0.240,-0.045
2.608,-0.315,-0.040
2.610,-0.385,-0.035
2.612,-0.430,-0.030
2.614,-0.480,-0.030
2.616,-0.465,-0.035
2.618,-0.415,-0.040
2.620,-0.335,-0.045
2.622,-0.320,-0.050
2.624,-0.245,-0.050
2.626,-0.255,-0.055
2.628,-0.330,-0.055
2.630,-0.400,-0.055
2.632,-0.435,-0.050
2.634,-0.510,-0.050
2.636,-0.480,-0.045
2.638,-0.405,-0.045
2.640,-0.350,-0.040
2.642,-0.285,-0.040
2.644,-0.245,-0.045
2.646,-0.260,-0.045
2.648,-0.345,-0.050
2.650,-0.420,-0.050
2.652,-0.460,-0.050
2.654,-0.505,-0.050
2.656,-0.480,-0.050
2.658,-0.425,-0.050
2.660,-0.345,-0.050
2.662,-0.310,-0.045
2.664,-0.250,-0.045
2.666,-0.280,-0.045
2.668,-0.360,-0.050
2.670,-0.425,-0.050
2.672,-0.455,-0.055
2.674,-0.515,-0.055
2.676,-0.485,-0.055
2.678,-0.395,-0.055
2.680,-0.340,-0.050
2.682,-0.285,-0.050
2.684,-0.240,-0.045
2.686,-0.285,-0.040
2.688,-0.375,-0.035
2.690,-0.425,-0.030
2.692,-0.485,-0.030
2.694,-0.500,-0.025
2.696,-0.475,-0.025
2.698,-0.385,-0.020
2.700,-0.310,-0.020
2.702,-0.240,-0.020
2.704,-0.185,-0.020
2.706,-0.250,-0.020
2.708,-0.360,-0.025
2.710,-0.425,-0.025
2.712,-0.475,-0.030
2.714,-0.480,-0.030
2.716,-0.440,-0.025
2.718,-0.370,-0.025
2.720,-0.300,-0.015
2.722,-0.255,-0.010
2.724,-0.210,-0.005
2.726,-0.270,0.000
2.728,-0.355,0.005
2.730,-0.370,0.000
2.732,-0.460,-0.005
2.734,-0.465,-0.015
2.736,-0.450,-0.025
2.738,-0.360,-0.035
2.740,-0.360,-0.040
2.742,-0.285,-0.045
2.744,-0.280,-0.040
2.746,-0.285,-0.035
2.748,-0.375,-0.030
2.750,-0.405,-0.025
2.752,-0.495,-0.025
2.754,-0.510,-0.030
2.756,-0.470,-0.035
2.758,-0.370,-0.045
2.760,-0.355,-0.055
2.762,-0.280,-0.065
2.764,-0.290,-0.070
2.766,-0.330,-0.075
2.768,-0.430,-0.070
2.770,-0.485,-0.065
2.772,-0.555,-0.060
2.774,-0.515,-0.060
2.776,-0.490,-0.055
2.778,-0.390,-0.060
2.780,-0.355,-0.065
2.782,-0.275,-0.075
2.784,-0.315,-0.080
2.786,-0.360,-0.085
2.788,-0.455,-0.090
2.790,-0.500,-0.085
2.792,-0.550,-0.075
2.794,-0.515,-0.065
2.796,-0.470,-0.055
2.798,-0.355,-0.040
2.800,-0.325,-0.030
2.802,-0.230,-0.020
2.804,-0.270,-0.015
2.806,-0.325,-0.010
2.808,-0.420,-0.015
2.810,-0.430,-0.020
2.812,-0.530,-0.030
2.814,-0.480,-0.040
2.816,-0.435,-0.050
2.818,-0.355,-0.060
2.820,-0.375,-0.065
2.822,-0.315,-0.070
2.824,-0.315,-0.070
2.826,-0.335,-0.065
2.828,-0.410,-0.060
2.830,-0.440,-0.045
2.832,-0.495,-0.030
2.834,-0.490,-0.015
2.836,-0.410,0.000
2.838,-0.320,0.010
2.840,-0.285,0.015
2.842,-0.185,0.020
2.844,-0.240,0.015
2.846,-0.300,0.015
2.848,-0.380,0.010
2.850,-0.400,0.005
2.852,-0.485,0.005
2.854,-0.460,0.005
2.856,-0.370,0.005
2.858,-0.315,0.005
2.860,-0.300,0.005
2.862,-0.245,0.010
2.864,-0.265,0.010
2.866,-0.315,0.010
2.868,-0.400,0.005
2.870,-0.385,0.005
2.872,-0.465,0.005
2.874,-0.470,0.005
2.876,-0.420,0.000
2.878,-0.350,0.000
2.880,-0.335,-0.005
2.882,-0.240,-0.010
2.884,-0.275,-0.015
2.886,-0.345,-0.025
2.888,-0.435,-0.030
2.890,-0.480,-0.040
2.892,-0.565,-0.045
2.894,-0.505,-0.050
2.896,-0.420,-0.050
2.898,-0.350,-0.045
2.900,-0.345,-0.040
2.902,-0.295,-0.035
2.904,-0.290,-0.030
2.906,-0.355,-0.025
2.908,-0.435,-0.025
2.910,-0.475,-0.025
2.912,-0.525,-0.025
2.914,-0.510,-0.025
2.916,-0.430,-0.025
2.918,-0.365,-0.030
2.920,-0.320,-0.030
2.922,-0.275,-0.030
2.924,-0.270,-0.030
2.926,-0.335,-0.025
2.928,-0.445,-0.030
2.930,-0.510,-0.030
2.932,-0.540,-0.030
2.934,-0.525,-0.030
2.936,-0.430,-0.030
2.938,-0.375,-0.035
2.940,-0.345,-0.035
2.942,-0.265,-0.035
2.944,-0.290,-0.035
2.946,-0.380,-0.035
2.948,-0.480,-0.040
2.950,-0.510,-0.040
2.952,-0.565,-0.040
2.954,-0.520,-0.035
2.956,-0.400,-0.025
2.958,-0.315,-0.010
2.960,-0.255,0.015
2.962,-0.165,0.040
2.964,-0.170,0.070
2.966,-0.265,0.090
2.968,-0.315,0.105
2.970,-0.370,0.105
2.972,-0.395,0.090
2.974,-0.425,0.060
2.976,-0.350,0.020
2.978,-0.320,-0.030
2.980,-0.390,-0.085
2.982,-0.450,-0.135
2.984,-0.535,-0.175
2.986,-0.605,-0.205
2.988,-0.640,-0.220
2.990,-0.695,-0.220
2.992,-0.710,-0.210
2.994,-0.650,-0.195
2.996,-0.545,-0.175
2.998,-0.450,-0.155
3.000,-0.380,-0.140
3.002,-0.385,-0.125
3.004,-0.415,-0.115
3.006,-0.460,-0.105
3.008,-0.505,-0.095
3.010,-0.575,-0.090
3.012,-0.585,-0.080
3.014,-0.535,-0.070
3.016,-0.435,-0.060
3.018,-0.360,-0.050
3.020,-0.295,-0.045
3.022,-0.295,-0.040
3.024,-0.340,-0.040
3.026,-0.430,-0.040
3.028,-0.485,-0.045
3.030,-0.575,-0.050
3.032,-0.565,-0.055
3.034,-0.525,-0.065
3.036,-0.435,-0.065
3.038,-0.405,-0.070
3.040,-0.315,-0.065
3.042,-0.300,-0.060
3.044,-0.330,-0.050
3.046,-0.425,-0.045
3.048,-0.470,-0.035
3.050,-0.570,-0.030
3.052,-0.535,-0.025
3.054,-0.500,-0.020
3.056,-0.405,-0.025
3.058,-0.350,-0.025
3.060,-0.280,-0.025
3.062,-0.290,-0.030
3.064,-0.335,-0.030
3.066,-0.455,-0.025
3.068,-0.485,-0.025
3.070,-0.570,-0.025
3.072,-0.515,-0.025
3.074,-0.480,-0.025
3.076,-0.385,-0.025
3.078,-0.380,-0.030
3.080,-0.265,-0.030
3.082,-0.305,-0.030
3.084,-0.375,-0.030
3.086,-0.455,-0.025
3.088,-0.435,-0.020
3.090,-0.550,-0.015
3.092,-0.495,-0.010
3.094,-0.475,-0.010
3.096,-0.390,-0.010
3.098,-0.370,-0.010
3.100,-0.250,-0.015
3.102,-0.285,-0.015
3.104,-0.335,-0.015
3.106,-0.430,-0.010
3.108,-0.465,-0.010
3.110,-0.550,-0.005
3.112,-0.505,0.000
3.114,-0.460,0.000
3.116,-0.385,0.000
3.118,-0.350,-0.005
3.120,-0.295,-0.010
3.122,-0.305,-0.015
3.124,-0.370,-0.015
3.126,-0.450,-0.015
3.128,-0.465,-0.010
3.130,-0.535,-0.005
3.132,-0.480,0.005
3.134,-0.420,0.015
3.136,-0.360,0.020
3.138,-0.330,0.020
3.140,-0.265,0.020
3.142,-0.280,0.015
3.144,-0.325,0.010
3.146,-0.390,0.005
3.148,-0.420,0.005
3.150,-0.505,0.005
3.152,-0.490,0.010
3.154,-0.435,0.015
3.156,-0.370,0.020
3.158,-0.360,0.025
3.160,-0.260,0.025
3.162,-0.290,0.020
3.164,-0.345,0.015
3.166,-0.400,0.010
3.168,-0.430,0.005
3.170,-0.525,0.005
3.172,-0.485,0.005
3.174,-0.410,0.015
3.176,-0.335,0.025
3.178,-0.305,0.035
3.180,-0.230,0.045
3.182,-0.275,0.050
3.184,-0.345,0.055
3.186,-0.400,0.050
3.188,-0.415,0.050
3.190,-0.475,0.045
3.192,-0.460,0.045
3.194,-0.375,0.045
3.196,-0.305,0.055
3.198,-0.260,0.065
3.200,-0.155,0.085
3.202,-0.185,0.100
3.204,-0.260,0.115
3.206,-0.315,0.125
3.208,-0.345,0.130
3.210,-0.425,0.130
3.212,-0.415,0.130
3.214,-0.320,0.125
3.216,-0.230,0.120
3.218,-0.205,0.120
3.220,-0.130,0.125
3.222,-0.165,0.130
3.224,-0.230,0.140
3.226,-0.305,0.155
3.228,-0.310,0.165
3.230,-0.355,0.175
3.232,-0.330,0.180
3.234,-0.240,0.185
3.236,-0.155,0.185
3.238,-0.130,0.190
3.240,-0.095,0.190
3.242,-0.135,0.195
3.244,-0.195,0.200
3.246,-0.235,0.210
3.248,-0.285,0.220
3.250,-0.310,0.230
3.252,-0.265,0.235
3.254,-0.195,0.240
3.256,-0.140,0.245
3.258,-0.095,0.245
3.260,-0.035,0.245
3.262,-0.045,0.245
3.264,-0.160,0.240
3.266,-0.195,0.245
3.268,-0.245,0.245
3.270,-0.300,0.245
3.272,-0.245,0.250
3.274,-0.180,0.250
3.276,-0.135,0.250
3.278,-0.075,0.245
3.280,-0.050,0.235
3.282,-0.075,0.225
3.284,-0.190,0.215
3.286,-0.260,0.210
3.288,-0.340,0.200
3.290,-0.345,0.200
3.292,-0.305,0.200
3.294,-0.215,0.200
3.296,-0.150,0.200
3.298,-0.110,0.200
3.300,-0.120,0.200
3.302,-0.180,0.195
3.304,-0.275,0.185
3.306,-0.310,0.170
3.308,-0.390,0.155
3.310,-0.410,0.140
3.312,-0.390,0.125
3.314,-0.285,0.110
3.316,-0.265,0.100
3.318,-0.195,0.085
3.320,-0.230,0.075
3.322,-0.310,0.060
3.324,-0.390,0.050
3.326,-0.445,0.035
3.328,-0.525,0.025
3.330,-0.510,0.015
3.332,-0.485,0.010
3.334,-0.415,0.005
3.336,-0.375,0.005
3.338,-0.300,0.005
3.340,-0.285,0.005
3.342,-0.310,0.005
3.344,-0.415,0.005
3.346,-0.470,0.000
3.348,-0.595,0.000
3.350,-0.545,-0.005
3.352,-0.505,-0.005
3.354,-0.430,-0.010
3.356,-0.395,-0.015
3.358,-0.315,-0.015
3.360,-0.330,-0.020
3.362,-0.400,-0.030
3.364,-0.475,-0.035
3.366,-0.495,-0.040
3.368,-0.595,-0.040
3.370,-0.570,-0.040
3.372,-0.540,-0.040
3.374,-0.455,-0.030
3.376,-0.450,-0.025
3.378,-0.310,-0.020
3.380,-0.325,-0.015
3.382,-0.390,-0.010
3.384,-0.475,-0.015
3.386,-0.500,-0.020
3.388,-0.600,-0.030
3.390,-0.570,-0.035
3.392,-0.525,-0.040
3.394,-0.455,-0.040
3.396,-0.445,-0.040
3.398,-0.320,-0.035
3.400,-0.345,-0.030
3.402,-0.425,-0.025
3.404,-0.505,-0.025
3.406,-0.545,-0.030
3.408,-0.625,-0.035
3.410,-0.565,-0.040
3.412,-0.520,-0.045
3.414,-0.435,-0.050
3.416,-0.430,-0.045
3.418,-0.315,-0.040
3.420,-0.345,-0.030
3.422,-0.390,-0.025
3.424,-0.495,-0.015
3.426,-0.505,-0.015
3.428,-0.605,-0.015
3.430,-0.595,-0.025
3.432,-0.530,-0.030
3.434,-0.425,-0.040
3.436,-0.400,-0.045
3.438,-0.345,-0.050
3.440,-0.380,-0.045
3.442,-0.430,-0.040
3.444,-0.520,-0.030
3.446,-0.505,-0.025
3.448,-0.595,-0.015
3.450,-0.575,-0.010
3.452,-0.505,-0.005
3.454,-0.410,-0.005
3.456,-0.385,-0.010
3.458,-0.300,-0.015
3.460,-0.335,-0.020
3.462,-0.420,-0.020
3.464,-0.500,-0.025
3.466,-0.540,-0.025
3.468,-0.615,-0.030
3.470,-0.580,-0.030
3.472,-0.525,-0.030
3.474,-0.460,-0.030
3.476,-0.420,-0.030
3.478,-0.335,-0.025
3.480,-0.360,-0.025
3.482,-0.430,-0.025
3.484,-0.485,-0.020
3.486,-0.560,-0.020
3.488,-0.615,-0.020
3.490,-0.600,-0.020
3.492,-0.510,-0.025
3.494,-0.415,-0.025
3.496,-0.360,-0.025
3.498,-0.325,-0.030
3.500,-0.365,-0.030
3.502,-0.435,-0.030
3.504,-0.525,-0.025
3.506,-0.570,-0.025
3.508,-0.590,-0.025
3.510,-0.550,-0.020
3.512,-0.485,-0.020
3.514,-0.405,-0.015
3.516,-0.365,-0.015
3.518,-0.335,-0.010
3.520,-0.360,-0.010
3.522,-0.435,-0.010
3.524,-0.485,-0.010
3.526,-0.535,-0.010
3.528,-0.585,-0.015
3.530,-0.550,-0.020
3.532,-0.485,-0.025
3.534,-0.450,-0.035
3.536,-0.390,-0.035
3.538,-0.365,-0.040
3.540,-0.395,-0.040
3.542,-0.480,-0.040
3.544,-0.545,-0.040
3.546,-0.585,-0.035
3.548,-0.575,-0.035
3.550,-0.530,-0.030
3.552,-0.480,-0.030
3.554,-0.440,-0.030
3.556,-0.395,-0.030
3.558,-0.385,-0.030
3.560,-0.420,-0.030
3.562,-0.500,-0.030
3.564,-0.515,-0.030
3.566,-0.575,-0.030
3.568,-0.620,-0.025
3.570,-0.570,-0.025
3.572,-0.465,-0.020
3.574,-0.410,-0.020
3.576,-0.365,-0.020
3.578,-0.355,-0.015
3.580,-0.405,-0.015
3.582,-0.490,-0.015
3.584,-0.525,-0.015
3.586,-0.605,-0.015
3.588,-0.600,-0.015
3.590,-0.570,-0.015
3.592,-0.475,-0.015
3.594,-0.410,-0.015
3.596,-0.340,-0.015
3.598,-0.340,-0.015
3.600,-0.400,-0.015
3.602,-0.505,-0.020
3.604,-0.550,-0.020
3.606,-0.625,-0.025
3.608,-0.615,-0.025
3.610,-0.570,-0.030
3.612,-0.490,-0.035
3.614,-0.445,-0.035
3.616,-0.370,-0.035
3.618,-0.380,-0.035
3.620,-0.405,-0.030
3.622,-0.495,-0.025
3.624,-0.530,-0.020
3.626,-0.615,-0.015
3.628,-0.590,-0.015
3.630,-0.560,-0.015
3.632,-0.460,-0.020
3.634,-0.425,-0.025
3.636,-0.350,-0.035
3.638,-0.385,-0.040
3.640,-0.465,-0.045
3.642,-0.530,-0.045
3.644,-0.555,-0.040
3.646,-0.625,-0.035
3.648,-0.590,-0.030
3.650,-0.565,-0.020
3.652,-0.450,-0.015
3.654,-0.410,-0.015
3.656,-0.340,-0.015
3.658,-0.385,-0.020
3.660,-0.425,-0.025
3.662,-0.525,-0.030
3.664,-0.545,-0.035
3.666,-0.640,-0.040
3.668,-0.595,-0.035
3.670,-0.570,-0.035
3.672,-0.510,-0.030
3.674,-0.455,-0.020
3.676,-0.355,-0.020
3.678,-0.400,-0.020
3.680,-0.420,-0.020
3.682,-0.495,-0.025
3.684,-0.515,-0.030
3.686,-0.610,-0.035
3.688,-0.610,-0.040
3.690,-0.565,-0.040
3.692,-0.465,-0.035
3.694,-0.455,-0.030
3.696,-0.375,-0.025
3.698,-0.390,-0.020
3.700,-0.465,-0.020
3.702,-0.535,-0.020
3.704,-0.550,-0.025
3.706,-0.645,-0.030
3.708,-0.595,-0.040
3.710,-0.530,-0.045
3.712,-0.440,-0.050
3.714,-0.440,-0.050
3.716,-0.385,-0.045
3.718,-0.410,-0.035
3.720,-0.445,-0.030
3.722,-0.525,-0.020
3.724,-0.550,-0.015
3.726,-0.630,-0.010
3.728,-0.585,-0.010
3.730,-0.540,-0.015
3.732,-0.480,-0.020
3.734,-0.440,-0.025
3.736,-0.365,-0.025
3.738,-0.375,-0.030
3.740,-0.460,-0.030
3.742,-0.525,-0.030
3.744,-0.550,-0.030
3.746,-0.610,-0.025
3.748,-0.600,-0.025
3.750,-0.530,-0.025
3.752,-0.455,-0.030
3.754,-0.435,-0.030
3.756,-0.390,-0.035
3.758,-0.415,-0.040
3.760,-0.495,-0.040
3.762,-0.570,-0.045
3.764,-0.625,-0.045
3.766,-0.625,-0.040
3.768,-0.590,-0.040
3.770,-0.530,-0.035
3.772,-0.450,-0.030
3.774,-0.415,-0.025
3.776,-0.370,-0.025
3.778,-0.390,-0.020
3.780,-0.475,-0.020
3.782,-0.575,-0.020
3.784,-0.600,-0.025
3.786,-0.645,-0.030
3.788,-0.615,-0.035
3.790,-0.530,-0.040
3.792,-0.490,-0.045
3.794,-0.430,-0.045
3.796,-0.365,-0.045
3.798,-0.410,-0.045
3.800,-0.480,-0.040
3.802,-0.545,-0.035
3.804,-0.585,-0.030
3.806,-0.640,-0.025
3.808,-0.610,-0.025
3.810,-0.530,-0.025
3.812,-0.460,-0.025
3.814,-0.420,-0.025
3.816,-0.390,-0.025
3.818,-0.425,-0.030
3.820,-0.505,-0.030
3.822,-0.550,-0.030
3.824,-0.590,-0.030
3.826,-0.625,-0.025
3.828,-0.615,-0.020
3.830,-0.510,-0.020
3.832,-0.465,-0.015
3.834,-0.405,-0.015
3.836,-0.390,-0.015
3.838,-0.420,-0.015
3.840,-0.500,-0.020
3.842,-0.560,-0.020
3.844,-0.625,-0.020
3.846,-0.610,-0.020
3.848,-0.605,-0.020
3.850,-0.490,-0.015
3.852,-0.440,-0.015
3.854,-0.375,-0.010
3.856,-0.350,-0.005
3.858,-0.405,0.005
3.860,-0.495,0.010
3.862,-0.525,0.015
3.864,-0.605,0.020
3.866,-0.590,0.025
3.868,-0.545,0.030
3.870,-0.440,0.030
3.872,-0.380,0.035
3.874,-0.315,0.035
3.876,-0.320,0.035
3.878,-0.360,0.035
3.880,-0.475,0.035
3.882,-0.525,0.035
3.884,-0.590,0.035
3.886,-0.585,0.030
3.888,-0.510,0.025
3.890,-0.435,0.020
3.892,-0.415,0.010
3.894,-0.365,0.000
3.896,-0.395,-0.010
3.898,-0.465,-0.025
3.900,-0.605,-0.035
3.902,-0.620,-0.045
3.904,-0.670,-0.050
3.906,-0.615,-0.055
3.908,-0.590,-0.055
3.910,-0.515,-0.050
3.912,-0.475,-0.045
3.914,-0.400,-0.040
3.916,-0.425,-0.035
3.918,-0.495,-0.035
3.920,-0.550,-0.030
3.922,-0.590,-0.035
3.924,-0.660,-0.040
3.926,-0.610,-0.040
3.928,-0.590,-0.045
3.930,-0.495,-0.050
3.932,-0.490,-0.050
3.934,-0.420,-0.050
3.936,-0.440,-0.050
3.938,-0.465,-0.045
3.940,-0.540,-0.045
3.942,-0.580,-0.040
3.944,-0.685,-0.035
3.946,-0.625,-0.035
3.948,-0.590,-0.035
3.950,-0.515,-0.035
3.952,-0.495,-0.035
3.954,-0.385,-0.035
3.956,-0.420,-0.035
3.958,-0.470,-0.035
3.960,-0.550,-0.035
3.962,-0.565,-0.035
3.964,-0.670,-0.035
3.966,-0.640,-0.030
3.968,-0.575,-0.025
3.970,-0.500,-0.015
3.972,-0.470,-0.010
3.974,-0.375,0.000
3.976,-0.390,0.010
3.978,-0.400,0.025
3.980,-0.445,0.035
3.982,-0.465,0.045
3.984,-0.555,0.055
3.986,-0.545,0.065
3.988,-0.490,0.075
3.990,-0.390,0.075
3.992,-0.335,0.070
3.994,-0.260,0.050
3.996,-0.335,0.025
3.998,-0.430,-0.015
4.000,-0.630,-0.060
4.002,-0.770,-0.110
4.004,-0.895,-0.160
4.006,-0.865,-0.200
4.008,-0.800,-0.230
4.010,-0.675,-0.245
4.012,-0.645,-0.245
4.014,-0.560,-0.230
4.016,-0.600,-0.205
4.018,-0.625,-0.170
4.020,-0.660,-0.140
4.022,-0.665,-0.110
4.024,-0.735,-0.085
4.026,-0.695,-0.075
4.028,-0.600,-0.065
4.030,-0.525,-0.065
4.032,-0.505,-0.070
4.034,-0.435,-0.075
4.036,-0.475,-0.075
4.038,-0.560,-0.075
4.040,-0.620,-0.070
4.042,-0.630,-0.060
4.044,-0.675,-0.050
4.046,-0.640,-0.040
4.048,-0.555,-0.030
4.050,-0.485,-0.020
4.052,-0.440,-0.015
4.054,-0.375,-0.015
4.056,-0.410,-0.015
4.058,-0.540,-0.020
4.060,-0.630,-0.020
4.062,-0.625,-0.025
4.064,-0.660,-0.025
4.066,-0.630,-0.025
4.068,-0.530,-0.025
4.070,-0.490,-0.025
4.072,-0.445,-0.025
4.074,-0.400,-0.025
4.076,-0.430,-0.020
4.078,-0.495,-0.020
4.080,-0.565,-0.020
4.082,-0.610,-0.015
4.084,-0.645,-0.015
4.086,-0.605,-0.015
4.088,-0.515,-0.015
4.090,-0.470,-0.015
4.092,-0.445,-0.015
4.094,-0.420,-0.020
4.096,-0.435,-0.020
4.098,-0.530,-0.020
4.100,-0.550,-0.025
4.102,-0.620,-0.025
4.104,-0.675,-0.020
4.106,-0.640,-0.020
4.108,-0.515,-0.015
4.110,-0.470,-0.015
4.112,-0.410,-0.010
4.114,-0.375,-0.010
4.116,-0.420,-0.010
4.118,-0.525,-0.015
4.120,-0.610,-0.015
4.122,-0.680,-0.025
4.124,-0.680,-0.025
4.126,-0.660,-0.030
4.128,-0.535,-0.030
4.130,-0.475,-0.030
4.132,-0.420,-0.020
4.134,-0.385,-0.015
4.136,-0.430,-0.010
4.138,-0.495,0.000
4.140,-0.540,0.000
4.142,-0.645,0.005
4.144,-0.645,0.000
4.146,-0.615,0.000
4.148,-0.510,0.000
4.150,-0.475,-0.005
4.152,-0.375,0.000
4.154,-0.375,0.005
4.156,-0.405,0.015
4.158,-0.515,0.025
4.160,-0.535,0.035
4.162,-0.595,0.040
4.164,-0.565,0.040
4.166,-0.550,0.040
4.168,-0.520,0.030
4.170,-0.475,0.020
4.172,-0.390,0.010
4.174,-0.410,0.000
4.176,-0.460,-0.005
4.178,-0.515,0.000
4.180,-0.545,0.005
4.182,-0.605,0.015
4.184,-0.565,0.025
4.186,-0.525,0.035
4.188,-0.450,0.045
4.190,-0.430,0.050
4.192,-0.355,0.050
4.194,-0.370,0.045
4.196,-0.410,0.045
4.198,-0.505,0.045
4.200,-0.525,0.045
4.202,-0.585,0.050
4.204,-0.525,0.055
4.206,-0.505,0.060
4.208,-0.445,0.065
4.210,-0.415,0.070
4.212,-0.335,0.070
4.214,-0.360,0.070
4.216,-0.380,0.070
4.218,-0.470,0.065
4.220,-0.485,0.070
4.222,-0.560,0.075
4.224,-0.525,0.085
4.226,-0.465,0.100
4.228,-0.370,0.115
4.230,-0.350,0.125
4.232,-0.260,0.135
4.234,-0.280,0.140
4.236,-0.340,0.140
4.238,-0.405,0.140
4.240,-0.410,0.140
4.242,-0.495,0.145
4.244,-0.475,0.150
4.246,-0.425,0.160
4.248,-0.330,0.170
4.250,-0.295,0.185
4.252,-0.185,0.195
4.254,-0.210,0.205
4.256,-0.255,0.210
4.258,-0.335,0.210
4.260,-0.365,0.205
4.262,-0.455,0.205
4.264,-0.425,0.200
4.266,-0.370,0.205
4.268,-0.305,0.210
4.270,-0.260,0.215
4.272,-0.135,0.225
4.274,-0.150,0.235
4.276,-0.230,0.245
4.278,-0.310,0.250
4.280,-0.330,0.245
4.282,-0.450,0.240
4.284,-0.420,0.235
4.286,-0.320,0.225
4.288,-0.250,0.220
4.290,-0.235,0.220
4.292,-0.170,0.220
4.294,-0.180,0.230
4.296,-0.250,0.240
4.298,-0.345,0.250
4.300,-0.355,0.255
4.302,-0.390,0.260
4.304,-0.375,0.255
4.306,-0.315,0.245
4.308,-0.260,0.235
4.310,-0.235,0.220
4.312,-0.180,0.200
4.314,-0.245,0.185
4.316,-0.340,0.175
4.318,-0.405,0.165
4.320,-0.455,0.155
4.322,-0.490,0.150
4.324,-0.475,0.145
4.326,-0.410,0.140
4.328,-0.350,0.135
4.330,-0.340,0.130
4.332,-0.300,0.125
4.334,-0.345,0.115
4.336,-0.395,0.105
4.338,-0.475,0.095
4.340,-0.545,0.085
4.342,-0.595,0.075
4.344,-0.555,0.065
4.346,-0.510,0.055
4.348,-0.425,0.050
4.350,-0.395,0.040
4.352,-0.350,0.035
4.354,-0.405,0.035
4.356,-0.480,0.030
4.358,-0.540,0.030
4.360,-0.590,0.030
4.362,-0.640,0.025
4.364,-0.615,0.020
4.366,-0.555,0.010
4.368,-0.535,0.000
4.370,-0.480,-0.010
4.372,-0.430,-0.025
4.374,-0.460,-0.035
4.376,-0.560,-0.045
4.378,-0.610,-0.050
4.380,-0.650,-0.055
4.382,-0.665,-0.055
4.384,-0.640,-0.050
4.386,-0.580,-0.045
4.388,-0.525,-0.045
4.390,-0.465,-0.040
4.392,-0.415,-0.035
4.394,-0.440,-0.030
4.396,-0.555,-0.025
4.398,-0.600,-0.020
4.400,-0.650,-0.020
4.402,-0.670,-0.020
4.404,-0.660,-0.020
4.406,-0.565,-0.020
4.408,-0.535,-0.025
4.410,-0.455,-0.035
4.412,-0.440,-0.040
4.414,-0.500,-0.050
4.416,-0.605,-0.055
4.418,-0.645,-0.055
4.420,-0.685,-0.055
4.422,-0.670,-0.045
4.424,-0.655,-0.040
4.426,-0.545,-0.030
4.428,-0.495,-0.020
4.430,-0.435,-0.015
4.432,-0.455,-0.015
4.434,-0.470,-0.015
4.436,-0.575,-0.020
4.438,-0.615,-0.020
4.440,-0.635,-0.020
4.442,-0.640,-0.020
4.444,-0.610,-0.015
4.446,-0.555,-0.005
4.448,-0.505,0.000
4.450,-0.430,0.005
4.452,-0.435,0.005
4.454,-0.485,0.000
4.456,-0.555,-0.005
4.458,-0.580,-0.015
4.460,-0.690,-0.025
4.462,-0.665,-0.030
4.464,-0.595,-0.030
4.466,-0.530,-0.030
4.468,-0.515,-0.030
4.470,-0.425,-0.025
4.472,-0.455,-0.025
4.474,-0.515,-0.020
4.476,-0.605,-0.025
4.478,-0.630,-0.025
4.480,-0.695,-0.030
4.482,-0.650,-0.030
4.484,-0.605,-0.030
4.486,-0.535,-0.025
4.488,-0.510,-0.020
4.490,-0.405,-0.010
4.492,-0.440,-0.005
4.494,-0.500,-0.005
4.496,-0.575,-0.005
4.498,-0.590,-0.010
4.500,-0.690,-0.015
4.502,-0.665,-0.025
4.504,-0.585,-0.030
4.506,-0.510,-0.030
4.508,-0.495,-0.025
4.510,-0.415,-0.020
4.512,-0.470,-0.010
4.514,-0.490,-0.005
4.516,-0.590,0.000
4.518,-0.615,0.000
4.520,-0.700,-0.005
4.522,-0.665,-0.010
4.524,-0.600,-0.020
4.526,-0.525,-0.030
4.528,-0.500,-0.035
4.530,-0.435,-0.035
4.532,-0.450,-0.035
4.534,-0.530,-0.030
4.536,-0.615,-0.025
4.538,-0.630,-0.025
4.540,-0.705,-0.025
4.542,-0.680,-0.025
4.544,-0.615,-0.025
4.546,-0.555,-0.025
4.548,-0.525,-0.025
4.550,-0.425,-0.020
4.552,-0.420,-0.015
4.554,-0.495,-0.010
4.556,-0.585,-0.005
4.558,-0.605,-0.005
4.560,-0.690,-0.005
4.562,-0.675,-0.010
4.564,-0.640,-0.020
4.566,-0.560,-0.030
4.568,-0.525,-0.045
4.570,-0.460,-0.055
4.572,-0.470,-0.060
4.574,-0.550,-0.060
4.576,-0.630,-0.055
4.578,-0.650,-0.045
4.580,-0.680,-0.035
4.582,-0.660,-0.030
4.584,-0.570,-0.020
4.586,-0.510,-0.020
4.588,-0.510,-0.020
4.590,-0.460,-0.025
4.592,-0.480,-0.035
4.594,-0.565,-0.045
4.596,-0.645,-0.050
4.598,-0.660,-0.060
4.600,-0.735,-0.060
4.602,-0.685,-0.055
4.604,-0.610,-0.050
4.606,-0.545,-0.045
4.608,-0.510,-0.040
4.610,-0.460,-0.035
4.612,-0.470,-0.035
4.614,-0.560,-0.035
4.616,-0.620,-0.040
4.618,-0.685,-0.045
4.620,-0.715,-0.055
4.622,-0.695,-0.060
4.624,-0.620,-0.060
4.626,-0.540,-0.060
4.628,-0.515,-0.060
4.630,-0.470,-0.055
4.632,-0.480,-0.050
4.634,-0.550,-0.045
4.636,-0.625,-0.045
4.638,-0.675,-0.045
4.640,-0.725,-0.050
4.642,-0.695,-0.055
4.644,-0.610,-0.060
4.646,-0.525,-0.060
4.648,-0.515,-0.060
4.650,-0.470,-0.055
4.652,-0.490,-0.050
4.654,-0.580,-0.045
4.656,-0.615,-0.035
4.658,-0.680,-0.030
4.660,-0.700,-0.030
4.662,-0.690,-0.030
4.664,-0.595,-0.035
4.666,-0.550,-0.040
4.668,-0.475,-0.045
4.670,-0.450,-0.050
4.672,-0.480,-0.050
4.674,-0.575,-0.045
4.676,-0.625,-0.045
4.678,-0.725,-0.040
4.680,-0.740,-0.040
4.682,-0.685,-0.040
4.684,-0.595,-0.040
4.686,-0.540,-0.045
4.688,-0.455,-0.050
4.690,-0.460,-0.050
4.692,-0.500,-0.050
4.694,-0.605,-0.045
4.696,-0.640,-0.040
4.698,-0.710,-0.035
4.700,-0.695,-0.025
4.702,-0.640,-0.025
4.704,-0.540,-0.025
4.706,-0.510,-0.035
4.708,-0.480,-0.045
4.710,-0.500,-0.055
4.712,-0.555,-0.070
4.714,-0.630,-0.075
4.716,-0.675,-0.080
4.718,-0.740,-0.080
4.720,-0.710,-0.070
4.722,-0.660,-0.060
4.724,-0.560,-0.045
4.726,-0.525,-0.035
4.728,-0.445,-0.025
4.730,-0.465,-0.025
4.732,-0.510,-0.030
4.734,-0.615,-0.040
4.736,-0.645,-0.050
4.738,-0.745,-0.060
4.740,-0.725,-0.070
4.742,-0.695,-0.070
4.744,-0.580,-0.070
4.746,-0.565,-0.065
4.748,-0.485,-0.055
4.750,-0.460,-0.045
4.752,-0.510,-0.040
4.754,-0.575,-0.035
4.756,-0.620,-0.035
4.758,-0.730,-0.035
4.760,-0.700,-0.040
4.762,-0.675,-0.045
4.764,-0.570,-0.045
4.766,-0.550,-0.045
4.768,-0.450,-0.045
4.770,-0.490,-0.045
4.772,-0.545,-0.040
4.774,-0.615,-0.040
4.776,-0.615,-0.040
4.778,-0.725,-0.040
4.780,-0.690,-0.045
4.782,-0.650,-0.050
4.784,-0.565,-0.055
4.786,-0.565,-0.060
4.788,-0.495,-0.060
4.790,-0.505,-0.060
4.792,-0.550,-0.060
4.794,-0.635,-0.055
4.796,-0.655,-0.050
4.798,-0.740,-0.050
4.800,-0.695,-0.045
4.802,-0.650,-0.045
4.804,-0.550,-0.045
4.806,-0.545,-0.045
4.808,-0.470,-0.045
4.810,-0.490,-0.045
4.812,-0.545,-0.045
4.814,-0.620,-0.045
4.816,-0.615,-0.045
4.818,-0.725,-0.040
4.820,-0.705,-0.040
4.822,-0.675,-0.040
4.824,-0.570,-0.035
4.826,-0.515,-0.035
4.828,-0.435,-0.040
4.830,-0.485,-0.040
4.832,-0.555,-0.045
4.834,-0.620,-0.045
4.836,-0.670,-0.050
4.838,-0.755,-0.055
4.840,-0.690,-0.055
4.842,-0.640,-0.055
4.844,-0.565,-0.050
4.846,-0.550,-0.045
4.848,-0.470,-0.040
4.850,-0.490,-0.035
4.852,-0.535,-0.030
4.854,-0.600,-0.025
4.856,-0.625,-0.025
4.858,-0.715,-0.020
4.860,-0.700,-0.025
4.862,-0.620,-0.025
4.864,-0.550,-0.030
4.866,-0.545,-0.035
4.868,-0.475,-0.045
4.870,-0.480,-0.050
4.872,-0.545,-0.055
4.874,-0.640,-0.060
4.876,-0.680,-0.060
4.878,-0.755,-0.060
4.880,-0.735,-0.055
4.882,-0.630,-0.050
4.884,-0.560,-0.045
4.886,-0.515,-0.040
4.888,-0.465,-0.035
4.890,-0.495,-0.025
4.892,-0.565,-0.025
4.894,-0.600,-0.020
4.896,-0.650,-0.020
4.898,-0.695,-0.025
4.900,-0.710,-0.025
4.902,-0.620,-0.030
4.904,-0.575,-0.030
4.906,-0.520,-0.030
4.908,-0.455,-0.030
4.910,-0.470,-0.030
4.912,-0.545,-0.025
4.914,-0.620,-0.020
4.916,-0.665,-0.015
4.918,-0.695,-0.010
4.920,-0.685,-0.010
4.922,-0.605,-0.010
4.924,-0.530,-0.010
4.926,-0.485,-0.010
4.928,-0.435,-0.010
4.930,-0.470,-0.015
4.932,-0.505,-0.015
4.934,-0.595,-0.010
4.936,-0.650,-0.010
4.938,-0.670,-0.005
4.940,-0.665,0.000
4.942,-0.565,0.010
4.944,-0.510,0.010
4.946,-0.465,0.015
4.948,-0.455,0.015
4.950,-0.485,0.010
4.952,-0.525,0.005
4.954,-0.580,-0.005
4.956,-0.675,-0.010
4.958,-0.680,-0.015
4.960,-0.660,-0.020
4.962,-0.570,-0.020
4.964,-0.530,-0.020
4.966,-0.470,-0.020
4.968,-0.450,-0.020
4.970,-0.505,-0.025
4.972,-0.590,-0.030
4.974,-0.625,-0.035
4.976,-0.715,-0.040
4.978,-0.705,-0.045
4.980,-0.655,-0.050
4.982,-0.585,-0.050
4.984,-0.545,-0.045
4.986,-0.480,-0.045
4.988,-0.490,-0.040
4.990,-0.520,-0.035
4.992,-0.600,-0.035
4.994,-0.640,-0.035
4.996,-0.725,-0.035
4.998,-0.720,-0.040
5.000,-0.660,-0.040
5.002,-0.575,-0.040
5.004,-0.535,-0.040
5.006,-0.440,-0.040
5.008,-0.475,-0.035
5.010,-0.525,-0.030
5.012,-0.605,-0.030
5.014,-0.630,-0.030
5.016,-0.710,-0.030
5.018,-0.700,-0.035
5.020,-0.700,-0.040
5.022,-0.585,-0.040
5.024,-0.545,-0.045
5.026,-0.445,-0.045
5.028,-0.465,-0.045
5.030,-0.510,-0.045
5.032,-0.620,-0.045
5.034,-0.670,-0.040
5.036,-0.770,-0.035
5.038,-0.700,-0.030
5.040,-0.645,-0.020
5.042,-0.530,-0.010
5.044,-0.490,0.005
5.046,-0.380,0.025
5.048,-0.395,0.045
5.050,-0.390,0.065
5.052,-0.475,0.085
5.054,-0.545,0.100
5.056,-0.625,0.105
5.058,-0.555,0.100
5.060,-0.530,0.085
5.062,-0.440,0.060
5.064,-0.415,0.025
5.066,-0.400,-0.015
5.068,-0.555,-0.055
5.070,-0.675,-0.100
5.072,-0.775,-0.135
5.074,-0.795,-0.160
5.076,-0.880,-0.175
5.078,-0.860,-0.180
5.080,-0.800,-0.180
5.082,-0.665,-0.165
5.084,-0.620,-0.150
5.086,-0.545,-0.135
5.088,-0.555,-0.115
5.090,-0.580,-0.100
5.092,-0.655,-0.085
5.094,-0.660,-0.070
5.096,-0.730,-0.060
5.098,-0.725,-0.050
5.100,-0.640,-0.045
5.102,-0.545,-0.035
5.104,-0.525,-0.030
5.106,-0.440,-0.025
5.108,-0.485,-0.025
5.110,-0.545,-0.025
5.112,-0.630,-0.025
5.114,-0.665,-0.035
5.116,-0.735,-0.040
5.118,-0.710,-0.045
5.120,-0.630,-0.050
5.122,-0.535,-0.050
5.124,-0.510,-0.050
5.126,-0.435,-0.045
5.128,-0.470,-0.035
5.130,-0.535,-0.030
5.132,-0.595,-0.020
5.134,-0.635,-0.015
5.136,-0.710,-0.010
5.138,-0.665,-0.010
5.140,-0.590,-0.010
5.142,-0.540,-0.015
5.144,-0.505,-0.020
5.146,-0.450,-0.025
5.148,-0.450,-0.025
5.150,-0.545,-0.025
5.152,-0.610,-0.020
5.154,-0.640,-0.010
5.156,-0.670,0.000
5.158,-0.630,0.010
5.160,-0.580,0.020
5.162,-0.520,0.030
5.164,-0.460,0.035
5.166,-0.375,0.035
5.168,-0.420,0.030
5.170,-0.500,0.020
5.172,-0.590,0.010
5.174,-0.635,0.000
5.176,-0.700,-0.010
5.178,-0.670,-0.015
5.180,-0.585,-0.015
5.182,-0.550,-0.015
5.184,-0.485,-0.010
5.186,-0.395,0.000
5.188,-0.425,0.005
5.190,-0.510,0.010
5.192,-0.595,0.015
5.194,-0.665,0.015
5.196,-0.710,0.015
5.198,-0.690,0.010
5.200,-0.595,0.005
5.202,-0.500,0.000
5.204,-0.460,0.000
5.206,-0.400,0.000
5.208,-0.435,0.005
5.210,-0.520,0.010
5.212,-0.600,0.015
5.214,-0.635,0.020
5.216,-0.660,0.025
5.218,-0.655,0.025
5.220,-0.565,0.020
5.222,-0.495,0.015
5.224,-0.465,0.005
5.226,-0.430,0.000
5.228,-0.475,-0.005
5.230,-0.530,-0.005
5.232,-0.565,-0.005
5.234,-0.610,0.005
5.236,-0.635,0.010
5.238,-0.615,0.020
5.240,-0.525,0.030
5.242,-0.490,0.035
5.244,-0.420,0.040
5.246,-0.405,0.045
5.248,-0.435,0.045
5.250,-0.515,0.045
5.252,-0.545,0.045
5.254,-0.615,0.045
5.256,-0.610,0.045
5.258,-0.585,0.050
5.260,-0.535,0.050
5.262,-0.500,0.055
5.264,-0.415,0.055
5.266,-0.400,0.055
5.268,-0.405,0.055
5.270,-0.480,0.060
5.272,-0.490,0.060
5.274,-0.605,0.070
5.276,-0.590,0.075
5.278,-0.555,0.085
5.280,-0.440,0.100
5.282,-0.385,0.110
5.284,-0.310,0.115
5.286,-0.340,0.120
5.288,-0.415,0.120
5.290,-0.475,0.120
5.292,-0.485,0.115
5.294,-0.570,0.110
5.296,-0.530,0.105
5.298,-0.525,0.105
5.300,-0.425,0.110
5.302,-0.385,0.115
5.304,-0.310,0.120
5.306,-0.305,0.130
5.308,-0.335,0.140
5.310,-0.420,0.150
5.312,-0.435,0.160
5.314,-0.520,0.170
5.316,-0.495,0.180
5.318,-0.460,0.185
5.320,-0.350,0.195
5.322,-0.290,0.200
5.324,-0.200,0.205
5.326,-0.245,0.210
5.328,-0.265,0.210
5.330,-0.380,0.210
5.332,-0.405,0.210
5.334,-0.475,0.210
5.336,-0.445,0.210
5.338,-0.415,0.210
5.340,-0.310,0.215
5.342,-0.285,0.220
5.344,-0.210,0.225
5.346,-0.225,0.230
5.348,-0.285,0.240
5.350,-0.365,0.245
5.352,-0.365,0.245
5.354,-0.430,0.250
5.356,-0.390,0.255
5.358,-0.345,0.255
5.360,-0.270,0.255
5.362,-0.245,0.255
5.364,-0.170,0.260
5.366,-0.200,0.255
5.368,-0.280,0.255
5.370,-0.365,0.250
5.372,-0.355,0.245
5.374,-0.455,0.240
5.376,-0.435,0.230
5.378,-0.400,0.225
5.380,-0.345,0.210
5.382,-0.330,0.200
5.384,-0.235,0.190
5.386,-0.275,0.180
5.388,-0.330,0.170
5.390,-0.435,0.155
5.392,-0.475,0.150
5.394,-0.555,0.140
5.396,-0.535,0.130
5.398,-0.475,0.125
5.400,-0.415,0.120
5.402,-0.415,0.115
5.404,-0.325,0.110
5.406,-0.360,0.105
5.408,-0.425,0.095
5.410,-0.510,0.085
5.412,-0.530,0.070
5.414,-0.635,0.060
5.416,-0.635,0.045
5.418,-0.570,0.035
5.420,-0.505,0.025
5.422,-0.475,0.020
5.424,-0.420,0.015
5.426,-0.440,0.010
5.428,-0.535,0.010
5.430,-0.615,0.005
5.432,-0.635,0.000
5.434,-0.680,-0.010
5.436,-0.685,-0.020
5.438,-0.625,-0.025
5.440,-0.545,-0.035
5.442,-0.500,-0.035
5.444,-0.450,-0.040
5.446,-0.470,-0.035
5.448,-0.550,-0.030
5.450,-0.615,-0.020
5.452,-0.650,-0.015
5.454,-0.695,-0.010
5.456,-0.680,-0.005
5.458,-0.635,-0.005
5.460,-0.555,-0.005
5.462,-0.490,-0.010
5.464,-0.410,-0.015
5.466,-0.440,-0.020
5.468,-0.555,-0.025
5.470,-0.645,-0.025
5.472,-0.690,-0.030
5.474,-0.735,-0.030
5.476,-0.700,-0.035
5.478,-0.605,-0.035
5.480,-0.525,-0.040
5.482,-0.515,-0.040
5.484,-0.480,-0.045
5.486,-0.525,-0.050
5.488,-0.605,-0.055
5.490,-0.645,-0.055
5.492,-0.700,-0.055
5.494,-0.735,-0.050
5.496,-0.695,-0.045
5.498,-0.600,-0.040
5.500,-0.505,-0.035
5.502,-0.465,-0.025
5.504,-0.440,-0.020
5.506,-0.465,-0.015
5.508,-0.565,-0.015
5.510,-0.630,-0.015
5.512,-0.690,-0.020
5.514,-0.735,-0.025
5.516,-0.695,-0.035
5.518,-0.595,-0.040
5.520,-0.550,-0.045
5.522,-0.490,-0.045
5.524,-0.460,-0.045
5.526,-0.490,-0.040
5.528,-0.570,-0.030
5.530,-0.625,-0.025
5.532,-0.680,-0.020
5.534,-0.695,-0.015
5.536,-0.685,-0.015
5.538,-0.605,-0.015
5.540,-0.555,-0.020
5.542,-0.460,-0.020
5.544,-0.445,-0.025
5.546,-0.485,-0.025
5.548,-0.590,-0.025
5.550,-0.625,-0.020
5.552,-0.705,-0.015
5.554,-0.695,-0.010
5.556,-0.665,-0.010
5.558,-0.590,-0.010
5.560,-0.520,-0.010
5.562,-0.450,-0.015
5.564,-0.475,-0.020
5.566,-0.495,-0.025
5.568,-0.575,-0.030
5.570,-0.620,-0.030
5.572,-0.700,-0.030
5.574,-0.685,-0.025
5.576,-0.640,-0.020
5.578,-0.565,-0.015
5.580,-0.525,-0.010
5.582,-0.445,-0.005
5.584,-0.445,-0.005
5.586,-0.490,-0.010
5.588,-0.570,-0.015
5.590,-0.600,-0.020
5.592,-0.735,-0.030
5.594,-0.710,-0.035
5.596,-0.670,-0.040
5.598,-0.580,-0.040
5.600,-0.580,-0.040
5.602,-0.460,-0.040
5.604,-0.500,-0.040
5.606,-0.505,-0.035
5.608,-0.590,-0.030
5.610,-0.610,-0.030
5.612,-0.710,-0.030
5.614,-0.695,-0.030
5.616,-0.675,-0.030
5.618,-0.590,-0.025
5.620,-0.560,-0.025
5.622,-0.440,-0.020
5.624,-0.450,-0.020
5.626,-0.500,-0.015
5.628,-0.585,-0.010
5.630,-0.620,-0.005
5.632,-0.700,-0.005
5.634,-0.710,-0.010
5.636,-0.675,-0.015
5.638,-0.605,-0.020
5.640,-0.550,-0.030
5.642,-0.440,-0.040
5.644,-0.475,-0.050
5.646,-0.550,-0.055
5.648,-0.620,-0.055
5.650,-0.650,-0.055
5.652,-0.740,-0.055
5.654,-0.720,-0.050
5.656,-0.645,-0.045
5.658,-0.565,-0.040
5.660,-0.545,-0.035
5.662,-0.430,-0.035
5.664,-0.495,-0.035
5.666,-0.565,-0.040
5.668,-0.635,-0.040
5.670,-0.640,-0.045
5.672,-0.720,-0.045
5.674,-0.695,-0.045
5.676,-0.660,-0.045
5.678,-0.575,-0.040
5.680,-0.535,-0.040
5.682,-0.455,-0.035
5.684,-0.505,-0.030
5.686,-0.560,-0.030
5.688,-0.645,-0.030
5.690,-0.645,-0.030
5.692,-0.715,-0.030
5.694,-0.705,-0.035
5.696,-0.645,-0.035
5.698,-0.545,-0.035
5.700,-0.490,-0.030
5.702,-0.435,-0.030
5.704,-0.465,-0.030
5.706,-0.535,-0.030
5.708,-0.655,-0.030
5.710,-0.680,-0.030
5.712,-0.725,-0.030
5.714,-0.710,-0.030
5.716,-0.635,-0.030
5.718,-0.550,-0.030
5.720,-0.490,-0.030
5.722,-0.465,-0.025
5.724,-0.510,-0.025
5.726,-0.580,-0.025
5.728,-0.655,-0.030
5.730,-0.715,-0.035
5.732,-0.740,-0.040
5.734,-0.705,-0.040
5.736,-0.615,-0.045
5.738,-0.575,-0.045
5.740,-0.515,-0.045
5.742,-0.455,-0.045
5.744,-0.480,-0.040
5.746,-0.555,-0.035
5.748,-0.610,-0.030
5.750,-0.650,-0.025
5.752,-0.715,-0.020
5.754,-0.690,-0.020
5.756,-0.590,-0.020
5.758,-0.550,-0.025
5.760,-0.490,-0.025
5.762,-0.485,-0.030
5.764,-0.525,-0.035
5.766,-0.585,-0.040
5.768,-0.660,-0.050
5.770,-0.700,-0.050
5.772,-0.725,-0.055
5.774,-0.670,-0.055
5.776,-0.590,-0.050
5.778,-0.550,-0.045
5.780,-0.505,-0.035
5.782,-0.435,-0.025
5.784,-0.480,-0.015
5.786,-0.580,-0.010
5.788,-0.630,-0.005
5.790,-0.685,-0.010
5.792,-0.710,-0.015
5.794,-0.670,-0.025
5.796,-0.575,-0.035
5.798,-0.555,-0.040
5.800,-0.515,-0.045
5.802,-0.480,-0.050
5.804,-0.495,-0.050
5.806,-0.595,-0.045
5.808,-0.635,-0.040
5.810,-0.700,-0.035
5.812,-0.735,-0.035
5.814,-0.690,-0.035
5.816,-0.600,-0.035
5.818,-0.545,-0.040
5.820,-0.485,-0.040
5.822,-0.465,-0.040
5.824,-0.505,-0.040
5.826,-0.605,-0.035
5.828,-0.650,-0.030
5.830,-0.710,-0.025
5.832,-0.690,-0.020
5.834,-0.665,-0.020
5.836,-0.560,-0.025
5.838,-0.530,-0.030
5.840,-0.455,-0.035
5.842,-0.445,-0.040
5.844,-0.510,-0.045
5.846,-0.625,-0.045
5.848,-0.675,-0.045
5.850,-0.745,-0.045
5.852,-0.735,-0.045
5.854,-0.670,-0.045
5.856,-0.575,-0.045
5.858,-0.530,-0.045
5.860,-0.450,-0.045
5.862,-0.510,-0.040
5.864,-0.510,-0.040
5.866,-0.595,-0.035
5.868,-0.660,-0.030
5.870,-0.725,-0.025
5.872,-0.690,-0.020
5.874,-0.635,-0.020
5.876,-0.555,-0.020
5.878,-0.555,-0.020
5.880,-0.465,-0.025
5.882,-0.485,-0.030
5.884,-0.495,-0.035
5.886,-0.595,-0.035
5.888,-0.640,-0.035
5.890,-0.715,-0.030
5.892,-0.670,-0.025
5.894,-0.665,-0.020
5.896,-0.560,-0.020
5.898,-0.525,-0.020
5.900,-0.450,-0.020
5.902,-0.470,-0.020
5.904,-0.520,-0.025
5.906,-0.610,-0.025
5.908,-0.620,-0.025
5.910,-0.735,-0.025
5.912,-0.695,-0.020
5.914,-0.640,-0.020
5.916,-0.530,-0.015
5.918,-0.485,-0.015
5.920,-0.440,-0.015
5.922,-0.470,-0.020
5.924,-0.530,-0.020
5.926,-0.635,-0.025
5.928,-0.655,-0.025
5.930,-0.730,-0.030
5.932,-0.690,-0.030
5.934,-0.645,-0.035
5.936,-0.560,-0.035
5.938,-0.530,-0.035
5.940,-0.460,-0.035
5.942,-0.495,-0.040
5.944,-0.545,-0.040
5.946,-0.635,-0.040
5.948,-0.635,-0.035
5.950,-0.715,-0.035
5.952,-0.670,-0.030
5.954,-0.610,-0.025
5.956,-0.545,-0.020
5.958,-0.550,-0.015
5.960,-0.440,-0.010
5.962,-0.455,-0.010
5.964,-0.500,-0.010
5.966,-0.600,-0.010
5.968,-0.635,-0.015
5.970,-0.690,-0.015
5.972,-0.680,-0.015
5.974,-0.615,-0.015
5.976,-0.530,-0.015
5.978,-0.515,-0.015
5.980,-0.435,-0.015
5.982,-0.465,-0.020
5.984,-0.535,-0.025
5.986,-0.600,-0.025
5.988,-0.640,-0.030
5.990,-0.720,-0.030
5.992,-0.690,-0.030
5.994,-0.640,-0.030
5.996,-0.575,-0.025
5.998,-0.530,-0.015
6.000,-0.435,-0.010
6.002,-0.435,-0.005
6.004,-0.495,0.000
6.006,-0.570,0.005
6.008,-0.605,0.000
6.010,-0.690,0.000
6.012,-0.685,0.000
6.014,-0.620,-0.005
6.016,-0.535,-0.005
6.018,-0.475,-0.005
6.020,-0.415,-0.005
6.022,-0.435,0.000
6.024,-0.480,0.005
6.026,-0.550,0.010
6.028,-0.605,0.015
6.030,-0.655,0.020
6.032,-0.645,0.020
6.034,-0.560,0.025
6.036,-0.475,0.025
6.038,-0.440,0.025
6.040,-0.420,0.020
6.042,-0.460,0.020
6.044,-0.540,0.020
6.046,-0.595,0.015
6.048,-0.635,0.010
6.050,-0.675,0.010
6.052,-0.650,0.005
6.054,-0.570,0.005
6.056,-0.500,0.000
6.058,-0.425,0.000
6.060,-0.435,0.000
6.062,-0.485,-0.005
6.064,-0.590,-0.010
6.066,-0.610,-0.015
6.068,-0.695,-0.025
6.070,-0.720,-0.035
6.072,-0.710,-0.040
6.074,-0.620,-0.045
6.076,-0.540,-0.050
6.078,-0.475,-0.050
6.080,-0.440,-0.045
6.082,-0.485,-0.035
6.084,-0.560,-0.025
6.086,-0.620,-0.015
6.088,-0.695,-0.010
6.090,-0.655,0.000
6.092,-0.620,0.000
6.094,-0.550,-0.005
6.096,-0.540,-0.015
6.098,-0.470,-0.025
6.100,-0.485,-0.035
6.102,-0.535,-0.045
6.104,-0.625,-0.055
6.106,-0.655,-0.055
6.108,-0.730,-0.055
6.110,-0.705,-0.055
6.112,-0.690,-0.050
6.114,-0.580,-0.050
6.116,-0.540,-0.045
6.118,-0.485,-0.045
6.120,-0.455,-0.045
6.122,-0.485,-0.050
6.124,-0.590,-0.050
6.126,-0.645,-0.045
6.128,-0.745,-0.040
6.130,-0.715,-0.030
6.132,-0.635,-0.020
6.134,-0.550,0.000
6.136,-0.480,0.020
6.138,-0.335,0.045
6.140,-0.350,0.065
6.142,-0.365,0.090
6.144,-0.460,0.105
6.146,-0.515,0.115
6.148,-0.590,0.110
6.150,-0.570,0.100
6.152,-0.535,0.070
6.154,-0.450,0.035
6.156,-0.455,-0.010
6.158,-0.465,-0.055
6.160,-0.615,-0.100
6.162,-0.720,-0.140
6.164,-0.775,-0.165
6.166,-0.760,-0.180
6.168,-0.825,-0.185
6.170,-0.795,-0.175
6.172,-0.785,-0.160
6.174,-0.675,-0.145
6.176,-0.595,-0.125
6.178,-0.510,-0.115
6.180,-0.565,-0.105
6.182,-0.580,-0.095
6.184,-0.625,-0.090
6.186,-0.675,-0.085
6.188,-0.745,-0.075
6.190,-0.735,-0.065
6.192,-0.645,-0.055
6.194,-0.580,-0.045
6.196,-0.545,-0.035
6.198,-0.455,-0.030
6.200,-0.490,-0.030
6.202,-0.535,-0.035
6.204,-0.630,-0.045
6.206,-0.665,-0.050
6.208,-0.735,-0.055
6.210,-0.700,-0.055
6.212,-0.655,-0.055
6.214,-0.560,-0.045
6.216,-0.535,-0.035
6.218,-0.430,-0.025
6.220,-0.455,-0.015
6.222,-0.490,-0.010
6.224,-0.600,-0.010
6.226,-0.635,-0.010
6.228,-0.710,-0.015
6.230,-0.655,-0.015
6.232,-0.580,-0.015
6.234,-0.480,-0.010
6.236,-0.475,-0.005
6.238,-0.415,0.000
6.240,-0.450,0.000
6.242,-0.530,0.000
6.244,-0.605,-0.005
6.246,-0.625,-0.010
6.248,-0.700,-0.020
6.250,-0.695,-0.030
6.252,-0.620,-0.035
6.254,-0.515,-0.040
6.256,-0.455,-0.035
6.258,-0.395,-0.030
6.260,-0.420,-0.020
6.262,-0.530,-0.010
6.264,-0.615,-0.005
6.266,-0.635,0.000
6.268,-0.705,-0.005
6.270,-0.680,-0.015
6.272,-0.610,-0.030
6.274,-0.565,-0.045
6.276,-0.505,-0.055
6.278,-0.480,-0.060
6.280,-0.475,-0.055
6.282,-0.525,-0.045
6.284,-0.575,-0.035
6.286,-0.625,-0.020
6.288,-0.680,0.000
6.290,-0.625,0.010
6.292,-0.565,0.020
6.294,-0.505,0.025
6.296,-0.440,0.025
6.298,-0.380,0.020
6.300,-0.415,0.020
6.302,-0.495,0.015
6.304,-0.580,0.010
6.306,-0.630,0.010
6.308,-0.675,0.005
6.310,-0.640,0.005
6.312,-0.550,0.000
6.314,-0.515,0.000
6.316,-0.475,-0.005
6.318,-0.415,-0.005
6.320,-0.455,-0.010
6.322,-0.510,-0.010
6.324,-0.570,-0.010
6.326,-0.625,-0.010
6.328,-0.665,-0.005
6.330,-0.635,0.000
6.332,-0.555,0.005
6.334,-0.495,0.010
6.336,-0.425,0.020
6.338,-0.390,0.025
6.340,-0.410,0.030
6.342,-0.505,0.040
6.344,-0.530,0.045
6.346,-0.600,0.045
6.348,-0.615,0.050
6.350,-0.585,0.050
6.352,-0.530,0.045
6.354,-0.480,0.045
6.356,-0.425,0.045
6.358,-0.395,0.045
6.360,-0.420,0.045
6.362,-0.490,0.050
6.364,-0.500,0.055
6.366,-0.555,0.065
6.368,-0.585,0.070
6.370,-0.560,0.080
6.372,-0.470,0.085
6.374,-0.435,0.085
6.376,-0.355,0.085
6.378,-0.305,0.085
6.380,-0.320,0.085
6.382,-0.425,0.090
6.384,-0.475,0.095
6.386,-0.540,0.105
6.388,-0.520,0.120
6.390,-0.480,0.130
6.392,-0.390,0.145
6.394,-0.370,0.155
6.396,-0.260,0.155
6.398,-0.265,0.155
6.400,-0.300,0.155
6.402,-0.355,0.150
6.404,-0.395,0.145
6.406,-0.505,0.150
6.408,-0.490,0.155
6.410,-0.450,0.165
6.412,-0.365,0.175
6.414,-0.315,0.190
6.416,-0.215,0.200
6.418,-0.210,0.205
6.420,-0.280,0.205
6.422,-0.360,0.200
6.424,-0.405,0.195
6.426,-0.490,0.185
6.428,-0.450,0.185
6.430,-0.385,0.185
6.432,-0.305,0.190
6.434,-0.235,0.200
6.436,-0.155,0.215
6.438,-0.215,0.230
6.440,-0.245,0.245
6.442,-0.335,0.250
6.444,-0.330,0.255
6.446,-0.425,0.250
6.448,-0.385,0.245
6.450,-0.380,0.240
6.452,-0.275,0.235
6.454,-0.235,0.235
6.456,-0.140,0.235
6.458,-0.175,0.235
6.460,-0.235,0.235
6.462,-0.325,0.230
6.464,-0.370,0.225
6.466,-0.495,0.215
6.468,-0.455,0.205
6.470,-0.415,0.190
6.472,-0.330,0.180
6.474,-0.315,0.170
6.476,-0.215,0.165
6.478,-0.260,0.165
6.480,-0.330,0.165
6.482,-0.435,0.165
6.484,-0.435,0.165
6.486,-0.530,0.160
6.488,-0.510,0.150
6.490,-0.455,0.135
6.492,-0.385,0.125
6.494,-0.390,0.110
6.496,-0.325,0.095
6.498,-0.340,0.080
6.500,-0.405,0.075
6.502,-0.520,0.065
6.504,-0.530,0.065
6.506,-0.615,0.060
6.508,-0.605,0.055
6.510,-0.550,0.050
6.512,-0.495,0.045
6.514,-0.455,0.035
6.516,-0.375,0.025
6.518,-0.420,0.015
6.520,-0.445,0.005
6.522,-0.535,-0.005
6.524,-0.585,-0.010
6.526,-0.680,-0.015
6.528,-0.665,-0.015
6.530,-0.610,-0.020
6.532,-0.495,-0.015
6.534,-0.485,-0.020
6.536,-0.420,-0.020
6.538,-0.440,-0.025
6.540,-0.525,-0.025
6.542,-0.600,-0.035
6.544,-0.635,-0.040
6.546,-0.695,-0.045
6.548,-0.670,-0.045
6.550,-0.620,-0.050
6.552,-0.550,-0.050
6.554,-0.500,-0.050
6.556,-0.460,-0.050
6.558,-0.470,-0.045
6.560,-0.520,-0.045
6.562,-0.620,-0.045
6.564,-0.665,-0.045
6.566,-0.715,-0.045
6.568,-0.670,-0.045
6.570,-0.590,-0.045
6.572,-0.500,-0.040
6.574,-0.475,-0.035
6.576,-0.420,-0.035
6.578,-0.465,-0.030
6.580,-0.555,-0.030
6.582,-0.600,-0.030
6.584,-0.640,-0.035
6.586,-0.705,-0.035
6.588,-0.665,-0.040
6.590,-0.575,-0.040
6.592,-0.500,-0.035
6.594,-0.470,-0.030
6.596,-0.410,-0.025
6.598,-0.450,-0.015
6.600,-0.530,-0.005
6.602,-0.560,0.000
6.604,-0.610,0.005
6.606,-0.685,0.005
6.608,-0.635,0.000
6.610,-0.560,-0.005
6.612,-0.495,-0.015
6.614,-0.430,-0.020
6.616,-0.415,-0.025
6.618,-0.480,-0.025
6.620,-0.550,-0.030
6.622,-0.590,-0.025
6.624,-0.625,-0.025
6.626,-0.650,-0.025
6.628,-0.640,-0.025
6.630,-0.570,-0.025
6.632,-0.515,-0.025
6.634,-0.455,-0.030
6.636,-0.435,-0.030
6.638,-0.460,-0.030
6.640,-0.545,-0.025
6.642,-0.590,-0.025
6.644,-0.635,-0.025
6.646,-0.625,-0.020
6.648,-0.605,-0.025
6.650,-0.545,-0.025
6.652,-0.540,-0.030
6.654,-0.460,-0.035
6.656,-0.445,-0.040
6.658,-0.465,-0.045
6.660,-0.545,-0.050
6.662,-0.610,-0.045
6.664,-0.685,-0.040
6.666,-0.650,-0.035
6.668,-0.635,-0.025
6.670,-0.560,-0.020
6.672,-0.500,-0.015
6.674,-0.420,-0.010
6.676,-0.425,-0.010
6.678,-0.445,-0.015
6.680,-0.535,-0.015
6.682,-0.550,-0.020
6.684,-0.660,-0.020
6.686,-0.640,-0.020
6.688,-0.610,-0.025
6.690,-0.530,-0.025
6.692,-0.500,-0.025
6.694,-0.415,-0.025
6.696,-0.455,-0.030
6.698,-0.500,-0.030
6.700,-0.590,-0.035
6.702,-0.610,-0.035
6.704,-0.690,-0.035
6.706,-0.645,-0.035
6.708,-0.610,-0.035
6.710,-0.520,-0.030
6.712,-0.500,-0.030
6.714,-0.400,-0.030
6.716,-0.440,-0.030
6.718,-0.490,-0.030
6.720,-0.570,-0.030
6.722,-0.625,-0.030
6.724,-0.690,-0.030
6.726,-0.625,-0.030
6.728,-0.595,-0.025
6.730,-0.525,-0.025
6.732,-0.495,-0.020
6.734,-0.395,-0.020
6.736,-0.435,-0.025
6.738,-0.490,-0.025
6.740,-0.580,-0.030
6.742,-0.640,-0.035
6.744,-0.710,-0.045
6.746,-0.660,-0.045
6.748,-0.610,-0.050
6.750,-0.545,-0.045
6.752,-0.515,-0.045
6.754,-0.425,-0.045
6.756,-0.435,-0.040
6.758,-0.500,-0.040
6.760,-0.585,-0.035
6.762,-0.610,-0.035
6.764,-0.680,-0.030
6.766,-0.635,-0.030
6.768,-0.575,-0.025
6.770,-0.510,-0.015
6.772,-0.480,-0.010
6.774,-0.390,-0.005
6.776,-0.380,0.000
6.778,-0.450,-0.005
6.780,-0.540,-0.005
6.782,-0.600,-0.015
6.784,-0.695,-0.020
6.786,-0.650,-0.025
6.788,-0.595,-0.030
6.790,-0.510,-0.035
6.792,-0.470,-0.035
6.794,-0.395,-0.030
6.796,-0.435,-0.030
6.798,-0.495,-0.025
6.800,-0.575,-0.025
6.802,-0.605,-0.025
6.804,-0.665,-0.025
6.806,-0.640,-0.030
6.808,-0.575,-0.035
6.810,-0.490,-0.035
6.812,-0.450,-0.035
6.814,-0.405,-0.035
6.816,-0.420,-0.030
6.818,-0.495,-0.030
6.820,-0.585,-0.025
6.822,-0.595,-0.025
6.824,-0.660,-0.020
6.826,-0.635,-0.020
6.828,-0.560,-0.020
6.830,-0.470,-0.020
6.832,-0.410,-0.015
6.834,-0.350,-0.010
6.836,-0.425,-0.010
6.838,-0.510,-0.005
6.840,-0.585,-0.005
6.842,-0.605,-0.010
6.844,-0.670,-0.010
6.846,-0.645,-0.015
6.848,-0.515,-0.020
6.850,-0.465,-0.020
6.852,-0.430,-0.020
6.854,-0.410,-0.020
6.856,-0.420,-0.015
6.858,-0.485,-0.010
6.860,-0.580,-0.010
6.862,-0.650,-0.010
6.864,-0.685,-0.020
6.866,-0.655,-0.030
6.868,-0.570,-0.045
6.870,-0.510,-0.060
6.872,-0.495,-0.075
6.874,-0.450,-0.085
6.876,-0.470,-0.090
6.878,-0.540,-0.085
6.880,-0.590,-0.080
6.882,-0.630,-0.070
6.884,-0.685,-0.065
6.886,-0.675,-0.055
6.888,-0.585,-0.050
6.890,-0.550,-0.050
6.892,-0.495,-0.050
6.894,-0.415,-0.050
6.896,-0.445,-0.050
6.898,-0.540,-0.055
6.900,-0.580,-0.055
6.902,-0.610,-0.050
6.904,-0.660,-0.050
6.906,-0.645,-0.045
6.908,-0.570,-0.045
6.910,-0.510,-0.040
6.912,-0.440,-0.040
6.914,-0.390,-0.040
6.916,-0.445,-0.040
6.918,-0.545,-0.040
6.920,-0.580,-0.035
6.922,-0.655,-0.035
6.924,-0.655,-0.035
6.926,-0.625,-0.035
6.928,-0.535,-0.040
6.930,-0.505,-0.040
6.932,-0.425,-0.040
6.934,-0.400,-0.040
6.936,-0.425,-0.040
6.938,-0.550,-0.035
6.940,-0.590,-0.030
6.942,-0.660,-0.025
6.944,-0.635,-0.020
6.946,-0.610,-0.010
6.948,-0.510,-0.010
6.950,-0.415,-0.005
6.952,-0.345,-0.010
6.954,-0.405,-0.010
6.956,-0.435,-0.015
6.958,-0.530,-0.020
6.960,-0.570,-0.025
6.962,-0.665,-0.025
6.964,-0.645,-0.030
6.966,-0.610,-0.030
6.968,-0.550,-0.035
6.970,-0.495,-0.035
6.972,-0.410,-0.035
6.974,-0.410,-0.040
6.976,-0.475,-0.035
6.978,-0.555,-0.035
6.980,-0.585,-0.035
6.982,-0.650,-0.030
6.984,-0.605,-0.025
6.986,-0.605,-0.025
6.988,-0.505,-0.025
6.990,-0.480,-0.025
6.992,-0.385,-0.030
6.994,-0.415,-0.035
6.996,-0.470,-0.040
6.998,-0.540,-0.045
7.000,-0.585,-0.045
7.002,-0.680,-0.045
7.004,-0.645,-0.045
7.006,-0.585,-0.045
7.008,-0.490,-0.045
7.010,-0.460,-0.045
7.012,-0.385,-0.045
7.014,-0.435,-0.045
7.016,-0.485,-0.045
7.018,-0.590,-0.045
7.020,-0.585,-0.045
7.022,-0.685,-0.040
7.024,-0.625,-0.040
7.026,-0.585,-0.035
7.028,-0.465,-0.030
7.030,-0.465,-0.025
7.032,-0.365,-0.025
7.034,-0.400,-0.020
7.036,-0.460,-0.020
7.038,-0.545,-0.020
7.040,-0.565,-0.025
7.042,-0.670,-0.025
7.044,-0.620,-0.025
7.046,-0.560,-0.025
7.048,-0.475,-0.025
7.050,-0.450,-0.020
7.052,-0.370,-0.020
7.054,-0.390,-0.020
7.056,-0.450,-0.025
7.058,-0.560,-0.025
7.060,-0.570,-0.030
7.062,-0.670,-0.030
7.064,-0.620,-0.030
7.066,-0.555,-0.030
7.068,-0.480,-0.025
7.070,-0.445,-0.025
7.072,-0.355,-0.020
7.074,-0.415,-0.015
7.076,-0.480,-0.010
7.078,-0.565,-0.010
7.080,-0.540,-0.010
7.082,-0.630,-0.010
7.084,-0.635,-0.015
7.086,-0.570,-0.025
7.088,-0.465,-0.030
7.090,-0.440,-0.035
7.092,-0.375,-0.040
7.094,-0.420,-0.040
7.096,-0.470,-0.040
7.098,-0.570,-0.045
7.100,-0.595,-0.045
7.102,-0.675,-0.045
7.104,-0.645,-0.045
7.106,-0.565,-0.045
7.108,-0.470,-0.045
7.110,-0.410,-0.040
7.112,-0.355,-0.030
7.114,-0.385,-0.015
7.116,-0.430,-0.005
7.118,-0.485,0.010
7.120,-0.510,0.025
7.122,-0.590,0.030
7.124,-0.545,0.040
7.126,-0.465,0.040
7.128,-0.415,0.040
7.130,-0.385,0.040
7.132,-0.320,0.035
7.134,-0.340,0.030
7.136,-0.425,0.025
7.138,-0.515,0.020
7.140,-0.585,0.020
7.142,-0.630,0.010
7.144,-0.580,0.005
7.146,-0.485,0.000
7.148,-0.420,-0.010
7.150,-0.390,-0.015
7.152,-0.350,-0.020
7.154,-0.415,-0.020
7.156,-0.510,-0.020
7.158,-0.535,-0.015
7.160,-0.570,-0.010
7.162,-0.630,-0.005
7.164,-0.590,-0.005
7.166,-0.525,-0.005
7.168,-0.450,-0.010
7.170,-0.415,-0.015
7.172,-0.400,-0.020
7.174,-0.430,-0.030
7.176,-0.510,-0.035
7.178,-0.590,-0.045
7.180,-0.630,-0.045
7.182,-0.635,-0.050
7.184,-0.615,-0.050
7.186,-0.530,-0.050
7.188,-0.465,-0.050
7.190,-0.460,-0.045
7.192,-0.390,-0.045
7.194,-0.435,-0.045
7.196,-0.520,-0.045
7.198,-0.595,-0.045
7.200,-0.655,-0.040
7.202,-0.670,-0.040
7.204,-0.625,-0.035
7.206,-0.495,-0.035
7.208,-0.450,-0.035
7.210,-0.390,-0.035
7.212,-0.355,-0.035
7.214,-0.420,-0.035
7.216,-0.525,-0.040
7.218,-0.565,-0.045
7.220,-0.655,-0.045
7.222,-0.660,-0.050
7.224,-0.600,-0.055
7.226,-0.515,-0.055
7.228,-0.480,-0.060
7.230,-0.400,-0.055
7.232,-0.385,-0.050
7.234,-0.415,-0.045
7.236,-0.510,-0.030
7.238,-0.515,-0.010
7.240,-0.560,0.015
7.242,-0.505,0.040
7.244,-0.450,0.070
7.246,-0.400,0.090
7.248,-0.345,0.100
7.250,-0.255,0.100
7.252,-0.255,0.085
7.254,-0.330,0.055
7.256,-0.455,0.015
7.258,-0.495,-0.035
7.260,-0.695,-0.090
7.262,-0.775,-0.140
7.264,-0.780,-0.180
7.266,-0.690,-0.210
7.268,-0.640,-0.225
7.270,-0.560,-0.225
7.272,-0.570,-0.215
7.274,-0.570,-0.195
7.276,-0.615,-0.170
7.278,-0.620,-0.145
7.280,-0.710,-0.120
7.282,-0.655,-0.100
7.284,-0.620,-0.090
7.286,-0.525,-0.080
7.288,-0.510,-0.075
7.290,-0.390,-0.075
7.292,-0.450,-0.075
7.294,-0.470,-0.075
7.296,-0.540,-0.075
7.298,-0.570,-0.070
7.300,-0.675,-0.060
7.302,-0.605,-0.055
7.304,-0.570,-0.040
7.306,-0.480,-0.030
7.308,-0.470,-0.020
7.310,-0.345,-0.015
7.312,-0.350,-0.015
7.314,-0.400,-0.015
7.316,-0.515,-0.020
7.318,-0.550,-0.030
7.320,-0.650,-0.040
7.322,-0.625,-0.045
7.324,-0.570,-0.050
7.326,-0.480,-0.050
7.328,-0.435,-0.050
7.330,-0.360,-0.045
7.332,-0.400,-0.035
7.334,-0.430,-0.025
7.336,-0.515,-0.020
7.338,-0.520,-0.015
7.340,-0.610,-0.015
7.342,-0.590,-0.020
7.344,-0.535,-0.020
7.346,-0.460,-0.025
7.348,-0.430,-0.030
7.350,-0.340,-0.035
7.352,-0.345,-0.035
7.354,-0.435,-0.030
7.356,-0.515,-0.025
7.358,-0.550,-0.015
7.360,-0.585,-0.010
7.362,-0.550,-0.005
7.364,-0.505,0.000
7.366,-0.445,0.005
7.368,-0.435,0.005
7.370,-0.340,0.000
7.372,-0.360,-0.010
7.374,-0.425,-0.015
7.376,-0.520,-0.025
7.378,-0.550,-0.030
7.380,-0.605,-0.035
7.382,-0.580,-0.035
7.384,-0.520,-0.035
7.386,-0.440,-0.030
7.388,-0.400,-0.025
7.390,-0.335,-0.020
7.392,-0.345,-0.015
7.394,-0.420,-0.010
7.396,-0.495,-0.010
7.398,-0.545,-0.010
7.400,-0.600,-0.015
7.402,-0.555,-0.015
7.404,-0.480,-0.010
7.406,-0.395,-0.005
7.408,-0.335,0.000
7.410,-0.270,0.015
7.412,-0.325,0.025
7.414,-0.415,0.035
7.416,-0.460,0.040
7.418,-0.500,0.040
7.420,-0.575,0.035
7.422,-0.545,0.025
7.424,-0.445,0.015
7.426,-0.380,0.000
7.428,-0.375,-0.015
7.430,-0.360,-0.020
7.432,-0.365,-0.025
7.434,-0.410,-0.020
7.436,-0.475,-0.015
7.438,-0.525,-0.005
7.440,-0.560,0.005
7.442,-0.525,0.015
7.444,-0.460,0.020
7.446,-0.410,0.030
7.448,-0.325,0.030
7.450,-0.250,0.035
7.452,-0.310,0.035
7.454,-0.365,0.040
7.456,-0.420,0.050
7.458,-0.460,0.055
7.460,-0.490,0.065
7.462,-0.465,0.075
7.464,-0.370,0.080
7.466,-0.330,0.085
7.468,-0.315,0.085
7.470,-0.255,0.085
7.472,-0.270,0.080
7.474,-0.375,0.075
7.476,-0.410,0.075
7.478,-0.450,0.075
7.480,-0.470,0.075
7.482,-0.450,0.080
7.484,-0.370,0.090
7.486,-0.320,0.100
7.488,-0.220,0.110
7.490,-0.190,0.120
7.492,-0.210,0.130
7.494,-0.270,0.135
7.496,-0.320,0.135
7.498,-0.405,0.135
7.500,-0.430,0.135
7.502,-0.405,0.135
7.504,-0.315,0.130
7.506,-0.265,0.130
7.508,-0.195,0.135
7.510,-0.160,0.140
7.512,-0.180,0.150
7.514,-0.245,0.165
7.516,-0.285,0.180
7.518,-0.350,0.195
7.520,-0.335,0.210
7.522,-0.280,0.225
7.524,-0.190,0.235
7.526,-0.155,0.240
7.528,-0.070,0.240
7.530,-0.095,0.235
7.532,-0.155,0.230
7.534,-0.235,0.225
7.536,-0.275,0.225
7.538,-0.345,0.225
7.540,-0.315,0.225
7.542,-0.275,0.230
7.544,-0.195,0.240
7.546,-0.145,0.245
7.548,-0.040,0.250
7.550,-0.065,0.255
7.552,-0.125,0.255
7.554,-0.205,0.250
7.556,-0.225,0.250
7.558,-0.320,0.245
7.560,-0.295,0.245
7.562,-0.260,0.240
7.564,-0.205,0.240
7.566,-0.185,0.235
7.568,-0.075,0.235
7.570,-0.105,0.230
7.572,-0.150,0.220
7.574,-0.240,0.210
7.576,-0.285,0.205
7.578,-0.380,0.195
7.580,-0.355,0.185
7.582,-0.315,0.180
7.584,-0.220,0.175
7.586,-0.220,0.165
7.588,-0.125,0.160
7.590,-0.180,0.145
7.592,-0.230,0.135
7.594,-0.355,0.115
7.596,-0.400,0.100
7.598,-0.485,0.085
7.600,-0.450,0.075
7.602,-0.425,0.070
7.604,-0.315,0.070
7.606,-0.310,0.075
7.608,-0.220,0.080
7.610,-0.245,0.085
7.612,-0.305,0.080
7.614,-0.385,0.075
7.616,-0.430,0.060
7.618,-0.560,0.045
7.620,-0.535,0.025
7.622,-0.495,0.005
7.624,-0.380,-0.015
7.626,-0.385,-0.025
7.628,-0.325,-0.030
7.630,-0.335,-0.035
7.632,-0.385,-0.030
7.634,-0.480,-0.025
7.636,-0.500,-0.020
7.638,-0.590,-0.015
7.640,-0.560,-0.015
7.642,-0.495,-0.020
7.644,-0.425,-0.020
7.646,-0.385,-0.025
7.648,-0.320,-0.030
7.650,-0.370,-0.035
7.652,-0.435,-0.035
7.654,-0.495,-0.035
7.656,-0.495,-0.030
7.658,-0.575,-0.025
7.660,-0.530,-0.020
7.662,-0.455,-0.015
7.664,-0.410,-0.015
7.666,-0.375,-0.015
7.668,-0.330,-0.015
7.670,-0.375,-0.020
7.672,-0.445,-0.030
7.674,-0.520,-0.040
7.676,-0.535,-0.045
7.678,-0.605,-0.050
7.680,-0.560,-0.055
7.682,-0.480,-0.055
7.684,-0.390,-0.045
7.686,-0.345,-0.040
7.688,-0.290,-0.025
7.690,-0.320,-0.015
7.692,-0.410,-0.010
7.694,-0.475,0.000
7.696,-0.505,0.000
7.698,-0.580,0.000
7.700,-0.535,0.000
7.702,-0.455,-0.005
7.704,-0.385,-0.010
7.706,-0.335,-0.015
7.708,-0.305,-0.015
7.710,-0.355,-0.015
7.712,-0.435,-0.015
7.714,-0.485,-0.015
7.716,-0.530,-0.010
7.718,-0.570,-0.010
7.720,-0.565,-0.005
7.722,-0.440,-0.005
7.724,-0.365,0.000
7.726,-0.320,0.000
7.728,-0.275,-0.005
7.730,-0.330,-0.005
7.732,-0.420,-0.010
7.734,-0.490,-0.020
7.736,-0.535,-0.025
7.738,-0.585,-0.030
7.740,-0.570,-0.040
7.742,-0.470,-0.040
7.744,-0.425,-0.040
7.746,-0.330,-0.040
7.748,-0.300,-0.030
7.750,-0.315,-0.025
7.752,-0.405,-0.015
7.754,-0.465,-0.005
7.756,-0.535,0.000
7.758,-0.565,0.005
7.760,-0.515,0.005
7.762,-0.425,0.000
7.764,-0.355,-0.005
7.766,-0.340,-0.015
7.768,-0.305,-0.020
7.770,-0.340,-0.025
7.772,-0.440,-0.030
7.774,-0.500,-0.030
7.776,-0.560,-0.030
7.778,-0.570,-0.030
7.780,-0.515,-0.025
7.782,-0.445,-0.020
7.784,-0.370,-0.015
7.786,-0.310,-0.010
7.788,-0.285,-0.010
7.790,-0.325,-0.010
7.792,-0.445,-0.010
7.794,-0.470,-0.015
7.796,-0.550,-0.020
7.798,-0.555,-0.025
7.800,-0.510,-0.025
7.802,-0.435,-0.030
7.804,-0.400,-0.035
7.806,-0.340,-0.035
7.808,-0.340,-0.040
7.810,-0.375,-0.040
7.812,-0.445,-0.040
7.814,-0.485,-0.035
7.816,-0.560,-0.035
7.818,-0.545,-0.030
7.820,-0.500,-0.025
7.822,-0.410,-0.025
7.824,-0.375,-0.020
7.826,-0.280,-0.015
7.828,-0.325,-0.015
7.830,-0.345,-0.015
7.832,-0.410,-0.015
7.834,-0.460,-0.015
7.836,-0.530,-0.020
7.838,-0.550,-0.030
7.840,-0.555,-0.035
7.842,-0.475,-0.040
7.844,-0.450,-0.050
7.846,-0.320,-0.050
7.848,-0.325,-0.050
7.850,-0.350,-0.050
7.852,-0.440,-0.045
7.854,-0.490,-0.040
7.856,-0.575,-0.035
7.858,-0.540,-0.030
7.860,-0.495,-0.025
7.862,-0.400,-0.025
7.864,-0.390,-0.025
7.866,-0.300,-0.030
7.868,-0.320,-0.035
7.870,-0.340,-0.040
7.872,-0.470,-0.045
7.874,-0.525,-0.045
7.876,-0.590,-0.050
7.878,-0.560,-0.050
7.880,-0.505,-0.050
7.882,-0.390,-0.045
7.884,-0.390,-0.045
7.886,-0.305,-0.045
7.888,-0.350,-0.045
7.890,-0.375,-0.045
7.892,-0.445,-0.045
7.894,-0.490,-0.045
7.896,-0.585,-0.045
7.898,-0.560,-0.040
7.900,-0.485,-0.040
7.902,-0.395,-0.035
7.904,-0.360,-0.035
7.906,-0.280,-0.035
7.908,-0.330,-0.030
7.910,-0.385,-0.030
7.912,-0.450,-0.030
7.914,-0.480,-0.025
7.916,-0.550,-0.025
7.918,-0.500,-0.020
7.920,-0.455,-0.015
7.922,-0.375,-0.010
7.924,-0.375,-0.010
7.926,-0.300,-0.015
7.928,-0.315,-0.020
7.930,-0.390,-0.030
7.932,-0.465,-0.040
7.934,-0.505,-0.045
7.936,-0.600,-0.055
7.938,-0.555,-0.055
7.940,-0.470,-0.055
7.942,-0.390,-0.045
7.944,-0.365,-0.035
7.946,-0.260,-0.025
7.948,-0.300,-0.020
7.950,-0.370,-0.015
7.952,-0.445,-0.015
7.954,-0.480,-0.020
7.956,-0.555,-0.025
7.958,-0.520,-0.030
7.960,-0.450,-0.040
7.962,-0.370,-0.040
7.964,-0.350,-0.045
7.966,-0.290,-0.045
7.968,-0.320,-0.040
7.970,-0.380,-0.040
7.972,-0.480,-0.035
7.974,-0.530,-0.035
7.976,-0.565,-0.030
7.978,-0.550,-0.030
7.980,-0.455,-0.030
7.982,-0.385,-0.030
7.984,-0.345,-0.030
7.986,-0.280,-0.030
7.988,-0.310,-0.030
7.990,-0.400,-0.035
7.992,-0.495,-0.035
7.994,-0.540,-0.040
7.996,-0.585,-0.040
7.998,-0.530,-0.040
8.000,-0.430,-0.040
8.002,-0.350,-0.035
8.004,-0.310,-0.030
8.006,-0.290,-0.025
8.008,-0.335,-0.020
8.010,-0.420,-0.015
8.012,-0.465,-0.010
8.014,-0.525,-0.015
8.016,-0.535,-0.015
8.018,-0.505,-0.020
8.020,-0.430,-0.020
8.022,-0.345,-0.020
8.024,-0.310,-0.020
8.026,-0.265,-0.015
8.028,-0.320,-0.010
8.030,-0.400,-0.005
8.032,-0.455,-0.005
8.034,-0.500,-0.005
8.036,-0.535,-0.005
8.038,-0.495,-0.010
8.040,-0.440,-0.020
8.042,-0.395,-0.025
8.044,-0.340,-0.030
8.046,-0.290,-0.030
8.048,-0.315,-0.030
8.050,-0.420,-0.030
8.052,-0.445,-0.025
8.054,-0.520,-0.025
8.056,-0.515,-0.025
8.058,-0.470,-0.025
8.060,-0.400,-0.025
8.062,-0.345,-0.030
8.064,-0.295,-0.030
8.066,-0.290,-0.030
8.068,-0.345,-0.025
8.070,-0.430,-0.020
8.072,-0.465,-0.015
8.074,-0.520,-0.010
8.076,-0.525,-0.010
8.078,-0.490,-0.010
8.080,-0.390,-0.015
8.082,-0.355,-0.020
8.084,-0.285,-0.025
8.086,-0.280,-0.025
8.088,-0.310,-0.025
8.090,-0.395,-0.025
8.092,-0.435,-0.020
8.094,-0.550,-0.015
8.096,-0.535,-0.015
8.098,-0.475,-0.015
8.100,-0.390,-0.020
8.102,-0.355,-0.030
8.104,-0.275,-0.035
8.106,-0.320,-0.045
8.108,-0.360,-0.050
8.110,-0.435,-0.050
8.112,-0.465,-0.045
8.114,-0.565,-0.040
8.116,-0.515,-0.030
8.118,-0.490,-0.025
8.120,-0.390,-0.020
8.122,-0.350,-0.020
8.124,-0.260,-0.020
8.126,-0.290,-0.025
8.128,-0.340,-0.030
8.130,-0.415,-0.035
8.132,-0.465,-0.040
8.134,-0.555,-0.045
8.136,-0.525,-0.040
8.138,-0.470,-0.040
8.140,-0.375,-0.035
8.142,-0.360,-0.035
8.144,-0.260,-0.030
8.146,-0.305,-0.030
8.148,-0.370,-0.035
8.150,-0.440,-0.035
8.152,-0.460,-0.035
8.154,-0.555,-0.035
8.156,-0.505,-0.035
8.158,-0.435,-0.030
8.160,-0.330,-0.030
8.162,-0.330,-0.025
8.164,-0.270,-0.025
8.166,-0.280,-0.025
8.168,-0.330,-0.025
8.170,-0.420,-0.025
8.172,-0.455,-0.030
8.174,-0.575,-0.025
8.176,-0.520,-0.025
8.178,-0.460,-0.015
8.180,-0.350,-0.010
8.182,-0.315,0.000
8.184,-0.200,0.005
8.186,-0.230,0.010
8.188,-0.290,0.015
8.190,-0.395,0.010
8.192,-0.435,0.010
8.194,-0.515,0.005
8.196,-0.495,0.000
8.198,-0.445,0.000
8.200,-0.340,0.000
8.202,-0.300,0.005
8.204,-0.210,0.005
8.206,-0.235,0.010
8.208,-0.315,0.010
8.210,-0.390,0.010
8.212,-0.435,0.005
8.214,-0.510,0.000
8.216,-0.490,-0.005
8.218,-0.430,-0.010
8.220,-0.350,-0.010
8.222,-0.315,-0.005
8.224,-0.225,-0.005
8.226,-0.245,0.000
8.228,-0.330,0.005
8.230,-0.430,0.005
8.232,-0.460,0.000
8.234,-0.520,-0.010
8.236,-0.530,-0.020
8.238,-0.445,-0.035
8.240,-0.370,-0.045
8.242,-0.340,-0.055
8.244,-0.280,-0.060
8.246,-0.335,-0.065
8.248,-0.400,-0.065
8.250,-0.445,-0.060
8.252,-0.490,-0.060
8.254,-0.550,-0.055
8.256,-0.520,-0.055
8.258,-0.435,-0.055
8.260,-0.360,-0.055
8.262,-0.330,-0.050
8.264,-0.280,-0.050
8.266,-0.310,-0.050
8.268,-0.370,-0.045
8.270,-0.445,-0.045
8.272,-0.490,-0.040
8.274,-0.535,-0.040
8.276,-0.495,-0.040
8.278,-0.425,-0.035
8.280,-0.375,-0.035
8.282,-0.330,-0.035
8.284,-0.280,-0.030
8.286,-0.270,-0.025
8.288,-0.335,-0.020
8.290,-0.415,-0.015
8.292,-0.475,-0.010
8.294,-0.515,-0.010
8.296,-0.505,-0.015
8.298,-0.405,-0.020
8.300,-0.350,-0.030
8.302,-0.335,-0.040
8.304,-0.290,-0.050
8.306,-0.330,-0.055
8.308,-0.380,-0.050
8.310,-0.405,-0.040
8.312,-0.455,-0.025
8.314,-0.440,0.000
8.316,-0.410,0.025
8.318,-0.315,0.050
8.320,-0.270,0.065
8.322,-0.200,0.075
8.324,-0.185,0.070
8.326,-0.165,0.050
8.328,-0.300,0.020
8.330,-0.405,-0.020
8.332,-0.505,-0.070
8.334,-0.645,-0.115
8.336,-0.695,-0.160
8.338,-0.635,-0.200
8.340,-0.570,-0.225
8.342,-0.490,-0.240
8.344,-0.450,-0.245
8.346,-0.480,-0.240
8.348,-0.595,-0.225
8.350,-0.620,-0.210
8.352,-0.665,-0.185
8.354,-0.635,-0.160
8.356,-0.550,-0.135
8.358,-0.435,-0.115
8.360,-0.390,-0.095
8.362,-0.305,-0.075
8.364,-0.320,-0.060
8.366,-0.370,-0.055
8.368,-0.455,-0.050
8.370,-0.450,-0.045
8.372,-0.530,-0.045
8.374,-0.525,-0.050
8.376,-0.490,-0.050
8.378,-0.400,-0.055
8.380,-0.380,-0.055
8.382,-0.270,-0.050
8.384,-0.275,-0.045
8.386,-0.340,-0.040
8.388,-0.410,-0.030
8.390,-0.410,-0.020
8.392,-0.480,-0.015
8.394,-0.465,-0.010
8.396,-0.445,-0.005
8.398,-0.355,0.000
8.400,-0.305,0.005
8.402,-0.215,0.005
8.404,-0.225,0.005
8.406,-0.295,0.005
8.408,-0.385,0.005
8.410,-0.405,0.005
8.412,-0.505,0.000
8.414,-0.485,-0.005
8.416,-0.435,-0.010
8.418,-0.325,-0.015
8.420,-0.295,-0.015
8.422,-0.210,-0.015
8.424,-0.265,-0.015
8.426,-0.320,-0.015
8.428,-0.405,-0.010
8.430,-0.430,-0.010
8.432,-0.510,-0.005
8.434,-0.455,0.000
8.436,-0.410,0.000
8.438,-0.330,0.005
8.440,-0.315,0.005
8.442,-0.210,0.000
8.444,-0.260,0.000
8.446,-0.305,-0.005
8.448,-0.375,-0.010
8.450,-0.410,-0.015
8.452,-0.500,-0.015
8.454,-0.470,-0.015
8.456,-0.400,-0.015
8.458,-0.325,-0.010
8.460,-0.300,-0.005
8.462,-0.210,0.000
8.464,-0.240,0.005
8.466,-0.285,0.005
8.468,-0.355,0.005
8.470,-0.390,0.005
8.472,-0.480,0.000
8.474,-0.460,0.000
8.476,-0.370,0.000
8.478,-0.300,0.000
8.480,-0.280,0.000
8.482,-0.220,0.000
8.484,-0.245,0.005
8.486,-0.305,0.010
8.488,-0.360,0.010
8.490,-0.380,0.015
8.492,-0.460,0.015
8.494,-0.425,0.020
8.496,-0.360,0.025
8.498,-0.295,0.030
8.500,-0.270,0.035
8.502,-0.180,0.040
8.504,-0.210,0.045
8.506,-0.245,0.045
8.508,-0.360,0.045
8.510,-0.405,0.040
8.512,-0.435,0.035
8.514,-0.435,0.035
8.516,-0.375,0.030
8.518,-0.305,0.030
8.520,-0.260,0.030
8.522,-0.165,0.035
8.524,-0.185,0.040
8.526,-0.270,0.050
8.528,-0.340,0.055
8.530,-0.365,0.055
8.532,-0.395,0.060
8.534,-0.390,0.065
8.536,-0.315,0.065
8.538,-0.265,0.070
8.540,-0.215,0.075
8.542,-0.155,0.075
8.544,-0.175,0.080
8.546,-0.250,0.080
8.548,-0.315,0.080
8.550,-0.345,0.080
8.552,-0.395,0.080
8.554,-0.360,0.080
8.556,-0.265,0.080
8.558,-0.185,0.085
8.560,-0.130,0.095
8.562,-0.080,0.105
8.564,-0.140,0.115
8.566,-0.195,0.125
8.568,-0.260,0.135
8.570,-0.290,0.135
8.572,-0.340,0.140
8.574,-0.325,0.140
8.576,-0.230,0.140
8.578,-0.165,0.140
8.580,-0.090,0.145
8.582,-0.040,0.155
8.584,-0.080,0.165
8.586,-0.165,0.175
8.588,-0.195,0.185
8.590,-0.230,0.195
8.592,-0.270,0.200
8.594,-0.265,0.195
8.596,-0.180,0.190
8.598,-0.130,0.185
8.600,-0.075,0.180
8.602,-0.045,0.175
8.604,-0.070,0.180
8.606,-0.125,0.185
8.608,-0.170,0.195
8.610,-0.230,0.210
8.612,-0.260,0.225
8.614,-0.190,0.235
8.616,-0.110,0.245
8.618,-0.055,0.245
8.620,-0.005,0.245
8.622,0.030,0.245
8.624,-0.035,0.240
8.626,-0.110,0.235
8.628,-0.150,0.230
8.630,-0.225,0.230
8.632,-0.205,0.225
8.634,-0.205,0.225
8.636,-0.120,0.225
8.638,-0.105,0.220
8.640,-0.015,0.215
8.642,-0.005,0.210
8.644,-0.025,0.200
8.646,-0.150,0.190
8.648,-0.210,0.180
8.650,-0.300,0.170
8.652,-0.300,0.160
8.654,-0.280,0.150
8.656,-0.180,0.140
8.658,-0.165,0.130
8.660,-0.105,0.125
8.662,-0.115,0.120
8.664,-0.140,0.115
8.666,-0.220,0.110
8.668,-0.290,0.105
8.670,-0.370,0.105
8.672,-0.345,0.105
8.674,-0.315,0.100
8.676,-0.230,0.100
8.678,-0.190,0.095
8.680,-0.125,0.090
8.682,-0.135,0.080
8.684,-0.210,0.070
8.686,-0.330,0.055
8.688,-0.405,0.045
8.690,-0.470,0.030
8.692,-0.425,0.020
8.694,-0.395,0.010
8.696,-0.290,0.000
8.698,-0.280,-0.010
8.700,-0.195,-0.010
8.702,-0.250,-0.015
8.704,-0.290,-0.015
8.706,-0.385,-0.015
8.708,-0.410,-0.015
8.710,-0.515,-0.015
8.712,-0.465,-0.015
8.714,-0.415,-0.020
8.716,-0.330,-0.025
8.718,-0.300,-0.030
8.720,-0.215,-0.035
8.722,-0.270,-0.035
8.724,-0.315,-0.040
8.726,-0.385,-0.035
8.728,-0.410,-0.035
8.730,-0.500,-0.030
8.732,-0.455,-0.025
8.734,-0.410,-0.025
8.736,-0.310,-0.025
8.738,-0.310,-0.025
8.740,-0.235,-0.025
8.742,-0.265,-0.030
8.744,-0.315,-0.030
8.746,-0.395,-0.025
8.748,-0.400,-0.025
8.750,-0.495,-0.015
8.752,-0.440,-0.010
8.754,-0.380,-0.005
8.756,-0.305,0.000
8.758,-0.290,0.005
8.760,-0.205,0.005
8.762,-0.230,0.005
8.764,-0.280,0.000
8.766,-0.360,-0.010
8.768,-0.390,-0.015
8.770,-0.495,-0.020
8.772,-0.475,-0.025
8.774,-0.410,-0.030
8.776,-0.320,-0.030
8.778,-0.285,-0.030
8.780,-0.205,-0.030
8.782,-0.265,-0.030
8.784,-0.330,-0.030
8.786,-0.395,-0.030
8.788,-0.425,-0.030
8.790,-0.495,-0.030
8.792,-0.455,-0.030
8.794,-0.405,-0.025
8.796,-0.325,-0.020
8.798,-0.290,-0.015
8.800,-0.215,-0.010
8.802,-0.240,0.000
8.804,-0.275,0.000
8.806,-0.360,0.005
8.808,-0.390,0.005
8.810,-0.460,0.000
8.812,-0.440,-0.005
8.814,-0.385,-0.010
8.816,-0.315,-0.015
8.818,-0.280,-0.015
8.820,-0.230,-0.020
8.822,-0.255,-0.020
8.824,-0.320,-0.015
8.826,-0.390,-0.010
8.828,-0.400,-0.010
8.830,-0.450,-0.005
8.832,-0.450,0.000
8.834,-0.370,0.000
8.836,-0.315,0.000
8.838,-0.270,-0.005
8.840,-0.215,-0.005
8.842,-0.240,-0.005
8.844,-0.315,-0.005
8.846,-0.410,-0.005
8.848,-0.435,-0.005
8.850,-0.470,-0.010
8.852,-0.445,-0.010
8.854,-0.360,-0.015
8.856,-0.315,-0.020
8.858,-0.250,-0.025
8.860,-0.200,-0.030
8.862,-0.260,-0.035
8.864,-0.370,-0.035
8.866,-0.450,-0.035
8.868,-0.450,-0.035
8.870,-0.455,-0.030
8.872,-0.435,-0.030
8.874,-0.365,-0.025
8.876,-0.310,-0.025
8.878,-0.265,-0.030
8.880,-0.235,-0.030
8.882,-0.280,-0.035
8.884,-0.370,-0.040
8.886,-0.425,-0.045
8.888,-0.465,-0.050
8.890,-0.495,-0.050
8.892,-0.490,-0.050
8.894,-0.400,-0.050
8.896,-0.320,-0.050
8.898,-0.275,-0.050
8.900,-0.250,-0.050
8.902,-0.260,-0.050
8.904,-0.375,-0.050
8.906,-0.400,-0.045
8.908,-0.500,-0.040
8.910,-0.480,-0.035
8.912,-0.465,-0.025
8.914,-0.360,-0.015
8.916,-0.300,-0.010
8.918,-0.250,-0.010
8.920,-0.240,-0.010
8.922,-0.285,-0.015
8.924,-0.360,-0.025
8.926,-0.405,-0.040
8.928,-0.500,-0.050
8.930,-0.490,-0.060
8.932,-0.445,-0.065
8.934,-0.370,-0.065
8.936,-0.330,-0.055
8.938,-0.250,-0.045
8.940,-0.240,-0.035
8.942,-0.295,-0.020
8.944,-0.385,-0.015
8.946,-0.400,-0.010
8.948,-0.475,-0.005
8.950,-0.420,-0.010
8.952,-0.395,-0.010
8.954,-0.345,-0.015
8.956,-0.315,-0.020
8.958,-0.250,-0.025
8.960,-0.260,-0.030
8.962,-0.315,-0.030
8.964,-0.390,-0.035
8.966,-0.425,-0.040
8.968,-0.500,-0.045
8.970,-0.475,-0.050
8.972,-0.445,-0.055
8.974,-0.360,-0.060
8.976,-0.340,-0.060
8.978,-0.245,-0.055
8.980,-0.260,-0.050
8.982,-0.320,-0.045
8.984,-0.415,-0.040
8.986,-0.425,-0.035
8.988,-0.500,-0.035
8.990,-0.465,-0.035
8.992,-0.445,-0.040
8.994,-0.335,-0.045
8.996,-0.310,-0.050
8.998,-0.240,-0.055
9.000,-0.270,-0.060
9.002,-0.330,-0.060
9.004,-0.400,-0.055
9.006,-0.430,-0.055
9.008,-0.510,-0.050
9.010,-0.480,-0.045
9.012,-0.430,-0.045
9.014,-0.345,-0.040
9.016,-0.315,-0.035
9.018,-0.220,-0.035
9.020,-0.250,-0.035
9.022,-0.305,-0.035
9.024,-0.390,-0.035
9.026,-0.460,-0.035
9.028,-0.530,-0.040
9.030,-0.485,-0.040
9.032,-0.405,-0.045
9.034,-0.325,-0.045
9.036,-0.315,-0.045
9.038,-0.220,-0.040
9.040,-0.260,-0.040
9.042,-0.325,-0.035
9.044,-0.440,-0.030
9.046,-0.445,-0.030
9.048,-0.505,-0.030
9.050,-0.475,-0.030
9.052,-0.410,-0.035
9.054,-0.315,-0.040
9.056,-0.295,-0.045
9.058,-0.235,-0.050
9.060,-0.255,-0.050
9.062,-0.320,-0.045
9.064,-0.400,-0.045
9.066,-0.425,-0.040
9.068,-0.495,-0.035
9.070,-0.450,-0.030
9.072,-0.385,-0.030
9.074,-0.325,-0.035
9.076,-0.305,-0.040
9.078,-0.265,-0.045
9.080,-0.300,-0.050
9.082,-0.340,-0.055
9.084,-0.410,-0.055
9.086,-0.430,-0.050
9.088,-0.475,-0.045
9.090,-0.450,-0.035
9.092,-0.385,-0.025
9.094,-0.335,-0.020
9.096,-0.285,-0.015
9.098,-0.225,-0.020
9.100,-0.245,-0.025
9.102,-0.330,-0.030
9.104,-0.420,-0.045
9.106,-0.470,-0.055
9.108,-0.530,-0.065
9.110,-0.515,-0.070
9.112,-0.435,-0.075
9.114,-0.365,-0.075
9.116,-0.305,-0.075
9.118,-0.245,-0.075
9.120,-0.255,-0.070
9.122,-0.335,-0.065
9.124,-0.415,-0.060
9.126,-0.480,-0.055
9.128,-0.530,-0.055
9.130,-0.485,-0.055
9.132,-0.410,-0.050
9.134,-0.330,-0.050
9.136,-0.275,-0.045
9.138,-0.235,-0.045
9.140,-0.275,-0.040
9.142,-0.355,-0.040
9.144,-0.415,-0.035
9.146,-0.450,-0.035
9.148,-0.475,-0.035
9.150,-0.465,-0.035
9.152,-0.375,-0.035
9.154,-0.325,-0.040
9.156,-0.270,-0.045
9.158,-0.240,-0.050
9.160,-0.280,-0.050
9.162,-0.375,-0.055
9.164,-0.430,-0.060
9.166,-0.470,-0.060
9.168,-0.480,-0.060
9.170,-0.440,-0.055
9.172,-0.365,-0.055
9.174,-0.330,-0.050
9.176,-0.260,-0.050
9.178,-0.235,-0.045
9.180,-0.265,-0.045
9.182,-0.390,-0.050
9.184,-0.425,-0.050
9.186,-0.500,-0.055
9.188,-0.495,-0.060
9.190,-0.450,-0.060
9.192,-0.355,-0.060
9.194,-0.320,-0.060
9.196,-0.260,-0.060
9.198,-0.260,-0.055
9.200,-0.285,-0.055
9.202,-0.385,-0.050
9.204,-0.425,-0.050
9.206,-0.490,-0.050
9.208,-0.480,-0.050
9.210,-0.435,-0.050
9.212,-0.375,-0.050
9.214,-0.375,-0.050
9.216,-0.250,-0.050
9.218,-0.235,-0.045
9.220,-0.270,-0.040
9.222,-0.340,-0.035
9.224,-0.380,-0.030
9.226,-0.465,-0.020
9.228,-0.455,-0.015
9.230,-0.425,-0.015
9.232,-0.375,-0.015
9.234,-0.330,-0.020
9.236,-0.230,-0.025
9.238,-0.255,-0.030
9.240,-0.290,-0.030
9.242,-0.375,-0.035
9.244,-0.395,-0.035
9.246,-0.480,-0.035
9.248,-0.430,-0.030
9.250,-0.390,-0.025
9.252,-0.320,-0.015
9.254,-0.285,-0.010
9.256,-0.215,0.000
9.258,-0.220,0.005
9.260,-0.245,0.010
9.262,-0.335,0.010
9.264,-0.360,0.015
9.266,-0.440,0.015
9.268,-0.400,0.015
9.270,-0.375,0.010
9.272,-0.285,0.010
9.274,-0.265,0.005
9.276,-0.195,0.005
9.278,-0.235,0.000
9.280,-0.260,0.000
9.282,-0.355,-0.005
9.284,-0.380,-0.005
9.286,-0.460,0.000
9.288,-0.410,0.000
9.290,-0.380,0.000
9.292,-0.280,-0.005
9.294,-0.290,-0.010
9.296,-0.225,-0.020
9.298,-0.270,-0.030
9.300,-0.330,-0.040
9.302,-0.405,-0.050
9.304,-0.430,-0.055
9.306,-0.515,-0.055
9.308,-0.485,-0.055
9.310,-0.410,-0.045
9.312,-0.310,-0.035
9.314,-0.260,-0.025
9.316,-0.170,-0.015
9.318,-0.225,-0.010
9.320,-0.325,-0.010
9.322,-0.420,-0.015
9.324,-0.450,-0.025
9.326,-0.520,-0.035
9.328,-0.465,-0.045
9.330,-0.390,-0.055
9.332,-0.340,-0.065
9.334,-0.330,-0.065
9.336,-0.255,-0.065
9.338,-0.260,-0.060
9.340,-0.310,-0.055
9.342,-0.420,-0.050
9.344,-0.440,-0.045
9.346,-0.515,-0.045
9.348,-0.470,-0.040
9.350,-0.390,-0.040
9.352,-0.310,-0.045
9.354,-0.310,-0.045
9.356,-0.240,-0.045
9.358,-0.245,-0.050
9.360,-0.330,-0.050
9.362,-0.405,-0.055
9.364,-0.445,-0.060
9.366,-0.525,-0.065
9.368,-0.495,-0.070
9.370,-0.425,-0.070
9.372,-0.330,-0.060
9.374,-0.270,-0.050
9.376,-0.185,-0.025
9.378,-0.185,0.000
9.380,-0.245,0.030
9.382,-0.275,0.060
9.384,-0.285,0.085
9.386,-0.350,0.105
9.388,-0.335,0.110
9.390,-0.255,0.110
9.392,-0.200,0.090
9.394,-0.170,0.060
9.396,-0.120,0.025
9.398,-0.205,-0.020
9.400,-0.370,-0.065
9.402,-0.540,-0.110
9.404,-0.625,-0.145
9.406,-0.685,-0.175
9.408,-0.620,-0.190
9.410,-0.540,-0.195
9.412,-0.480,-0.190
9.414,-0.430,-0.175
9.416,-0.315,-0.155
9.418,-0.340,-0.135
9.420,-0.420,-0.115
9.422,-0.465,-0.095
9.424,-0.485,-0.085
9.426,-0.540,-0.075
9.428,-0.485,-0.075
9.430,-0.420,-0.075
9.432,-0.365,-0.075
9.434,-0.315,-0.080
9.436,-0.250,-0.085
9.438,-0.265,-0.085
9.440,-0.370,-0.085
9.442,-0.445,-0.080
9.444,-0.500,-0.070
9.446,-0.530,-0.060
9.448,-0.470,-0.050
9.450,-0.355,-0.040
9.452,-0.300,-0.035
9.454,-0.235,-0.025
9.456,-0.180,-0.020
9.458,-0.260,-0.015
9.460,-0.345,-0.015
9.462,-0.390,-0.015
9.464,-0.460,-0.015
9.466,-0.450,-0.020
9.468,-0.420,-0.020
9.470,-0.340,-0.020
9.472,-0.295,-0.020
9.474,-0.235,-0.020
9.476,-0.230,-0.015
9.478,-0.280,-0.010
9.480,-0.355,-0.005
9.482,-0.360,-0.005
9.484,-0.430,0.000
9.486,-0.425,0.000
9.488,-0.395,0.005
9.490,-0.315,0.005
9.492,-0.260,0.010
9.494,-0.195,0.010
9.496,-0.190,0.015
9.498,-0.240,0.015
9.500,-0.335,0.015
9.502,-0.365,0.015
9.504,-0.450,0.010
9.506,-0.455,0.005
9.508,-0.410,-0.005
9.510,-0.315,-0.015
9.512,-0.300,-0.020
9.514,-0.210,-0.025
9.516,-0.215,-0.030
9.518,-0.250,-0.025
9.520,-0.360,-0.020
9.522,-0.395,-0.015
9.524,-0.495,-0.015
9.526,-0.450,-0.010
9.528,-0.405,-0.010
9.530,-0.305,-0.010
9.532,-0.280,-0.015
9.534,-0.195,-0.015
9.536,-0.235,-0.010
9.538,-0.230,-0.005
9.540,-0.310,0.000
9.542,-0.340,0.010
9.544,-0.435,0.020
9.546,-0.380,0.030
9.548,-0.340,0.030
9.550,-0.295,0.025
9.552,-0.290,0.015
9.554,-0.195,0.005
9.556,-0.230,-0.005
9.558,-0.245,-0.015
9.560,-0.345,-0.015
9.562,-0.365,-0.010
9.564,-0.460,0.000
9.566,-0.400,0.015
9.568,-0.375,0.030
9.570,-0.270,0.040
9.572,-0.235,0.050
9.574,-0.135,0.055
9.576,-0.135,0.055
9.578,-0.210,0.055
9.580,-0.315,0.050
9.582,-0.325,0.045
9.584,-0.410,0.050
9.586,-0.385,0.050
9.588,-0.290,0.060
9.590,-0.210,0.065
9.592,-0.170,0.075
9.594,-0.070,0.080
9.596,-0.130,0.080
9.598,-0.225,0.075
9.600,-0.310,0.070
9.602,-0.315,0.060
9.604,-0.400,0.055
9.606,-0.355,0.050
9.608,-0.315,0.050
9.610,-0.235,0.055
9.612,-0.220,0.060
9.614,-0.080,0.070
9.616,-0.100,0.075
9.618,-0.200,0.085
9.620,-0.260,0.090
9.622,-0.295,0.095
9.624,-0.360,0.095
9.626,-0.320,0.095
9.628,-0.245,0.100
9.630,-0.140,0.105
9.632,-0.140,0.110
9.634,-0.065,0.120
9.636,-0.070,0.130
9.638,-0.115,0.140
9.640,-0.200,0.155
9.642,-0.220,0.160
9.644,-0.280,0.165
9.646,-0.265,0.170
9.648,-0.195,0.170
9.650,-0.110,0.175
9.652,-0.080,0.175
9.654,0.005,0.180
9.656,-0.005,0.185
9.658,-0.095,0.190
9.660,-0.150,0.195
9.662,-0.160,0.200
9.664,-0.250,0.205
9.666,-0.205,0.210
9.668,-0.135,0.215
9.670,-0.050,0.220
9.672,-0.015,0.220
9.674,0.045,0.225
9.676,0.035,0.230
9.678,-0.040,0.235
9.680,-0.100,0.240
9.682,-0.150,0.240
9.684,-0.215,0.245
9.686,-0.175,0.250
9.688,-0.090,0.250
9.690,-0.020,0.250
9.692,0.005,0.250
9.694,0.065,0.245
9.696,0.010,0.240
9.698,-0.080,0.230
9.700,-0.140,0.225
9.702,-0.180,0.220
9.704,-0.215,0.210
9.706,-0.210,0.205
9.708,-0.160,0.200
9.710,-0.095,0.200
9.712,-0.020,0.200
9.714,0.000,0.200
9.716,-0.030,0.200
9.718,-0.095,0.200
9.720,-0.155,0.200
9.722,-0.230,0.200
9.724,-0.260,0.195
9.726,-0.245,0.185
9.728,-0.195,0.170
9.730,-0.140,0.150
9.732,-0.110,0.130
9.734,-0.080,0.110
9.736,-0.145,0.090
9.738,-0.230,0.075
9.740,-0.275,0.065
9.742,-0.350,0.055
9.744,-0.370,0.055
9.746,-0.335,0.055
9.748,-0.280,0.055
9.750,-0.215,0.055
9.752,-0.150,0.055
9.754,-0.160,0.050
9.756,-0.210,0.045
9.758,-0.285,0.035
9.760,-0.340,0.020
9.762,-0.440,0.010
9.764,-0.435,-0.005
9.766,-0.410,-0.015
9.768,-0.350,-0.020
9.770,-0.295,-0.025
9.772,-0.235,-0.025
9.774,-0.225,-0.020
9.776,-0.260,-0.020
9.778,-0.340,-0.015
9.780,-0.365,-0.010
9.782,-0.440,-0.005
9.784,-0.405,-0.005
9.786,-0.420,-0.005
9.788,-0.320,-0.010
9.790,-0.285,-0.015
9.792,-0.215,-0.025
9.794,-0.240,-0.030
9.796,-0.270,-0.040
9.798,-0.360,-0.045
9.800,-0.400,-0.045
9.802,-0.515,-0.045
9.804,-0.470,-0.045
9.806,-0.435,-0.040
9.808,-0.325,-0.035
9.810,-0.300,-0.030
9.812,-0.220,-0.030
9.814,-0.250,-0.030
9.816,-0.290,-0.035
9.818,-0.355,-0.035
9.820,-0.390,-0.035
9.822,-0.465,-0.040
9.824,-0.450,-0.035
9.826,-0.400,-0.030
9.828,-0.300,-0.025
9.830,-0.275,-0.020
9.832,-0.185,-0.010
9.834,-0.230,-0.005
9.836,-0.280,-0.005
9.838,-0.345,-0.005
9.840,-0.370,-0.005
9.842,-0.470,-0.005
9.844,-0.405,-0.010
9.846,-0.365,-0.010
9.848,-0.280,-0.005
9.850,-0.280,-0.005
9.852,-0.190,-0.005
9.854,-0.215,-0.005
9.856,-0.295,-0.005
9.858,-0.365,-0.005
9.860,-0.370,-0.010
9.862,-0.445,-0.015
9.864,-0.395,-0.015
9.866,-0.365,-0.015
9.868,-0.290,-0.015
9.870,-0.280,-0.010
9.872,-0.220,-0.005
9.874,-0.215,0.000
9.876,-0.265,0.000
9.878,-0.335,0.005
9.880,-0.360,0.000
9.882,-0.430,0.000
9.884,-0.430,-0.005
9.886,-0.405,-0.010
9.888,-0.320,-0.010
9.890,-0.300,-0.010
9.892,-0.185,-0.010
9.894,-0.205,-0.010
9.896,-0.255,-0.010
9.898,-0.350,-0.010
9.900,-0.400,-0.010
9.902,-0.470,-0.010
9.904,-0.440,-0.015
9.906,-0.385,-0.015
9.908,-0.320,-0.020
9.910,-0.295,-0.025
9.912,-0.220,-0.030
9.914,-0.245,-0.030
9.916,-0.285,-0.035
9.918,-0.360,-0.035
9.920,-0.390,-0.035
9.922,-0.485,-0.035
9.924,-0.470,-0.035
9.926,-0.365,-0.030
9.928,-0.305,-0.025
9.930,-0.290,-0.020
9.932,-0.200,-0.015
9.934,-0.240,-0.015
9.936,-0.295,-0.015
9.938,-0.380,-0.015
9.940,-0.420,-0.020
9.942,-0.455,-0.025
9.944,-0.445,-0.030
9.946,-0.375,-0.035
9.948,-0.330,-0.040
9.950,-0.280,-0.045
9.952,-0.200,-0.045
9.954,-0.220,-0.040
9.956,-0.315,-0.040
9.958,-0.385,-0.040
9.960,-0.410,-0.040
9.962,-0.475,-0.040
9.964,-0.455,-0.040
9.966,-0.390,-0.040
9.968,-0.305,-0.040
9.970,-0.260,-0.040
9.972,-0.210,-0.040
9.974,-0.230,-0.035
9.976,-0.305,-0.035
9.978,-0.375,-0.035
9.980,-0.425,-0.030
9.982,-0.470,-0.030
9.984,-0.450,-0.030
9.986,-0.345,-0.025
9.988,-0.290,-0.025
9.990,-0.230,-0.020
9.992,-0.205,-0.020
9.994,-0.230,-0.020
9.996,-0.310,-0.020
9.998,-0.370,-0.025
