'Elapsed time','ECG I','ECG I filtered'
'seconds','mV','mV'
0.000,0.250,0.105
0.002,0.160,0.030
0.004,0.110,-0.020
0.006,0.040,-0.055
0.008,-0.025,-0.070
0.010,-0.020,-0.065
0.012,0.045,-0.040
0.014,0.175,-0.005
0.016,0.260,0.025
0.018,0.345,0.055
0.020,0.375,0.070
0.022,0.255,0.080
0.024,0.180,0.080
0.026,0.060,0.075
0.028,0.080,0.070
0.030,0.090,0.065
0.032,0.195,0.055
0.034,0.275,0.050
0.036,0.270,0.035
0.038,0.285,0.015
0.040,0.280,-0.015
0.042,0.120,-0.055
0.044,-0.045,-0.095
0.046,-0.145,-0.135
0.048,-0.160,-0.165
0.050,-0.190,-0.185
0.052,-0.130,-0.190
0.054,-0.020,-0.185
0.056,0.120,-0.160
0.058,0.215,-0.135
0.060,0.225,-0.105
0.062,0.115,-0.080
0.064,0.060,-0.060
0.066,-0.065,-0.045
0.068,-0.070,-0.040
0.070,-0.075,-0.035
0.072,0.080,-0.030
0.074,0.155,-0.030
0.076,0.255,-0.030
0.078,0.300,-0.025
0.080,0.285,-0.025
0.082,0.185,-0.025
0.084,0.080,-0.025
0.086,-0.070,-0.030
0.088,-0.085,-0.035
0.090,-0.030,-0.035
0.092,0.080,-0.040
0.094,0.170,-0.040
0.096,0.265,-0.040
0.098,0.260,-0.040
0.100,0.210,-0.035
0.102,0.145,-0.035
0.104,0.085,-0.030
0.106,-0.050,-0.030
0.108,-0.025,-0.030
0.110,-0.035,-0.025
0.112,0.030,-0.025
0.114,0.110,-0.020
0.116,0.295,-0.020
0.118,0.355,-0.010
0.120,0.280,-0.005
0.122,0.160,0.000
0.124,0.075,0.005
0.126,-0.040,0.005
0.128,0.010,0.010
0.130,0.035,0.005
0.132,0.100,0.000
0.134,0.130,-0.005
0.136,0.290,-0.005
0.138,0.255,-0.010
0.140,0.235,-0.010
0.142,0.185,-0.005
0.144,0.125,0.000
0.146,-0.010,0.005
0.148,0.025,0.005
0.150,0.035,0.005
0.152,0.140,0.000
0.154,0.145,-0.005
0.156,0.235,-0.015
0.158,0.220,-0.030
0.160,0.195,-0.040
0.162,0.090,-0.040
0.164,0.085,-0.040
0.166,-0.030,-0.030
0.168,-0.015,-0.015
0.170,0.055,0.000
0.172,0.145,0.020
0.174,0.210,0.035
0.176,0.380,0.045
0.178,0.335,0.050
0.180,0.290,0.050
0.182,0.190,0.045
0.184,0.065,0.040
0.186,-0.050,0.030
0.188,0.050,0.030
0.190,0.080,0.025
0.192,0.175,0.025
0.194,0.220,0.030
0.196,0.350,0.035
0.198,0.325,0.040
0.200,0.235,0.045
0.202,0.170,0.050
0.204,0.135,0.055
0.206,0.070,0.065
0.208,0.040,0.075
0.210,0.160,0.090
0.212,0.200,0.100
0.214,0.260,0.115
0.216,0.440,0.125
0.218,0.415,0.130
0.220,0.365,0.130
0.222,0.260,0.125
0.224,0.205,0.115
0.226,0.065,0.105
0.228,0.080,0.095
0.230,0.120,0.090
0.232,0.195,0.085
0.234,0.275,0.090
0.236,0.420,0.095
0.238,0.410,0.105
0.240,0.330,0.115
0.242,0.260,0.130
0.244,0.200,0.140
0.246,0.120,0.150
0.248,0.155,0.160
0.250,0.265,0.165
0.252,0.340,0.175
0.254,0.335,0.185
0.256,0.465,0.190
0.258,0.455,0.195
0.260,0.395,0.200
0.262,0.350,0.200
0.264,0.300,0.195
0.266,0.160,0.190
0.268,0.130,0.180
0.270,0.260,0.170
0.272,0.340,0.160
0.274,0.350,0.150
0.276,0.435,0.140
0.278,0.425,0.130
0.280,0.305,0.125
0.282,0.215,0.115
0.284,0.150,0.110
0.286,0.115,0.105
0.288,0.115,0.105
0.290,0.170,0.100
0.292,0.205,0.100
0.294,0.285,0.105
0.296,0.410,0.105
0.298,0.385,0.110
0.300,0.310,0.105
0.302,0.215,0.105
0.304,0.165,0.095
0.306,0.045,0.080
0.308,0.075,0.065
0.310,0.080,0.050
0.312,0.185,0.035
0.314,0.255,0.020
0.316,0.305,0.010
0.318,0.275,0.005
0.320,0.180,0.000
0.322,0.090,0.000
0.324,0.050,0.000
0.326,0.005,0.000
0.328,-0.030,-0.005
0.330,0.055,-0.010
0.332,0.125,-0.025
0.334,0.180,-0.035
0.336,0.250,-0.050
0.338,0.190,-0.060
0.340,0.070,-0.070
0.342,0.045,-0.070
0.344,0.000,-0.065
0.346,-0.075,-0.050
0.348,-0.055,-0.040
0.350,0.110,-0.025
0.352,0.200,-0.010
0.354,0.245,0.000
0.356,0.270,0.000
0.358,0.265,-0.005
0.360,0.155,-0.015
0.362,0.055,-0.025
0.364,-0.065,-0.040
0.366,-0.080,-0.050
0.368,-0.020,-0.055
0.370,0.035,-0.060
0.372,0.060,-0.060
0.374,0.230,-0.060
0.376,0.265,-0.055
0.378,0.175,-0.050
0.380,0.125,-0.050
0.382,0.110,-0.045
0.384,-0.060,-0.040
0.386,-0.075,-0.035
0.388,-0.015,-0.030
0.390,0.100,-0.025
0.392,0.160,-0.015
0.394,0.290,-0.010
0.396,0.260,-0.010
0.398,0.175,-0.020
0.400,0.110,-0.030
0.402,0.085,-0.050
0.404,-0.055,-0.065
0.406,-0.055,-0.085
0.408,-0.120,-0.100
0.410,-0.035,-0.110
0.412,0.025,-0.110
0.414,0.170,-0.105
0.416,0.220,-0.095
0.418,0.165,-0.080
0.420,0.055,-0.070
0.422,0.035,-0.055
0.424,-0.085,-0.050
0.426,-0.045,-0.045
0.428,-0.020,-0.045
0.430,0.070,-0.050
0.432,0.100,-0.050
0.434,0.245,-0.050
0.436,0.235,-0.050
0.438,0.190,-0.045
0.440,0.115,-0.040
0.442,0.070,-0.040
0.444,-0.040,-0.035
0.446,-0.030,-0.035
0.448,-0.025,-0.040
0.450,0.055,-0.045
0.452,0.090,-0.045
0.454,0.210,-0.045
0.456,0.270,-0.040
0.458,0.235,-0.035
0.460,0.090,-0.030
0.462,0.065,-0.020
0.464,-0.055,-0.015
0.466,-0.025,-0.010
0.468,0.040,-0.015
0.470,0.130,-0.025
0.472,0.140,-0.040
0.474,0.250,-0.055
0.476,0.180,-0.070
0.478,0.125,-0.080
0.480,0.070,-0.080
0.482,0.035,-0.075
0.484,-0.105,-0.065
0.486,-0.060,-0.050
0.488,-0.030,-0.035
0.490,0.115,-0.020
0.492,0.140,-0.015
0.494,0.265,-0.015
0.496,0.300,-0.025
0.498,0.225,-0.035
0.500,0.090,-0.050
0.502,0.020,-0.060
0.504,-0.170,-0.070
0.506,-0.190,-0.070
0.508,-0.035,-0.070
0.510,0.135,-0.060
0.512,0.155,-0.050
0.514,0.260,-0.040
0.516,0.235,-0.030
0.518,0.215,-0.030
0.520,0.120,-0.030
0.522,0.020,-0.030
0.524,-0.080,-0.035
0.526,-0.110,-0.035
0.528,-0.020,-0.035
0.530,0.070,-0.035
0.532,0.140,-0.030
0.534,0.285,-0.025
0.536,0.300,-0.020
0.538,0.210,-0.015
0.540,0.080,-0.015
0.542,0.015,-0.020
0.544,-0.060,-0.020
0.546,-0.070,-0.030
0.548,0.010,-0.035
0.550,0.070,-0.040
0.552,0.100,-0.040
0.554,0.275,-0.045
0.556,0.260,-0.045
0.558,0.150,-0.045
0.560,0.055,-0.045
0.562,0.000,-0.045
0.564,-0.075,-0.050
0.566,-0.100,-0.055
0.568,-0.045,-0.065
0.570,0.040,-0.070
0.572,0.145,-0.075
0.574,0.205,-0.080
0.576,0.200,-0.080
0.578,0.120,-0.080
0.580,0.030,-0.080
0.582,-0.035,-0.075
0.584,-0.110,-0.070
0.586,-0.050,-0.060
0.588,0.015,-0.055
0.590,0.080,-0.040
0.592,0.165,-0.030
0.594,0.280,-0.020
0.596,0.270,-0.010
0.598,0.210,-0.005
0.600,0.150,0.000
0.602,0.060,0.000
0.604,-0.075,0.000
0.606,-0.060,-0.005
0.608,0.005,-0.010
0.610,0.095,-0.015
0.612,0.185,-0.025
0.614,0.230,-0.025
0.616,0.260,-0.030
0.618,0.145,-0.035
0.620,0.110,-0.035
0.622,0.015,-0.035
0.624,-0.055,-0.040
0.626,-0.115,-0.045
0.628,-0.045,-0.050
0.630,0.025,-0.060
0.632,0.175,-0.065
0.634,0.250,-0.065
0.636,0.250,-0.065
0.638,0.130,-0.065
0.640,0.045,-0.060
0.642,-0.045,-0.055
0.644,-0.065,-0.050
0.646,-0.055,-0.045
0.648,0.060,-0.045
0.650,0.120,-0.040
0.652,0.215,-0.040
0.654,0.200,-0.040
0.656,0.155,-0.040
0.658,0.060,-0.040
0.660,0.065,-0.035
0.662,0.025,-0.030
0.664,0.000,-0.025
0.666,0.010,-0.020
0.668,0.065,-0.015
0.670,0.085,-0.010
0.672,0.200,-0.005
0.674,0.280,0.005
0.676,0.265,0.015
0.678,0.205,0.025
0.680,0.210,0.035
0.682,0.050,0.040
0.684,0.000,0.045
0.686,-0.010,0.045
0.688,0.115,0.045
0.690,0.145,0.035
0.692,0.280,0.025
0.694,0.275,0.015
0.696,0.260,0.010
0.698,0.170,0.010
0.700,0.100,0.015
0.702,0.050,0.025
0.704,0.035,0.035
0.706,0.090,0.040
0.708,0.140,0.045
0.710,0.140,0.035
0.712,0.260,0.020
0.714,0.255,0.000
0.716,0.210,-0.025
0.718,0.055,-0.045
0.720,-0.020,-0.065
0.722,-0.110,-0.070
0.724,-0.070,-0.070
0.726,-0.025,-0.060
0.728,0.100,-0.050
0.730,0.130,-0.040
0.732,0.230,-0.035
0.734,0.215,-0.040
0.736,0.190,-0.050
0.738,0.070,-0.065
0.740,-0.010,-0.080
0.742,-0.175,-0.085
0.744,-0.120,-0.085
0.746,-0.015,-0.075
0.748,0.060,-0.060
0.750,0.115,-0.035
0.752,0.270,-0.015
0.754,0.265,0.005
0.756,0.250,0.010
0.758,0.140,0.005
0.760,0.050,-0.015
0.762,-0.125,-0.035
0.764,-0.130,-0.060
0.766,-0.095,-0.075
0.768,0.025,-0.090
0.770,0.100,-0.090
0.772,0.210,-0.080
0.774,0.245,-0.065
0.776,0.215,-0.050
0.778,0.130,-0.035
0.780,0.035,-0.030
0.782,-0.120,-0.035
0.784,-0.090,-0.045
0.786,-0.020,-0.065
0.788,0.075,-0.080
0.790,0.055,-0.100
0.792,0.165,-0.110
0.794,0.165,-0.110
0.796,0.120,-0.100
0.798,0.040,-0.085
0.800,0.030,-0.060
0.802,-0.055,-0.035
0.804,-0.030,-0.010
0.806,0.030,0.010
0.808,0.165,0.025
0.810,0.220,0.035
0.812,0.305,0.035
0.814,0.305,0.030
0.816,0.250,0.025
0.818,0.135,0.020
0.820,0.090,0.015
0.822,-0.030,0.015
0.824,-0.030,0.020
0.826,0.050,0.025
0.828,0.160,0.035
0.830,0.255,0.045
0.832,0.370,0.050
0.834,0.340,0.050
0.836,0.270,0.040
0.838,0.115,0.020
0.840,0.030,-0.005
0.842,-0.095,-0.035
0.844,-0.155,-0.070
0.846,-0.075,-0.105
0.848,-0.005,-0.135
0.850,0.045,-0.160
0.852,0.115,-0.175
0.854,0.070,-0.180
0.856,-0.025,-0.175
0.858,-0.075,-0.160
0.860,-0.075,-0.140
0.862,-0.125,-0.115
0.864,-0.150,-0.090
0.866,-0.035,-0.070
0.868,0.095,-0.045
0.870,0.175,-0.030
0.872,0.285,-0.015
0.874,0.260,-0.010
0.876,0.185,-0.005
0.878,0.105,-0.010
0.880,-0.020,-0.015
0.882,-0.085,-0.020
0.884,-0.065,-0.025
0.886,0.010,-0.030
0.888,0.080,-0.030
0.890,0.165,-0.030
0.892,0.260,-0.025
0.894,0.255,-0.020
0.896,0.170,-0.015
0.898,0.060,-0.010
0.900,-0.040,-0.010
0.902,-0.060,-0.010
0.904,-0.045,-0.015
0.906,0.050,-0.020
0.908,0.120,-0.020
0.910,0.220,-0.020
0.912,0.290,-0.015
0.914,0.275,-0.005
0.916,0.195,0.005
0.918,0.140,0.020
0.920,0.015,0.030
0.922,-0.070,0.040
0.924,0.005,0.045
0.926,0.110,0.045
0.928,0.160,0.035
0.930,0.270,0.025
0.932,0.315,0.015
0.934,0.300,0.005
0.936,0.175,0.000
0.938,0.075,-0.005
0.940,-0.050,0.000
0.942,-0.055,0.000
0.944,0.005,0.005
0.946,0.090,0.005
0.948,0.115,0.010
0.950,0.245,0.010
0.952,0.280,0.005
0.954,0.285,0.005
0.956,0.200,0.010
0.958,0.105,0.015
0.960,-0.020,0.020
0.962,-0.010,0.025
0.964,0.015,0.030
0.966,0.085,0.030
0.968,0.160,0.030
0.970,0.285,0.025
0.972,0.290,0.020
0.974,0.270,0.010
0.976,0.190,0.005
0.978,0.110,0.000
0.980,-0.060,0.005
0.982,-0.035,0.010
0.984,0.020,0.015
0.986,0.105,0.025
0.988,0.175,0.030
0.990,0.310,0.035
0.992,0.325,0.035
0.994,0.260,0.035
0.996,0.195,0.035
0.998,0.110,0.035
1.000,-0.015,0.045
1.002,-0.010,0.055
1.004,0.075,0.075
1.006,0.240,0.090
1.008,0.305,0.105
1.010,0.445,0.115
1.012,0.360,0.120
1.014,0.305,0.115
1.016,0.170,0.100
1.018,0.125,0.090
1.020,0.000,0.075
1.022,0.060,0.070
1.024,0.145,0.075
1.026,0.250,0.085
1.028,0.290,0.105
1.030,0.395,0.125
1.032,0.405,0.145
1.034,0.390,0.160
1.036,0.310,0.165
1.038,0.255,0.165
1.040,0.100,0.155
1.042,0.115,0.150
1.044,0.160,0.140
1.046,0.245,0.135
1.048,0.265,0.135
1.050,0.415,0.145
1.052,0.415,0.155
1.054,0.350,0.170
1.056,0.320,0.180
1.058,0.290,0.190
1.060,0.165,0.200
1.062,0.185,0.200
1.064,0.245,0.200
1.066,0.325,0.200
1.068,0.335,0.195
1.070,0.425,0.190
1.072,0.410,0.190
1.074,0.410,0.185
1.076,0.330,0.180
1.078,0.265,0.175
1.080,0.120,0.170
1.082,0.100,0.165
1.084,0.175,0.155
1.086,0.295,0.150
1.088,0.310,0.140
1.090,0.415,0.130
1.092,0.420,0.125
1.094,0.305,0.115
1.096,0.215,0.105
1.098,0.155,0.095
1.100,0.050,0.090
1.102,0.065,0.085
1.104,0.105,0.085
1.106,0.190,0.085
1.108,0.250,0.085
1.110,0.365,0.085
1.112,0.325,0.080
1.114,0.260,0.070
1.116,0.180,0.060
1.118,0.105,0.045
1.120,-0.050,0.025
1.122,-0.045,0.010
1.124,0.010,-0.005
1.126,0.110,-0.015
1.128,0.210,-0.020
1.130,0.295,-0.015
1.132,0.265,-0.010
1.134,0.235,0.000
1.136,0.135,0.010
1.138,0.010,0.010
1.140,-0.105,0.010
1.142,-0.055,0.000
1.144,0.035,-0.010
1.146,0.130,-0.025
1.148,0.185,-0.035
1.150,0.255,-0.040
1.152,0.200,-0.040
1.154,0.100,-0.035
1.156,0.040,-0.030
1.158,0.035,-0.020
1.160,-0.020,-0.010
1.162,-0.040,-0.005
1.164,0.050,-0.005
1.166,0.085,-0.005
1.168,0.160,-0.015
1.170,0.260,-0.020
1.172,0.220,-0.030
1.174,0.135,-0.035
1.176,0.070,-0.040
1.178,-0.010,-0.045
1.180,-0.070,-0.045
1.182,-0.075,-0.040
1.184,0.015,-0.040
1.186,0.070,-0.035
1.188,0.165,-0.035
1.190,0.195,-0.030
1.192,0.185,-0.030
1.194,0.165,-0.030
1.196,0.160,-0.030
1.198,-0.005,-0.030
1.200,-0.095,-0.035
1.202,-0.055,-0.040
1.204,0.025,-0.045
1.206,0.040,-0.050
1.208,0.125,-0.050
1.210,0.230,-0.050
1.212,0.260,-0.045
1.214,0.175,-0.035
1.216,0.130,-0.025
1.218,-0.020,-0.015
1.220,-0.095,-0.010
1.222,-0.105,-0.005
1.224,-0.015,-0.010
1.226,0.095,-0.020
1.228,0.250,-0.030
1.230,0.270,-0.045
1.232,0.190,-0.060
1.234,0.070,-0.065
1.236,0.070,-0.070
1.238,-0.095,-0.070
1.240,-0.140,-0.065
1.242,-0.085,-0.055
1.244,0.040,-0.045
1.246,0.100,-0.040
1.248,0.195,-0.035
1.250,0.225,-0.030
1.252,0.195,-0.035
1.254,0.090,-0.035
1.256,0.055,-0.035
1.258,-0.050,-0.030
1.260,-0.065,-0.025
1.262,-0.010,-0.015
1.264,0.115,-0.010
1.266,0.150,0.000
1.268,0.265,0.000
1.270,0.275,0.000
1.272,0.200,-0.010
1.274,0.115,-0.015
1.276,0.060,-0.025
1.278,-0.095,-0.035
1.280,-0.060,-0.040
1.282,-0.050,-0.040
1.284,0.070,-0.035
1.286,0.120,-0.025
1.288,0.260,-0.015
1.290,0.225,-0.010
1.292,0.230,0.000
1.294,0.190,0.005
1.296,0.140,0.005
1.298,-0.065,0.000
1.300,-0.025,-0.005
1.302,-0.025,-0.015
1.304,0.035,-0.020
1.306,0.050,-0.030
1.308,0.210,-0.045
1.310,0.205,-0.050
1.312,0.205,-0.060
1.314,0.085,-0.065
1.316,0.045,-0.065
1.318,-0.085,-0.060
1.320,-0.120,-0.050
1.322,-0.085,-0.040
1.324,0.050,-0.030
1.326,0.125,-0.015
1.328,0.290,-0.010
1.330,0.300,-0.005
1.332,0.195,-0.010
1.334,0.095,-0.015
1.336,0.050,-0.025
1.338,-0.110,-0.030
1.340,-0.085,-0.035
1.342,0.025,-0.040
1.344,0.110,-0.040
1.346,0.110,-0.035
1.348,0.230,-0.030
1.350,0.260,-0.030
1.352,0.205,-0.025
1.354,0.065,-0.025
1.356,0.000,-0.025
1.358,-0.050,-0.025
1.360,-0.045,-0.020
1.362,-0.020,-0.015
1.364,0.045,-0.005
1.366,0.120,0.000
1.368,0.310,0.010
1.370,0.370,0.010
1.372,0.260,0.010
1.374,0.110,0.005
1.376,0.045,-0.005
1.378,-0.105,-0.010
1.380,-0.130,-0.020
1.382,-0.015,-0.025
1.384,0.120,-0.025
1.386,0.170,-0.025
1.388,0.280,-0.025
1.390,0.250,-0.025
1.392,0.180,-0.025
1.394,0.100,-0.030
1.396,-0.010,-0.040
1.398,-0.160,-0.050
1.400,-0.135,-0.060
1.402,-0.020,-0.070
1.404,0.070,-0.070
1.406,0.105,-0.070
1.408,0.225,-0.060
1.410,0.215,-0.050
1.412,0.160,-0.035
1.414,0.135,-0.025
1.416,0.020,-0.015
1.418,-0.075,-0.015
1.420,-0.085,-0.015
1.422,-0.020,-0.020
1.424,0.095,-0.025
1.426,0.135,-0.025
1.428,0.280,-0.030
1.430,0.300,-0.030
1.432,0.265,-0.030
1.434,0.110,-0.025
1.436,-0.040,-0.025
1.438,-0.110,-0.020
1.440,-0.115,-0.020
1.442,-0.010,-0.025
1.444,0.105,-0.025
1.446,0.190,-0.030
1.448,0.290,-0.035
1.450,0.250,-0.035
1.452,0.130,-0.040
1.454,0.060,-0.040
1.456,-0.045,-0.040
1.458,-0.125,-0.040
1.460,-0.105,-0.045
1.462,0.025,-0.045
1.464,0.080,-0.040
1.466,0.160,-0.040
1.468,0.255,-0.040
1.470,0.240,-0.040
1.472,0.155,-0.040
1.474,0.040,-0.040
1.476,-0.060,-0.040
1.478,-0.085,-0.045
1.480,-0.060,-0.050
1.482,0.005,-0.055
1.484,0.010,-0.055
1.486,0.155,-0.060
1.488,0.280,-0.060
1.490,0.235,-0.060
1.492,0.100,-0.050
1.494,0.040,-0.045
1.496,-0.055,-0.035
1.498,-0.090,-0.030
1.500,-0.060,-0.025
1.502,0.070,-0.020
1.504,0.155,-0.020
1.506,0.220,-0.025
1.508,0.205,-0.030
1.510,0.215,-0.035
1.512,0.155,-0.040
1.514,0.045,-0.045
1.516,-0.110,-0.045
1.518,-0.085,-0.040
1.520,-0.055,-0.030
1.522,0.010,-0.025
1.524,0.080,-0.015
1.526,0.255,-0.010
1.528,0.310,-0.005
1.530,0.270,-0.005
1.532,0.185,-0.010
1.534,0.080,-0.015
1.536,-0.090,-0.020
1.538,-0.075,-0.020
1.540,-0.060,-0.025
1.542,0.030,-0.025
1.544,0.095,-0.025
1.546,0.260,-0.020
1.548,0.315,-0.010
1.550,0.270,-0.005
1.552,0.145,0.005
1.554,0.110,0.010
1.556,-0.035,0.020
1.558,-0.045,0.025
1.560,0.010,0.025
1.562,0.095,0.025
1.564,0.155,0.025
1.566,0.300,0.020
1.568,0.315,0.020
1.570,0.275,0.015
1.572,0.140,0.015
1.574,0.030,0.015
1.576,-0.095,0.015
1.578,-0.015,0.020
1.580,0.045,0.025
1.582,0.140,0.030
1.584,0.165,0.030
1.586,0.330,0.025
1.588,0.325,0.010
1.590,0.215,-0.005
1.592,0.075,-0.025
1.594,0.005,-0.045
1.596,-0.135,-0.060
1.598,-0.135,-0.070
1.600,-0.095,-0.075
1.602,0.030,-0.065
1.604,0.110,-0.055
1.606,0.320,-0.035
1.608,0.290,-0.015
1.610,0.210,0.000
1.612,0.080,0.005
1.614,0.050,0.005
1.616,-0.095,0.000
1.618,-0.070,-0.015
1.620,0.000,-0.030
1.622,0.095,-0.045
1.624,0.105,-0.050
1.626,0.230,-0.055
1.628,0.240,-0.050
1.630,0.190,-0.045
1.632,0.080,-0.040
1.634,0.050,-0.030
1.636,-0.070,-0.030
1.638,-0.065,-0.030
1.640,-0.040,-0.035
1.642,-0.005,-0.040
1.644,0.100,-0.050
1.646,0.270,-0.060
1.648,0.255,-0.065
1.650,0.160,-0.065
1.652,0.055,-0.065
1.654,0.015,-0.060
1.656,-0.105,-0.055
1.658,-0.105,-0.040
1.660,-0.080,-0.030
1.662,0.110,-0.010
1.664,0.200,0.005
1.666,0.320,0.020
1.668,0.315,0.030
1.670,0.270,0.040
1.672,0.170,0.045
1.674,0.120,0.050
1.676,-0.010,0.045
1.678,0.010,0.045
1.680,0.070,0.040
1.682,0.120,0.040
1.684,0.200,0.040
1.686,0.345,0.045
1.688,0.310,0.050
1.690,0.240,0.050
1.692,0.230,0.050
1.694,0.120,0.040
1.696,-0.085,0.015
1.698,-0.095,-0.015
1.700,-0.070,-0.050
1.702,0.010,-0.085
1.704,0.035,-0.120
1.706,0.145,-0.145
1.708,0.175,-0.160
1.710,0.065,-0.155
1.712,-0.060,-0.140
1.714,-0.090,-0.115
1.716,-0.145,-0.085
1.718,-0.045,-0.050
1.720,0.060,-0.025
1.722,0.100,-0.010
1.724,0.190,-0.005
1.726,0.270,-0.005
1.728,0.295,-0.010
1.730,0.155,-0.020
1.732,0.055,-0.035
1.734,0.000,-0.040
1.736,-0.100,-0.050
1.738,-0.080,-0.055
1.740,0.005,-0.055
1.742,0.075,-0.060
1.744,0.150,-0.060
1.746,0.210,-0.060
1.748,0.170,-0.060
1.750,0.130,-0.055
1.752,0.085,-0.040
1.754,0.015,-0.025
1.756,-0.015,-0.005
1.758,0.040,0.015
1.760,0.155,0.035
1.762,0.245,0.050
1.764,0.265,0.055
1.766,0.275,0.055
1.768,0.225,0.050
1.770,0.140,0.035
1.772,0.070,0.020
1.774,0.015,0.010
1.776,-0.025,0.000
1.778,-0.040,0.000
1.780,0.125,0.005
1.782,0.225,0.015
1.784,0.295,0.025
1.786,0.320,0.030
1.788,0.240,0.035
1.790,0.100,0.030
1.792,0.080,0.025
1.794,0.005,0.010
1.796,0.035,-0.005
1.798,-0.030,-0.015
1.800,0.075,-0.025
1.802,0.120,-0.025
1.804,0.260,-0.015
1.806,0.290,-0.005
1.808,0.230,0.010
1.810,0.135,0.025
1.812,0.115,0.035
1.814,0.010,0.035
1.816,0.000,0.035
1.818,0.030,0.025
1.820,0.115,0.015
1.822,0.140,0.005
1.824,0.255,0.000
1.826,0.285,0.000
1.828,0.250,0.010
1.830,0.185,0.030
1.832,0.165,0.055
1.834,0.070,0.080
1.836,0.100,0.105
1.838,0.100,0.120
1.840,0.170,0.120
1.842,0.235,0.115
1.844,0.360,0.100
1.846,0.345,0.080
1.848,0.340,0.060
1.850,0.235,0.045
1.852,0.145,0.040
1.854,-0.015,0.045
1.856,0.000,0.060
1.858,0.085,0.075
1.860,0.245,0.100
1.862,0.270,0.115
1.864,0.405,0.125
1.866,0.370,0.130
1.868,0.335,0.120
1.870,0.290,0.110
1.872,0.190,0.100
1.874,0.035,0.085
1.876,0.030,0.080
1.878,0.085,0.080
1.880,0.215,0.090
1.882,0.280,0.100
1.884,0.430,0.115
1.886,0.395,0.130
1.888,0.365,0.145
1.890,0.290,0.150
1.892,0.270,0.155
1.894,0.145,0.155
1.896,0.115,0.155
1.898,0.155,0.155
1.900,0.250,0.150
1.902,0.285,0.150
1.904,0.465,0.155
1.906,0.425,0.155
1.908,0.405,0.160
1.910,0.335,0.165
1.912,0.295,0.170
1.914,0.130,0.175
1.916,0.160,0.180
1.918,0.195,0.185
1.920,0.260,0.190
1.922,0.315,0.195
1.924,0.465,0.195
1.926,0.515,0.200
1.928,0.455,0.200
1.930,0.360,0.200
1.932,0.295,0.200
1.934,0.120,0.195
1.936,0.160,0.190
1.938,0.205,0.180
1.940,0.305,0.175
1.942,0.330,0.165
1.944,0.445,0.160
1.946,0.495,0.155
1.948,0.415,0.155
1.950,0.245,0.150
1.952,0.180,0.155
1.954,0.070,0.155
1.956,0.090,0.150
1.958,0.205,0.150
1.960,0.300,0.145
1.962,0.365,0.130
1.964,0.420,0.120
1.966,0.380,0.100
1.968,0.255,0.080
1.970,0.165,0.060
1.972,0.090,0.040
1.974,-0.045,0.025
1.976,-0.050,0.015
1.978,0.090,0.010
1.980,0.180,0.005
1.982,0.205,0.010
1.984,0.310,0.015
1.986,0.330,0.020
1.988,0.230,0.025
1.990,0.145,0.030
1.992,0.065,0.035
1.994,-0.045,0.040
1.996,0.030,0.045
1.998,0.135,0.045
2.000,0.205,0.045
2.002,0.270,0.050
2.004,0.340,0.050
2.006,0.295,0.045
2.008,0.190,0.045
2.010,0.095,0.040
2.012,0.070,0.035
2.014,0.015,0.030
2.016,0.000,0.020
2.018,0.085,0.015
2.020,0.160,0.005
2.022,0.235,0.000
2.024,0.275,0.000
2.026,0.205,-0.005
2.028,0.170,0.000
2.030,0.155,0.005
2.032,0.075,0.010
2.034,0.000,0.015
2.036,-0.070,0.015
2.038,0.055,0.010
2.040,0.130,0.000
2.042,0.200,-0.010
2.044,0.290,-0.025
2.046,0.240,-0.040
2.048,0.110,-0.045
2.050,0.055,-0.050
2.052,-0.015,-0.045
2.054,-0.065,-0.035
2.056,-0.035,-0.025
2.058,0.095,-0.010
2.060,0.170,0.005
2.062,0.225,0.010
2.064,0.275,0.010
2.066,0.235,0.005
2.068,0.145,-0.005
2.070,0.090,-0.015
2.072,-0.010,-0.025
2.074,-0.050,-0.035
2.076,-0.035,-0.040
2.078,0.070,-0.035
2.080,0.105,-0.035
2.082,0.215,-0.030
2.084,0.275,-0.025
2.086,0.245,-0.020
2.088,0.120,-0.020
2.090,0.060,-0.020
2.092,-0.025,-0.020
2.094,-0.010,-0.020
2.096,-0.025,-0.020
2.098,0.055,-0.020
2.100,0.130,-0.020
2.102,0.250,-0.020
2.104,0.240,-0.020
2.106,0.240,-0.020
2.108,0.160,-0.025
2.110,0.085,-0.025
2.112,-0.055,-0.020
2.114,-0.055,-0.020
2.116,0.030,-0.015
2.118,0.130,-0.010
2.120,0.130,-0.010
2.122,0.260,-0.010
2.124,0.275,-0.010
2.126,0.200,-0.015
2.128,0.115,-0.025
2.130,0.035,-0.035
2.132,-0.085,-0.040
2.134,-0.030,-0.045
2.136,-0.030,-0.045
2.138,0.045,-0.040
2.140,0.125,-0.035
2.142,0.260,-0.030
2.144,0.250,-0.025
2.146,0.245,-0.020
2.148,0.185,-0.025
2.150,0.105,-0.025
2.152,-0.070,-0.030
2.154,-0.055,-0.035
2.156,-0.065,-0.040
2.158,0.055,-0.040
2.160,0.100,-0.040
2.162,0.240,-0.040
2.164,0.245,-0.040
2.166,0.220,-0.035
2.168,0.130,-0.035
2.170,0.115,-0.030
2.172,-0.070,-0.030
2.174,-0.085,-0.025
2.176,0.015,-0.015
2.178,0.125,-0.010
2.180,0.180,0.000
2.182,0.310,0.005
2.184,0.280,0.005
2.186,0.210,0.000
2.188,0.100,-0.015
2.190,0.065,-0.030
2.192,-0.115,-0.050
2.194,-0.080,-0.065
2.196,-0.015,-0.080
2.198,0.090,-0.085
2.200,0.110,-0.080
2.202,0.225,-0.070
2.204,0.220,-0.055
2.206,0.150,-0.040
2.208,0.070,-0.030
2.210,0.110,-0.020
2.212,-0.020,-0.020
2.214,-0.050,-0.020
2.216,-0.030,-0.025
2.218,0.065,-0.030
2.220,0.100,-0.035
2.222,0.280,-0.035
2.224,0.295,-0.030
2.226,0.260,-0.025
2.228,0.160,-0.020
2.230,0.070,-0.015
2.232,-0.085,-0.015
2.234,-0.105,-0.015
2.236,0.005,-0.020
2.238,0.095,-0.025
2.240,0.105,-0.035
2.242,0.250,-0.040
2.244,0.250,-0.045
2.246,0.205,-0.050
2.248,0.110,-0.055
2.250,0.030,-0.060
2.252,-0.150,-0.065
2.254,-0.130,-0.070
2.256,-0.025,-0.075
2.258,0.085,-0.085
2.260,0.130,-0.085
2.262,0.205,-0.085
2.264,0.225,-0.080
2.266,0.190,-0.075
2.268,0.070,-0.060
2.270,-0.020,-0.045
2.272,-0.045,-0.030
2.274,-0.025,-0.020
2.276,0.035,-0.015
2.278,0.110,-0.010
2.280,0.165,-0.015
2.282,0.215,-0.025
2.284,0.215,-0.035
2.286,0.135,-0.045
2.288,0.095,-0.055
2.290,0.045,-0.060
2.292,-0.065,-0.065
2.294,-0.090,-0.065
2.296,-0.020,-0.060
2.298,0.095,-0.055
2.300,0.180,-0.045
2.302,0.275,-0.040
2.304,0.285,-0.030
2.306,0.175,-0.030
2.308,0.120,-0.025
2.310,-0.010,-0.025
2.312,-0.100,-0.030
2.314,-0.055,-0.030
2.316,0.045,-0.035
2.318,0.105,-0.040
2.320,0.205,-0.040
2.322,0.275,-0.045
2.324,0.260,-0.045
2.326,0.135,-0.045
2.328,0.075,-0.045
2.330,-0.025,-0.050
2.332,-0.080,-0.050
2.334,-0.090,-0.055
2.336,-0.040,-0.055
2.338,0.075,-0.055
2.340,0.195,-0.060
2.342,0.260,-0.055
2.344,0.230,-0.055
2.346,0.135,-0.050
2.348,0.085,-0.050
2.350,-0.025,-0.045
2.352,-0.120,-0.040
2.354,-0.075,-0.045
2.356,0.025,-0.045
2.358,0.100,-0.055
2.360,0.200,-0.060
2.362,0.205,-0.070
2.364,0.190,-0.080
2.366,0.115,-0.085
2.368,0.045,-0.090
2.370,-0.085,-0.085
2.372,-0.115,-0.075
2.374,-0.115,-0.065
2.376,0.020,-0.055
2.378,0.095,-0.040
2.380,0.260,-0.030
2.382,0.280,-0.025
2.384,0.250,-0.025
2.386,0.135,-0.030
2.388,0.085,-0.035
2.390,-0.065,-0.045
2.392,-0.100,-0.055
2.394,-0.095,-0.065
2.396,0.030,-0.075
2.398,0.080,-0.080
2.400,0.185,-0.085
2.402,0.250,-0.080
2.404,0.200,-0.080
2.406,0.125,-0.080
2.408,0.050,-0.075
2.410,-0.135,-0.075
2.412,-0.105,-0.075
2.414,-0.065,-0.075
2.416,0.015,-0.075
2.418,0.095,-0.075
2.420,0.205,-0.075
2.422,0.250,-0.070
2.424,0.165,-0.065
2.426,0.080,-0.060
2.428,0.070,-0.050
2.430,-0.065,-0.045
2.432,-0.040,-0.035
2.434,0.000,-0.025
2.436,0.080,-0.020
2.438,0.120,-0.020
2.440,0.250,-0.020
2.442,0.250,-0.025
2.444,0.230,-0.035
2.446,0.130,-0.040
2.448,0.065,-0.050
2.450,-0.060,-0.055
2.452,-0.115,-0.055
2.454,-0.055,-0.055
2.456,0.060,-0.045
2.458,0.120,-0.035
2.460,0.265,-0.025
2.462,0.300,-0.010
2.464,0.265,0.005
2.466,0.205,0.015
2.468,0.175,0.020
2.470,0.010,0.025
2.472,-0.040,0.020
2.474,0.020,0.015
2.476,0.070,0.005
2.478,0.095,-0.005
2.480,0.260,-0.015
2.482,0.300,-0.020
2.484,0.260,-0.025
2.486,0.145,-0.030
2.488,0.020,-0.035
2.490,-0.125,-0.040
2.492,-0.100,-0.040
2.494,0.010,-0.040
2.496,0.115,-0.040
2.498,0.150,-0.040
2.500,0.260,-0.040
2.502,0.245,-0.040
2.504,0.220,-0.040
2.506,0.120,-0.045
2.508,0.070,-0.050
2.510,-0.090,-0.055
2.512,-0.105,-0.065
2.514,-0.030,-0.075
2.516,0.025,-0.080
2.518,0.040,-0.085
2.520,0.200,-0.090
2.522,0.210,-0.085
2.524,0.170,-0.080
2.526,0.075,-0.075
2.528,0.005,-0.065
2.530,-0.070,-0.060
2.532,-0.060,-0.055
2.534,-0.035,-0.050
2.536,0.065,-0.050
2.538,0.105,-0.055
2.540,0.235,-0.055
2.542,0.265,-0.060
2.544,0.195,-0.060
2.546,0.060,-0.060
2.548,0.025,-0.060
2.550,-0.095,-0.060
2.552,-0.130,-0.055
2.554,-0.055,-0.055
2.556,0.105,-0.050
2.558,0.160,-0.045
2.560,0.270,-0.035
2.562,0.235,-0.025
2.564,0.210,-0.010
2.566,0.225,0.005
2.568,0.145,0.020
2.570,0.015,0.035
2.572,-0.015,0.040
2.574,0.055,0.045
2.576,0.145,0.045
2.578,0.225,0.040
2.580,0.290,0.035
2.582,0.325,0.030
2.584,0.265,0.030
2.586,0.185,0.035
2.588,0.135,0.040
2.590,0.070,0.050
2.592,0.085,0.055
2.594,0.140,0.055
2.596,0.175,0.045
2.598,0.165,0.020
2.600,0.255,-0.015
2.602,0.215,-0.055
2.604,0.055,-0.100
2.606,-0.020,-0.140
2.608,-0.100,-0.170
2.610,-0.260,-0.185
2.612,-0.250,-0.185
2.614,-0.090,-0.165
2.616,0.050,-0.135
2.618,0.150,-0.100
2.620,0.295,-0.060
2.622,0.305,-0.030
2.624,0.190,-0.005
2.626,0.110,0.005
2.628,0.020,0.005
2.630,-0.020,-0.005
2.632,-0.020,-0.020
2.634,-0.005,-0.035
2.636,0.100,-0.045
2.638,0.170,-0.055
2.640,0.245,-0.055
2.642,0.245,-0.050
2.644,0.180,-0.045
2.646,0.085,-0.035
2.648,-0.080,-0.025
2.650,-0.075,-0.015
2.652,0.000,-0.010
2.654,0.080,-0.010
2.656,0.165,-0.010
2.658,0.255,-0.015
2.660,0.300,-0.015
2.662,0.290,-0.020
2.664,0.145,-0.025
2.666,0.040,-0.020
2.668,-0.070,-0.020
2.670,-0.045,-0.015
2.672,0.025,-0.005
2.674,0.115,0.000
2.676,0.185,0.005
2.678,0.300,0.010
2.680,0.290,0.010
2.682,0.270,0.010
2.684,0.180,0.010
2.686,0.110,0.005
2.688,-0.045,0.005
2.690,-0.030,0.010
2.692,-0.020,0.010
2.694,0.125,0.015
2.696,0.210,0.020
2.698,0.315,0.025
2.700,0.320,0.025
2.702,0.280,0.025
2.704,0.160,0.025
2.706,0.095,0.025
2.708,-0.025,0.015
2.710,-0.045,0.010
2.712,-0.020,0.000
2.714,0.060,-0.005
2.716,0.125,-0.015
2.718,0.280,-0.020
2.720,0.285,-0.020
2.722,0.260,-0.020
2.724,0.190,-0.010
2.726,0.115,0.000
2.728,-0.050,0.015
2.730,-0.005,0.030
2.732,0.100,0.045
2.734,0.190,0.055
2.736,0.185,0.060
2.738,0.315,0.060
2.740,0.340,0.055
2.742,0.300,0.045
2.744,0.190,0.040
2.746,0.125,0.030
2.748,-0.025,0.030
2.750,0.000,0.035
2.752,0.045,0.040
2.754,0.160,0.055
2.756,0.225,0.070
2.758,0.390,0.080
2.760,0.385,0.090
2.762,0.335,0.090
2.764,0.210,0.085
2.766,0.135,0.080
2.768,0.010,0.070
2.770,0.065,0.065
2.772,0.065,0.060
2.774,0.140,0.065
2.776,0.195,0.080
2.778,0.425,0.095
2.780,0.460,0.120
2.782,0.370,0.140
2.784,0.275,0.160
2.786,0.255,0.170
2.788,0.135,0.175
2.790,0.170,0.175
2.792,0.165,0.170
2.794,0.245,0.160
2.796,0.310,0.155
2.798,0.450,0.145
2.800,0.425,0.145
2.802,0.345,0.145
2.804,0.260,0.155
2.806,0.225,0.165
2.808,0.160,0.175
2.810,0.130,0.185
2.812,0.240,0.190
2.814,0.315,0.195
2.816,0.350,0.190
2.818,0.440,0.185
2.820,0.455,0.180
2.822,0.450,0.175
2.824,0.300,0.170
2.826,0.220,0.170
2.828,0.155,0.175
2.830,0.155,0.180
2.832,0.230,0.185
2.834,0.305,0.185
2.836,0.360,0.185
2.838,0.435,0.175
2.840,0.455,0.160
2.842,0.355,0.145
2.844,0.240,0.125
2.846,0.205,0.105
2.848,0.085,0.095
2.850,-0.005,0.090
2.852,0.075,0.090
2.854,0.210,0.095
2.856,0.305,0.105
2.858,0.425,0.115
2.860,0.420,0.125
2.862,0.355,0.125
2.864,0.265,0.120
2.866,0.140,0.105
2.868,0.005,0.090
2.870,0.005,0.065
2.872,0.100,0.045
2.874,0.155,0.030
2.876,0.205,0.015
2.878,0.305,0.005
2.880,0.310,0.005
2.882,0.220,0.005
2.884,0.105,0.005
2.886,0.055,0.005
2.888,-0.080,0.005
2.890,-0.095,0.005
2.892,0.045,0.000
2.894,0.150,0.000
2.896,0.175,-0.005
2.898,0.280,-0.005
2.900,0.290,-0.005
2.902,0.210,0.000
2.904,0.125,0.010
2.906,0.065,0.015
2.908,-0.020,0.020
2.910,-0.035,0.025
2.912,0.040,0.025
2.914,0.130,0.025
2.916,0.245,0.020
2.918,0.315,0.010
2.920,0.285,0.000
2.922,0.170,-0.005
2.924,0.090,-0.010
2.926,0.010,-0.015
2.928,-0.055,-0.015
2.930,-0.070,-0.015
2.932,0.030,-0.015
2.934,0.135,-0.015
2.936,0.230,-0.015
2.938,0.290,-0.020
2.940,0.230,-0.025
2.942,0.125,-0.030
2.944,0.045,-0.035
2.946,-0.060,-0.035
2.948,-0.070,-0.035
2.950,-0.030,-0.030
2.952,0.070,-0.025
2.954,0.175,-0.020
2.956,0.235,-0.010
2.958,0.275,-0.005
2.960,0.250,0.000
2.962,0.160,-0.005
2.964,0.080,-0.005
2.966,-0.040,-0.015
2.968,-0.045,-0.020
2.970,-0.055,-0.025
2.972,0.040,-0.030
2.974,0.085,-0.035
2.976,0.200,-0.035
2.978,0.260,-0.035
2.980,0.270,-0.030
2.982,0.185,-0.025
2.984,0.105,-0.025
2.986,-0.095,-0.020
2.988,-0.100,-0.020
2.990,-0.075,-0.025
2.992,0.080,-0.025
2.994,0.125,-0.030
2.996,0.230,-0.035
2.998,0.235,-0.040
3.000,0.220,-0.040
3.002,0.130,-0.035
3.004,0.075,-0.030
3.006,-0.085,-0.025
3.008,-0.075,-0.015
3.010,-0.030,-0.005
3.012,0.060,0.005
3.014,0.120,0.015
3.016,0.305,0.020
3.018,0.330,0.025
3.020,0.285,0.025
3.022,0.150,0.030
3.024,0.090,0.030
3.026,-0.030,0.030
3.028,-0.040,0.030
3.030,0.000,0.030
3.032,0.090,0.030
3.034,0.145,0.025
3.036,0.330,0.025
3.038,0.305,0.015
3.040,0.280,0.010
3.042,0.135,0.000
3.044,0.060,-0.015
3.046,-0.125,-0.025
3.048,-0.100,-0.035
3.050,-0.035,-0.040
3.052,0.045,-0.040
3.054,0.140,-0.035
3.056,0.270,-0.025
3.058,0.275,-0.010
3.060,0.235,0.005
3.062,0.105,0.015
3.064,0.090,0.025
3.066,-0.010,0.025
3.068,-0.070,0.020
3.070,-0.035,0.005
3.072,0.060,-0.015
3.074,0.120,-0.040
3.076,0.245,-0.060
3.078,0.225,-0.075
3.080,0.105,-0.080
3.082,0.030,-0.070
3.084,0.015,-0.055
3.086,-0.125,-0.030
3.088,-0.065,-0.005
3.090,0.065,0.020
3.092,0.145,0.035
3.094,0.190,0.045
3.096,0.320,0.040
3.098,0.280,0.025
3.100,0.175,0.005
3.102,0.080,-0.015
3.104,0.015,-0.030
3.106,-0.100,-0.040
3.108,-0.100,-0.045
3.110,-0.025,-0.035
3.112,0.125,-0.025
3.114,0.175,-0.010
3.116,0.260,0.005
3.118,0.300,0.010
3.120,0.185,0.015
3.122,0.130,0.005
3.124,0.065,-0.005
3.126,-0.090,-0.015
3.128,-0.120,-0.030
3.130,-0.055,-0.040
3.132,0.045,-0.050
3.134,0.125,-0.050
3.136,0.250,-0.045
3.138,0.240,-0.035
3.140,0.155,-0.025
3.142,0.045,-0.015
3.144,0.005,-0.005
3.146,-0.085,0.000
3.148,-0.125,0.000
3.150,0.015,-0.005
3.152,0.125,-0.015
3.154,0.170,-0.020
3.156,0.245,-0.030
3.158,0.230,-0.035
3.160,0.100,-0.040
3.162,0.040,-0.040
3.164,-0.020,-0.040
3.166,-0.060,-0.035
3.168,-0.090,-0.030
3.170,-0.035,-0.030
3.172,0.055,-0.025
3.174,0.160,-0.025
3.176,0.295,-0.025
3.178,0.245,-0.030
3.180,0.120,-0.030
3.182,0.045,-0.030
3.184,-0.035,-0.035
3.186,-0.115,-0.030
3.188,-0.095,-0.030
3.190,0.010,-0.025
3.192,0.110,-0.020
3.194,0.200,-0.015
3.196,0.230,-0.010
3.198,0.195,-0.005
3.200,0.135,-0.005
3.202,0.095,0.000
3.204,0.030,0.000
3.206,-0.045,0.000
3.208,-0.025,0.000
3.210,0.040,0.000
3.212,0.060,-0.005
3.214,0.175,-0.005
3.216,0.260,-0.010
3.218,0.270,-0.015
3.220,0.145,-0.025
3.222,0.005,-0.030
3.224,-0.080,-0.040
3.226,-0.105,-0.050
3.228,-0.080,-0.055
3.230,0.000,-0.055
3.232,0.045,-0.055
3.234,0.140,-0.050
3.236,0.225,-0.045
3.238,0.240,-0.035
3.240,0.125,-0.030
3.242,0.035,-0.020
3.244,-0.105,-0.015
3.246,-0.080,-0.010
3.248,-0.075,-0.010
3.250,0.020,-0.015
3.252,0.100,-0.020
3.254,0.185,-0.025
3.256,0.180,-0.035
3.258,0.170,-0.040
3.260,0.065,-0.040
3.262,0.055,-0.040
3.264,-0.090,-0.035
3.266,-0.075,-0.030
3.268,-0.085,-0.025
3.270,0.000,-0.020
3.272,0.080,-0.015
3.274,0.220,-0.010
3.276,0.245,-0.010
3.278,0.170,-0.010
3.280,0.075,-0.010
3.282,0.055,-0.010
3.284,-0.080,-0.010
3.286,-0.080,-0.005
3.288,-0.025,-0.005
3.290,0.085,0.000
3.292,0.150,0.000
3.294,0.235,-0.005
3.296,0.180,-0.005
3.298,0.165,-0.010
3.300,0.105,-0.015
3.302,0.065,-0.015
3.304,-0.095,-0.015
3.306,-0.075,-0.010
3.308,-0.020,-0.005
3.310,0.050,0.005
3.312,0.085,0.015
3.314,0.245,0.020
3.316,0.225,0.025
3.318,0.225,0.020
3.320,0.135,0.015
3.322,0.065,0.010
3.324,-0.090,0.005
3.326,-0.055,0.000
3.328,-0.070,-0.005
3.330,0.055,0.000
3.332,0.090,0.000
3.334,0.230,0.005
3.336,0.265,0.005
3.338,0.175,0.005
3.340,0.070,0.000
3.342,0.030,-0.005
3.344,-0.095,-0.015
3.346,-0.090,-0.015
3.348,-0.040,-0.015
3.350,0.050,-0.005
3.352,0.105,0.005
3.354,0.260,0.020
3.356,0.245,0.040
3.358,0.240,0.050
3.360,0.170,0.060
3.362,0.125,0.065
3.364,-0.035,0.060
3.366,-0.050,0.055
3.368,0.005,0.045
3.370,0.095,0.040
3.372,0.115,0.030
3.374,0.255,0.020
3.376,0.245,0.015
3.378,0.160,0.010
3.380,0.085,0.005
3.382,0.020,0.005
3.384,-0.095,0.005
3.386,-0.065,0.005
3.388,-0.025,0.010
3.390,0.055,0.020
3.392,0.125,0.025
3.394,0.270,0.030
3.396,0.235,0.035
3.398,0.175,0.030
3.400,0.070,0.025
3.402,-0.015,0.010
3.404,-0.135,-0.005
3.406,-0.115,-0.025
3.408,-0.075,-0.040
3.410,-0.030,-0.055
3.412,0.030,-0.065
3.414,0.175,-0.070
3.416,0.175,-0.070
3.418,0.100,-0.065
3.420,-0.035,-0.060
3.422,-0.085,-0.050
3.424,-0.160,-0.045
3.426,-0.145,-0.035
3.428,-0.060,-0.025
3.430,0.035,-0.020
3.432,0.155,-0.010
3.434,0.270,-0.005
3.436,0.220,-0.005
3.438,0.120,-0.005
3.440,0.015,-0.010
3.442,-0.080,-0.025
3.444,-0.220,-0.035
3.446,-0.185,-0.050
3.448,-0.060,-0.060
3.450,0.025,-0.065
3.452,0.095,-0.060
3.454,0.190,-0.055
3.456,0.180,-0.040
3.458,0.110,-0.020
3.460,0.025,0.000
3.462,-0.025,0.015
3.464,-0.065,0.030
3.466,-0.025,0.045
3.468,0.070,0.055
3.470,0.135,0.065
3.472,0.230,0.075
3.474,0.270,0.090
3.476,0.270,0.100
3.478,0.240,0.115
3.480,0.230,0.120
3.482,0.100,0.120
3.484,-0.020,0.115
3.486,-0.005,0.105
3.488,0.070,0.080
3.490,0.065,0.055
3.492,0.145,0.025
3.494,0.205,-0.010
3.496,0.145,-0.040
3.498,0.025,-0.065
3.500,-0.070,-0.090
3.502,-0.200,-0.105
3.504,-0.295,-0.120
3.506,-0.295,-0.135
3.508,-0.160,-0.140
3.510,-0.090,-0.140
3.512,0.015,-0.135
3.514,0.070,-0.120
3.516,0.130,-0.100
3.518,0.045,-0.075
3.520,-0.030,-0.050
3.522,-0.120,-0.025
3.524,-0.100,0.000
3.526,-0.070,0.015
3.528,-0.025,0.020
3.530,0.050,0.015
3.532,0.155,0.000
3.534,0.155,-0.020
3.536,0.150,-0.040
3.538,0.055,-0.055
3.540,-0.025,-0.060
3.542,-0.210,-0.060
3.544,-0.190,-0.050
3.546,-0.165,-0.035
3.548,0.000,-0.015
3.550,0.090,0.005
3.552,0.205,0.015
3.554,0.210,0.025
3.556,0.180,0.025
3.558,0.080,0.020
3.560,0.010,0.010
3.562,-0.155,0.005
3.564,-0.115,0.000
3.566,-0.095,0.000
3.568,0.010,0.005
3.570,0.040,0.010
3.572,0.185,0.010
3.574,0.190,0.015
3.576,0.150,0.010
3.578,0.055,0.005
3.580,-0.035,-0.005
3.582,-0.185,-0.010
3.584,-0.155,-0.015
3.586,-0.070,-0.020
3.588,0.025,-0.020
3.590,0.065,-0.015
3.592,0.150,-0.005
3.594,0.190,0.005
3.596,0.160,0.015
3.598,0.075,0.020
3.600,0.040,0.020
3.602,-0.105,0.020
3.604,-0.160,0.020
3.606,-0.105,0.015
3.608,0.005,0.010
3.610,0.055,0.005
3.612,0.160,0.000
3.614,0.180,-0.005
3.616,0.090,-0.010
3.618,0.050,-0.015
3.620,-0.005,-0.015
3.622,-0.180,-0.010
3.624,-0.185,-0.005
3.626,-0.070,0.000
3.628,0.030,0.010
3.630,0.055,0.020
3.632,0.225,0.035
3.634,0.205,0.040
3.636,0.155,0.045
3.638,0.050,0.050
3.640,0.030,0.050
3.642,-0.095,0.050
3.644,-0.095,0.045
3.646,-0.075,0.045
3.648,0.030,0.040
3.650,0.080,0.040
3.652,0.190,0.035
3.654,0.185,0.035
3.656,0.150,0.030
3.658,0.085,0.030
3.660,0.040,0.030
3.662,-0.125,0.030
3.664,-0.135,0.040
3.666,-0.045,0.055
3.668,0.035,0.070
3.670,0.125,0.090
3.672,0.310,0.105
3.674,0.360,0.115
3.676,0.270,0.120
3.678,0.105,0.115
3.680,0.020,0.105
3.682,-0.135,0.090
3.684,-0.130,0.075
3.686,-0.040,0.060
3.688,0.075,0.055
3.690,0.130,0.055
3.692,0.285,0.065
3.694,0.270,0.080
3.696,0.215,0.100
3.698,0.120,0.115
3.700,0.030,0.130
3.702,-0.040,0.140
3.704,-0.035,0.140
3.706,0.055,0.140
3.708,0.125,0.140
3.710,0.155,0.135
3.712,0.290,0.135
3.714,0.310,0.140
3.716,0.245,0.145
3.718,0.165,0.150
3.720,0.080,0.155
3.722,-0.015,0.160
3.724,-0.015,0.160
3.726,0.060,0.160
3.728,0.135,0.155
3.730,0.160,0.145
3.732,0.310,0.135
3.734,0.255,0.130
3.736,0.170,0.120
3.738,0.095,0.110
3.740,0.010,0.105
3.742,-0.120,0.095
3.744,-0.105,0.095
3.746,0.015,0.090
3.748,0.150,0.090
3.750,0.165,0.095
3.752,0.245,0.095
3.754,0.205,0.100
3.756,0.160,0.100
3.758,0.055,0.100
3.760,-0.060,0.095
3.762,-0.125,0.090
3.764,-0.135,0.075
3.766,-0.070,0.060
3.768,0.020,0.045
3.770,0.090,0.025
3.772,0.195,0.010
3.774,0.110,-0.005
3.776,0.000,-0.020
3.778,-0.115,-0.025
3.780,-0.170,-0.035
3.782,-0.230,-0.035
3.784,-0.200,-0.040
3.786,-0.100,-0.045
3.788,-0.100,-0.045
3.790,-0.010,-0.045
3.792,0.110,-0.050
3.794,0.105,-0.045
3.796,-0.025,-0.045
3.798,-0.060,-0.045
3.800,-0.195,-0.040
3.802,-0.295,-0.040
3.804,-0.240,-0.040
3.806,-0.115,-0.040
3.808,-0.055,-0.040
3.810,0.060,-0.045
3.812,0.090,-0.050
3.814,0.055,-0.055
3.816,-0.060,-0.060
3.818,-0.140,-0.065
3.820,-0.285,-0.070
3.822,-0.275,-0.075
3.824,-0.225,-0.085
3.826,-0.170,-0.090
3.828,-0.165,-0.095
3.830,0.020,-0.095
3.832,0.075,-0.090
3.834,0.005,-0.080
3.836,-0.060,-0.065
3.838,-0.115,-0.045
3.840,-0.225,-0.030
3.842,-0.195,-0.015
3.844,-0.200,-0.010
3.846,-0.135,-0.010
3.848,-0.025,-0.020
3.850,0.085,-0.035
3.852,0.075,-0.055
3.854,-0.015,-0.075
3.856,-0.130,-0.095
3.858,-0.180,-0.105
3.860,-0.330,-0.115
3.862,-0.335,-0.115
3.864,-0.270,-0.105
3.866,-0.175,-0.100
3.868,-0.090,-0.090
3.870,0.040,-0.080
3.872,0.035,-0.080
3.874,-0.010,-0.080
3.876,-0.110,-0.080
3.878,-0.185,-0.085
3.880,-0.335,-0.090
3.882,-0.295,-0.090
3.884,-0.280,-0.090
3.886,-0.170,-0.080
3.888,-0.095,-0.075
3.890,0.040,-0.065
3.892,0.060,-0.055
3.894,0.010,-0.050
3.896,-0.105,-0.045
3.898,-0.145,-0.050
3.900,-0.285,-0.055
3.902,-0.330,-0.065
3.904,-0.270,-0.080
3.906,-0.190,-0.090
3.908,-0.110,-0.100
3.910,0.000,-0.105
3.912,-0.030,-0.100
3.914,-0.015,-0.090
3.916,-0.070,-0.080
3.918,-0.145,-0.060
3.920,-0.315,-0.045
3.922,-0.260,-0.025
3.924,-0.190,-0.015
3.926,-0.030,-0.005
3.928,-0.015,0.000
3.930,0.075,0.000
3.932,0.090,-0.005
3.934,0.020,-0.015
3.936,-0.135,-0.025
3.938,-0.160,-0.040
3.940,-0.300,-0.050
3.942,-0.290,-0.060
3.944,-0.215,-0.065
3.946,-0.135,-0.070
3.948,-0.100,-0.070
3.950,0.010,-0.070
3.952,-0.020,-0.070
3.954,-0.025,-0.070
3.956,-0.135,-0.070
3.958,-0.225,-0.070
3.960,-0.325,-0.070
3.962,-0.290,-0.070
3.964,-0.215,-0.070
3.966,-0.135,-0.070
3.968,-0.110,-0.065
3.970,0.035,-0.055
3.972,0.010,-0.045
3.974,-0.065,-0.035
3.976,-0.120,-0.025
3.978,-0.170,-0.020
3.980,-0.245,-0.020
3.982,-0.245,-0.020
3.984,-0.130,-0.030
3.986,-0.120,-0.035
3.988,-0.120,-0.050
3.990,-0.020,-0.060
3.992,-0.040,-0.075
3.994,-0.115,-0.080
3.996,-0.175,-0.090
3.998,-0.225,-0.090
4.000,-0.305,-0.085
4.002,-0.275,-0.080
4.004,-0.215,-0.070
4.006,-0.125,-0.055
4.008,-0.050,-0.040
4.010,0.040,-0.025
4.012,0.040,-0.015
4.014,0.050,-0.010
4.016,-0.100,-0.010
4.018,-0.205,-0.020
4.020,-0.340,-0.030
4.022,-0.330,-0.040
4.024,-0.235,-0.055
4.026,-0.160,-0.060
4.028,-0.035,-0.065
4.030,0.070,-0.065
4.032,0.035,-0.055
4.034,-0.040,-0.040
4.036,-0.150,-0.025
4.038,-0.220,-0.015
4.040,-0.290,-0.005
4.042,-0.255,0.000
4.044,-0.190,0.000
4.046,-0.110,-0.010
4.048,-0.020,-0.020
4.050,0.035,-0.030
4.052,0.005,-0.040
4.054,-0.125,-0.050
4.056,-0.185,-0.050
4.058,-0.205,-0.050
4.060,-0.235,-0.050
4.062,-0.290,-0.045
4.064,-0.225,-0.040
4.066,-0.135,-0.040
4.068,-0.065,-0.040
4.070,0.000,-0.040
4.072,0.015,-0.045
4.074,-0.075,-0.055
4.076,-0.195,-0.060
4.078,-0.310,-0.060
4.080,-0.340,-0.060
4.082,-0.295,-0.055
4.084,-0.190,-0.045
4.086,-0.145,-0.035
4.088,-0.030,-0.025
4.090,0.095,-0.020
4.092,0.070,-0.015
4.094,-0.065,-0.015
4.096,-0.185,-0.020
4.098,-0.290,-0.030
4.100,-0.355,-0.035
4.102,-0.320,-0.045
4.104,-0.220,-0.050
4.106,-0.140,-0.050
4.108,-0.010,-0.045
4.110,0.085,-0.035
4.112,0.045,-0.030
4.114,-0.105,-0.020
4.116,-0.190,-0.015
4.118,-0.325,-0.015
4.120,-0.345,-0.020
4.122,-0.295,-0.025
4.124,-0.155,-0.030
4.126,-0.100,-0.040
4.128,0.030,-0.040
4.130,0.015,-0.040
4.132,-0.005,-0.040
4.134,-0.095,-0.035
4.136,-0.195,-0.030
4.138,-0.340,-0.030
4.140,-0.345,-0.030
4.142,-0.320,-0.030
4.144,-0.205,-0.035
4.146,-0.100,-0.045
4.148,0.020,-0.055
4.150,-0.015,-0.060
4.152,-0.080,-0.060
4.154,-0.165,-0.055
4.156,-0.215,-0.045
4.158,-0.340,-0.035
4.160,-0.290,-0.020
4.162,-0.270,-0.005
4.164,-0.170,0.005
4.166,-0.110,0.010
4.168,0.080,0.010
4.170,0.075,0.005
4.172,-0.020,0.000
4.174,-0.155,-0.010
4.176,-0.220,-0.020
4.178,-0.355,-0.030
4.180,-0.330,-0.035
4.182,-0.300,-0.035
4.184,-0.165,-0.035
4.186,-0.130,-0.030
4.188,0.020,-0.025
4.190,0.020,-0.020
4.192,-0.030,-0.015
4.194,-0.120,-0.010
4.196,-0.150,-0.005
4.198,-0.305,-0.005
4.200,-0.315,0.000
4.202,-0.265,0.000
4.204,-0.115,0.005
4.206,-0.090,0.010
4.208,0.045,0.015
4.210,0.040,0.015
4.212,-0.005,0.020
4.214,-0.125,0.025
4.216,-0.145,0.030
4.218,-0.290,0.030
4.220,-0.295,0.030
4.222,-0.210,0.030
4.224,-0.080,0.035
4.226,-0.035,0.035
4.228,0.080,0.035
4.230,0.050,0.035
4.232,-0.030,0.040
4.234,-0.165,0.040
4.236,-0.190,0.040
4.238,-0.300,0.035
4.240,-0.275,0.035
4.242,-0.220,0.030
4.244,-0.105,0.025
4.246,-0.050,0.020
4.248,0.050,0.010
4.250,0.010,0.005
4.252,-0.105,-0.005
4.254,-0.215,-0.015
4.256,-0.225,-0.025
4.258,-0.355,-0.030
4.260,-0.310,-0.040
4.262,-0.230,-0.040
4.264,-0.185,-0.040
4.266,-0.160,-0.035
4.268,-0.070,-0.030
4.270,-0.010,-0.025
4.272,-0.055,-0.015
4.274,-0.145,-0.010
4.276,-0.155,0.000
4.278,-0.295,0.000
4.280,-0.345,0.005
4.282,-0.280,0.005
4.284,-0.155,0.005
4.286,-0.080,0.005
4.288,0.020,0.000
4.290,0.020,-0.005
4.292,-0.095,-0.015
4.294,-0.210,-0.025
4.296,-0.340,-0.040
4.298,-0.440,-0.055
4.300,-0.395,-0.065
4.302,-0.285,-0.070
4.304,-0.160,-0.070
4.306,-0.095,-0.065
4.308,-0.030,-0.050
4.310,-0.040,-0.035
4.312,-0.145,-0.020
4.314,-0.180,-0.005
4.316,-0.225,0.005
4.318,-0.330,0.015
4.320,-0.350,0.015
4.322,-0.245,0.015
4.324,-0.115,0.015
4.326,-0.025,0.020
4.328,0.075,0.025
4.330,0.070,0.035
4.332,-0.075,0.050
4.334,-0.135,0.070
4.336,-0.135,0.080
4.338,-0.275,0.090
4.340,-0.280,0.090
4.342,-0.160,0.085
4.344,-0.095,0.075
4.346,-0.025,0.065
4.348,0.075,0.050
4.350,0.090,0.040
4.352,-0.050,0.025
4.354,-0.175,0.015
4.356,-0.295,0.005
4.358,-0.350,-0.010
4.360,-0.385,-0.025
4.362,-0.335,-0.050
4.364,-0.250,-0.070
4.366,-0.140,-0.095
4.368,-0.115,-0.110
4.370,-0.170,-0.120
4.372,-0.225,-0.115
4.374,-0.260,-0.105
4.376,-0.350,-0.085
4.378,-0.365,-0.060
4.380,-0.350,-0.035
4.382,-0.195,-0.015
4.384,-0.150,-0.005
4.386,-0.110,-0.005
4.388,-0.070,-0.010
4.390,-0.075,-0.020
4.392,-0.165,-0.030
4.394,-0.245,-0.035
4.396,-0.335,-0.035
4.398,-0.335,-0.030
4.400,-0.295,-0.020
4.402,-0.190,-0.010
4.404,-0.160,0.000
4.406,-0.055,0.005
4.408,-0.010,0.005
4.410,-0.065,0.000
4.412,-0.185,-0.005
4.414,-0.235,-0.010
4.416,-0.335,-0.010
4.418,-0.360,-0.010
4.420,-0.340,-0.005
4.422,-0.210,0.005
4.424,-0.150,0.015
4.426,-0.005,0.025
4.428,0.055,0.030
4.430,-0.005,0.035
4.432,-0.115,0.030
4.434,-0.205,0.025
4.436,-0.350,0.020
4.438,-0.345,0.015
4.440,-0.285,0.010
4.442,-0.180,0.005
4.444,-0.135,0.005
4.446,-0.025,0.005
4.448,-0.010,0.005
4.450,-0.045,0.010
4.452,-0.120,0.010
4.454,-0.200,0.015
4.456,-0.355,0.015
4.458,-0.300,0.020
4.460,-0.315,0.025
4.462,-0.210,0.025
4.464,-0.125,0.025
4.466,0.005,0.025
4.468,-0.010,0.025
4.470,-0.035,0.025
4.472,-0.120,0.020
4.474,-0.190,0.020
4.476,-0.350,0.025
4.478,-0.330,0.025
4.480,-0.255,0.035
4.482,-0.170,0.040
4.484,-0.140,0.050
4.486,0.070,0.055
4.488,0.045,0.060
4.490,-0.050,0.060
4.492,-0.130,0.060
4.494,-0.180,0.055
4.496,-0.300,0.050
4.498,-0.280,0.050
4.500,-0.245,0.050
4.502,-0.165,0.050
4.504,-0.130,0.050
4.506,0.005,0.055
4.508,0.010,0.055
4.510,0.005,0.060
4.512,-0.070,0.060
4.514,-0.170,0.060
4.516,-0.335,0.060
4.518,-0.325,0.065
4.520,-0.255,0.070
4.522,-0.095,0.080
4.524,-0.045,0.095
4.526,0.120,0.105
4.528,0.100,0.115
4.530,-0.005,0.125
4.532,-0.115,0.130
4.534,-0.170,0.130
4.536,-0.235,0.130
4.538,-0.205,0.130
4.540,-0.150,0.130
4.542,-0.050,0.135
4.544,-0.015,0.140
4.546,0.130,0.150
4.548,0.155,0.155
4.550,0.065,0.165
4.552,-0.035,0.170
4.554,-0.065,0.175
4.556,-0.220,0.175
4.558,-0.225,0.170
4.560,-0.190,0.170
4.562,-0.045,0.165
4.564,0.045,0.165
4.566,0.175,0.170
4.568,0.175,0.180
4.570,0.055,0.190
4.572,-0.040,0.200
4.574,-0.085,0.205
4.576,-0.145,0.215
4.578,-0.120,0.215
4.580,-0.030,0.210
4.582,0.015,0.205
4.584,0.045,0.195
4.586,0.120,0.185
4.588,0.095,0.175
4.590,0.005,0.170
4.592,-0.090,0.165
4.594,-0.115,0.165
4.596,-0.140,0.170
4.598,-0.170,0.175
4.600,-0.115,0.180
4.602,0.005,0.180
4.604,0.085,0.180
4.606,0.100,0.175
4.608,0.110,0.165
4.610,-0.005,0.150
4.612,-0.075,0.135
4.614,-0.175,0.125
4.616,-0.270,0.110
4.618,-0.260,0.095
4.620,-0.180,0.085
4.622,-0.140,0.075
4.624,-0.020,0.070
4.626,0.055,0.060
4.628,0.005,0.055
4.630,-0.140,0.045
4.632,-0.190,0.040
4.634,-0.290,0.035
4.636,-0.330,0.025
4.638,-0.350,0.020
4.640,-0.310,0.015
4.642,-0.200,0.010
4.644,-0.100,0.010
4.646,0.015,0.010
4.648,-0.030,0.010
4.650,-0.150,0.015
4.652,-0.200,0.020
4.654,-0.310,0.025
4.656,-0.405,0.025
4.658,-0.370,0.030
4.660,-0.245,0.030
4.662,-0.135,0.025
4.664,-0.045,0.025
4.666,-0.025,0.015
4.668,-0.045,0.010
4.670,-0.175,0.005
4.672,-0.245,-0.005
4.674,-0.365,-0.010
4.676,-0.395,-0.010
4.678,-0.360,-0.015
4.680,-0.255,-0.020
4.682,-0.175,-0.020
4.684,-0.115,-0.025
4.686,-0.105,-0.030
4.688,-0.170,-0.035
4.690,-0.235,-0.040
4.692,-0.280,-0.040
4.694,-0.390,-0.040
4.696,-0.385,-0.035
4.698,-0.325,-0.025
4.700,-0.270,-0.015
4.702,-0.180,-0.010
4.704,-0.040,-0.005
4.706,-0.055,-0.005
4.708,-0.150,-0.010
4.710,-0.215,-0.020
4.712,-0.290,-0.030
4.714,-0.425,-0.045
4.716,-0.415,-0.050
4.718,-0.370,-0.050
4.720,-0.270,-0.045
4.722,-0.220,-0.035
4.724,-0.080,-0.020
4.726,-0.045,-0.005
4.728,-0.060,0.005
4.730,-0.220,0.010
4.732,-0.235,0.005
4.734,-0.385,0.000
4.736,-0.400,-0.015
4.738,-0.380,-0.025
4.740,-0.340,-0.040
4.742,-0.235,-0.050
4.744,-0.100,-0.050
4.746,-0.095,-0.045
4.748,-0.100,-0.040
4.750,-0.215,-0.025
4.752,-0.275,-0.015
4.754,-0.395,0.000
4.756,-0.355,0.010
4.758,-0.305,0.015
4.760,-0.220,0.015
4.762,-0.150,0.015
4.764,-0.055,0.010
4.766,-0.075,0.000
4.768,-0.110,-0.005
4.770,-0.205,-0.010
4.772,-0.260,-0.015
4.774,-0.390,-0.015
4.776,-0.415,-0.015
4.778,-0.375,-0.015
4.780,-0.275,-0.010
4.782,-0.185,-0.010
4.784,-0.055,-0.015
4.786,-0.060,-0.015
4.788,-0.120,-0.025
4.790,-0.220,-0.030
4.792,-0.285,-0.035
4.794,-0.430,-0.035
4.796,-0.445,-0.035
4.798,-0.370,-0.035
4.800,-0.250,-0.030
4.802,-0.190,-0.020
4.804,-0.050,-0.015
4.806,-0.050,-0.015
4.808,-0.155,-0.015
4.810,-0.215,-0.015
4.812,-0.305,-0.020
4.814,-0.445,-0.030
4.816,-0.410,-0.035
4.818,-0.365,-0.040
4.820,-0.280,-0.040
4.822,-0.240,-0.040
4.824,-0.105,-0.040
4.826,-0.110,-0.035
4.828,-0.160,-0.030
4.830,-0.220,-0.030
4.832,-0.230,-0.025
4.834,-0.395,-0.020
4.836,-0.385,-0.015
4.838,-0.330,-0.010
4.840,-0.225,0.000
4.842,-0.175,0.005
4.844,-0.075,0.015
4.846,-0.035,0.015
4.848,-0.070,0.015
4.850,-0.195,0.005
4.852,-0.255,-0.005
4.854,-0.400,-0.020
4.856,-0.455,-0.035
4.858,-0.400,-0.050
4.860,-0.310,-0.060
4.862,-0.205,-0.060
4.864,-0.060,-0.060
4.866,-0.100,-0.055
4.868,-0.200,-0.045
4.870,-0.305,-0.035
4.872,-0.330,-0.025
4.874,-0.415,-0.020
4.876,-0.400,-0.015
4.878,-0.355,-0.010
4.880,-0.265,-0.010
4.882,-0.155,-0.015
4.884,-0.015,-0.015
4.886,-0.030,-0.020
4.888,-0.170,-0.025
4.890,-0.325,-0.035
4.892,-0.385,-0.040
4.894,-0.470,-0.050
4.896,-0.455,-0.060
4.898,-0.345,-0.070
4.900,-0.300,-0.080
4.902,-0.180,-0.080
4.904,-0.090,-0.080
4.906,-0.140,-0.075
4.908,-0.245,-0.070
4.910,-0.330,-0.060
4.912,-0.380,-0.050
4.914,-0.465,-0.045
4.916,-0.435,-0.040
4.918,-0.300,-0.035
4.920,-0.170,-0.035
4.922,-0.130,-0.030
4.924,-0.115,-0.030
4.926,-0.115,-0.025
4.928,-0.175,-0.020
4.930,-0.235,-0.015
4.932,-0.345,-0.010
4.934,-0.435,-0.010
4.936,-0.410,-0.010
4.938,-0.305,-0.015
4.940,-0.230,-0.020
4.942,-0.135,-0.030
4.944,-0.065,-0.035
4.946,-0.125,-0.045
4.948,-0.210,-0.050
4.950,-0.275,-0.055
4.952,-0.415,-0.055
4.954,-0.460,-0.055
4.956,-0.455,-0.055
4.958,-0.380,-0.055
4.960,-0.295,-0.055
4.962,-0.170,-0.055
4.964,-0.125,-0.055
4.966,-0.105,-0.055
4.968,-0.200,-0.055
4.970,-0.270,-0.055
4.972,-0.405,-0.050
4.974,-0.455,-0.050
4.976,-0.400,-0.050
4.978,-0.355,-0.050
4.980,-0.320,-0.055
4.982,-0.165,-0.060
4.984,-0.125,-0.065
4.986,-0.180,-0.070
4.988,-0.245,-0.075
4.990,-0.300,-0.075
4.992,-0.430,-0.070
4.994,-0.445,-0.065
4.996,-0.475,-0.055
4.998,-0.335,-0.045
5.000,-0.250,-0.035
5.002,-0.090,-0.030
5.004,-0.070,-0.025
5.006,-0.070,-0.025
5.008,-0.235,-0.030
5.010,-0.305,-0.035
5.012,-0.435,-0.040
5.014,-0.450,-0.045
5.016,-0.380,-0.050
5.018,-0.270,-0.055
5.020,-0.235,-0.060
5.022,-0.160,-0.065
5.024,-0.160,-0.070
5.026,-0.185,-0.080
5.028,-0.255,-0.085
5.030,-0.320,-0.090
5.032,-0.475,-0.090
5.034,-0.490,-0.085
5.036,-0.415,-0.075
5.038,-0.305,-0.065
5.040,-0.240,-0.055
5.042,-0.115,-0.045
5.044,-0.095,-0.035
5.046,-0.155,-0.035
5.048,-0.220,-0.040
5.050,-0.270,-0.045
5.052,-0.435,-0.050
5.054,-0.425,-0.060
5.056,-0.435,-0.065
5.058,-0.345,-0.065
5.060,-0.290,-0.070
5.062,-0.135,-0.070
5.064,-0.150,-0.070
5.066,-0.180,-0.070
5.068,-0.280,-0.065
5.070,-0.345,-0.065
5.072,-0.455,-0.065
5.074,-0.425,-0.060
5.076,-0.390,-0.055
5.078,-0.310,-0.050
5.080,-0.260,-0.045
5.082,-0.095,-0.045
5.084,-0.130,-0.050
5.086,-0.160,-0.060
5.088,-0.255,-0.065
5.090,-0.335,-0.075
5.092,-0.505,-0.080
5.094,-0.465,-0.085
5.096,-0.410,-0.080
5.098,-0.345,-0.070
5.100,-0.280,-0.060
5.102,-0.095,-0.050
5.104,-0.055,-0.040
5.106,-0.125,-0.035
5.108,-0.285,-0.035
5.110,-0.375,-0.040
5.112,-0.500,-0.040
5.114,-0.430,-0.040
5.116,-0.345,-0.035
5.118,-0.210,-0.025
5.120,-0.165,-0.010
5.122,-0.030,0.005
5.124,-0.040,0.015
5.126,-0.125,0.020
5.128,-0.215,0.015
5.130,-0.285,-0.005
5.132,-0.450,-0.025
5.134,-0.485,-0.055
5.136,-0.410,-0.075
5.138,-0.305,-0.090
5.140,-0.200,-0.095
5.142,-0.095,-0.080
5.144,-0.080,-0.060
5.146,-0.145,-0.030
5.148,-0.210,0.005
5.150,-0.270,0.035
5.152,-0.355,0.055
5.154,-0.365,0.065
5.156,-0.310,0.060
5.158,-0.235,0.045
5.160,-0.140,0.020
5.162,-0.040,-0.005
5.164,-0.075,-0.030
5.166,-0.160,-0.050
5.168,-0.310,-0.060
5.170,-0.395,-0.070
5.172,-0.475,-0.065
5.174,-0.465,-0.065
5.176,-0.390,-0.060
5.178,-0.285,-0.060
5.180,-0.205,-0.060
5.182,-0.110,-0.065
5.184,-0.145,-0.075
5.186,-0.210,-0.085
5.188,-0.365,-0.090
5.190,-0.445,-0.095
5.192,-0.510,-0.090
5.194,-0.460,-0.085
5.196,-0.365,-0.075
5.198,-0.280,-0.065
5.200,-0.175,-0.050
5.202,-0.020,-0.045
5.204,-0.070,-0.035
5.206,-0.255,-0.035
5.208,-0.310,-0.040
5.210,-0.440,-0.050
5.212,-0.450,-0.060
5.214,-0.420,-0.065
5.216,-0.325,-0.070
5.218,-0.205,-0.070
5.220,-0.175,-0.070
5.222,-0.100,-0.060
5.224,-0.155,-0.055
5.226,-0.260,-0.050
5.228,-0.340,-0.045
5.230,-0.415,-0.045
5.232,-0.440,-0.045
5.234,-0.385,-0.050
5.236,-0.305,-0.055
5.238,-0.260,-0.060
5.240,-0.200,-0.055
5.242,-0.105,-0.050
5.244,-0.135,-0.035
5.246,-0.200,-0.020
5.248,-0.210,-0.005
5.250,-0.315,0.010
5.252,-0.350,0.020
5.254,-0.365,0.020
5.256,-0.275,0.015
5.258,-0.175,0.005
5.260,-0.075,-0.010
5.262,-0.065,-0.020
5.264,-0.155,-0.025
5.266,-0.235,-0.025
5.268,-0.260,-0.020
5.270,-0.365,-0.010
5.272,-0.410,0.000
5.274,-0.340,0.010
5.276,-0.260,0.010
5.278,-0.210,0.000
5.280,-0.095,-0.020
5.282,-0.115,-0.045
5.284,-0.180,-0.070
5.286,-0.320,-0.100
5.288,-0.370,-0.130
5.290,-0.530,-0.150
5.292,-0.555,-0.160
5.294,-0.560,-0.165
5.296,-0.405,-0.160
5.298,-0.330,-0.145
5.300,-0.190,-0.130
5.302,-0.200,-0.110
5.304,-0.190,-0.085
5.306,-0.245,-0.065
5.308,-0.285,-0.045
5.310,-0.400,-0.030
5.312,-0.355,-0.020
5.314,-0.325,-0.010
5.316,-0.275,-0.010
5.318,-0.250,-0.010
5.320,-0.135,-0.015
5.322,-0.085,-0.020
5.324,-0.090,-0.025
5.326,-0.185,-0.035
5.328,-0.305,-0.040
5.330,-0.445,-0.040
5.332,-0.425,-0.040
5.334,-0.385,-0.035
5.336,-0.275,-0.035
5.338,-0.240,-0.025
5.340,-0.100,-0.020
5.342,-0.050,-0.015
5.344,-0.055,-0.005
5.346,-0.160,0.000
5.348,-0.225,0.010
5.350,-0.405,0.010
5.352,-0.390,0.015
5.354,-0.340,0.010
5.356,-0.260,0.005
5.358,-0.235,-0.005
5.360,-0.080,-0.015
5.362,-0.065,-0.025
5.364,-0.155,-0.035
5.366,-0.240,-0.040
5.368,-0.275,-0.040
5.370,-0.440,-0.035
5.372,-0.480,-0.025
5.374,-0.375,-0.015
5.376,-0.250,-0.005
5.378,-0.170,0.005
5.380,-0.025,0.010
5.382,-0.005,0.010
5.384,-0.100,0.005
5.386,-0.175,0.000
5.388,-0.270,-0.010
5.390,-0.445,-0.020
5.392,-0.440,-0.025
5.394,-0.400,-0.030
5.396,-0.265,-0.030
5.398,-0.215,-0.025
5.400,-0.065,-0.020
5.402,-0.020,-0.015
5.404,-0.095,-0.010
5.406,-0.190,0.000
5.408,-0.245,0.005
5.410,-0.395,0.010
5.412,-0.390,0.020
5.414,-0.340,0.030
5.416,-0.210,0.040
5.418,-0.085,0.050
5.420,0.100,0.055
5.422,0.040,0.060
5.424,-0.055,0.060
5.426,-0.170,0.060
5.428,-0.265,0.055
5.430,-0.370,0.055
5.432,-0.330,0.050
5.434,-0.280,0.050
5.436,-0.215,0.050
5.438,-0.160,0.050
5.440,0.025,0.055
5.442,0.025,0.060
5.444,-0.065,0.060
5.446,-0.150,0.065
5.448,-0.205,0.070
5.450,-0.310,0.070
5.452,-0.340,0.075
5.454,-0.260,0.080
5.456,-0.120,0.085
5.458,-0.070,0.090
5.460,0.045,0.090
5.462,0.030,0.095
5.464,-0.045,0.090
5.466,-0.150,0.090
5.468,-0.230,0.085
5.470,-0.285,0.085
5.472,-0.260,0.090
5.474,-0.190,0.095
5.476,-0.090,0.105
5.478,-0.015,0.120
5.480,0.100,0.135
5.482,0.105,0.150
5.484,0.000,0.165
5.486,-0.110,0.170
5.488,-0.160,0.175
5.490,-0.185,0.170
5.492,-0.200,0.165
5.494,-0.145,0.160
5.496,-0.045,0.155
5.498,0.060,0.150
5.500,0.100,0.155
5.502,0.090,0.160
5.504,0.025,0.165
5.506,-0.055,0.175
5.508,-0.165,0.180
5.510,-0.165,0.175
5.512,-0.215,0.170
5.514,-0.130,0.165
5.516,-0.025,0.155
5.518,0.030,0.150
5.520,0.060,0.145
5.522,0.070,0.145
5.524,-0.020,0.145
5.526,-0.095,0.150
5.528,-0.215,0.150
5.530,-0.190,0.150
5.532,-0.215,0.140
5.534,-0.120,0.130
5.536,-0.110,0.110
5.538,0.005,0.095
5.540,0.060,0.080
5.542,-0.060,0.070
5.544,-0.165,0.070
5.546,-0.150,0.070
5.548,-0.245,0.080
5.550,-0.335,0.085
5.552,-0.290,0.090
5.554,-0.115,0.090
5.556,-0.110,0.085
5.558,-0.030,0.070
5.560,-0.010,0.055
5.562,-0.080,0.040
5.564,-0.195,0.025
5.566,-0.255,0.015
5.568,-0.380,0.010
5.570,-0.335,0.015
5.572,-0.290,0.015
5.574,-0.205,0.020
5.576,-0.175,0.020
5.578,-0.060,0.015
5.580,-0.090,0.010
5.582,-0.105,0.005
5.584,-0.190,0.000
5.586,-0.255,-0.005
5.588,-0.400,-0.005
5.590,-0.345,0.000
5.592,-0.330,0.015
5.594,-0.205,0.025
5.596,-0.185,0.035
5.598,-0.020,0.045
5.600,0.030,0.045
5.602,-0.040,0.040
5.604,-0.160,0.030
5.606,-0.250,0.010
5.608,-0.405,-0.005
5.610,-0.450,-0.025
5.612,-0.420,-0.035
5.614,-0.320,-0.045
5.616,-0.220,-0.045
5.618,-0.070,-0.040
5.620,-0.070,-0.030
5.622,-0.090,-0.020
5.624,-0.205,-0.015
5.626,-0.235,-0.005
5.628,-0.410,-0.005
5.630,-0.460,-0.005
5.632,-0.375,-0.010
5.634,-0.250,-0.015
5.636,-0.175,-0.025
5.638,-0.015,-0.035
5.640,-0.100,-0.040
5.642,-0.200,-0.045
5.644,-0.230,-0.045
5.646,-0.300,-0.040
5.648,-0.415,-0.035
5.650,-0.420,-0.025
5.652,-0.330,-0.020
5.654,-0.210,-0.010
5.656,-0.190,0.000
5.658,-0.055,0.005
5.660,-0.015,0.010
5.662,-0.085,0.005
5.664,-0.180,0.005
5.666,-0.230,0.000
5.668,-0.400,-0.005
5.670,-0.400,-0.010
5.672,-0.345,-0.010
5.674,-0.255,-0.010
5.676,-0.235,-0.010
5.678,-0.060,-0.005
5.680,-0.045,-0.005
5.682,-0.105,-0.005
5.684,-0.230,-0.005
5.686,-0.245,-0.005
5.688,-0.405,-0.005
5.690,-0.405,-0.005
5.692,-0.325,0.000
5.694,-0.215,0.005
5.696,-0.165,0.015
5.698,0.000,0.025
5.700,-0.015,0.035
5.702,-0.090,0.040
5.704,-0.215,0.040
5.706,-0.250,0.030
5.708,-0.385,0.020
5.710,-0.365,0.005
5.712,-0.300,-0.010
5.714,-0.255,-0.020
5.716,-0.195,-0.025
5.718,-0.075,-0.020
5.720,-0.055,-0.010
5.722,-0.130,0.005
5.724,-0.210,0.020
5.726,-0.220,0.030
5.728,-0.325,0.040
5.730,-0.350,0.035
5.732,-0.265,0.030
5.734,-0.165,0.020
5.736,-0.155,0.005
5.738,-0.065,-0.005
5.740,-0.090,-0.010
5.742,-0.175,-0.015
5.744,-0.220,-0.010
5.746,-0.265,0.000
5.748,-0.380,0.005
5.750,-0.380,0.010
5.752,-0.245,0.015
5.754,-0.195,0.010
5.756,-0.175,0.000
5.758,-0.090,-0.005
5.760,-0.070,-0.015
5.762,-0.110,-0.020
5.764,-0.190,-0.020
5.766,-0.280,-0.010
5.768,-0.350,0.000
5.770,-0.365,0.010
5.772,-0.295,0.025
5.774,-0.155,0.035
5.776,-0.055,0.040
5.778,0.000,0.040
5.780,-0.055,0.035
5.782,-0.135,0.030
5.784,-0.235,0.020
5.786,-0.350,0.010
5.788,-0.415,0.000
5.790,-0.370,-0.005
5.792,-0.240,-0.010
5.794,-0.175,-0.010
5.796,-0.120,-0.010
5.798,-0.085,-0.010
5.800,-0.105,-0.005
5.802,-0.125,-0.005
5.804,-0.205,-0.005
5.806,-0.325,0.000
5.808,-0.365,0.005
5.810,-0.325,0.010
5.812,-0.220,0.015
5.814,-0.185,0.015
5.816,-0.120,0.020
5.818,-0.030,0.020
5.820,-0.045,0.020
5.822,-0.125,0.020
5.824,-0.195,0.015
5.826,-0.305,0.015
5.828,-0.405,0.010
5.830,-0.360,0.010
5.832,-0.240,0.010
5.834,-0.150,0.015
5.836,-0.050,0.020
5.838,-0.040,0.020
5.840,-0.080,0.025
5.842,-0.175,0.025
5.844,-0.200,0.030
5.846,-0.315,0.025
5.848,-0.345,0.025
5.850,-0.345,0.025
5.852,-0.260,0.025
5.854,-0.165,0.020
5.856,-0.025,0.015
5.858,-0.035,0.015
5.860,-0.075,0.005
5.862,-0.145,0.000
5.864,-0.220,-0.010
5.866,-0.375,-0.020
5.868,-0.435,-0.030
5.870,-0.405,-0.035
5.872,-0.320,-0.035
5.874,-0.200,-0.030
5.876,-0.060,-0.025
5.878,-0.045,-0.015
5.880,-0.090,-0.005
5.882,-0.145,0.000
5.884,-0.200,0.005
5.886,-0.365,0.005
5.888,-0.355,0.000
5.890,-0.370,-0.010
5.892,-0.315,-0.020
5.894,-0.270,-0.030
5.896,-0.065,-0.040
5.898,-0.080,-0.045
5.900,-0.120,-0.045
5.902,-0.190,-0.040
5.904,-0.270,-0.030
5.906,-0.415,-0.020
5.908,-0.320,-0.010
5.910,-0.295,-0.005
5.912,-0.235,0.000
5.914,-0.200,-0.005
5.916,-0.085,-0.010
5.918,-0.130,-0.020
5.920,-0.165,-0.030
5.922,-0.230,-0.040
5.924,-0.250,-0.050
5.926,-0.390,-0.050
5.928,-0.370,-0.050
5.930,-0.330,-0.045
5.932,-0.255,-0.040
5.934,-0.240,-0.035
5.936,-0.075,-0.025
5.938,-0.080,-0.025
5.940,-0.130,-0.025
5.942,-0.225,-0.030
5.944,-0.260,-0.030
5.946,-0.410,-0.035
5.948,-0.370,-0.040
5.950,-0.345,-0.040
5.952,-0.260,-0.035
5.954,-0.210,-0.035
5.956,-0.060,-0.030
5.958,-0.045,-0.030
5.960,-0.140,-0.030
5.962,-0.205,-0.035
5.964,-0.315,-0.040
5.966,-0.430,-0.050
5.968,-0.415,-0.060
5.970,-0.360,-0.070
5.972,-0.285,-0.080
5.974,-0.265,-0.080
5.976,-0.125,-0.085
5.978,-0.115,-0.080
5.980,-0.165,-0.075
5.982,-0.250,-0.060
5.984,-0.300,-0.050
5.986,-0.365,-0.030
5.988,-0.365,-0.015
5.990,-0.275,0.005
5.992,-0.170,0.025
5.994,-0.115,0.035
5.996,0.005,0.040
5.998,0.005,0.040
6.000,-0.065,0.035
6.002,-0.130,0.015
6.004,-0.240,0.000
6.006,-0.430,-0.020
6.008,-0.420,-0.040
6.010,-0.345,-0.055
6.012,-0.295,-0.060
6.014,-0.200,-0.060
6.016,-0.040,-0.055
6.018,-0.050,-0.045
6.020,-0.150,-0.035
6.022,-0.250,-0.030
6.024,-0.290,-0.025
6.026,-0.380,-0.025
6.028,-0.370,-0.025
6.030,-0.340,-0.030
6.032,-0.260,-0.030
6.034,-0.195,-0.030
6.036,-0.055,-0.025
6.038,-0.060,-0.025
6.040,-0.115,-0.020
6.042,-0.215,-0.020
6.044,-0.335,-0.025
6.046,-0.460,-0.030
6.048,-0.395,-0.035
6.050,-0.280,-0.040
6.052,-0.225,-0.040
6.054,-0.110,-0.040
6.056,-0.040,-0.035
6.058,-0.075,-0.025
6.060,-0.120,-0.015
6.062,-0.185,0.000
6.064,-0.290,0.010
6.066,-0.380,0.025
6.068,-0.340,0.030
6.070,-0.270,0.035
6.072,-0.160,0.035
6.074,-0.080,0.035
6.076,0.040,0.030
6.078,0.000,0.030
6.080,-0.090,0.030
6.082,-0.180,0.025
6.084,-0.270,0.030
6.086,-0.325,0.030
6.088,-0.330,0.030
6.090,-0.250,0.030
6.092,-0.165,0.035
6.094,-0.085,0.040
6.096,0.020,0.045
6.098,0.025,0.050
6.100,-0.060,0.055
6.102,-0.175,0.060
6.104,-0.270,0.060
6.106,-0.345,0.050
6.108,-0.315,0.040
6.110,-0.170,0.025
6.112,-0.145,0.005
6.114,-0.110,-0.020
6.116,-0.075,-0.040
6.118,-0.145,-0.055
6.120,-0.275,-0.065
6.122,-0.300,-0.065
6.124,-0.395,-0.060
6.126,-0.335,-0.055
6.128,-0.365,-0.045
6.130,-0.285,-0.035
6.132,-0.175,-0.030
6.134,-0.050,-0.030
6.136,-0.040,-0.030
6.138,-0.090,-0.030
6.140,-0.180,-0.030
6.142,-0.260,-0.025
6.144,-0.390,-0.020
6.146,-0.390,-0.015
6.148,-0.280,0.000
6.150,-0.185,0.010
6.152,-0.145,0.015
6.154,-0.025,0.015
6.156,-0.020,0.010
6.158,-0.080,0.000
6.160,-0.170,-0.010
6.162,-0.230,-0.030
6.164,-0.390,-0.040
6.166,-0.400,-0.050
6.168,-0.380,-0.055
6.170,-0.260,-0.055
6.172,-0.165,-0.050
6.174,-0.055,-0.045
6.176,-0.060,-0.045
6.178,-0.105,-0.045
6.180,-0.215,-0.050
6.182,-0.280,-0.055
6.184,-0.440,-0.065
6.186,-0.425,-0.070
6.188,-0.410,-0.070
6.190,-0.285,-0.060
6.192,-0.185,-0.045
6.194,0.010,-0.020
6.196,0.010,0.010
6.198,-0.045,0.040
6.200,-0.100,0.065
6.202,-0.120,0.080
6.204,-0.245,0.090
6.206,-0.235,0.090
6.208,-0.200,0.085
6.210,-0.150,0.075
6.212,-0.155,0.065
6.214,-0.010,0.055
6.216,0.025,0.055
6.218,0.045,0.065
6.220,-0.025,0.075
6.222,-0.100,0.090
6.224,-0.230,0.100
6.226,-0.210,0.105
6.228,-0.235,0.095
6.230,-0.175,0.075
6.232,-0.155,0.040
6.234,-0.055,0.000
6.236,-0.100,-0.045
6.238,-0.160,-0.090
6.240,-0.250,-0.125
6.242,-0.320,-0.145
6.244,-0.490,-0.150
6.246,-0.490,-0.135
6.248,-0.445,-0.115
6.250,-0.275,-0.085
6.252,-0.205,-0.060
6.254,-0.060,-0.035
6.256,-0.040,-0.025
6.258,-0.095,-0.020
6.260,-0.220,-0.025
6.262,-0.255,-0.035
6.264,-0.375,-0.045
6.266,-0.385,-0.050
6.268,-0.290,-0.045
6.270,-0.200,-0.035
6.272,-0.200,-0.015
6.274,0.015,0.005
6.276,-0.010,0.025
6.278,-0.030,0.040
6.280,-0.125,0.045
6.282,-0.195,0.045
6.284,-0.320,0.040
6.286,-0.295,0.030
6.288,-0.215,0.020
6.290,-0.150,0.010
6.292,-0.125,0.005
6.294,-0.030,0.005
6.296,-0.025,0.010
6.298,-0.090,0.010
6.300,-0.150,0.010
6.302,-0.200,0.010
6.304,-0.315,0.000
6.306,-0.315,-0.005
6.308,-0.305,-0.020
6.310,-0.230,-0.030
6.312,-0.155,-0.040
6.314,-0.065,-0.040
6.316,-0.045,-0.035
6.318,-0.130,-0.025
6.320,-0.190,-0.015
6.322,-0.235,0.005
6.324,-0.295,0.020
6.326,-0.255,0.040
6.328,-0.180,0.050
6.330,-0.105,0.060
6.332,-0.070,0.065
6.334,0.010,0.065
6.336,0.020,0.060
6.338,-0.040,0.055
6.340,-0.120,0.045
6.342,-0.215,0.035
6.344,-0.300,0.025
6.346,-0.355,0.015
6.348,-0.295,0.010
6.350,-0.145,0.010
6.352,-0.085,0.010
6.354,0.035,0.020
6.356,0.030,0.025
6.358,-0.070,0.035
6.360,-0.120,0.050
6.362,-0.250,0.055
6.364,-0.335,0.065
6.366,-0.245,0.065
6.368,-0.150,0.065
6.370,-0.115,0.060
6.372,0.035,0.055
6.374,0.055,0.045
6.376,-0.010,0.040
6.378,-0.075,0.035
6.380,-0.150,0.035
6.382,-0.265,0.040
6.384,-0.290,0.045
6.386,-0.255,0.050
6.388,-0.145,0.060
6.390,-0.060,0.065
6.392,-0.005,0.070
6.394,0.040,0.070
6.396,0.045,0.070
6.398,-0.035,0.070
6.400,-0.120,0.070
6.402,-0.230,0.075
6.404,-0.235,0.075
6.406,-0.210,0.080
6.408,-0.145,0.085
6.410,-0.075,0.095
6.412,0.055,0.100
6.414,0.080,0.110
6.416,0.060,0.115
6.418,-0.010,0.120
6.420,-0.050,0.130
6.422,-0.135,0.135
6.424,-0.160,0.140
6.426,-0.130,0.140
6.428,-0.040,0.145
6.430,-0.030,0.145
6.432,0.080,0.140
6.434,0.125,0.135
6.436,0.085,0.125
6.438,0.010,0.120
6.440,-0.040,0.115
6.442,-0.185,0.115
6.444,-0.195,0.120
6.446,-0.165,0.130
6.448,-0.065,0.145
6.450,-0.010,0.160
6.452,0.150,0.175
6.454,0.225,0.185
6.456,0.165,0.190
6.458,0.065,0.190
6.460,-0.030,0.180
6.462,-0.195,0.170
6.464,-0.165,0.160
6.466,-0.145,0.150
6.468,-0.055,0.145
6.470,-0.005,0.145
6.472,0.175,0.150
6.474,0.160,0.155
6.476,0.090,0.160
6.478,-0.025,0.160
6.480,-0.060,0.155
6.482,-0.160,0.140
6.484,-0.230,0.120
6.486,-0.210,0.100
6.488,-0.160,0.075
6.490,-0.105,0.055
6.492,0.040,0.040
6.494,0.075,0.035
6.496,-0.005,0.035
6.498,-0.095,0.045
6.500,-0.135,0.055
6.502,-0.280,0.065
6.504,-0.280,0.070
6.506,-0.240,0.070
6.508,-0.160,0.065
6.510,-0.075,0.055
6.512,0.055,0.035
6.514,0.030,0.015
6.516,-0.020,-0.005
6.518,-0.195,-0.020
6.520,-0.265,-0.035
6.522,-0.410,-0.040
6.524,-0.395,-0.045
6.526,-0.285,-0.045
6.528,-0.205,-0.040
6.530,-0.145,-0.035
6.532,-0.025,-0.030
6.534,-0.005,-0.025
6.536,-0.090,-0.030
6.538,-0.195,-0.030
6.540,-0.260,-0.035
6.542,-0.400,-0.040
6.544,-0.370,-0.045
6.546,-0.325,-0.045
6.548,-0.180,-0.050
6.550,-0.170,-0.045
6.552,-0.040,-0.045
6.554,-0.015,-0.045
6.556,-0.050,-0.040
6.558,-0.175,-0.040
6.560,-0.255,-0.040
6.562,-0.415,-0.040
6.564,-0.400,-0.045
6.566,-0.305,-0.050
6.568,-0.190,-0.055
6.570,-0.135,-0.060
6.572,-0.020,-0.060
6.574,-0.050,-0.065
6.576,-0.165,-0.065
6.578,-0.250,-0.065
6.580,-0.320,-0.060
6.582,-0.380,-0.055
6.584,-0.340,-0.050
6.586,-0.280,-0.040
6.588,-0.160,-0.035
6.590,-0.085,-0.035
6.592,-0.040,-0.035
6.594,-0.060,-0.035
6.596,-0.160,-0.040
6.598,-0.255,-0.045
6.600,-0.285,-0.050
6.602,-0.400,-0.060
6.604,-0.385,-0.065
6.606,-0.245,-0.075
6.608,-0.215,-0.080
6.610,-0.140,-0.080
6.612,-0.080,-0.085
6.614,-0.110,-0.080
6.616,-0.180,-0.075
6.618,-0.210,-0.070
6.620,-0.275,-0.060
6.622,-0.395,-0.050
6.624,-0.315,-0.040
6.626,-0.265,-0.035
6.628,-0.220,-0.035
6.630,-0.140,-0.040
6.632,0.015,-0.045
6.634,-0.045,-0.055
6.636,-0.165,-0.065
6.638,-0.250,-0.070
6.640,-0.325,-0.065
6.642,-0.405,-0.060
6.644,-0.335,-0.045
6.646,-0.235,-0.030
6.648,-0.095,-0.020
6.650,-0.010,-0.010
6.652,0.015,-0.015
6.654,-0.090,-0.025
6.656,-0.190,-0.045
6.658,-0.275,-0.070
6.660,-0.395,-0.090
6.662,-0.450,-0.110
6.664,-0.405,-0.115
6.666,-0.300,-0.105
6.668,-0.160,-0.085
6.670,-0.050,-0.055
6.672,0.025,-0.020
6.674,0.030,0.010
6.676,-0.070,0.030
6.678,-0.155,0.040
6.680,-0.255,0.035
6.682,-0.370,0.020
6.684,-0.345,-0.010
6.686,-0.280,-0.035
6.688,-0.220,-0.065
6.690,-0.085,-0.080
6.692,-0.010,-0.090
6.694,-0.065,-0.085
6.696,-0.175,-0.080
6.698,-0.255,-0.065
6.700,-0.375,-0.050
6.702,-0.405,-0.040
6.704,-0.380,-0.035
6.706,-0.240,-0.035
6.708,-0.145,-0.040
6.710,-0.005,-0.045
6.712,-0.035,-0.050
6.714,-0.065,-0.055
6.716,-0.155,-0.055
6.718,-0.225,-0.050
6.720,-0.345,-0.050
6.722,-0.390,-0.055
6.724,-0.355,-0.060
6.726,-0.230,-0.065
6.728,-0.215,-0.075
6.730,-0.080,-0.085
6.732,-0.050,-0.085
6.734,-0.085,-0.085
6.736,-0.160,-0.075
6.738,-0.235,-0.060
6.740,-0.370,-0.045
6.742,-0.350,-0.035
6.744,-0.335,-0.030
6.746,-0.285,-0.035
6.748,-0.180,-0.045
6.750,-0.040,-0.060
6.752,-0.030,-0.075
6.754,-0.145,-0.090
6.756,-0.220,-0.095
6.758,-0.250,-0.085
6.760,-0.375,-0.070
6.762,-0.330,-0.050
6.764,-0.330,-0.025
6.766,-0.190,-0.010
6.768,-0.115,0.000
6.770,-0.040,0.000
6.772,-0.035,-0.010
6.774,-0.080,-0.030
6.776,-0.195,-0.050
6.778,-0.205,-0.070
6.780,-0.370,-0.080
6.782,-0.390,-0.085
6.784,-0.365,-0.080
6.786,-0.260,-0.065
6.788,-0.190,-0.050
6.790,-0.030,-0.035
6.792,-0.015,-0.020
6.794,-0.015,-0.015
6.796,-0.115,-0.010
6.798,-0.170,-0.015
6.800,-0.360,-0.020
6.802,-0.395,-0.025
6.804,-0.315,-0.030
6.806,-0.145,-0.035
6.808,-0.110,-0.040
6.810,-0.035,-0.045
6.812,-0.065,-0.050
6.814,-0.100,-0.055
6.816,-0.240,-0.060
6.818,-0.295,-0.065
6.820,-0.405,-0.070
6.822,-0.335,-0.070
6.824,-0.310,-0.075
6.826,-0.215,-0.070
6.828,-0.160,-0.070
6.830,-0.075,-0.065
6.832,-0.035,-0.060
6.834,-0.065,-0.055
6.836,-0.175,-0.050
6.838,-0.250,-0.045
6.840,-0.390,-0.040
6.842,-0.360,-0.035
6.844,-0.230,-0.030
6.846,-0.125,-0.025
6.848,-0.125,-0.020
6.850,-0.010,-0.015
6.852,-0.010,-0.015
6.854,-0.070,-0.020
6.856,-0.195,-0.025
6.858,-0.300,-0.035
6.860,-0.405,-0.050
6.862,-0.370,-0.060
6.864,-0.295,-0.070
6.866,-0.235,-0.075
6.868,-0.185,-0.080
6.870,-0.055,-0.075
6.872,-0.045,-0.065
6.874,-0.080,-0.050
6.876,-0.155,-0.035
6.878,-0.225,-0.020
6.880,-0.300,-0.010
6.882,-0.315,-0.005
6.884,-0.270,-0.005
6.886,-0.180,-0.015
6.888,-0.085,-0.025
6.890,-0.005,-0.040
6.892,-0.055,-0.055
6.894,-0.145,-0.065
6.896,-0.220,-0.070
6.898,-0.285,-0.070
6.900,-0.365,-0.065
6.902,-0.380,-0.050
6.904,-0.260,-0.035
6.906,-0.155,-0.015
6.908,-0.035,0.005
6.910,0.065,0.025
6.912,0.060,0.035
6.914,-0.010,0.045
6.916,-0.110,0.045
6.918,-0.150,0.040
6.920,-0.300,0.030
6.922,-0.335,0.010
6.924,-0.240,-0.010
6.926,-0.155,-0.030
6.928,-0.165,-0.050
6.930,-0.035,-0.060
6.932,-0.015,-0.065
6.934,-0.120,-0.060
6.936,-0.165,-0.045
6.938,-0.250,-0.030
6.940,-0.335,-0.015
6.942,-0.305,0.000
6.944,-0.200,0.005
6.946,-0.130,0.005
6.948,-0.100,-0.005
6.950,0.010,-0.020
6.952,-0.030,-0.040
6.954,-0.165,-0.055
6.956,-0.210,-0.065
6.958,-0.310,-0.065
6.960,-0.355,-0.060
6.962,-0.325,-0.050
6.964,-0.215,-0.040
6.966,-0.160,-0.025
6.968,-0.055,-0.015
6.970,0.015,-0.015
6.972,-0.005,-0.015
6.974,-0.105,-0.020
6.976,-0.200,-0.030
6.978,-0.325,-0.040
6.980,-0.405,-0.050
6.982,-0.310,-0.055
6.984,-0.235,-0.060
6.986,-0.175,-0.060
6.988,-0.110,-0.060
6.990,-0.035,-0.065
6.992,-0.030,-0.065
6.994,-0.155,-0.065
6.996,-0.265,-0.065
6.998,-0.380,-0.065
7.000,-0.380,-0.065
7.002,-0.330,-0.065
7.004,-0.235,-0.060
7.006,-0.165,-0.055
7.008,0.000,-0.050
7.010,-0.010,-0.045
7.012,-0.085,-0.045
7.014,-0.170,-0.040
7.016,-0.205,-0.035
7.018,-0.325,-0.035
7.020,-0.365,-0.035
7.022,-0.345,-0.035
7.024,-0.210,-0.035
7.026,-0.140,-0.030
7.028,0.000,-0.025
7.030,0.010,-0.015
7.032,-0.010,-0.005
7.034,-0.105,0.010
7.036,-0.135,0.025
7.038,-0.265,0.040
7.040,-0.250,0.055
7.042,-0.185,0.060
7.044,-0.105,0.065
7.046,-0.080,0.060
7.048,0.040,0.050
7.050,0.060,0.045
7.052,0.015,0.035
7.054,-0.055,0.025
7.056,-0.150,0.020
7.058,-0.265,0.015
7.060,-0.255,0.010
7.062,-0.295,0.005
7.064,-0.235,-0.010
7.066,-0.160,-0.030
7.068,-0.030,-0.055
7.070,-0.080,-0.080
7.072,-0.140,-0.115
7.074,-0.245,-0.140
7.076,-0.355,-0.160
7.078,-0.540,-0.170
7.080,-0.495,-0.170
7.082,-0.410,-0.155
7.084,-0.245,-0.135
7.086,-0.185,-0.105
7.088,-0.040,-0.080
7.090,-0.030,-0.055
7.092,-0.075,-0.040
7.094,-0.185,-0.030
7.096,-0.205,-0.030
7.098,-0.340,-0.030
7.100,-0.335,-0.030
7.102,-0.285,-0.030
7.104,-0.140,-0.030
7.106,-0.060,-0.025
7.108,0.030,-0.015
7.110,-0.035,-0.010
7.112,-0.050,-0.005
7.114,-0.160,0.000
7.116,-0.215,0.000
7.118,-0.270,-0.010
7.120,-0.270,-0.015
7.122,-0.290,-0.025
7.124,-0.215,-0.035
7.126,-0.185,-0.045
7.128,-0.055,-0.045
7.130,-0.020,-0.040
7.132,0.000,-0.035
7.134,-0.105,-0.025
7.136,-0.185,-0.010
7.138,-0.365,0.000
7.140,-0.295,0.010
7.142,-0.200,0.020
7.144,-0.065,0.020
7.146,-0.055,0.020
7.148,0.035,0.015
7.150,0.000,0.010
7.152,-0.085,0.000
7.154,-0.190,-0.010
7.156,-0.190,-0.015
7.158,-0.310,-0.025
7.160,-0.350,-0.025
7.162,-0.255,-0.025
7.164,-0.145,-0.025
7.166,-0.080,-0.015
7.168,0.015,-0.005
7.170,0.040,0.005
7.172,-0.025,0.020
7.174,-0.095,0.030
7.176,-0.140,0.040
7.178,-0.260,0.045
7.180,-0.240,0.050
7.182,-0.165,0.045
7.184,-0.125,0.040
7.186,-0.040,0.035
7.188,0.035,0.030
7.190,0.060,0.025
7.192,0.005,0.020
7.194,-0.080,0.020
7.196,-0.175,0.020
7.198,-0.315,0.015
7.200,-0.275,0.015
7.202,-0.215,0.010
7.204,-0.115,0.010
7.206,-0.030,0.010
7.208,0.045,0.010
7.210,0.010,0.015
7.212,-0.030,0.025
7.214,-0.085,0.040
7.216,-0.150,0.055
7.218,-0.225,0.075
7.220,-0.195,0.090
7.222,-0.080,0.100
7.224,-0.020,0.110
7.226,0.025,0.110
7.228,0.130,0.105
7.230,0.135,0.100
7.232,-0.020,0.095
7.234,-0.080,0.090
7.236,-0.180,0.090
7.238,-0.140,0.095
7.240,-0.155,0.100
7.242,-0.070,0.105
7.244,-0.025,0.110
7.246,0.025,0.110
7.248,0.100,0.110
7.250,0.130,0.105
7.252,0.030,0.105
7.254,-0.055,0.105
7.256,-0.120,0.110
7.258,-0.140,0.120
7.260,-0.105,0.135
7.262,-0.020,0.155
7.264,0.065,0.170
7.266,0.180,0.185
7.268,0.250,0.195
7.270,0.250,0.205
7.272,0.115,0.205
7.274,0.035,0.205
7.276,-0.065,0.205
7.278,-0.095,0.205
7.280,-0.070,0.210
7.282,0.005,0.210
7.284,0.085,0.215
7.286,0.260,0.215
7.288,0.260,0.210
7.290,0.205,0.205
7.292,0.050,0.190
7.294,-0.025,0.175
7.296,-0.125,0.160
7.298,-0.145,0.150
7.300,-0.090,0.145
7.302,0.030,0.140
7.304,0.065,0.145
7.306,0.175,0.155
7.308,0.195,0.165
7.310,0.150,0.170
7.312,0.095,0.175
7.314,-0.005,0.180
7.316,-0.100,0.175
7.318,-0.115,0.170
7.320,-0.110,0.160
7.322,-0.065,0.150
7.324,-0.010,0.140
7.326,0.155,0.130
7.328,0.160,0.125
7.330,0.125,0.115
7.332,0.005,0.105
7.334,-0.100,0.095
7.336,-0.245,0.080
7.338,-0.250,0.065
7.340,-0.205,0.050
7.342,-0.140,0.035
7.344,-0.130,0.025
7.346,0.065,0.015
7.348,0.045,0.010
7.350,0.020,0.005
7.352,-0.075,0.010
7.354,-0.155,0.015
7.356,-0.305,0.020
7.358,-0.280,0.025
7.360,-0.205,0.030
7.362,-0.110,0.030
7.364,-0.025,0.025
7.366,0.090,0.020
7.368,0.035,0.010
7.370,-0.065,0.000
7.372,-0.170,-0.010
7.374,-0.215,-0.020
7.376,-0.370,-0.030
7.378,-0.310,-0.035
7.380,-0.255,-0.035
7.382,-0.110,-0.030
7.384,-0.085,-0.025
7.386,-0.010,-0.020
7.388,-0.020,-0.015
7.390,-0.065,-0.015
7.392,-0.115,-0.010
7.394,-0.115,-0.010
7.396,-0.295,-0.010
7.398,-0.295,-0.010
7.400,-0.255,-0.010
7.402,-0.170,-0.005
7.404,-0.105,-0.005
7.406,0.045,0.000
7.408,0.065,0.000
7.410,-0.020,-0.005
7.412,-0.140,-0.010
7.414,-0.200,-0.015
7.416,-0.330,-0.025
7.418,-0.335,-0.030
7.420,-0.225,-0.035
7.422,-0.125,-0.035
7.424,-0.115,-0.030
7.426,-0.005,-0.015
7.428,0.050,-0.005
7.430,0.020,0.010
7.432,-0.055,0.025
7.434,-0.110,0.030
7.436,-0.235,0.035
7.438,-0.310,0.025
7.440,-0.280,0.015
7.442,-0.160,-0.005
7.444,-0.110,-0.025
7.446,0.005,-0.045
7.448,-0.015,-0.060
7.450,-0.105,-0.070
7.452,-0.180,-0.075
7.454,-0.245,-0.075
7.456,-0.305,-0.065
7.458,-0.320,-0.055
7.460,-0.245,-0.040
7.462,-0.170,-0.030
7.464,-0.090,-0.020
7.466,0.005,-0.010
7.468,0.020,-0.005
7.470,-0.020,0.000
7.472,-0.105,0.000
7.474,-0.200,0.000
7.476,-0.330,0.000
7.478,-0.250,0.000
7.480,-0.180,0.000
7.482,-0.135,0.005
7.484,-0.105,0.005
7.486,0.035,0.005
7.488,0.045,0.005
7.490,-0.015,0.005
7.492,-0.100,0.005
7.494,-0.200,0.005
7.496,-0.290,0.005
7.498,-0.285,0.010
7.500,-0.195,0.010
7.502,-0.120,0.010
7.504,-0.030,0.010
7.506,0.065,0.010
7.508,0.055,0.010
7.510,-0.045,0.005
7.512,-0.160,0.000
7.514,-0.250,-0.005
7.516,-0.310,-0.010
7.518,-0.275,-0.015
7.520,-0.175,-0.015
7.522,-0.110,-0.015
7.524,-0.035,-0.010
7.526,0.045,-0.005
7.528,-0.005,0.000
7.530,-0.075,0.005
7.532,-0.105,0.005
7.534,-0.195,0.005
7.536,-0.250,0.000
7.538,-0.310,-0.005
7.540,-0.225,-0.015
7.542,-0.175,-0.025
7.544,-0.050,-0.035
7.546,0.050,-0.040
7.548,0.040,-0.040
7.550,-0.080,-0.040
7.552,-0.190,-0.035
7.554,-0.310,-0.030
7.556,-0.310,-0.020
7.558,-0.290,-0.015
7.560,-0.155,-0.010
7.562,-0.070,-0.010
7.564,-0.005,-0.010
7.566,0.025,-0.015
7.568,-0.015,-0.020
7.570,-0.145,-0.025
7.572,-0.245,-0.030
7.574,-0.350,-0.035
7.576,-0.290,-0.030
7.578,-0.260,-0.030
7.580,-0.175,-0.020
7.582,-0.070,-0.015
7.584,0.065,-0.005
7.586,0.065,0.000
7.588,0.015,0.000
7.590,-0.075,0.000
7.592,-0.120,-0.005
7.594,-0.280,-0.010
7.596,-0.370,-0.015
7.598,-0.270,-0.020
7.600,-0.190,-0.020
7.602,-0.085,-0.020
7.604,0.025,-0.015
7.606,0.075,-0.010
7.608,0.005,-0.005
7.610,-0.085,-0.005
7.612,-0.160,0.000
7.614,-0.295,-0.005
7.616,-0.275,-0.010
7.618,-0.265,-0.020
7.620,-0.150,-0.030
7.622,-0.150,-0.035
7.624,0.000,-0.040
7.626,0.020,-0.040
7.628,-0.010,-0.035
7.630,-0.135,-0.030
7.632,-0.155,-0.020
7.634,-0.280,-0.015
7.636,-0.275,-0.010
7.638,-0.225,-0.015
7.640,-0.140,-0.025
7.642,-0.160,-0.035
7.644,-0.020,-0.050
7.646,-0.020,-0.060
7.648,-0.100,-0.065
7.650,-0.150,-0.060
7.652,-0.145,-0.050
7.654,-0.305,-0.035
7.656,-0.255,-0.020
7.658,-0.225,-0.005
7.660,-0.140,0.000
7.662,-0.090,0.005
7.664,0.035,-0.005
7.666,0.020,-0.015
7.668,-0.050,-0.035
7.670,-0.140,-0.050
7.672,-0.190,-0.060
7.674,-0.335,-0.060
7.676,-0.315,-0.055
7.678,-0.265,-0.045
7.680,-0.140,-0.025
7.682,-0.080,-0.010
7.684,0.080,0.005
7.686,0.130,0.015
7.688,0.035,0.020
7.690,-0.065,0.015
7.692,-0.125,0.005
7.694,-0.320,-0.010
7.696,-0.345,-0.025
7.698,-0.280,-0.045
7.700,-0.160,-0.060
7.702,-0.090,-0.070
7.704,0.030,-0.080
7.706,-0.015,-0.080
7.708,-0.125,-0.080
7.710,-0.220,-0.075
7.712,-0.225,-0.065
7.714,-0.350,-0.050
7.716,-0.265,-0.035
7.718,-0.170,-0.015
7.720,-0.090,0.005
7.722,-0.065,0.020
7.724,0.090,0.025
7.726,0.085,0.025
7.728,0.010,0.015
7.730,-0.110,0.000
7.732,-0.230,-0.025
7.734,-0.360,-0.055
7.736,-0.395,-0.080
7.738,-0.330,-0.100
7.740,-0.220,-0.110
7.742,-0.115,-0.115
7.744,0.000,-0.105
7.746,0.025,-0.090
7.748,-0.100,-0.070
7.750,-0.165,-0.050
7.752,-0.200,-0.030
7.754,-0.260,-0.015
7.756,-0.245,-0.005
7.758,-0.190,-0.005
7.760,-0.080,-0.010
7.762,-0.050,-0.015
7.764,0.040,-0.025
7.766,0.005,-0.035
7.768,-0.075,-0.040
7.770,-0.190,-0.045
7.772,-0.220,-0.045
7.774,-0.260,-0.040
7.776,-0.305,-0.035
7.778,-0.180,-0.025
7.780,-0.090,-0.015
7.782,-0.060,-0.005
7.784,0.045,0.005
7.786,0.100,0.010
7.788,0.015,0.010
7.790,-0.100,0.005
7.792,-0.190,0.000
7.794,-0.295,-0.010
7.796,-0.300,-0.025
7.798,-0.225,-0.035
7.800,-0.145,-0.045
7.802,-0.050,-0.045
7.804,0.070,-0.040
7.806,0.050,-0.030
7.808,-0.020,-0.015
7.810,-0.085,0.000
7.812,-0.155,0.020
7.814,-0.240,0.035
7.816,-0.205,0.050
7.818,-0.105,0.050
7.820,-0.045,0.050
7.822,0.045,0.040
7.824,0.110,0.030
7.826,0.070,0.015
7.828,0.015,0.005
7.830,-0.130,-0.005
7.832,-0.240,-0.010
7.834,-0.270,-0.010
7.836,-0.290,-0.005
7.838,-0.155,0.000
7.840,-0.025,0.005
7.842,0.045,0.005
7.844,0.090,0.005
7.846,0.025,0.000
7.848,-0.075,-0.010
7.850,-0.185,-0.025
7.852,-0.305,-0.040
7.854,-0.305,-0.055
7.856,-0.290,-0.070
7.858,-0.230,-0.080
7.860,-0.170,-0.085
7.862,-0.045,-0.085
7.864,0.000,-0.080
7.866,0.020,-0.075
7.868,-0.030,-0.065
7.870,-0.115,-0.055
7.872,-0.335,-0.045
7.874,-0.315,-0.040
7.876,-0.255,-0.035
7.878,-0.140,-0.030
7.880,-0.075,-0.030
7.882,0.035,-0.035
7.884,0.015,-0.035
7.886,-0.015,-0.035
7.888,-0.115,-0.035
7.890,-0.155,-0.035
7.892,-0.245,-0.030
7.894,-0.290,-0.030
7.896,-0.280,-0.030
7.898,-0.145,-0.030
7.900,-0.080,-0.030
7.902,-0.010,-0.035
7.904,0.010,-0.035
7.906,0.010,-0.040
7.908,-0.070,-0.035
7.910,-0.140,-0.035
7.912,-0.275,-0.030
7.914,-0.230,-0.020
7.916,-0.230,-0.010
7.918,-0.140,0.000
7.920,-0.065,0.005
7.922,0.110,0.015
7.924,0.080,0.015
7.926,0.025,0.020
7.928,-0.065,0.015
7.930,-0.085,0.015
7.932,-0.215,0.015
7.934,-0.250,0.010
7.936,-0.190,0.010
7.938,-0.085,0.010
7.940,-0.025,0.010
7.942,0.080,0.010
7.944,0.080,0.010
7.946,0.070,0.005
7.948,-0.045,0.000
7.950,-0.120,-0.015
7.952,-0.285,-0.030
7.954,-0.295,-0.050
7.956,-0.320,-0.075
7.958,-0.235,-0.100
7.960,-0.150,-0.120
7.962,-0.015,-0.135
7.964,-0.070,-0.140
7.966,-0.170,-0.140
7.968,-0.220,-0.130
7.970,-0.230,-0.110
7.972,-0.305,-0.090
7.974,-0.250,-0.070
7.976,-0.195,-0.050
7.978,-0.110,-0.030
7.980,-0.045,-0.020
7.982,0.050,-0.015
7.984,0.040,-0.015
7.986,-0.030,-0.020
7.988,-0.125,-0.025
7.990,-0.165,-0.030
7.992,-0.265,-0.035
7.994,-0.255,-0.035
7.996,-0.220,-0.035
7.998,-0.075,-0.030
8.000,-0.005,-0.025
8.002,0.045,-0.020
8.004,0.040,-0.015
8.006,-0.005,-0.010
8.008,-0.070,-0.010
8.010,-0.130,-0.005
8.012,-0.225,-0.005
8.014,-0.245,-0.005
8.016,-0.155,-0.010
8.018,-0.080,-0.015
8.020,-0.075,-0.020
8.022,0.035,-0.025
8.024,0.040,-0.025
8.026,-0.045,-0.025
8.028,-0.125,-0.020
8.030,-0.150,-0.010
8.032,-0.205,0.005
8.034,-0.170,0.020
8.036,-0.065,0.030
8.038,-0.005,0.040
8.040,0.005,0.040
8.042,0.090,0.035
8.044,0.070,0.025
8.046,-0.010,0.010
8.048,-0.110,-0.010
8.050,-0.145,-0.025
8.052,-0.255,-0.035
8.054,-0.295,-0.045
8.056,-0.195,-0.045
8.058,-0.080,-0.040
8.060,0.015,-0.035
8.062,0.110,-0.025
8.064,0.105,-0.020
8.066,-0.015,-0.010
8.068,-0.090,-0.010
8.070,-0.185,-0.005
8.072,-0.225,0.000
8.074,-0.200,0.000
8.076,-0.105,0.005
8.078,-0.010,0.015
8.080,0.055,0.020
8.082,0.095,0.030
8.084,0.110,0.035
8.086,0.025,0.035
8.088,-0.035,0.035
8.090,-0.130,0.035
8.092,-0.205,0.030
8.094,-0.185,0.025
8.096,-0.105,0.025
8.098,-0.010,0.030
8.100,0.075,0.035
8.102,0.155,0.045
8.104,0.190,0.060
8.106,0.095,0.070
8.108,-0.005,0.075
8.110,-0.125,0.080
8.112,-0.180,0.080
8.114,-0.155,0.075
8.116,-0.035,0.065
8.118,0.020,0.060
8.120,0.085,0.055
8.122,0.155,0.050
8.124,0.115,0.050
8.126,0.070,0.055
8.128,0.055,0.060
8.130,-0.095,0.070
8.132,-0.210,0.075
8.134,-0.155,0.080
8.136,-0.040,0.085
8.138,0.030,0.090
8.140,0.180,0.095
8.142,0.245,0.100
8.144,0.240,0.105
8.146,0.145,0.115
8.148,0.070,0.125
8.150,-0.100,0.135
8.152,-0.110,0.140
8.154,-0.060,0.150
8.156,0.055,0.160
8.158,0.120,0.165
8.160,0.290,0.170
8.162,0.285,0.170
8.164,0.250,0.175
8.166,0.140,0.170
8.168,0.070,0.170
8.170,-0.010,0.170
8.172,-0.025,0.165
8.174,-0.040,0.165
8.176,0.095,0.160
8.178,0.100,0.160
8.180,0.250,0.160
8.182,0.290,0.160
8.184,0.245,0.160
8.186,0.145,0.160
8.188,0.060,0.165
8.190,-0.060,0.165
8.192,-0.065,0.160
8.194,-0.035,0.160
8.196,0.075,0.155
8.198,0.130,0.150
8.200,0.255,0.140
8.202,0.285,0.135
8.204,0.175,0.125
8.206,0.085,0.120
8.208,0.025,0.110
8.210,-0.140,0.100
8.212,-0.110,0.095
8.214,-0.075,0.085
8.216,0.025,0.075
8.218,0.025,0.065
8.220,0.155,0.060
8.222,0.200,0.050
8.224,0.125,0.040
8.226,-0.005,0.030
8.228,-0.090,0.020
8.230,-0.235,0.010
8.232,-0.220,0.000
8.234,-0.140,-0.005
8.236,-0.080,-0.010
8.238,-0.030,-0.015
8.240,0.105,-0.015
8.242,0.080,-0.010
8.244,0.080,-0.005
8.246,-0.035,0.005
8.248,-0.090,0.010
8.250,-0.210,0.010
8.252,-0.190,0.010
8.254,-0.125,0.005
8.256,-0.020,0.000
8.258,0.005,-0.010
8.260,0.120,-0.020
8.262,0.070,-0.030
8.264,0.005,-0.035
8.266,-0.115,-0.035
8.268,-0.150,-0.035
8.270,-0.230,-0.025
8.272,-0.240,-0.020
8.274,-0.155,-0.010
8.276,-0.045,-0.005
8.278,-0.015,0.005
8.280,0.140,0.005
8.282,0.135,0.005
8.284,0.050,0.000
8.286,-0.065,-0.010
8.288,-0.145,-0.020
8.290,-0.255,-0.035
8.292,-0.275,-0.050
8.294,-0.250,-0.065
8.296,-0.095,-0.075
8.298,-0.045,-0.080
8.300,0.000,-0.080
8.302,0.050,-0.075
8.304,0.000,-0.070
8.306,-0.055,-0.055
8.308,-0.120,-0.045
8.310,-0.185,-0.030
8.312,-0.195,-0.020
8.314,-0.120,-0.015
8.316,-0.060,-0.015
8.318,-0.045,-0.020
8.320,0.050,-0.025
8.322,0.040,-0.035
8.324,0.025,-0.040
8.326,-0.055,-0.045
8.328,-0.150,-0.050
8.330,-0.270,-0.045
8.332,-0.225,-0.040
8.334,-0.150,-0.035
8.336,-0.070,-0.025
8.338,0.040,-0.015
8.340,0.115,-0.010
8.342,0.125,-0.005
8.344,0.090,-0.005
8.346,-0.010,-0.010
8.348,-0.135,-0.020
8.350,-0.255,-0.025
8.352,-0.275,-0.035
8.354,-0.200,-0.040
8.356,-0.105,-0.045
8.358,0.000,-0.045
8.360,0.115,-0.045
8.362,0.140,-0.045
8.364,0.005,-0.045
8.366,-0.050,-0.045
8.368,-0.170,-0.045
8.370,-0.255,-0.045
8.372,-0.270,-0.045
8.374,-0.170,-0.040
8.376,-0.030,-0.035
8.378,0.090,-0.025
8.380,0.165,-0.015
8.382,0.125,-0.005
8.384,0.030,0.010
8.386,-0.020,0.015
8.388,-0.150,0.015
8.390,-0.195,0.015
8.392,-0.205,0.005
8.394,-0.120,-0.010
8.396,-0.035,-0.020
8.398,0.040,-0.030
8.400,0.115,-0.035
8.402,0.085,-0.035
8.404,0.020,-0.030
8.406,-0.025,-0.025
8.408,-0.155,-0.015
8.410,-0.230,-0.005
8.412,-0.255,-0.005
8.414,-0.125,-0.010
8.416,-0.065,-0.020
8.418,0.045,-0.030
8.420,0.100,-0.040
8.422,0.100,-0.045
8.424,0.005,-0.040
8.426,-0.110,-0.035
8.428,-0.240,-0.020
8.430,-0.205,-0.005
8.432,-0.150,0.015
8.434,-0.070,0.025
8.436,0.025,0.030
8.438,0.190,0.025
8.440,0.165,0.020
8.442,0.120,0.005
8.444,-0.020,-0.010
8.446,-0.085,-0.020
8.448,-0.235,-0.025
8.450,-0.225,-0.025
8.452,-0.195,-0.020
8.454,-0.080,-0.015
8.456,0.010,-0.005
8.458,0.160,0.000
8.460,0.170,0.000
8.462,0.095,0.000
8.464,-0.015,-0.005
8.466,-0.100,-0.015
8.468,-0.240,-0.025
8.470,-0.245,-0.035
8.472,-0.205,-0.045
8.474,-0.065,-0.045
8.476,0.000,-0.045
8.478,0.070,-0.035
8.480,0.080,-0.025
8.482,0.085,-0.010
8.484,0.045,0.005
8.486,-0.020,0.020
8.488,-0.165,0.035
8.490,-0.090,0.040
8.492,-0.115,0.035
8.494,-0.060,0.025
8.496,0.025,0.010
8.498,0.155,-0.015
8.500,0.075,-0.035
8.502,-0.035,-0.060
8.504,-0.075,-0.075
8.506,-0.115,-0.085
8.508,-0.260,-0.085
8.510,-0.210,-0.080
8.512,-0.145,-0.070
8.514,-0.060,-0.055
8.516,-0.040,-0.045
8.518,0.070,-0.035
8.520,0.100,-0.035
8.522,0.010,-0.035
8.524,-0.065,-0.040
8.526,-0.065,-0.045
8.528,-0.195,-0.055
8.530,-0.230,-0.055
8.532,-0.195,-0.050
8.534,-0.075,-0.045
8.536,-0.045,-0.030
8.538,0.130,-0.020
8.540,0.190,-0.005
8.542,0.170,0.005
8.544,0.040,0.010
8.546,-0.085,0.015
8.548,-0.245,0.010
8.550,-0.195,0.005
8.552,-0.140,-0.005
8.554,0.015,-0.015
8.556,0.050,-0.030
8.558,0.170,-0.040
8.560,0.080,-0.050
8.562,-0.020,-0.060
8.564,-0.090,-0.070
8.566,-0.135,-0.075
8.568,-0.275,-0.075
8.570,-0.250,-0.075
8.572,-0.165,-0.070
8.574,-0.040,-0.060
8.576,0.035,-0.050
8.578,0.140,-0.035
8.580,0.110,-0.025
8.582,0.045,-0.015
8.584,-0.005,-0.015
8.586,-0.060,-0.015
8.588,-0.200,-0.025
8.590,-0.205,-0.035
8.592,-0.110,-0.055
8.594,-0.095,-0.070
8.596,-0.045,-0.085
8.598,0.050,-0.095
8.600,0.055,-0.095
8.602,-0.040,-0.095
8.604,-0.085,-0.090
8.606,-0.140,-0.080
8.608,-0.235,-0.070
8.610,-0.185,-0.055
8.612,-0.145,-0.045
8.614,-0.050,-0.040
8.616,0.000,-0.030
8.618,0.105,-0.025
8.620,0.145,-0.025
8.622,0.070,-0.025
8.624,-0.020,-0.025
8.626,-0.085,-0.025
8.628,-0.180,-0.030
8.630,-0.230,-0.030
8.632,-0.180,-0.035
8.634,-0.070,-0.040
8.636,0.035,-0.045
8.638,0.170,-0.045
8.640,0.140,-0.045
8.642,0.035,-0.040
8.644,-0.085,-0.035
8.646,-0.125,-0.030
8.648,-0.245,-0.030
8.650,-0.245,-0.030
8.652,-0.110,-0.035
8.654,-0.020,-0.040
8.656,0.040,-0.055
8.658,0.100,-0.065
8.660,0.060,-0.070
8.662,0.000,-0.075
8.664,-0.090,-0.075
8.666,-0.155,-0.065
8.668,-0.185,-0.050
8.670,-0.145,-0.030
8.672,-0.050,-0.015
8.674,0.050,0.005
8.676,0.120,0.015
8.678,0.165,0.015
8.680,0.135,0.015
8.682,0.035,0.010
8.684,-0.030,0.000
8.686,-0.145,-0.010
8.688,-0.155,-0.015
8.690,-0.165,-0.015
8.692,-0.070,-0.015
8.694,0.055,-0.005
8.696,0.205,0.005
8.698,0.200,0.020
8.700,0.135,0.030
8.702,0.005,0.035
8.704,-0.030,0.040
8.706,-0.105,0.035
8.708,-0.155,0.030
8.710,-0.105,0.020
8.712,-0.035,0.005
8.714,0.030,-0.010
8.716,0.120,-0.025
8.718,0.110,-0.040
8.720,0.095,-0.050
8.722,0.025,-0.065
8.724,-0.055,-0.070
8.726,-0.220,-0.070
8.728,-0.250,-0.070
8.730,-0.210,-0.065
8.732,-0.080,-0.055
8.734,0.030,-0.050
8.736,0.165,-0.040
8.738,0.155,-0.040
8.740,0.075,-0.040
8.742,-0.045,-0.040
8.744,-0.120,-0.045
8.746,-0.245,-0.050
8.748,-0.195,-0.050
8.750,-0.150,-0.050
8.752,-0.030,-0.050
8.754,0.000,-0.045
8.756,0.140,-0.040
8.758,0.140,-0.040
8.760,0.100,-0.045
8.762,-0.040,-0.050
8.764,-0.110,-0.060
8.766,-0.240,-0.070
8.768,-0.245,-0.080
8.770,-0.195,-0.090
8.772,-0.070,-0.090
8.774,-0.060,-0.090
8.776,0.080,-0.085
8.778,0.070,-0.070
8.780,0.095,-0.060
8.782,0.030,-0.050
8.784,-0.070,-0.045
8.786,-0.220,-0.040
8.788,-0.205,-0.035
8.790,-0.150,-0.025
8.792,-0.030,-0.020
8.794,0.055,-0.010
8.796,0.235,0.005
8.798,0.250,0.020
8.800,0.180,0.035
8.802,0.045,0.045
8.804,-0.025,0.045
8.806,-0.165,0.045
8.808,-0.145,0.035
8.810,-0.045,0.020
8.812,0.065,0.005
8.814,0.060,-0.010
8.816,0.145,-0.020
8.818,0.165,-0.020
8.820,0.135,-0.010
8.822,0.055,0.005
8.824,-0.005,0.025
8.826,-0.125,0.040
8.828,-0.050,0.055
8.830,-0.035,0.055
8.832,-0.005,0.050
8.834,0.035,0.030
8.836,0.185,0.000
8.838,0.150,-0.030
8.840,0.060,-0.070
8.842,-0.050,-0.100
8.844,-0.125,-0.125
8.846,-0.340,-0.140
8.848,-0.325,-0.145
8.850,-0.225,-0.140
8.852,-0.100,-0.125
8.854,-0.050,-0.100
8.856,0.140,-0.075
8.858,0.150,-0.050
8.860,0.130,-0.030
8.862,0.050,-0.010
8.864,0.020,0.000
8.866,-0.145,0.005
8.868,-0.150,0.005
8.870,-0.080,0.005
8.872,-0.020,0.000
8.874,0.045,-0.005
8.876,0.175,-0.005
8.878,0.185,-0.010
8.880,0.080,-0.010
8.882,0.040,-0.010
8.884,-0.040,-0.005
8.886,-0.110,-0.005
8.888,-0.115,0.000
8.890,-0.065,0.000
8.892,0.000,0.005
8.894,0.085,0.005
8.896,0.205,0.005
8.898,0.185,0.005
8.900,0.100,0.005
8.902,0.010,0.000
8.904,-0.090,-0.005
8.906,-0.180,-0.010
8.908,-0.160,-0.010
8.910,-0.070,-0.015
8.912,0.040,-0.010
8.914,0.155,-0.005
8.916,0.240,0.005
8.918,0.190,0.015
8.920,0.080,0.020
8.922,0.025,0.030
8.924,-0.010,0.035
8.926,-0.110,0.035
8.928,-0.125,0.030
8.930,-0.075,0.025
8.932,0.020,0.015
8.934,0.115,0.010
8.936,0.235,0.010
8.938,0.190,0.015
8.940,0.100,0.025
8.942,0.070,0.035
8.944,0.015,0.045
8.946,-0.085,0.055
8.948,-0.095,0.060
8.950,0.020,0.060
8.952,0.110,0.055
8.954,0.120,0.045
8.956,0.205,0.035
8.958,0.220,0.020
8.960,0.135,0.015
8.962,0.070,0.015
8.964,-0.045,0.015
8.966,-0.095,0.025
8.968,-0.090,0.035
8.970,0.015,0.045
8.972,0.085,0.055
8.974,0.150,0.055
8.976,0.240,0.055
8.978,0.230,0.055
8.980,0.155,0.050
8.982,0.090,0.050
8.984,-0.025,0.050
8.986,-0.115,0.050
8.988,-0.095,0.055
8.990,0.040,0.060
8.992,0.175,0.070
8.994,0.245,0.075
8.996,0.280,0.080
8.998,0.225,0.080
9.000,0.135,0.085
9.002,0.065,0.085
9.004,-0.060,0.085
9.006,-0.025,0.090
9.008,0.050,0.100
9.010,0.135,0.105
9.012,0.200,0.115
9.014,0.340,0.130
9.016,0.385,0.140
9.018,0.285,0.145
9.020,0.200,0.155
9.022,0.140,0.160
9.024,0.020,0.165
9.026,0.055,0.170
9.028,0.095,0.170
9.030,0.215,0.165
9.032,0.260,0.165
9.034,0.350,0.160
9.036,0.340,0.155
9.038,0.300,0.155
9.040,0.225,0.155
9.042,0.155,0.160
9.044,0.060,0.170
9.046,0.095,0.180
9.048,0.145,0.195
9.050,0.210,0.205
9.052,0.260,0.215
9.054,0.395,0.220
9.056,0.405,0.220
9.058,0.370,0.215
9.060,0.255,0.210
9.062,0.200,0.200
9.064,0.045,0.190
9.066,0.125,0.190
9.068,0.140,0.185
9.070,0.185,0.190
9.072,0.215,0.190
9.074,0.380,0.190
9.076,0.370,0.190
9.078,0.320,0.185
9.080,0.225,0.180
9.082,0.170,0.170
9.084,0.065,0.160
9.086,0.075,0.155
9.088,0.095,0.145
9.090,0.170,0.140
9.092,0.210,0.135
9.094,0.335,0.125
9.096,0.280,0.110
9.098,0.210,0.095
9.100,0.110,0.075
9.102,0.070,0.055
9.104,-0.110,0.035
9.106,-0.105,0.020
9.108,-0.015,0.015
9.110,0.075,0.015
9.112,0.090,0.020
9.114,0.275,0.025
9.116,0.270,0.030
9.118,0.165,0.035
9.120,0.080,0.030
9.122,0.045,0.020
9.124,-0.145,0.010
9.126,-0.145,0.000
9.128,-0.080,-0.010
9.130,0.060,-0.020
9.132,0.125,-0.020
9.134,0.210,-0.015
9.136,0.215,-0.005
9.138,0.135,0.005
9.140,0.045,0.015
9.142,0.040,0.020
9.144,-0.100,0.025
9.146,-0.060,0.025
9.148,-0.020,0.025
9.150,0.060,0.020
9.152,0.115,0.015
9.154,0.240,0.005
9.156,0.180,-0.005
9.158,0.135,-0.015
9.160,0.035,-0.025
9.162,-0.035,-0.040
9.164,-0.175,-0.050
9.166,-0.175,-0.055
9.168,-0.100,-0.060
9.170,0.020,-0.060
9.172,0.090,-0.050
9.174,0.205,-0.040
9.176,0.205,-0.025
9.178,0.100,-0.010
9.180,0.000,0.005
9.182,-0.010,0.015
9.184,-0.070,0.020
9.186,-0.085,0.020
9.188,-0.045,0.015
9.190,0.035,0.000
9.192,0.105,-0.015
9.194,0.185,-0.030
9.196,0.170,-0.040
9.198,0.075,-0.050
9.200,-0.015,-0.055
9.202,-0.045,-0.055
9.204,-0.135,-0.055
9.206,-0.125,-0.050
9.208,-0.090,-0.045
9.210,-0.040,-0.040
9.212,0.050,-0.035
9.214,0.215,-0.030
9.216,0.245,-0.030
9.218,0.115,-0.025
9.220,0.020,-0.025
9.222,-0.035,-0.020
9.224,-0.090,-0.015
9.226,-0.090,-0.005
9.228,-0.020,0.000
9.230,0.095,0.005
9.232,0.210,0.010
9.234,0.250,0.010
9.236,0.165,0.010
9.238,0.090,0.010
9.240,0.030,0.005
9.242,-0.060,0.000
9.244,-0.095,-0.005
9.246,-0.080,-0.010
9.248,0.015,-0.015
9.250,0.065,-0.015
9.252,0.175,-0.015
9.254,0.185,-0.015
9.256,0.145,-0.015
9.258,0.090,-0.015
9.260,0.040,-0.010
9.262,-0.070,-0.010
9.264,-0.090,-0.010
9.266,-0.075,-0.015
9.268,0.025,-0.015
9.270,0.065,-0.010
9.272,0.160,-0.010
9.274,0.225,-0.010
9.276,0.185,-0.015
9.278,0.070,-0.015
9.280,0.030,-0.020
9.282,-0.120,-0.025
9.284,-0.160,-0.030
9.286,-0.110,-0.035
9.288,0.025,-0.035
9.290,0.085,-0.035
9.292,0.185,-0.025
9.294,0.230,-0.020
9.296,0.215,-0.010
9.298,0.090,0.000
9.300,0.045,0.005
9.302,-0.095,0.005
9.304,-0.095,-0.005
9.306,-0.080,-0.015
9.308,0.010,-0.030
9.310,0.040,-0.040
9.312,0.125,-0.050
9.314,0.150,-0.050
9.316,0.135,-0.045
9.318,0.045,-0.025
9.320,0.085,-0.005
9.322,-0.050,0.015
9.324,-0.040,0.035
9.326,-0.010,0.045
9.328,0.065,0.045
9.330,0.100,0.035
9.332,0.215,0.015
9.334,0.175,-0.005
9.336,0.155,-0.030
9.338,0.105,-0.045
9.340,0.040,-0.050
9.342,-0.110,-0.045
9.344,-0.110,-0.030
9.346,-0.100,-0.015
9.348,0.005,0.000
9.350,0.080,0.010
9.352,0.260,0.010
9.354,0.215,0.005
9.356,0.180,-0.010
9.358,0.065,-0.030
9.360,0.025,-0.045
9.362,-0.160,-0.055
9.364,-0.155,-0.055
9.366,-0.070,-0.050
9.368,0.030,-0.035
9.370,0.100,-0.025
9.372,0.215,-0.015
9.374,0.170,-0.010
9.376,0.200,-0.015
9.378,0.105,-0.025
9.380,0.025,-0.040
9.382,-0.180,-0.050
9.384,-0.180,-0.060
9.386,-0.095,-0.060
9.388,0.025,-0.050
9.390,0.085,-0.040
9.392,0.245,-0.025
9.394,0.300,-0.015
9.396,0.175,-0.005
9.398,0.030,-0.010
9.400,-0.040,-0.015
9.402,-0.145,-0.025
9.404,-0.105,-0.040
9.406,-0.075,-0.050
9.408,0.030,-0.050
9.410,0.055,-0.045
9.412,0.230,-0.040
9.414,0.225,-0.030
9.416,0.205,-0.020
9.418,0.130,-0.015
9.420,0.070,-0.010
9.422,-0.155,-0.015
9.424,-0.145,-0.020
9.426,-0.065,-0.025
9.428,0.040,-0.025
9.430,0.165,-0.025
9.432,0.295,-0.020
9.434,0.265,-0.015
9.436,0.125,-0.010
9.438,0.035,-0.010
9.440,0.005,-0.010
9.442,-0.120,-0.015
9.444,-0.120,-0.025
9.446,-0.085,-0.040
9.448,-0.010,-0.050
9.450,0.060,-0.055
9.452,0.175,-0.060
9.454,0.230,-0.055
9.456,0.155,-0.045
9.458,0.060,-0.035
9.460,-0.020,-0.020
9.462,-0.070,-0.010
9.464,-0.080,-0.005
9.466,-0.035,-0.005
9.468,0.090,-0.010
9.470,0.140,-0.020
9.472,0.205,-0.025
9.474,0.185,-0.035
9.476,0.125,-0.035
9.478,0.030,-0.035
9.480,-0.055,-0.025
9.482,-0.160,-0.015
9.484,-0.050,0.000
9.486,0.085,0.015
9.488,0.175,0.030
9.490,0.215,0.035
9.492,0.260,0.040
9.494,0.210,0.040
9.496,0.135,0.035
9.498,0.115,0.025
9.500,0.015,0.015
9.502,-0.085,0.005
9.504,-0.050,0.000
9.506,0.020,-0.010
9.508,0.070,-0.010
9.510,0.130,-0.010
9.512,0.215,-0.010
9.514,0.190,-0.010
9.516,0.110,-0.010
9.518,0.085,-0.010
9.520,0.025,-0.010
9.522,-0.050,-0.010
9.524,-0.085,-0.015
9.526,-0.005,-0.020
9.528,0.030,-0.025
9.530,0.140,-0.035
9.532,0.230,-0.040
9.534,0.185,-0.045
9.536,0.105,-0.050
9.538,0.010,-0.055
9.540,-0.135,-0.055
9.542,-0.160,-0.055
9.544,-0.105,-0.055
9.546,-0.005,-0.050
9.548,0.055,-0.050
9.550,0.255,-0.045
9.552,0.295,-0.045
9.554,0.135,-0.040
9.556,0.070,-0.040
9.558,0.000,-0.040
9.560,-0.110,-0.035
9.562,-0.100,-0.035
9.564,-0.060,-0.035
9.566,0.000,-0.035
9.568,0.085,-0.035
9.570,0.235,-0.035
9.572,0.205,-0.040
9.574,0.145,-0.040
9.576,0.020,-0.040
9.578,-0.020,-0.040
9.580,-0.090,-0.045
9.582,-0.070,-0.045
9.584,-0.070,-0.055
9.586,0.000,-0.060
9.588,0.005,-0.070
9.590,0.140,-0.075
9.592,0.180,-0.075
9.594,0.180,-0.075
9.596,0.080,-0.065
9.598,0.010,-0.050
9.600,-0.110,-0.030
9.602,-0.100,-0.010
9.604,-0.005,0.010
9.606,0.120,0.025
9.608,0.170,0.035
9.610,0.300,0.045
9.612,0.300,0.045
9.614,0.270,0.045
9.616,0.130,0.045
9.618,0.095,0.050
9.620,-0.015,0.055
9.622,0.020,0.065
9.624,0.040,0.070
9.626,0.140,0.075
9.628,0.210,0.070
9.630,0.345,0.060
9.632,0.300,0.040
9.634,0.180,0.010
9.636,0.080,-0.025
9.638,-0.055,-0.060
9.640,-0.195,-0.095
9.642,-0.195,-0.120
9.644,-0.130,-0.135
9.646,-0.090,-0.145
9.648,-0.035,-0.145
9.650,0.170,-0.135
9.652,0.140,-0.130
9.654,0.100,-0.120
9.656,0.010,-0.110
9.658,-0.050,-0.100
9.660,-0.175,-0.090
9.662,-0.150,-0.080
9.664,-0.080,-0.070
9.666,0.080,-0.060
9.668,0.105,-0.055
9.670,0.215,-0.045
9.672,0.210,-0.040
9.674,0.130,-0.040
9.676,0.035,-0.045
9.678,0.020,-0.050
9.680,-0.135,-0.055
9.682,-0.115,-0.060
9.684,-0.055,-0.065
9.686,0.065,-0.065
9.688,0.075,-0.060
9.690,0.200,-0.055
9.692,0.185,-0.050
9.694,0.120,-0.045
9.696,0.010,-0.040
9.698,-0.015,-0.035
9.700,-0.095,-0.035
9.702,-0.070,-0.030
9.704,0.030,-0.025
9.706,0.110,-0.020
9.708,0.120,-0.010
9.710,0.260,0.000
9.712,0.265,0.005
9.714,0.175,0.015
9.716,0.105,0.020
9.718,0.110,0.015
9.720,-0.045,0.010
9.722,-0.100,0.000
9.724,-0.065,-0.010
9.726,0.120,-0.020
9.728,0.165,-0.030
9.730,0.240,-0.035
9.732,0.180,-0.035
9.734,0.115,-0.030
9.736,0.030,-0.025
9.738,0.050,-0.020
9.740,-0.035,-0.015
9.742,-0.090,-0.015
9.744,0.010,-0.015
9.746,0.115,-0.020
9.748,0.155,-0.025
9.750,0.220,-0.030
9.752,0.240,-0.040
9.754,0.135,-0.050
9.756,0.005,-0.055
9.758,-0.090,-0.060
9.760,-0.170,-0.060
9.762,-0.105,-0.060
9.764,-0.020,-0.050
9.766,0.080,-0.040
9.768,0.190,-0.025
9.770,0.285,0.000
9.772,0.325,0.020
9.774,0.275,0.040
9.776,0.175,0.055
9.778,0.095,0.070
9.780,0.000,0.075
9.782,-0.035,0.070
9.784,0.055,0.065
9.786,0.160,0.050
9.788,0.215,0.040
9.790,0.270,0.030
9.792,0.270,0.030
9.794,0.190,0.030
9.796,0.135,0.035
9.798,0.090,0.045
9.800,0.065,0.060
9.802,0.050,0.070
9.804,0.125,0.075
9.806,0.160,0.080
9.808,0.205,0.075
9.810,0.300,0.070
9.812,0.340,0.065
9.814,0.255,0.065
9.816,0.170,0.065
9.818,0.060,0.070
9.820,0.045,0.080
9.822,0.040,0.095
9.824,0.120,0.110
9.826,0.250,0.125
9.828,0.340,0.135
9.830,0.435,0.140
9.832,0.420,0.145
9.834,0.300,0.140
9.836,0.210,0.135
9.838,0.085,0.130
9.840,0.080,0.120
9.842,0.105,0.115
9.844,0.205,0.110
9.846,0.240,0.110
9.848,0.330,0.115
9.850,0.395,0.115
9.852,0.375,0.120
9.854,0.330,0.130
9.856,0.265,0.140
9.858,0.105,0.150
9.860,0.100,0.160
9.862,0.160,0.175
9.864,0.275,0.190
9.866,0.335,0.205
9.868,0.445,0.210
9.870,0.460,0.215
9.872,0.430,0.210
9.874,0.350,0.195
9.876,0.265,0.175
9.878,0.140,0.155
9.880,0.080,0.130
9.882,0.040,0.105
9.884,0.120,0.085
9.886,0.205,0.070
9.888,0.310,0.065
9.890,0.325,0.060
9.892,0.320,0.060
9.894,0.230,0.060
9.896,0.155,0.065
9.898,0.010,0.065
9.900,0.015,0.060
9.902,0.060,0.055
9.904,0.140,0.050
9.906,0.125,0.045
9.908,0.275,0.040
9.910,0.330,0.035
9.912,0.300,0.030
9.914,0.185,0.030
9.916,0.075,0.025
9.918,-0.095,0.015
9.920,-0.035,0.010
9.922,0.020,0.000
9.924,0.095,-0.010
9.926,0.080,-0.020
9.928,0.250,-0.025
9.930,0.235,-0.035
9.932,0.195,-0.040
9.934,0.085,-0.040
9.936,0.065,-0.040
9.938,-0.090,-0.040
9.940,-0.090,-0.035
9.942,-0.020,-0.035
9.944,0.030,-0.030
9.946,0.105,-0.025
9.948,0.280,-0.025
9.950,0.245,-0.030
9.952,0.150,-0.035
9.954,0.050,-0.040
9.956,0.020,-0.050
9.958,-0.110,-0.060
9.960,-0.125,-0.070
9.962,-0.065,-0.075
9.964,0.050,-0.075
9.966,0.080,-0.065
9.968,0.235,-0.050
9.970,0.270,-0.035
9.972,0.210,-0.015
9.974,0.095,0.005
9.976,0.060,0.010
9.978,-0.065,0.010
9.980,0.015,0.005
9.982,0.010,-0.015
9.984,0.035,-0.035
9.986,0.055,-0.055
9.988,0.185,-0.070
9.990,0.215,-0.075
9.992,0.220,-0.065
9.994,0.140,-0.050
9.996,0.030,-0.030
9.998,-0.065,-0.010
