'Elapsed time','ECG I','ECG I filtered'
'seconds','mV','mV'
0.000,0.265,0.115
0.002,0.250,0.115
0.004,0.230,0.120
0.006,0.240,0.120
0.008,0.245,0.125
0.010,0.285,0.130
0.012,0.315,0.135
0.014,0.355,0.140
0.016,0.335,0.140
0.018,0.300,0.140
0.020,0.270,0.140
0.022,0.230,0.135
0.024,0.215,0.130
0.026,0.225,0.125
0.028,0.210,0.125
0.030,0.290,0.125
0.032,0.330,0.120
0.034,0.335,0.120
0.036,0.315,0.120
0.038,0.255,0.115
0.040,0.200,0.110
0.042,0.135,0.095
0.044,0.125,0.085
0.046,0.120,0.065
0.048,0.175,0.050
0.050,0.215,0.030
0.052,0.210,0.015
0.054,0.185,0.000
0.056,0.175,-0.015
0.058,0.170,-0.030
0.060,0.065,-0.040
0.062,0.035,-0.050
0.064,0.025,-0.055
0.066,0.005,-0.060
0.068,0.040,-0.065
0.070,0.085,-0.065
0.072,0.105,-0.065
0.074,0.130,-0.070
0.076,0.110,-0.070
0.078,0.065,-0.070
0.080,0.035,-0.075
0.082,0.000,-0.075
0.084,-0.045,-0.085
0.086,-0.010,-0.090
0.088,0.030,-0.100
0.090,0.050,-0.105
0.092,0.025,-0.115
0.094,0.055,-0.120
0.096,0.025,-0.130
0.098,0.025,-0.135
0.100,-0.025,-0.135
0.102,-0.070,-0.140
0.104,-0.065,-0.140
0.106,-0.030,-0.140
0.108,-0.045,-0.140
0.110,0.005,-0.140
0.112,0.030,-0.140
0.114,0.055,-0.135
0.116,0.025,-0.135
0.118,0.000,-0.135
0.120,-0.015,-0.130
0.122,-0.015,-0.130
0.124,-0.055,-0.130
0.126,-0.040,-0.125
0.128,-0.035,-0.125
0.130,0.030,-0.125
0.132,0.055,-0.120
0.134,0.055,-0.120
0.136,0.045,-0.115
0.138,0.020,-0.115
0.140,-0.040,-0.115
0.142,-0.080,-0.115
0.144,-0.090,-0.120
0.146,-0.075,-0.120
0.148,-0.030,-0.125
0.150,0.040,-0.130
0.152,0.060,-0.135
0.154,0.080,-0.135
0.156,0.075,-0.130
0.158,0.005,-0.130
0.160,-0.050,-0.125
0.162,-0.070,-0.120
0.164,-0.055,-0.115
0.166,-0.055,-0.110
0.168,0.000,-0.110
0.170,0.030,-0.110
0.172,0.035,-0.115
0.174,0.065,-0.115
0.176,0.060,-0.115
0.178,0.010,-0.115
0.180,-0.035,-0.115
0.182,-0.095,-0.110
0.184,-0.060,-0.105
0.186,-0.030,-0.100
0.188,0.000,-0.100
0.190,0.060,-0.100
0.192,0.065,-0.100
0.194,0.065,-0.105
0.196,0.045,-0.110
0.198,0.020,-0.110
0.200,-0.040,-0.110
0.202,-0.050,-0.105
0.204,-0.050,-0.100
0.206,0.005,-0.095
0.208,0.015,-0.090
0.210,0.060,-0.085
0.212,0.075,-0.085
0.214,0.085,-0.085
0.216,0.050,-0.090
0.218,-0.030,-0.095
0.220,-0.045,-0.100
0.222,-0.045,-0.105
0.224,-0.050,-0.105
0.226,-0.050,-0.110
0.228,0.010,-0.110
0.230,0.045,-0.110
0.232,0.070,-0.110
0.234,0.085,-0.105
0.236,0.045,-0.105
0.238,0.000,-0.105
0.240,-0.030,-0.100
0.242,-0.045,-0.100
0.244,-0.060,-0.100
0.246,-0.055,-0.095
0.248,-0.025,-0.095
0.250,0.015,-0.100
0.252,0.040,-0.100
0.254,0.065,-0.105
0.256,0.040,-0.110
0.258,-0.020,-0.115
0.260,-0.075,-0.115
0.262,-0.085,-0.120
0.264,-0.075,-0.115
0.266,-0.040,-0.115
0.268,0.000,-0.110
0.270,0.025,-0.110
0.272,0.025,-0.105
0.274,0.035,-0.105
0.276,0.040,-0.105
0.278,-0.020,-0.105
0.280,-0.080,-0.105
0.282,-0.065,-0.105
0.284,-0.060,-0.105
0.286,-0.030,-0.105
0.288,-0.005,-0.100
0.290,0.045,-0.095
0.292,0.095,-0.090
0.294,0.060,-0.085
0.296,0.045,-0.080
0.298,0.015,-0.075
0.300,-0.025,-0.075
0.302,-0.030,-0.075
0.304,0.010,-0.075
0.306,-0.040,-0.080
0.308,0.020,-0.080
0.310,0.040,-0.080
0.312,0.065,-0.080
0.314,0.035,-0.075
0.316,0.045,-0.070
0.318,0.045,-0.065
0.320,0.035,-0.060
0.322,0.000,-0.055
0.324,-0.025,-0.050
0.326,0.010,-0.045
0.328,0.040,-0.040
0.330,0.090,-0.040
0.332,0.100,-0.045
0.334,0.095,-0.045
0.336,0.040,-0.045
0.338,0.010,-0.045
0.340,0.020,-0.040
0.342,0.000,-0.035
0.344,0.025,-0.030
0.346,0.075,-0.025
0.348,0.085,-0.020
0.350,0.095,-0.015
0.352,0.115,-0.015
0.354,0.085,-0.020
0.356,0.045,-0.030
0.358,-0.010,-0.045
0.360,-0.040,-0.060
0.362,-0.080,-0.080
0.364,-0.075,-0.095
0.366,-0.030,-0.105
0.368,-0.010,-0.115
0.370,0.010,-0.115
0.372,0.000,-0.115
0.374,0.010,-0.115
0.376,0.000,-0.110
0.378,-0.015,-0.105
0.380,-0.070,-0.100
0.382,-0.085,-0.100
0.384,-0.045,-0.100
0.386,-0.045,-0.100
0.388,-0.020,-0.105
0.390,-0.010,-0.110
0.392,0.040,-0.110
0.394,0.040,-0.115
0.396,-0.005,-0.115
0.398,-0.080,-0.115
0.400,-0.100,-0.115
0.402,-0.075,-0.115
0.404,-0.050,-0.110
0.406,-0.045,-0.110
0.408,-0.005,-0.110
0.410,0.015,-0.110
0.412,0.020,-0.110
0.414,0.010,-0.110
0.416,0.010,-0.115
0.418,-0.050,-0.115
0.420,-0.115,-0.120
0.422,-0.105,-0.125
0.424,-0.090,-0.125
0.426,-0.050,-0.125
0.428,-0.005,-0.125
0.430,0.020,-0.125
0.432,0.000,-0.120
0.434,0.005,-0.115
0.436,-0.030,-0.115
0.438,-0.090,-0.110
0.440,-0.115,-0.110
0.442,-0.095,-0.115
0.444,-0.090,-0.120
0.446,-0.070,-0.125
0.448,-0.040,-0.130
0.450,-0.025,-0.135
0.452,-0.010,-0.140
0.454,-0.040,-0.140
0.456,-0.090,-0.140
0.458,-0.150,-0.135
0.460,-0.095,-0.120
0.462,-0.095,-0.100
0.464,-0.015,-0.060
0.466,0.065,-0.010
0.468,0.195,0.055
0.470,0.260,0.135
0.472,0.370,0.225
0.474,0.435,0.330
0.476,0.530,0.430
0.478,0.575,0.530
0.480,0.700,0.610
0.482,0.750,0.670
0.484,0.790,0.700
0.486,0.750,0.695
0.488,0.745,0.650
0.490,0.695,0.580
0.492,0.585,0.480
0.494,0.450,0.360
0.496,0.315,0.240
0.498,0.130,0.120
0.500,-0.040,0.010
0.502,-0.140,-0.080
0.504,-0.150,-0.140
0.506,-0.130,-0.180
0.508,-0.100,-0.200
0.510,-0.060,-0.195
0.512,-0.030,-0.180
0.514,-0.015,-0.155
0.516,-0.010,-0.130
0.518,-0.040,-0.100
0.520,-0.050,-0.080
0.522,-0.075,-0.065
0.524,-0.040,-0.060
0.526,-0.020,-0.055
0.528,0.005,-0.060
0.530,0.040,-0.065
0.532,0.050,-0.070
0.534,0.025,-0.075
0.536,-0.005,-0.075
0.538,-0.065,-0.075
0.540,-0.045,-0.070
0.542,-0.040,-0.065
0.544,-0.050,-0.060
0.546,0.015,-0.060
0.548,0.090,-0.055
0.550,0.060,-0.055
0.552,0.035,-0.055
0.554,0.030,-0.060
0.556,0.010,-0.065
0.558,-0.055,-0.070
0.560,-0.050,-0.070
0.562,-0.045,-0.070
0.564,-0.010,-0.070
0.566,0.045,-0.065
0.568,0.075,-0.060
0.570,0.100,-0.050
0.572,0.095,-0.040
0.574,0.035,-0.035
0.576,-0.010,-0.030
0.578,0.005,-0.025
0.580,-0.015,-0.025
0.582,-0.035,-0.025
0.584,0.005,-0.025
0.586,0.020,-0.030
0.588,0.055,-0.035
0.590,0.110,-0.040
0.592,0.070,-0.045
0.594,0.045,-0.045
0.596,0.000,-0.045
0.598,-0.035,-0.040
0.600,-0.030,-0.035
0.602,-0.030,-0.025
0.604,0.050,-0.020
0.606,0.075,-0.010
0.608,0.075,-0.005
0.610,0.080,0.000
0.612,0.100,0.000
0.614,0.095,0.000
0.616,0.045,0.000
0.618,0.005,0.000
0.620,-0.010,-0.005
0.622,0.015,-0.005
0.624,0.055,-0.005
0.626,0.100,0.000
0.628,0.120,0.000
0.630,0.135,0.005
0.632,0.065,0.015
0.634,0.095,0.025
0.636,0.085,0.030
0.638,0.055,0.040
0.640,0.040,0.045
0.642,0.080,0.055
0.644,0.090,0.060
0.646,0.145,0.065
0.648,0.145,0.065
0.650,0.190,0.065
0.652,0.175,0.065
0.654,0.150,0.070
0.656,0.090,0.070
0.658,0.100,0.070
0.660,0.075,0.075
0.662,0.095,0.080
0.664,0.140,0.090
0.666,0.185,0.095
0.668,0.205,0.105
0.670,0.245,0.115
0.672,0.225,0.125
0.674,0.205,0.130
0.676,0.185,0.140
0.678,0.140,0.145
0.680,0.165,0.150
0.682,0.180,0.160
0.684,0.190,0.165
0.686,0.260,0.170
0.688,0.270,0.175
0.690,0.310,0.175
0.692,0.295,0.180
0.694,0.270,0.185
0.696,0.215,0.185
0.698,0.210,0.185
0.700,0.175,0.190
0.702,0.195,0.190
0.704,0.215,0.190
0.706,0.255,0.190
0.708,0.270,0.190
0.710,0.315,0.195
0.712,0.335,0.195
0.714,0.280,0.195
0.716,0.225,0.195
0.718,0.200,0.200
0.720,0.195,0.200
0.722,0.190,0.195
0.724,0.225,0.195
0.726,0.255,0.185
0.728,0.280,0.175
0.730,0.260,0.165
0.732,0.200,0.150
0.734,0.165,0.135
0.736,0.130,0.125
0.738,0.085,0.110
0.740,0.080,0.095
0.742,0.090,0.085
0.744,0.100,0.075
0.746,0.115,0.065
0.748,0.135,0.055
0.750,0.160,0.040
0.752,0.120,0.030
0.754,0.065,0.015
0.756,0.015,0.005
0.758,-0.030,-0.005
0.760,-0.035,-0.015
0.762,-0.010,-0.020
0.764,0.020,-0.025
0.766,0.080,-0.025
0.768,0.125,-0.025
0.770,0.085,-0.025
0.772,0.040,-0.025
0.774,0.030,-0.030
0.776,-0.015,-0.030
0.778,-0.060,-0.035
0.780,-0.035,-0.040
0.782,-0.060,-0.045
0.784,-0.025,-0.050
0.786,0.040,-0.050
0.788,0.065,-0.050
0.790,0.020,-0.050
0.792,0.045,-0.050
0.794,0.005,-0.050
0.796,-0.050,-0.050
0.798,-0.070,-0.055
0.800,-0.070,-0.060
0.802,-0.040,-0.065
0.804,-0.030,-0.075
0.806,0.015,-0.080
0.808,0.015,-0.080
0.810,0.035,-0.080
0.812,0.025,-0.075
0.814,-0.020,-0.070
0.816,-0.045,-0.065
0.818,-0.075,-0.060
0.820,-0.090,-0.055
0.822,-0.040,-0.050
0.824,-0.030,-0.055
0.826,-0.005,-0.055
0.828,0.060,-0.060
0.830,0.020,-0.065
0.832,0.035,-0.070
0.834,0.010,-0.075
0.836,-0.035,-0.075
0.838,-0.065,-0.070
0.840,-0.070,-0.065
0.842,-0.045,-0.060
0.844,-0.010,-0.050
0.846,0.075,-0.045
0.848,0.065,-0.035
0.850,0.050,-0.035
0.852,0.040,-0.035
0.854,0.040,-0.035
0.856,-0.055,-0.045
0.858,-0.080,-0.050
0.860,-0.060,-0.060
0.862,-0.020,-0.065
0.864,-0.040,-0.070
0.866,0.020,-0.070
0.868,0.065,-0.070
0.870,0.030,-0.065
0.872,0.035,-0.060
0.874,-0.010,-0.055
0.876,-0.035,-0.055
0.878,-0.020,-0.050
0.880,-0.075,-0.050
0.882,-0.040,-0.050
0.884,0.015,-0.055
0.886,0.025,-0.060
0.888,0.040,-0.060
0.890,0.045,-0.065
0.892,0.025,-0.065
0.894,0.005,-0.065
0.896,-0.035,-0.060
0.898,-0.060,-0.060
0.900,-0.060,-0.055
0.902,-0.035,-0.050
0.904,0.020,-0.050
0.906,0.035,-0.045
0.908,0.055,-0.040
0.910,0.090,-0.035
0.912,0.045,-0.030
0.914,0.025,-0.025
0.916,-0.030,-0.025
0.918,-0.050,-0.025
0.920,-0.050,-0.025
0.922,-0.035,-0.030
0.924,-0.005,-0.040
0.926,0.035,-0.050
0.928,0.055,-0.055
0.930,0.000,-0.060
0.932,0.000,-0.060
0.934,-0.005,-0.060
0.936,-0.030,-0.055
0.938,-0.025,-0.045
0.940,-0.040,-0.040
0.942,-0.015,-0.035
0.944,0.005,-0.030
0.946,0.045,-0.030
0.948,0.025,-0.035
0.950,0.030,-0.040
0.952,0.010,-0.050
0.954,-0.050,-0.055
0.956,-0.075,-0.065
0.958,-0.095,-0.065
0.960,-0.070,-0.070
0.962,-0.040,-0.065
0.964,-0.015,-0.065
0.966,0.015,-0.060
0.968,0.060,-0.060
0.970,0.040,-0.055
0.972,0.010,-0.055
0.974,-0.055,-0.060
0.976,-0.080,-0.060
0.978,-0.060,-0.060
0.980,-0.075,-0.065
0.982,-0.035,-0.065
0.984,-0.005,-0.065
0.986,0.005,-0.060
0.988,0.045,-0.060
0.990,0.050,-0.055
0.992,0.035,-0.055
0.994,0.005,-0.050
0.996,-0.035,-0.050
0.998,-0.050,-0.050
1.000,-0.065,-0.045
1.002,-0.050,-0.045
1.004,0.010,-0.045
1.006,0.055,-0.050
1.008,0.060,-0.050
1.010,0.045,-0.050
1.012,-0.015,-0.050
1.014,-0.055,-0.050
1.016,-0.015,-0.050
1.018,-0.070,-0.045
1.020,-0.040,-0.040
1.022,0.020,-0.030
1.024,0.075,-0.020
1.026,0.085,-0.010
1.028,0.075,-0.005
1.030,0.085,0.005
1.032,0.085,0.005
1.034,0.000,0.010
1.036,-0.035,0.005
1.038,0.000,0.000
1.040,0.000,-0.005
1.042,-0.020,-0.010
1.044,0.055,-0.015
1.046,0.095,-0.015
1.048,0.105,-0.020
1.050,0.080,-0.015
1.052,0.040,-0.015
1.054,0.000,-0.015
1.056,-0.040,-0.015
1.058,-0.060,-0.015
1.060,-0.050,-0.020
1.062,-0.030,-0.030
1.064,-0.010,-0.040
1.066,0.025,-0.055
1.068,0.020,-0.065
1.070,0.020,-0.080
1.072,-0.025,-0.085
1.074,-0.100,-0.090
1.076,-0.090,-0.095
1.078,-0.085,-0.095
1.080,-0.065,-0.095
1.082,-0.060,-0.095
1.084,-0.025,-0.090
1.086,0.010,-0.090
1.088,-0.010,-0.095
1.090,-0.005,-0.095
1.092,-0.030,-0.100
1.094,-0.100,-0.100
1.096,-0.145,-0.105
1.098,-0.105,-0.105
1.100,-0.085,-0.105
1.102,-0.085,-0.105
1.104,-0.025,-0.100
1.106,0.020,-0.095
1.108,0.015,-0.090
1.110,0.005,-0.080
1.112,-0.040,-0.075
1.114,-0.095,-0.065
1.116,-0.055,-0.060
1.118,-0.090,-0.060
1.120,-0.090,-0.065
1.122,-0.090,-0.070
1.124,0.000,-0.075
1.126,0.060,-0.085
1.128,0.030,-0.090
1.130,-0.010,-0.095
1.132,-0.035,-0.100
1.134,-0.085,-0.100
1.136,-0.130,-0.095
1.138,-0.130,-0.090
1.140,-0.085,-0.090
1.142,-0.060,-0.090
1.144,-0.020,-0.090
1.146,0.010,-0.100
1.148,-0.010,-0.110
1.150,-0.045,-0.115
1.152,-0.110,-0.125
1.154,-0.140,-0.130
1.156,-0.135,-0.130
1.158,-0.120,-0.120
1.160,-0.095,-0.105
1.162,-0.060,-0.080
1.164,0.010,-0.050
1.166,0.150,-0.005
1.168,0.195,0.055
1.170,0.230,0.125
1.172,0.220,0.205
1.174,0.270,0.295
1.176,0.390,0.390
1.178,0.450,0.485
1.180,0.625,0.570
1.182,0.790,0.635
1.184,0.800,0.680
1.186,0.830,0.690
1.188,0.775,0.665
1.190,0.655,0.605
1.192,0.505,0.520
1.194,0.380,0.410
1.196,0.255,0.295
1.198,0.155,0.175
1.200,0.045,0.065
1.202,-0.020,-0.025
1.204,-0.065,-0.095
1.206,-0.075,-0.140
1.208,-0.060,-0.160
1.210,-0.075,-0.160
1.212,-0.100,-0.150
1.214,-0.100,-0.130
1.216,-0.085,-0.105
1.218,-0.075,-0.080
1.220,-0.005,-0.060
1.222,-0.005,-0.045
1.224,0.020,-0.040
1.226,0.060,-0.035
1.228,0.085,-0.035
1.230,0.010,-0.040
1.232,-0.020,-0.045
1.234,-0.045,-0.050
1.236,-0.070,-0.055
1.238,-0.075,-0.060
1.240,-0.060,-0.065
1.242,-0.025,-0.065
1.244,0.040,-0.065
1.246,0.070,-0.065
1.248,0.050,-0.065
1.250,0.020,-0.065
1.252,-0.020,-0.065
1.254,-0.050,-0.060
1.256,-0.070,-0.060
1.258,-0.055,-0.055
1.260,-0.025,-0.055
1.262,0.025,-0.050
1.264,0.035,-0.050
1.266,0.060,-0.045
1.268,0.050,-0.045
1.270,0.020,-0.045
1.272,-0.020,-0.045
1.274,-0.040,-0.040
1.276,-0.055,-0.040
1.278,-0.045,-0.035
1.280,-0.005,-0.035
1.282,0.055,-0.030
1.284,0.065,-0.025
1.286,0.055,-0.020
1.288,0.095,-0.015
1.290,0.065,-0.010
1.292,0.005,-0.010
1.294,-0.050,-0.010
1.296,-0.075,-0.010
1.298,-0.030,-0.010
1.300,-0.005,-0.015
1.302,0.085,-0.015
1.304,0.085,-0.020
1.306,0.095,-0.020
1.308,0.095,-0.015
1.310,0.080,-0.010
1.312,0.040,-0.005
1.314,0.015,0.000
1.316,-0.025,0.010
1.318,-0.015,0.020
1.320,0.050,0.025
1.322,0.085,0.025
1.324,0.090,0.030
1.326,0.100,0.025
1.328,0.110,0.025
1.330,0.105,0.020
1.332,0.055,0.020
1.334,0.000,0.020
1.336,0.005,0.020
1.338,0.035,0.030
1.340,0.075,0.035
1.342,0.095,0.045
1.344,0.155,0.050
1.346,0.135,0.055
1.348,0.145,0.060
1.350,0.140,0.065
1.352,0.080,0.070
1.354,0.085,0.075
1.356,0.060,0.080
1.358,0.055,0.090
1.360,0.125,0.100
1.362,0.170,0.110
1.364,0.195,0.125
1.366,0.275,0.130
1.368,0.240,0.140
1.370,0.170,0.140
1.372,0.135,0.145
1.374,0.150,0.145
1.376,0.140,0.145
1.378,0.155,0.150
1.380,0.200,0.155
1.382,0.255,0.165
1.384,0.290,0.170
1.386,0.290,0.180
1.388,0.265,0.190
1.390,0.265,0.195
1.392,0.195,0.195
1.394,0.165,0.195
1.396,0.180,0.195
1.398,0.235,0.195
1.400,0.240,0.195
1.402,0.285,0.200
1.404,0.280,0.205
1.406,0.300,0.210
1.408,0.325,0.220
1.410,0.265,0.225
1.412,0.225,0.230
1.414,0.180,0.230
1.416,0.195,0.230
1.418,0.200,0.220
1.420,0.230,0.205
1.422,0.260,0.190
1.424,0.280,0.180
1.426,0.285,0.165
1.428,0.220,0.155
1.430,0.145,0.145
1.432,0.130,0.140
1.434,0.135,0.130
1.436,0.120,0.125
1.438,0.125,0.120
1.440,0.160,0.110
1.442,0.155,0.100
1.444,0.175,0.085
1.446,0.180,0.075
1.448,0.105,0.065
1.450,0.075,0.055
1.452,0.045,0.050
1.454,0.045,0.045
1.456,0.020,0.035
1.458,0.030,0.030
1.460,0.050,0.020
1.462,0.095,0.010
1.464,0.085,-0.005
1.466,0.030,-0.020
1.468,-0.005,-0.035
1.470,-0.020,-0.045
1.472,-0.060,-0.055
1.474,-0.050,-0.060
1.476,-0.050,-0.060
1.478,-0.045,-0.055
1.480,0.000,-0.050
1.482,0.025,-0.050
1.484,0.040,-0.045
1.486,0.050,-0.045
1.488,0.015,-0.045
1.490,-0.045,-0.045
1.492,-0.035,-0.050
1.494,-0.075,-0.050
1.496,-0.075,-0.050
1.498,-0.065,-0.050
1.500,0.000,-0.050
1.502,0.005,-0.050
1.504,0.055,-0.055
1.506,0.040,-0.055
1.508,0.010,-0.055
1.510,-0.020,-0.060
1.512,-0.045,-0.060
1.514,-0.085,-0.060
1.516,-0.100,-0.060
1.518,-0.030,-0.060
1.520,0.005,-0.060
1.522,0.000,-0.060
1.524,0.020,-0.060
1.526,0.035,-0.060
1.528,-0.005,-0.060
1.530,-0.040,-0.060
1.532,-0.055,-0.060
1.534,-0.090,-0.065
1.536,-0.075,-0.065
1.538,-0.040,-0.065
1.540,0.020,-0.065
1.542,0.085,-0.060
1.544,0.050,-0.060
1.546,0.030,-0.055
1.548,0.020,-0.055
1.550,-0.025,-0.055
1.552,-0.080,-0.055
1.554,-0.075,-0.055
1.556,-0.070,-0.060
1.558,-0.055,-0.060
1.560,-0.055,-0.065
1.562,-0.005,-0.070
1.564,0.045,-0.070
1.566,0.050,-0.070
1.568,0.005,-0.065
1.570,-0.050,-0.060
1.572,-0.065,-0.055
1.574,-0.070,-0.050
1.576,-0.045,-0.045
1.578,-0.030,-0.045
1.580,0.005,-0.040
1.582,0.040,-0.040
1.584,0.050,-0.040
1.586,0.075,-0.040
1.588,0.055,-0.040
1.590,-0.035,-0.040
1.592,-0.070,-0.040
1.594,-0.055,-0.040
1.596,-0.055,-0.040
1.598,-0.015,-0.040
1.600,0.015,-0.040
1.602,0.020,-0.040
1.604,0.040,-0.040
1.606,0.040,-0.040
1.608,0.060,-0.040
1.610,-0.020,-0.045
1.612,-0.065,-0.045
1.614,-0.055,-0.045
1.616,-0.035,-0.045
1.618,-0.045,-0.050
1.620,-0.030,-0.050
1.622,0.030,-0.055
1.624,0.050,-0.060
1.626,0.045,-0.065
1.628,-0.025,-0.070
1.630,-0.050,-0.075
1.632,-0.065,-0.075
1.634,-0.065,-0.070
1.636,-0.050,-0.065
1.638,-0.045,-0.060
1.640,0.020,-0.055
1.642,0.050,-0.050
1.644,0.065,-0.050
1.646,0.025,-0.050
1.648,0.010,-0.055
1.650,-0.050,-0.060
1.652,-0.070,-0.065
1.654,-0.090,-0.065
1.656,-0.070,-0.065
1.658,-0.025,-0.065
1.660,0.030,-0.060
1.662,0.055,-0.055
1.664,0.050,-0.050
1.666,0.015,-0.050
1.668,0.015,-0.050
1.670,-0.045,-0.055
1.672,-0.065,-0.060
1.674,-0.050,-0.065
1.676,-0.100,-0.075
1.678,-0.025,-0.080
1.680,0.000,-0.080
1.682,-0.010,-0.075
1.684,0.010,-0.070
1.686,0.030,-0.060
1.688,0.005,-0.050
1.690,-0.055,-0.040
1.692,-0.040,-0.035
1.694,-0.050,-0.035
1.696,-0.020,-0.035
1.698,0.005,-0.040
1.700,0.020,-0.045
1.702,0.030,-0.045
1.704,0.060,-0.045
1.706,0.050,-0.045
1.708,0.015,-0.040
1.710,-0.035,-0.035
1.712,-0.025,-0.030
1.714,-0.020,-0.025
1.716,-0.025,-0.020
1.718,-0.020,-0.025
1.720,0.040,-0.025
1.722,0.065,-0.030
1.724,0.040,-0.035
1.726,0.040,-0.035
1.728,0.045,-0.035
1.730,0.010,-0.030
1.732,-0.045,-0.025
1.734,-0.075,-0.020
1.736,-0.010,-0.010
1.738,0.030,-0.005
1.740,0.070,0.000
1.742,0.085,0.000
1.744,0.125,0.000
1.746,0.075,0.000
1.748,0.060,-0.005
1.750,0.000,-0.005
1.752,-0.025,-0.010
1.754,0.000,-0.005
1.756,0.010,-0.005
1.758,0.040,-0.005
1.760,0.065,-0.005
1.762,0.100,-0.005
1.764,0.085,-0.010
1.766,0.035,-0.020
1.768,-0.025,-0.025
1.770,-0.040,-0.035
1.772,-0.050,-0.045
1.774,-0.080,-0.055
1.776,-0.060,-0.060
1.778,-0.005,-0.065
1.780,0.015,-0.065
1.782,0.005,-0.065
1.784,0.040,-0.060
1.786,0.035,-0.060
1.788,0.005,-0.060
1.790,-0.060,-0.060
1.792,-0.080,-0.060
1.794,-0.090,-0.065
1.796,-0.035,-0.065
1.798,0.000,-0.075
1.800,0.010,-0.080
1.802,-0.005,-0.085
1.804,0.005,-0.090
1.806,0.000,-0.095
1.808,-0.065,-0.095
1.810,-0.100,-0.095
1.812,-0.100,-0.095
1.814,-0.120,-0.090
1.816,-0.065,-0.085
1.818,0.000,-0.085
1.820,0.005,-0.085
1.822,0.010,-0.085
1.824,0.025,-0.085
1.826,0.005,-0.090
1.828,-0.060,-0.090
1.830,-0.115,-0.095
1.832,-0.135,-0.100
1.834,-0.090,-0.100
1.836,-0.040,-0.100
1.838,-0.020,-0.095
1.840,0.020,-0.095
1.842,0.010,-0.090
1.844,0.005,-0.090
1.846,-0.010,-0.085
1.848,-0.065,-0.085
1.850,-0.110,-0.090
1.852,-0.110,-0.095
1.854,-0.105,-0.100
1.856,-0.100,-0.105
1.858,-0.050,-0.110
1.860,0.010,-0.120
1.862,0.010,-0.120
1.864,-0.015,-0.120
1.866,-0.105,-0.120
1.868,-0.130,-0.105
1.870,-0.100,-0.085
1.872,-0.045,-0.055
1.874,0.045,-0.010
1.876,0.115,0.045
1.878,0.215,0.120
1.880,0.305,0.210
1.882,0.415,0.305
1.884,0.510,0.410
1.886,0.590,0.515
1.888,0.665,0.605
1.890,0.755,0.680
1.892,0.770,0.725
1.894,0.800,0.735
1.896,0.765,0.710
1.898,0.735,0.650
1.900,0.630,0.560
1.902,0.550,0.450
1.904,0.400,0.325
1.906,0.245,0.200
1.908,0.060,0.085
1.910,-0.090,-0.015
1.912,-0.160,-0.090
1.914,-0.165,-0.140
1.916,-0.130,-0.165
1.918,-0.070,-0.165
1.920,-0.020,-0.155
1.922,0.010,-0.130
1.924,0.015,-0.105
1.926,0.020,-0.080
1.928,-0.015,-0.060
1.930,-0.010,-0.045
1.932,-0.045,-0.035
1.934,-0.045,-0.035
1.936,-0.035,-0.040
1.938,0.020,-0.045
1.940,0.075,-0.055
1.942,0.065,-0.060
1.944,0.060,-0.070
1.946,0.035,-0.075
1.948,-0.050,-0.075
1.950,-0.080,-0.075
1.952,-0.060,-0.070
1.954,-0.050,-0.065
1.956,-0.035,-0.060
1.958,0.025,-0.055
1.960,0.040,-0.055
1.962,0.040,-0.050
1.964,0.020,-0.050
1.966,0.020,-0.050
1.968,-0.050,-0.050
1.970,-0.025,-0.050
1.972,-0.035,-0.050
1.974,-0.015,-0.050
1.976,-0.010,-0.045
1.978,0.055,-0.040
1.980,0.055,-0.040
1.982,0.060,-0.035
1.984,0.065,-0.035
1.986,0.035,-0.035
1.988,-0.040,-0.035
1.990,-0.010,-0.030
1.992,0.000,-0.030
1.994,0.040,-0.030
1.996,0.025,-0.025
1.998,0.040,-0.020
2.000,0.075,-0.015
2.002,0.095,-0.015
2.004,0.080,-0.015
2.006,0.040,-0.015
2.008,-0.020,-0.020
2.010,-0.030,-0.025
2.012,-0.035,-0.030
2.014,-0.015,-0.030
2.016,0.030,-0.030
2.018,0.095,-0.030
2.020,0.090,-0.020
2.022,0.105,-0.010
2.024,0.110,0.000
2.026,0.070,0.010
2.028,0.050,0.015
2.030,0.060,0.020
2.032,0.000,0.025
2.034,0.005,0.020
2.036,0.070,0.015
2.038,0.110,0.010
2.040,0.110,0.010
2.042,0.120,0.005
2.044,0.090,0.010
2.046,0.070,0.015
2.048,0.035,0.025
2.050,0.080,0.035
2.052,0.065,0.045
2.054,0.085,0.055
2.056,0.135,0.065
2.058,0.190,0.070
2.060,0.190,0.075
2.062,0.200,0.075
2.064,0.135,0.080
2.066,0.125,0.080
2.068,0.130,0.090
2.070,0.140,0.095
2.072,0.170,0.105
2.074,0.195,0.120
2.076,0.165,0.130
2.078,0.235,0.140
2.080,0.280,0.150
2.082,0.285,0.160
2.084,0.250,0.165
2.086,0.220,0.170
2.088,0.210,0.175
2.090,0.200,0.175
2.092,0.180,0.175
2.094,0.205,0.180
2.096,0.260,0.185
2.098,0.270,0.190
2.100,0.320,0.200
2.102,0.355,0.205
2.104,0.345,0.215
2.106,0.290,0.225
2.108,0.240,0.235
2.110,0.230,0.240
2.112,0.205,0.245
2.114,0.300,0.245
2.116,0.320,0.245
2.118,0.330,0.240
2.120,0.320,0.235
2.122,0.345,0.225
2.124,0.325,0.215
2.126,0.265,0.205
2.128,0.190,0.195
2.130,0.190,0.190
2.132,0.220,0.180
2.134,0.205,0.175
2.136,0.255,0.170
2.138,0.280,0.170
2.140,0.270,0.165
2.142,0.265,0.155
2.144,0.220,0.150
2.146,0.170,0.135
2.148,0.125,0.125
2.150,0.085,0.105
2.152,0.110,0.090
2.154,0.110,0.075
2.156,0.130,0.060
2.158,0.170,0.050
2.160,0.165,0.040
2.162,0.175,0.035
2.164,0.115,0.025
2.166,0.035,0.020
2.168,0.025,0.010
2.170,-0.025,0.005
2.172,0.015,-0.005
2.174,0.035,-0.015
2.176,0.090,-0.025
2.178,0.075,-0.035
2.180,0.065,-0.040
2.182,0.060,-0.045
2.184,0.055,-0.045
2.186,0.010,-0.045
2.188,-0.040,-0.045
2.190,-0.040,-0.050
2.192,-0.050,-0.050
2.194,-0.040,-0.055
2.196,0.030,-0.060
2.198,0.075,-0.065
2.200,0.005,-0.070
2.202,-0.010,-0.070
2.204,0.055,-0.070
2.206,0.020,-0.070
2.208,-0.030,-0.065
2.210,-0.045,-0.065
2.212,-0.025,-0.060
2.214,-0.015,-0.060
2.216,0.025,-0.060
2.218,0.065,-0.060
2.220,0.055,-0.060
2.222,0.030,-0.055
2.224,0.045,-0.055
2.226,-0.005,-0.055
2.228,-0.060,-0.055
2.230,-0.060,-0.055
2.232,-0.030,-0.055
2.234,-0.020,-0.060
2.236,0.015,-0.065
2.238,0.030,-0.070
2.240,0.055,-0.075
2.242,0.055,-0.075
2.244,0.020,-0.075
2.246,-0.015,-0.075
2.248,-0.060,-0.070
2.250,-0.045,-0.060
2.252,0.010,-0.055
2.254,0.020,-0.050
2.256,0.010,-0.045
2.258,0.025,-0.045
2.260,0.060,-0.050
2.262,0.055,-0.050
2.264,0.000,-0.055
2.266,-0.025,-0.065
2.268,-0.050,-0.070
2.270,-0.045,-0.070
2.272,-0.015,-0.070
2.274,0.000,-0.070
2.276,0.040,-0.065
2.278,0.075,-0.065
2.280,0.070,-0.060
2.282,0.030,-0.055
2.284,0.005,-0.050
2.286,0.010,-0.050
2.288,-0.025,-0.045
2.290,-0.050,-0.050
2.292,-0.015,-0.050
2.294,0.005,-0.055
2.296,0.060,-0.055
2.298,0.095,-0.060
2.300,0.080,-0.060
2.302,0.085,-0.060
2.304,0.005,-0.060
2.306,-0.035,-0.055
2.308,-0.055,-0.055
2.310,-0.050,-0.050
2.312,0.010,-0.045
2.314,0.035,-0.045
2.316,0.085,-0.045
2.318,0.085,-0.045
2.320,0.055,-0.050
2.322,0.035,-0.050
2.324,0.040,-0.055
2.326,-0.020,-0.055
2.328,-0.065,-0.055
2.330,-0.030,-0.055
2.332,-0.020,-0.055
2.334,0.005,-0.055
2.336,0.045,-0.055
2.338,0.085,-0.055
2.340,0.070,-0.055
2.342,0.050,-0.060
2.344,-0.010,-0.060
2.346,-0.055,-0.065
2.348,-0.060,-0.065
2.350,-0.055,-0.065
2.352,-0.020,-0.065
2.354,0.000,-0.065
2.356,0.040,-0.065
2.358,0.050,-0.070
2.360,0.080,-0.070
2.362,0.025,-0.075
2.364,-0.025,-0.080
2.366,-0.055,-0.080
2.368,-0.065,-0.085
2.370,-0.105,-0.085
2.372,-0.095,-0.080
2.374,0.020,-0.080
2.376,0.080,-0.070
2.378,0.090,-0.065
2.380,0.080,-0.060
2.382,0.050,-0.060
2.384,-0.005,-0.060
2.386,-0.050,-0.065
2.388,-0.040,-0.070
2.390,-0.020,-0.075
2.392,-0.035,-0.080
2.394,0.010,-0.085
2.396,0.045,-0.090
2.398,0.045,-0.085
2.400,0.070,-0.085
2.402,0.030,-0.080
2.404,-0.030,-0.080
2.406,-0.055,-0.075
2.408,-0.045,-0.080
2.410,-0.040,-0.085
2.412,-0.060,-0.090
2.414,-0.020,-0.095
2.416,0.035,-0.095
2.418,0.070,-0.095
2.420,0.070,-0.095
2.422,0.035,-0.085
2.424,-0.025,-0.075
2.426,-0.040,-0.065
2.428,-0.045,-0.055
2.430,-0.055,-0.050
2.432,-0.020,-0.045
2.434,0.015,-0.045
2.436,0.055,-0.045
2.438,0.075,-0.050
2.440,0.055,-0.060
2.442,0.045,-0.065
2.444,0.010,-0.070
2.446,-0.020,-0.075
2.448,-0.030,-0.075
2.450,-0.050,-0.075
2.452,-0.015,-0.075
2.454,0.010,-0.070
2.456,0.060,-0.065
2.458,0.125,-0.060
2.460,0.120,-0.055
2.462,0.045,-0.050
2.464,0.000,-0.045
2.466,-0.005,-0.040
2.468,0.000,-0.035
2.470,0.035,-0.035
2.472,0.035,-0.030
2.474,0.065,-0.025
2.476,0.120,-0.020
2.478,0.120,-0.015
2.480,0.110,-0.010
2.482,0.100,-0.005
2.484,0.060,-0.005
2.486,0.045,-0.005
2.488,0.010,-0.005
2.490,0.005,-0.015
2.492,0.035,-0.025
2.494,0.075,-0.035
2.496,0.075,-0.045
2.498,0.055,-0.055
2.500,0.070,-0.065
2.502,0.035,-0.070
2.504,-0.025,-0.070
2.506,-0.065,-0.070
2.508,-0.060,-0.070
2.510,-0.060,-0.070
2.512,-0.035,-0.070
2.514,0.010,-0.075
2.516,0.055,-0.085
2.518,0.075,-0.090
2.520,0.020,-0.100
2.522,-0.010,-0.110
2.524,-0.045,-0.115
2.526,-0.065,-0.115
2.528,-0.075,-0.110
2.530,-0.020,-0.105
2.532,-0.025,-0.095
2.534,0.015,-0.090
2.536,0.025,-0.080
2.538,0.055,-0.080
2.540,0.015,-0.080
2.542,-0.025,-0.080
2.544,-0.065,-0.085
2.546,-0.050,-0.090
2.548,-0.050,-0.095
2.550,-0.035,-0.095
2.552,-0.025,-0.095
2.554,0.010,-0.090
2.556,0.045,-0.090
2.558,0.045,-0.085
2.560,0.010,-0.090
2.562,-0.015,-0.095
2.564,-0.050,-0.100
2.566,-0.060,-0.110
2.568,-0.040,-0.120
2.570,-0.090,-0.125
2.572,-0.045,-0.130
2.574,-0.015,-0.130
2.576,0.020,-0.125
2.578,0.010,-0.120
2.580,0.005,-0.115
2.582,-0.005,-0.110
2.584,-0.075,-0.110
2.586,-0.075,-0.115
2.588,-0.105,-0.120
2.590,-0.070,-0.130
2.592,-0.030,-0.140
2.594,-0.035,-0.145
2.596,-0.005,-0.150
2.598,-0.005,-0.150
2.600,-0.050,-0.140
2.602,-0.050,-0.120
2.604,-0.040,-0.090
2.606,0.000,-0.050
2.608,0.070,0.005
2.610,0.145,0.075
2.612,0.250,0.160
2.614,0.390,0.255
2.616,0.465,0.365
2.618,0.620,0.475
2.620,0.740,0.585
2.622,0.845,0.675
2.624,0.875,0.745
2.626,0.855,0.780
2.628,0.810,0.780
2.630,0.785,0.735
2.632,0.735,0.655
2.634,0.640,0.540
2.636,0.510,0.405
2.638,0.410,0.265
2.640,0.205,0.130
2.642,0.045,0.010
2.644,-0.115,-0.080
2.646,-0.155,-0.140
2.648,-0.150,-0.170
2.650,-0.095,-0.175
2.652,-0.035,-0.160
2.654,0.030,-0.130
2.656,0.080,-0.100
2.658,0.095,-0.070
2.660,0.050,-0.050
2.662,0.035,-0.035
2.664,-0.020,-0.035
2.666,-0.050,-0.040
2.668,-0.015,-0.045
2.670,-0.020,-0.055
2.672,0.015,-0.065
2.674,0.070,-0.070
2.676,0.080,-0.075
2.678,0.070,-0.075
2.680,0.045,-0.075
2.682,0.010,-0.075
2.684,-0.040,-0.070
2.686,-0.050,-0.070
2.688,-0.025,-0.065
2.690,0.005,-0.065
2.692,0.010,-0.060
2.694,0.035,-0.055
2.696,0.075,-0.055
2.698,0.100,-0.050
2.700,0.085,-0.050
2.702,0.045,-0.045
2.704,-0.025,-0.045
2.706,-0.055,-0.045
2.708,-0.030,-0.045
2.710,0.010,-0.045
2.712,0.080,-0.040
2.714,0.110,-0.040
2.716,0.105,-0.035
2.718,0.125,-0.030
2.720,0.115,-0.025
2.722,0.080,-0.025
2.724,0.010,-0.025
2.726,-0.015,-0.025
2.728,0.010,-0.030
2.730,0.065,-0.030
2.732,0.070,-0.035
2.734,0.075,-0.030
2.736,0.060,-0.030
2.738,0.105,-0.025
2.740,0.115,-0.020
2.742,0.075,-0.015
2.744,0.005,-0.010
2.746,0.015,-0.010
2.748,0.025,-0.010
2.750,0.040,-0.010
2.752,0.095,-0.010
2.754,0.115,-0.015
2.756,0.135,-0.010
2.758,0.085,-0.005
2.760,0.120,0.000
2.762,0.080,0.005
2.764,0.070,0.010
2.766,0.080,0.015
2.768,0.060,0.015
2.770,0.060,0.020
2.772,0.110,0.020
2.774,0.150,0.020
2.776,0.175,0.025
2.778,0.155,0.030
2.780,0.165,0.035
2.782,0.120,0.045
2.784,0.120,0.055
2.786,0.095,0.065
2.788,0.095,0.075
2.790,0.150,0.085
2.792,0.190,0.090
2.794,0.210,0.090
2.796,0.245,0.090
2.798,0.220,0.095
2.800,0.185,0.095
2.802,0.155,0.100
2.804,0.175,0.105
2.806,0.155,0.110
2.808,0.130,0.120
2.810,0.170,0.130
2.812,0.270,0.140
2.814,0.295,0.145
2.816,0.325,0.155
2.818,0.320,0.165
2.820,0.270,0.170
2.822,0.240,0.175
2.824,0.205,0.185
2.826,0.210,0.190
2.828,0.255,0.195
2.830,0.270,0.200
2.832,0.340,0.205
2.834,0.340,0.205
2.836,0.350,0.205
2.838,0.355,0.205
2.840,0.310,0.205
2.842,0.250,0.200
2.844,0.230,0.200
2.846,0.220,0.200
2.848,0.275,0.200
2.850,0.280,0.200
2.852,0.315,0.205
2.854,0.365,0.205
2.856,0.400,0.210
2.858,0.360,0.215
2.860,0.325,0.215
2.862,0.290,0.215
2.864,0.225,0.215
2.866,0.195,0.210
2.868,0.220,0.200
2.870,0.260,0.185
2.872,0.280,0.170
2.874,0.305,0.155
2.876,0.245,0.135
2.878,0.240,0.120
2.880,0.230,0.105
2.882,0.160,0.095
2.884,0.140,0.085
2.886,0.120,0.080
2.888,0.125,0.080
2.890,0.130,0.075
2.892,0.185,0.070
2.894,0.190,0.065
2.896,0.155,0.055
2.898,0.140,0.040
2.900,0.100,0.025
2.902,0.080,0.015
2.904,0.055,0.000
2.906,0.030,-0.010
2.908,0.045,-0.015
2.910,0.055,-0.015
2.912,0.050,-0.020
2.914,0.125,-0.015
2.916,0.110,-0.015
2.918,0.085,-0.015
2.920,0.075,-0.020
2.922,0.045,-0.025
2.924,0.010,-0.030
2.926,0.005,-0.035
2.928,0.000,-0.045
2.930,0.000,-0.055
2.932,0.055,-0.060
2.934,0.105,-0.065
2.936,0.075,-0.065
2.938,0.030,-0.065
2.940,0.025,-0.065
2.942,0.015,-0.065
2.944,-0.050,-0.065
2.946,-0.010,-0.065
2.948,0.020,-0.065
2.950,0.030,-0.070
2.952,0.055,-0.070
2.954,0.070,-0.070
2.956,0.080,-0.070
2.958,0.075,-0.070
2.960,0.020,-0.065
2.962,-0.005,-0.065
2.964,0.000,-0.060
2.966,0.005,-0.050
2.968,0.010,-0.045
2.970,0.020,-0.040
2.972,0.070,-0.040
2.974,0.100,-0.040
2.976,0.105,-0.040
2.978,0.070,-0.045
2.980,0.015,-0.045
2.982,-0.030,-0.050
2.984,-0.020,-0.050
2.986,0.010,-0.050
2.988,0.010,-0.050
2.990,0.065,-0.050
2.992,0.115,-0.050
2.994,0.095,-0.050
2.996,0.075,-0.045
2.998,0.060,-0.045
3.000,0.035,-0.045
3.002,-0.015,-0.045
3.004,-0.010,-0.045
3.006,-0.010,-0.045
3.008,0.005,-0.050
3.010,0.050,-0.055
3.012,0.105,-0.055
3.014,0.090,-0.055
3.016,0.100,-0.055
3.018,0.050,-0.050
3.020,0.020,-0.045
3.022,0.000,-0.040
3.024,0.040,-0.030
3.026,0.025,-0.025
3.028,0.040,-0.020
3.030,0.085,-0.020
3.032,0.075,-0.025
3.034,0.100,-0.030
3.036,0.100,-0.040
3.038,0.040,-0.045
3.040,0.020,-0.050
3.042,0.015,-0.050
3.044,0.000,-0.050
3.046,0.005,-0.045
3.048,0.050,-0.035
3.050,0.120,-0.030
3.052,0.120,-0.030
3.054,0.085,-0.030
3.056,0.065,-0.035
3.058,0.055,-0.040
3.060,0.010,-0.050
3.062,-0.020,-0.060
3.064,-0.020,-0.065
3.066,-0.030,-0.070
3.068,0.025,-0.070
3.070,0.045,-0.065
3.072,0.090,-0.055
3.074,0.105,-0.050
3.076,0.075,-0.045
3.078,0.065,-0.045
3.080,0.005,-0.050
3.082,-0.035,-0.050
3.084,-0.035,-0.060
3.086,-0.005,-0.065
3.088,0.030,-0.065
3.090,0.065,-0.070
3.092,0.095,-0.065
3.094,0.070,-0.060
3.096,0.075,-0.055
3.098,0.070,-0.055
3.100,0.020,-0.050
3.102,-0.040,-0.050
3.104,-0.045,-0.050
3.106,-0.025,-0.055
3.108,-0.005,-0.055
3.110,0.050,-0.060
3.112,0.110,-0.060
3.114,0.105,-0.060
3.116,0.080,-0.060
3.118,0.080,-0.055
3.120,-0.015,-0.055
3.122,-0.040,-0.055
3.124,-0.055,-0.055
3.126,-0.040,-0.060
3.128,0.005,-0.065
3.130,0.055,-0.065
3.132,0.060,-0.070
3.134,0.070,-0.070
3.136,0.075,-0.065
3.138,0.040,-0.065
3.140,-0.025,-0.060
3.142,-0.030,-0.060
3.144,0.010,-0.060
3.146,-0.020,-0.065
3.148,-0.025,-0.070
3.150,0.045,-0.075
3.152,0.055,-0.080
3.154,0.050,-0.085
3.156,0.030,-0.085
3.158,0.020,-0.080
3.160,-0.020,-0.070
3.162,0.020,-0.060
3.164,0.005,-0.050
3.166,-0.010,-0.045
3.168,-0.010,-0.035
3.170,0.065,-0.035
3.172,0.070,-0.040
3.174,0.080,-0.045
3.176,0.075,-0.050
3.178,0.030,-0.055
3.180,-0.005,-0.060
3.182,-0.035,-0.065
3.184,-0.040,-0.060
3.186,-0.020,-0.060
3.188,0.005,-0.055
3.190,0.075,-0.050
3.192,0.095,-0.050
3.194,0.120,-0.050
3.196,0.085,-0.050
3.198,0.025,-0.050
3.200,-0.015,-0.050
3.202,0.015,-0.050
3.204,-0.010,-0.050
3.206,-0.005,-0.045
3.208,0.030,-0.040
3.210,0.090,-0.040
3.212,0.110,-0.040
3.214,0.110,-0.040
3.216,0.090,-0.040
3.218,0.070,-0.040
3.220,0.015,-0.040
3.222,-0.035,-0.045
3.224,-0.005,-0.040
3.226,0.020,-0.035
3.228,0.075,-0.030
3.230,0.140,-0.025
3.232,0.150,-0.020
3.234,0.145,-0.015
3.236,0.105,-0.010
3.238,0.070,-0.010
3.240,0.040,-0.010
3.242,0.025,-0.015
3.244,0.050,-0.015
3.246,0.090,-0.015
3.248,0.095,-0.015
3.250,0.120,-0.015
3.252,0.150,-0.015
3.254,0.125,-0.015
3.256,0.070,-0.015
3.258,0.040,-0.020
3.260,0.015,-0.030
3.262,-0.040,-0.040
3.264,-0.020,-0.050
3.266,-0.010,-0.060
3.268,0.010,-0.070
3.270,0.050,-0.075
3.272,0.070,-0.080
3.274,0.100,-0.080
3.276,0.085,-0.080
3.278,0.020,-0.080
3.280,-0.025,-0.080
3.282,-0.035,-0.080
3.284,-0.055,-0.080
3.286,-0.055,-0.085
3.288,-0.020,-0.085
3.290,0.050,-0.090
3.292,0.075,-0.095
3.294,0.055,-0.095
3.296,0.035,-0.095
3.298,0.010,-0.100
3.300,-0.015,-0.100
3.302,-0.050,-0.100
3.304,-0.060,-0.100
3.306,-0.030,-0.100
3.308,0.005,-0.100
3.310,0.045,-0.100
3.312,0.055,-0.105
3.314,0.010,-0.100
3.316,0.020,-0.100
3.318,-0.010,-0.100
3.320,-0.040,-0.095
3.322,-0.055,-0.090
3.324,-0.050,-0.080
3.326,-0.020,-0.075
3.328,-0.005,-0.070
3.330,0.095,-0.065
3.332,0.095,-0.065
3.334,0.055,-0.065
3.336,0.025,-0.070
3.338,-0.015,-0.075
3.340,-0.025,-0.085
3.342,-0.060,-0.095
3.344,-0.075,-0.105
3.346,-0.070,-0.115
3.348,-0.020,-0.120
3.350,0.040,-0.125
3.352,0.085,-0.125
3.354,0.030,-0.125
3.356,-0.005,-0.125
3.358,-0.060,-0.120
3.360,-0.065,-0.115
3.362,-0.080,-0.105
3.364,-0.055,-0.085
3.366,0.020,-0.055
3.368,0.125,-0.010
3.370,0.245,0.050
3.372,0.305,0.125
3.374,0.380,0.215
3.376,0.430,0.315
3.378,0.495,0.420
3.380,0.560,0.515
3.382,0.680,0.600
3.384,0.770,0.665
3.386,0.825,0.700
3.388,0.895,0.705
3.390,0.855,0.680
3.392,0.800,0.620
3.394,0.665,0.535
3.396,0.480,0.430
3.398,0.330,0.310
3.400,0.215,0.190
3.402,0.095,0.080
3.404,-0.010,-0.015
3.406,-0.085,-0.095
3.408,-0.050,-0.145
3.410,-0.040,-0.170
3.412,0.030,-0.170
3.414,-0.025,-0.155
3.416,-0.010,-0.125
3.418,-0.035,-0.095
3.420,0.005,-0.065
3.422,0.000,-0.045
3.424,0.015,-0.030
3.426,0.040,-0.025
3.428,0.075,-0.025
3.430,0.110,-0.035
3.432,0.105,-0.045
3.434,0.095,-0.050
3.436,0.075,-0.055
3.438,0.030,-0.055
3.440,-0.010,-0.055
3.442,-0.050,-0.050
3.444,0.010,-0.040
3.446,0.035,-0.035
3.448,0.070,-0.030
3.450,0.070,-0.030
3.452,0.130,-0.030
3.454,0.125,-0.030
3.456,0.080,-0.035
3.458,0.040,-0.040
3.460,0.010,-0.040
3.462,0.020,-0.045
3.464,0.035,-0.045
3.466,0.030,-0.045
3.468,0.090,-0.040
3.470,0.130,-0.035
3.472,0.125,-0.030
3.474,0.110,-0.025
3.476,0.105,-0.020
3.478,0.065,-0.015
3.480,0.025,-0.015
3.482,0.020,-0.015
3.484,0.020,-0.015
3.486,0.040,-0.020
3.488,0.100,-0.020
3.490,0.165,-0.025
3.492,0.165,-0.025
3.494,0.105,-0.025
3.496,0.090,-0.020
3.498,0.015,-0.010
3.500,0.070,-0.005
3.502,0.040,0.005
3.504,0.065,0.010
3.506,0.085,0.010
3.508,0.125,0.010
3.510,0.180,0.005
3.512,0.150,-0.005
3.514,0.140,-0.010
3.516,0.115,-0.010
3.518,0.075,-0.015
3.520,0.050,-0.010
3.522,0.065,-0.005
3.524,0.070,0.005
3.526,0.110,0.015
3.528,0.180,0.025
3.530,0.205,0.030
3.532,0.215,0.035
3.534,0.155,0.040
3.536,0.125,0.045
3.538,0.135,0.050
3.540,0.130,0.055
3.542,0.110,0.060
3.544,0.145,0.070
3.546,0.165,0.075
3.548,0.250,0.085
3.550,0.240,0.090
3.552,0.210,0.090
3.554,0.210,0.090
3.556,0.170,0.085
3.558,0.155,0.085
3.560,0.140,0.085
3.562,0.140,0.090
3.564,0.190,0.095
3.566,0.200,0.105
3.568,0.255,0.115
3.570,0.300,0.130
3.572,0.335,0.140
3.574,0.290,0.155
3.576,0.245,0.160
3.578,0.220,0.165
3.580,0.250,0.170
3.582,0.225,0.175
3.584,0.225,0.175
3.586,0.265,0.175
3.588,0.330,0.180
3.590,0.385,0.185
3.592,0.400,0.190
3.594,0.355,0.195
3.596,0.290,0.205
3.598,0.260,0.215
3.600,0.265,0.220
3.602,0.285,0.225
3.604,0.290,0.225
3.606,0.320,0.225
3.608,0.370,0.225
3.610,0.400,0.220
3.612,0.360,0.220
3.614,0.350,0.215
3.616,0.315,0.215
3.618,0.275,0.215
3.620,0.250,0.215
3.622,0.275,0.215
3.624,0.280,0.210
3.626,0.315,0.205
3.628,0.340,0.200
3.630,0.355,0.190
3.632,0.340,0.180
3.634,0.280,0.165
3.636,0.230,0.150
3.638,0.210,0.140
3.640,0.165,0.130
3.642,0.135,0.115
3.644,0.160,0.105
3.646,0.240,0.100
3.648,0.245,0.090
3.650,0.250,0.080
3.652,0.230,0.065
3.654,0.135,0.055
3.656,0.115,0.045
3.658,0.075,0.035
3.660,0.070,0.030
3.662,0.080,0.020
3.664,0.090,0.015
3.666,0.165,0.010
3.668,0.135,0.005
3.670,0.160,0.000
3.672,0.160,-0.005
3.674,0.135,-0.015
3.676,0.080,-0.020
3.678,0.050,-0.025
3.680,0.020,-0.025
3.682,0.020,-0.030
3.684,0.060,-0.030
3.686,0.100,-0.030
3.688,0.120,-0.030
3.690,0.125,-0.035
3.692,0.090,-0.040
3.694,0.070,-0.045
3.696,0.020,-0.050
3.698,-0.010,-0.055
3.700,-0.020,-0.055
3.702,0.045,-0.060
3.704,0.080,-0.055
3.706,0.075,-0.055
3.708,0.090,-0.050
3.710,0.125,-0.045
3.712,0.090,-0.045
3.714,0.080,-0.045
3.716,0.040,-0.045
3.718,0.025,-0.050
3.720,-0.005,-0.055
3.722,0.025,-0.060
3.724,0.050,-0.060
3.726,0.060,-0.060
3.728,0.100,-0.060
3.730,0.115,-0.060
3.732,0.080,-0.055
3.734,0.050,-0.055
3.736,0.015,-0.055
3.738,0.005,-0.055
3.740,-0.005,-0.055
3.742,0.000,-0.060
3.744,0.050,-0.060
3.746,0.080,-0.060
3.748,0.075,-0.055
3.750,0.130,-0.050
3.752,0.135,-0.045
3.754,0.090,-0.040
3.756,0.045,-0.030
3.758,0.035,-0.030
3.760,0.015,-0.025
3.762,0.020,-0.030
3.764,0.065,-0.035
3.766,0.125,-0.045
3.768,0.115,-0.050
3.770,0.105,-0.060
3.772,0.105,-0.065
3.774,0.085,-0.065
3.776,0.020,-0.065
3.778,0.000,-0.060
3.780,0.030,-0.055
3.782,0.015,-0.045
3.784,0.030,-0.040
3.786,0.095,-0.035
3.788,0.125,-0.035
3.790,0.145,-0.035
3.792,0.140,-0.040
3.794,0.075,-0.040
3.796,0.045,-0.045
3.798,0.030,-0.045
3.800,0.025,-0.045
3.802,0.035,-0.040
3.804,0.060,-0.035
3.806,0.115,-0.035
3.808,0.135,-0.030
3.810,0.125,-0.030
3.812,0.110,-0.030
3.814,0.080,-0.035
3.816,0.040,-0.035
3.818,0.030,-0.040
3.820,0.025,-0.045
3.822,0.015,-0.045
3.824,0.060,-0.045
3.826,0.130,-0.045
3.828,0.130,-0.040
3.830,0.130,-0.040
3.832,0.145,-0.040
3.834,0.110,-0.040
3.836,0.025,-0.040
3.838,-0.020,-0.045
3.840,-0.020,-0.050
3.842,0.015,-0.055
3.844,0.060,-0.060
3.846,0.100,-0.060
3.848,0.110,-0.060
3.850,0.140,-0.055
3.852,0.090,-0.050
3.854,0.045,-0.045
3.856,0.045,-0.040
3.858,0.015,-0.040
3.860,0.015,-0.040
3.862,0.000,-0.040
3.864,0.060,-0.045
3.866,0.135,-0.050
3.868,0.170,-0.050
3.870,0.120,-0.055
3.872,0.100,-0.060
3.874,0.065,-0.065
3.876,0.035,-0.065
3.878,0.010,-0.070
3.880,-0.015,-0.070
3.882,0.030,-0.070
3.884,0.065,-0.070
3.886,0.080,-0.065
3.888,0.110,-0.060
3.890,0.135,-0.060
3.892,0.120,-0.055
3.894,0.045,-0.050
3.896,0.025,-0.045
3.898,0.030,-0.045
3.900,0.025,-0.045
3.902,0.060,-0.045
3.904,0.090,-0.050
3.906,0.095,-0.055
3.908,0.060,-0.060
3.910,0.090,-0.065
3.912,0.070,-0.070
3.914,0.030,-0.075
3.916,-0.025,-0.075
3.918,0.005,-0.075
3.920,0.000,-0.075
3.922,0.010,-0.075
3.924,0.055,-0.075
3.926,0.115,-0.075
3.928,0.140,-0.075
3.930,0.110,-0.070
3.932,0.080,-0.065
3.934,0.060,-0.060
3.936,0.040,-0.050
3.938,0.060,-0.040
3.940,0.035,-0.035
3.942,0.035,-0.030
3.944,0.110,-0.025
3.946,0.155,-0.025
3.948,0.150,-0.025
3.950,0.125,-0.025
3.952,0.120,-0.025
3.954,0.090,-0.025
3.956,0.020,-0.025
3.958,0.060,-0.020
3.960,0.050,-0.015
3.962,0.115,-0.010
3.964,0.170,-0.010
3.966,0.140,-0.010
3.968,0.170,-0.010
3.970,0.150,-0.015
3.972,0.150,-0.015
3.974,0.115,-0.020
3.976,0.055,-0.020
3.978,0.055,-0.015
3.980,0.065,-0.015
3.982,0.100,-0.015
3.984,0.140,-0.015
3.986,0.150,-0.020
3.988,0.120,-0.030
3.990,0.130,-0.040
3.992,0.110,-0.050
3.994,0.010,-0.060
3.996,-0.010,-0.070
3.998,0.015,-0.080
4.000,0.030,-0.080
4.002,0.035,-0.080
4.004,0.080,-0.080
4.006,0.120,-0.075
4.008,0.090,-0.075
4.010,0.080,-0.075
4.012,0.050,-0.080
4.014,0.040,-0.085
4.016,-0.020,-0.090
4.018,-0.020,-0.095
4.020,0.005,-0.100
4.022,0.005,-0.100
4.024,0.055,-0.100
4.026,0.110,-0.100
4.028,0.120,-0.095
4.030,0.090,-0.090
4.032,0.070,-0.090
4.034,-0.020,-0.090
4.036,-0.045,-0.095
4.038,-0.035,-0.095
4.040,-0.015,-0.100
4.042,0.000,-0.100
4.044,0.090,-0.095
4.046,0.080,-0.090
4.048,0.115,-0.085
4.050,0.095,-0.080
4.052,0.070,-0.070
4.054,0.010,-0.065
4.056,0.010,-0.065
4.058,0.010,-0.065
4.060,0.015,-0.070
4.062,-0.010,-0.075
4.064,0.070,-0.085
4.066,0.125,-0.095
4.068,0.090,-0.100
4.070,0.055,-0.105
4.072,0.050,-0.105
4.074,-0.025,-0.105
4.076,-0.020,-0.110
4.078,-0.020,-0.110
4.080,-0.035,-0.110
4.082,0.000,-0.115
4.084,0.055,-0.120
4.086,0.085,-0.125
4.088,0.040,-0.130
4.090,0.025,-0.135
4.092,0.005,-0.130
4.094,-0.020,-0.120
4.096,0.000,-0.100
4.098,-0.010,-0.065
4.100,0.065,-0.020
4.102,0.175,0.040
4.104,0.290,0.115
4.106,0.390,0.200
4.108,0.495,0.295
4.110,0.570,0.395
4.112,0.645,0.495
4.114,0.745,0.585
4.116,0.820,0.650
4.118,0.820,0.695
4.120,0.840,0.705
4.122,0.830,0.680
4.124,0.760,0.620
4.126,0.700,0.530
4.128,0.560,0.415
4.130,0.445,0.290
4.132,0.285,0.165
4.134,0.100,0.050
4.136,-0.035,-0.045
4.138,-0.090,-0.115
4.140,-0.075,-0.155
4.142,-0.025,-0.170
4.144,0.010,-0.165
4.146,0.060,-0.145
4.148,0.115,-0.120
4.150,0.105,-0.095
4.152,0.055,-0.070
4.154,0.035,-0.055
4.156,0.040,-0.050
4.158,0.025,-0.050
4.160,0.020,-0.050
4.162,0.050,-0.055
4.164,0.130,-0.055
4.166,0.130,-0.060
4.168,0.140,-0.060
4.170,0.115,-0.055
4.172,0.055,-0.055
4.174,-0.010,-0.055
4.176,-0.015,-0.055
4.178,0.025,-0.055
4.180,0.055,-0.055
4.182,0.090,-0.055
4.184,0.150,-0.050
4.186,0.170,-0.045
4.188,0.135,-0.035
4.190,0.105,-0.030
4.192,0.065,-0.025
4.194,0.025,-0.020
4.196,0.100,-0.020
4.198,0.050,-0.020
4.200,0.070,-0.025
4.202,0.115,-0.030
4.204,0.145,-0.035
4.206,0.175,-0.040
4.208,0.150,-0.040
4.210,0.125,-0.035
4.212,0.080,-0.030
4.214,0.025,-0.020
4.216,0.065,-0.015
4.218,0.055,-0.010
4.220,0.110,-0.010
4.222,0.140,-0.010
4.224,0.155,-0.010
4.226,0.165,-0.015
4.228,0.170,-0.020
4.230,0.150,-0.025
4.232,0.120,-0.030
4.234,0.115,-0.035
4.236,0.035,-0.035
4.238,0.035,-0.035
4.240,0.080,-0.035
4.242,0.130,-0.030
4.244,0.175,-0.030
4.246,0.170,-0.025
4.248,0.155,-0.020
4.250,0.155,-0.015
4.252,0.115,-0.010
4.254,0.080,0.000
4.256,0.105,0.010
4.258,0.140,0.020
4.260,0.155,0.030
4.262,0.185,0.035
4.264,0.200,0.040
4.266,0.260,0.045
4.268,0.250,0.045
4.270,0.190,0.045
4.272,0.170,0.045
4.274,0.130,0.050
4.276,0.110,0.050
4.278,0.110,0.055
4.280,0.160,0.060
4.282,0.230,0.065
4.284,0.260,0.070
4.286,0.270,0.075
4.288,0.285,0.080
4.290,0.270,0.085
4.292,0.240,0.090
4.294,0.210,0.095
4.296,0.190,0.100
4.298,0.220,0.105
4.300,0.235,0.110
4.302,0.290,0.120
4.304,0.335,0.125
4.306,0.315,0.130
4.308,0.300,0.140
4.310,0.310,0.145
4.312,0.265,0.150
4.314,0.245,0.155
4.316,0.230,0.160
4.318,0.270,0.165
4.320,0.310,0.170
4.322,0.355,0.175
4.324,0.380,0.180
4.326,0.395,0.190
4.328,0.385,0.195
4.330,0.360,0.200
4.332,0.320,0.210
4.334,0.310,0.210
4.336,0.285,0.215
4.338,0.280,0.220
4.340,0.300,0.220
4.342,0.365,0.220
4.344,0.400,0.220
4.346,0.415,0.220
4.348,0.420,0.220
4.350,0.365,0.215
4.352,0.320,0.210
4.354,0.305,0.205
4.356,0.305,0.200
4.358,0.285,0.190
4.360,0.280,0.180
4.362,0.320,0.170
4.364,0.360,0.160
4.366,0.320,0.145
4.368,0.285,0.135
4.370,0.295,0.125
4.372,0.245,0.110
4.374,0.175,0.100
4.376,0.150,0.095
4.378,0.175,0.085
4.380,0.155,0.075
4.382,0.195,0.060
4.384,0.225,0.050
4.386,0.220,0.035
4.388,0.185,0.025
4.390,0.135,0.010
4.392,0.075,-0.005
4.394,0.090,-0.015
4.396,0.060,-0.025
4.398,0.085,-0.030
4.400,0.095,-0.035
4.402,0.130,-0.035
4.404,0.160,-0.035
4.406,0.160,-0.035
4.408,0.160,-0.035
4.410,0.095,-0.035
4.412,0.070,-0.035
4.414,0.065,-0.040
4.416,0.035,-0.045
4.418,0.075,-0.050
4.420,0.075,-0.055
4.422,0.080,-0.060
4.424,0.115,-0.060
4.426,0.115,-0.065
4.428,0.080,-0.065
4.430,0.065,-0.065
4.432,0.040,-0.065
4.434,0.020,-0.070
4.436,0.005,-0.070
4.438,0.035,-0.070
4.440,0.080,-0.070
4.442,0.105,-0.065
4.444,0.100,-0.065
4.446,0.135,-0.060
4.448,0.095,-0.060
4.450,0.090,-0.060
4.452,0.040,-0.060
4.454,0.010,-0.065
4.456,-0.005,-0.070
4.458,0.020,-0.080
4.460,0.025,-0.085
4.462,0.060,-0.090
4.464,0.095,-0.090
4.466,0.135,-0.090
4.468,0.115,-0.080
4.470,0.060,-0.075
4.472,0.055,-0.065
4.474,0.025,-0.055
4.476,0.040,-0.045
4.478,0.095,-0.040
4.480,0.095,-0.040
4.482,0.120,-0.040
4.484,0.155,-0.045
4.486,0.120,-0.050
4.488,0.080,-0.055
4.490,0.060,-0.060
4.492,0.065,-0.060
4.494,0.040,-0.060
4.496,0.030,-0.055
4.498,0.055,-0.050
4.500,0.085,-0.045
4.502,0.130,-0.045
4.504,0.170,-0.040
4.506,0.170,-0.040
4.508,0.145,-0.040
4.510,0.105,-0.040
4.512,0.060,-0.045
4.514,0.035,-0.050
4.516,-0.015,-0.055
4.518,0.040,-0.055
4.520,0.085,-0.060
4.522,0.125,-0.060
4.524,0.125,-0.060
4.526,0.140,-0.060
4.528,0.140,-0.055
4.530,0.090,-0.050
4.532,0.050,-0.040
4.534,0.065,-0.035
4.536,0.020,-0.025
4.538,0.110,-0.020
4.540,0.120,-0.015
4.542,0.145,-0.015
4.544,0.185,-0.015
4.546,0.160,-0.020
4.548,0.115,-0.025
4.550,0.115,-0.030
4.552,0.045,-0.035
4.554,0.015,-0.040
4.556,0.050,-0.045
4.558,0.055,-0.045
4.560,0.110,-0.045
4.562,0.135,-0.045
4.564,0.140,-0.045
4.566,0.130,-0.045
4.568,0.120,-0.045
4.570,0.090,-0.045
4.572,0.065,-0.045
4.574,0.050,-0.045
4.576,0.025,-0.045
4.578,0.045,-0.045
4.580,0.105,-0.045
4.582,0.125,-0.045
4.584,0.135,-0.045
4.586,0.155,-0.045
4.588,0.105,-0.045
4.590,0.080,-0.045
4.592,0.055,-0.040
4.594,0.030,-0.040
4.596,0.025,-0.040
4.598,0.045,-0.040
4.600,0.080,-0.040
4.602,0.155,-0.045
4.604,0.200,-0.050
4.606,0.145,-0.055
4.608,0.085,-0.055
4.610,0.070,-0.060
4.612,0.040,-0.055
4.614,0.035,-0.055
4.616,0.030,-0.050
4.618,0.055,-0.045
4.620,0.150,-0.040
4.622,0.150,-0.035
4.624,0.150,-0.035
4.626,0.145,-0.035
4.628,0.100,-0.040
4.630,0.045,-0.050
4.632,0.000,-0.055
4.634,0.005,-0.060
4.636,0.015,-0.065
4.638,0.035,-0.070
4.640,0.115,-0.070
4.642,0.075,-0.070
4.644,0.165,-0.070
4.646,0.120,-0.065
4.648,0.090,-0.065
4.650,0.050,-0.065
4.652,0.020,-0.060
4.654,-0.010,-0.060
4.656,0.030,-0.060
4.658,0.050,-0.065
4.660,0.095,-0.065
4.662,0.120,-0.065
4.664,0.130,-0.065
4.666,0.115,-0.065
4.668,0.090,-0.065
4.670,0.040,-0.065
4.672,0.005,-0.065
4.674,0.005,-0.060
4.676,0.055,-0.060
4.678,0.105,-0.055
4.680,0.110,-0.050
4.682,0.125,-0.045
4.684,0.155,-0.040
4.686,0.140,-0.035
4.688,0.110,-0.035
4.690,0.080,-0.035
4.692,0.070,-0.035
4.694,0.060,-0.035
4.696,0.080,-0.035
4.698,0.080,-0.035
4.700,0.115,-0.035
4.702,0.150,-0.035
4.704,0.170,-0.035
4.706,0.140,-0.035
4.708,0.140,-0.030
4.710,0.095,-0.030
4.712,0.030,-0.025
4.714,0.035,-0.025
4.716,0.055,-0.025
4.718,0.120,-0.020
4.720,0.180,-0.020
4.722,0.190,-0.020
4.724,0.180,-0.020
4.726,0.180,-0.020
4.728,0.095,-0.020
4.730,0.045,-0.020
4.732,0.060,-0.020
4.734,0.050,-0.025
4.736,0.050,-0.025
4.738,0.090,-0.030
4.740,0.135,-0.035
4.742,0.150,-0.035
4.744,0.170,-0.040
4.746,0.140,-0.045
4.748,0.110,-0.045
4.750,0.035,-0.050
4.752,0.015,-0.055
4.754,0.010,-0.060
4.756,-0.005,-0.070
4.758,0.040,-0.075
4.760,0.100,-0.080
4.762,0.115,-0.085
4.764,0.105,-0.090
4.766,0.085,-0.090
4.768,0.070,-0.085
4.770,0.030,-0.080
4.772,0.025,-0.075
4.774,-0.040,-0.070
4.776,0.020,-0.065
4.778,0.055,-0.065
4.780,0.095,-0.065
4.782,0.130,-0.070
4.784,0.125,-0.075
4.786,0.065,-0.080
4.788,0.055,-0.090
4.790,-0.020,-0.095
4.792,-0.025,-0.095
4.794,0.000,-0.095
4.796,0.010,-0.095
4.798,0.070,-0.090
4.800,0.085,-0.085
4.802,0.080,-0.085
4.804,0.090,-0.080
4.806,0.105,-0.080
4.808,0.025,-0.085
4.810,-0.010,-0.090
4.812,-0.010,-0.095
4.814,-0.005,-0.095
4.816,-0.030,-0.100
4.818,0.030,-0.100
4.820,0.100,-0.105
4.822,0.090,-0.105
4.824,0.100,-0.100
4.826,0.065,-0.100
4.828,0.030,-0.105
4.830,-0.040,-0.105
4.832,-0.035,-0.110
4.834,-0.045,-0.115
4.836,-0.035,-0.120
4.838,0.020,-0.120
4.840,0.050,-0.120
4.842,0.055,-0.110
4.844,0.065,-0.090
4.846,0.085,-0.065
4.848,0.150,-0.025
4.850,0.175,0.030
4.852,0.215,0.095
4.854,0.275,0.175
4.856,0.340,0.260
4.858,0.455,0.350
4.860,0.635,0.435
4.862,0.740,0.520
4.864,0.845,0.590
4.866,0.855,0.640
4.868,0.850,0.670
4.870,0.775,0.665
4.872,0.700,0.630
4.874,0.615,0.565
4.876,0.550,0.475
4.878,0.520,0.360
4.880,0.410,0.235
4.882,0.240,0.115
4.884,0.110,0.005
4.886,0.020,-0.085
4.888,-0.060,-0.140
4.890,-0.095,-0.170
4.892,-0.085,-0.170
4.894,-0.040,-0.150
4.896,0.025,-0.120
4.898,0.100,-0.085
4.900,0.130,-0.055
4.902,0.145,-0.035
4.904,0.135,-0.025
4.906,0.085,-0.030
4.908,0.035,-0.045
4.910,0.010,-0.060
4.912,0.000,-0.075
4.914,0.000,-0.080
4.916,0.040,-0.085
4.918,0.080,-0.080
4.920,0.095,-0.075
4.922,0.090,-0.065
4.924,0.135,-0.060
4.926,0.090,-0.055
4.928,-0.015,-0.060
4.930,0.015,-0.065
4.932,0.035,-0.070
4.934,0.025,-0.080
4.936,0.050,-0.080
4.938,0.085,-0.080
4.940,0.120,-0.075
4.942,0.105,-0.070
4.944,0.110,-0.060
4.946,0.090,-0.055
4.948,0.060,-0.045
4.950,0.020,-0.045
4.952,0.025,-0.045
4.954,0.040,-0.045
4.956,0.085,-0.045
4.958,0.135,-0.050
4.960,0.130,-0.050
4.962,0.170,-0.045
4.964,0.115,-0.040
4.966,0.110,-0.035
4.968,0.090,-0.030
4.970,0.040,-0.030
4.972,0.035,-0.025
4.974,0.070,-0.025
4.976,0.095,-0.030
4.978,0.170,-0.030
4.980,0.145,-0.030
4.982,0.165,-0.030
4.984,0.150,-0.030
4.986,0.120,-0.025
4.988,0.085,-0.020
4.990,0.035,-0.010
4.992,0.080,-0.005
4.994,0.105,0.000
4.996,0.110,0.000
4.998,0.170,0.000
5.000,0.185,-0.005
5.002,0.190,-0.005
5.004,0.185,-0.010
5.006,0.115,-0.015
5.008,0.110,-0.015
5.010,0.080,-0.010
5.012,0.075,-0.005
5.014,0.085,0.000
5.016,0.120,0.005
5.018,0.210,0.010
5.020,0.205,0.020
5.022,0.205,0.025
5.024,0.195,0.025
5.026,0.160,0.030
5.028,0.160,0.035
5.030,0.140,0.040
5.032,0.135,0.045
5.034,0.165,0.050
5.036,0.215,0.060
5.038,0.265,0.070
5.040,0.275,0.080
5.042,0.250,0.090
5.044,0.220,0.095
5.046,0.220,0.105
5.048,0.195,0.110
5.050,0.185,0.110
5.052,0.175,0.115
5.054,0.210,0.115
5.056,0.280,0.120
5.058,0.335,0.125
5.060,0.350,0.130
5.062,0.345,0.140
5.064,0.310,0.150
5.066,0.290,0.160
5.068,0.275,0.170
5.070,0.245,0.180
5.072,0.270,0.190
5.074,0.285,0.200
5.076,0.310,0.205
5.078,0.375,0.210
5.080,0.430,0.210
5.082,0.410,0.215
5.084,0.370,0.215
5.086,0.345,0.220
5.088,0.325,0.220
5.090,0.295,0.220
5.092,0.275,0.220
5.094,0.305,0.215
5.096,0.350,0.215
5.098,0.410,0.210
5.100,0.405,0.205
5.102,0.390,0.195
5.104,0.325,0.190
5.106,0.290,0.185
5.108,0.255,0.175
5.110,0.240,0.170
5.112,0.230,0.160
5.114,0.235,0.150
5.116,0.275,0.140
5.118,0.285,0.125
5.120,0.285,0.115
5.122,0.295,0.105
5.124,0.285,0.090
5.126,0.200,0.080
5.128,0.155,0.070
5.130,0.145,0.065
5.132,0.115,0.055
5.134,0.130,0.045
5.136,0.155,0.040
5.138,0.180,0.030
5.140,0.185,0.025
5.142,0.205,0.015
5.144,0.175,0.010
5.146,0.115,0.000
5.148,0.065,-0.005
5.150,0.070,-0.010
5.152,0.060,-0.015
5.154,0.055,-0.020
5.156,0.105,-0.025
5.158,0.150,-0.030
5.160,0.160,-0.040
5.162,0.160,-0.050
5.164,0.075,-0.055
5.166,0.040,-0.060
5.168,0.025,-0.065
5.170,-0.010,-0.070
5.172,-0.010,-0.070
5.174,0.050,-0.070
5.176,0.100,-0.070
5.178,0.090,-0.070
5.180,0.120,-0.070
5.182,0.110,-0.075
5.184,0.105,-0.075
5.186,0.030,-0.080
5.188,-0.005,-0.085
5.190,-0.010,-0.085
5.192,0.005,-0.085
5.194,0.030,-0.085
5.196,0.065,-0.080
5.198,0.090,-0.080
5.200,0.120,-0.075
5.202,0.150,-0.070
5.204,0.085,-0.065
5.206,0.015,-0.060
5.208,0.005,-0.060
5.210,0.025,-0.060
5.212,0.030,-0.060
5.214,0.050,-0.060
5.216,0.075,-0.060
5.218,0.100,-0.060
5.220,0.105,-0.060
5.222,0.125,-0.060
5.224,0.100,-0.060
5.226,0.045,-0.060
5.228,0.020,-0.060
5.230,0.025,-0.060
5.232,0.030,-0.060
5.234,0.060,-0.060
5.236,0.110,-0.060
5.238,0.140,-0.055
5.240,0.135,-0.055
5.242,0.145,-0.055
5.244,0.090,-0.055
5.246,0.060,-0.055
5.248,-0.020,-0.055
5.250,-0.030,-0.060
5.252,0.000,-0.065
5.254,0.085,-0.070
5.256,0.085,-0.075
5.258,0.110,-0.075
5.260,0.130,-0.075
5.262,0.125,-0.070
5.264,0.105,-0.065
5.266,0.070,-0.060
5.268,0.030,-0.050
5.270,-0.005,-0.045
5.272,0.020,-0.045
5.274,0.060,-0.040
5.276,0.105,-0.045
5.278,0.125,-0.050
5.280,0.150,-0.055
5.282,0.155,-0.060
5.284,0.095,-0.065
5.286,0.055,-0.060
5.288,0.040,-0.060
5.290,0.040,-0.050
5.292,0.025,-0.045
5.294,0.030,-0.035
5.296,0.120,-0.030
5.298,0.135,-0.030
5.300,0.145,-0.030
5.302,0.110,-0.035
5.304,0.120,-0.040
5.306,0.055,-0.050
5.308,0.020,-0.055
5.310,0.030,-0.060
5.312,0.035,-0.060
5.314,0.070,-0.055
5.316,0.120,-0.050
5.318,0.125,-0.045
5.320,0.120,-0.040
5.322,0.125,-0.035
5.324,0.090,-0.040
5.326,0.055,-0.040
5.328,0.045,-0.050
5.330,0.020,-0.055
5.332,0.015,-0.065
5.334,0.055,-0.070
5.336,0.100,-0.070
5.338,0.115,-0.070
5.340,0.125,-0.065
5.342,0.130,-0.060
5.344,0.095,-0.055
5.346,0.045,-0.050
5.348,0.025,-0.045
5.350,0.010,-0.045
5.352,0.025,-0.045
5.354,0.065,-0.045
5.356,0.090,-0.050
5.358,0.120,-0.055
5.360,0.130,-0.060
5.362,0.095,-0.060
5.364,0.095,-0.065
5.366,0.030,-0.065
5.368,0.015,-0.065
5.370,0.020,-0.065
5.372,0.055,-0.065
5.374,0.085,-0.070
5.376,0.085,-0.070
5.378,0.095,-0.075
5.380,0.115,-0.080
5.382,0.060,-0.080
5.384,0.040,-0.080
5.386,0.035,-0.080
5.388,0.015,-0.080
5.390,0.035,-0.070
5.392,0.040,-0.065
5.394,0.065,-0.060
5.396,0.120,-0.055
5.398,0.130,-0.050
5.400,0.130,-0.050
5.402,0.100,-0.055
5.404,0.075,-0.060
5.406,0.020,-0.065
5.408,0.010,-0.070
5.410,0.015,-0.080
5.412,0.035,-0.080
5.414,0.075,-0.080
5.416,0.090,-0.080
5.418,0.080,-0.075
5.420,0.085,-0.075
5.422,0.060,-0.070
5.424,0.070,-0.065
5.426,0.040,-0.065
5.428,0.005,-0.065
5.430,0.015,-0.065
5.432,0.045,-0.060
5.434,0.090,-0.055
5.436,0.150,-0.050
5.438,0.150,-0.045
5.440,0.130,-0.035
5.442,0.120,-0.030
5.444,0.090,-0.025
5.446,0.065,-0.025
5.448,0.045,-0.030
5.450,0.055,-0.035
5.452,0.060,-0.040
5.454,0.075,-0.045
5.456,0.130,-0.050
5.458,0.125,-0.055
5.460,0.125,-0.055
5.462,0.125,-0.050
5.464,0.115,-0.045
5.466,0.070,-0.035
5.468,0.070,-0.025
5.470,0.080,-0.015
5.472,0.120,-0.010
5.474,0.135,-0.005
5.476,0.170,0.000
5.478,0.205,0.005
5.480,0.155,0.005
5.482,0.180,0.005
5.484,0.125,0.000
5.486,0.070,0.000
5.488,0.080,-0.005
5.490,0.100,-0.010
5.492,0.090,-0.020
5.494,0.150,-0.025
5.496,0.135,-0.035
5.498,0.100,-0.045
5.500,0.105,-0.055
5.502,0.115,-0.065
5.504,0.055,-0.070
5.506,0.010,-0.075
5.508,-0.005,-0.075
5.510,0.030,-0.075
5.512,0.040,-0.075
5.514,0.090,-0.075
5.516,0.110,-0.070
5.518,0.120,-0.065
5.520,0.100,-0.060
5.522,0.060,-0.060
5.524,0.065,-0.055
5.526,0.060,-0.055
5.528,0.025,-0.055
5.530,0.035,-0.060
5.532,0.060,-0.065
5.534,0.070,-0.070
5.536,0.095,-0.075
5.538,0.135,-0.085
5.540,0.130,-0.085
5.542,0.070,-0.085
5.544,0.030,-0.085
5.546,-0.015,-0.080
5.548,0.010,-0.075
5.550,0.000,-0.070
5.552,0.000,-0.065
5.554,0.105,-0.060
5.556,0.160,-0.060
5.558,0.140,-0.065
5.560,0.120,-0.065
5.562,0.095,-0.075
5.564,0.015,-0.080
5.566,0.010,-0.085
5.568,-0.025,-0.085
5.570,0.005,-0.090
5.572,-0.005,-0.090
5.574,0.070,-0.085
5.576,0.110,-0.085
5.578,0.115,-0.085
5.580,0.110,-0.085
5.582,0.060,-0.090
5.584,-0.010,-0.090
5.586,-0.025,-0.095
5.588,-0.045,-0.100
5.590,-0.005,-0.105
5.592,0.050,-0.110
5.594,0.115,-0.110
5.596,0.115,-0.105
5.598,0.055,-0.100
5.600,0.055,-0.090
5.602,0.020,-0.075
5.604,0.050,-0.050
5.606,0.110,-0.010
5.608,0.165,0.040
5.610,0.245,0.105
5.612,0.335,0.190
5.614,0.455,0.285
5.616,0.565,0.390
5.618,0.685,0.495
5.620,0.805,0.590
5.622,0.895,0.670
5.624,0.885,0.725
5.626,0.855,0.740
5.628,0.785,0.725
5.630,0.780,0.670
5.632,0.695,0.580
5.634,0.590,0.465
5.636,0.545,0.340
5.638,0.415,0.215
5.640,0.220,0.100
5.642,0.080,0.000
5.644,-0.020,-0.070
5.646,-0.090,-0.120
5.648,-0.040,-0.140
5.650,0.000,-0.140
5.652,0.010,-0.130
5.654,0.065,-0.110
5.656,0.115,-0.090
5.658,0.155,-0.070
5.660,0.145,-0.055
5.662,0.130,-0.045
5.664,0.100,-0.040
5.666,0.075,-0.035
5.668,0.040,-0.035
5.670,0.070,-0.030
5.672,0.095,-0.030
5.674,0.125,-0.030
5.676,0.150,-0.025
5.678,0.170,-0.030
5.680,0.135,-0.030
5.682,0.095,-0.035
5.684,0.050,-0.040
5.686,0.040,-0.045
5.688,0.060,-0.045
5.690,0.100,-0.045
5.692,0.110,-0.045
5.694,0.140,-0.040
5.696,0.140,-0.035
5.698,0.175,-0.025
5.700,0.150,-0.020
5.702,0.120,-0.015
5.704,0.120,-0.010
5.706,0.055,-0.010
5.708,0.045,-0.015
5.710,0.060,-0.020
5.712,0.130,-0.020
5.714,0.175,-0.025
5.716,0.180,-0.025
5.718,0.150,-0.025
5.720,0.155,-0.025
5.722,0.115,-0.020
5.724,0.075,-0.010
5.726,0.115,-0.005
5.728,0.085,0.000
5.730,0.145,0.005
5.732,0.155,0.005
5.734,0.150,0.005
5.736,0.165,0.000
5.738,0.165,-0.005
5.740,0.185,-0.005
5.742,0.135,-0.005
5.744,0.100,-0.005
5.746,0.095,0.000
5.748,0.080,0.005
5.750,0.125,0.010
5.752,0.150,0.015
5.754,0.210,0.020
5.756,0.215,0.020
5.758,0.195,0.020
5.760,0.160,0.015
5.762,0.140,0.015
5.764,0.125,0.015
5.766,0.115,0.015
5.768,0.110,0.020
5.770,0.155,0.030
5.772,0.175,0.045
5.774,0.255,0.055
5.776,0.265,0.070
5.778,0.245,0.080
5.780,0.210,0.085
5.782,0.175,0.085
5.784,0.150,0.080
5.786,0.185,0.070
5.788,0.180,0.060
5.790,0.160,0.055
5.792,0.220,0.050
5.794,0.275,0.055
5.796,0.285,0.060
5.798,0.280,0.070
5.800,0.280,0.085
5.802,0.240,0.095
5.804,0.225,0.110
5.806,0.220,0.120
5.808,0.235,0.125
5.810,0.255,0.130
5.812,0.300,0.140
5.814,0.340,0.145
5.816,0.325,0.155
5.818,0.355,0.160
5.820,0.370,0.175
5.822,0.325,0.185
5.824,0.280,0.190
5.826,0.285,0.200
5.828,0.325,0.205
5.830,0.310,0.205
5.832,0.355,0.205
5.834,0.420,0.210
5.836,0.450,0.210
5.838,0.440,0.215
5.840,0.395,0.220
5.842,0.315,0.225
5.844,0.285,0.235
5.846,0.310,0.240
5.848,0.315,0.240
5.850,0.365,0.240
5.852,0.410,0.240
5.854,0.435,0.235
5.856,0.450,0.230
5.858,0.420,0.225
5.860,0.400,0.225
5.862,0.335,0.220
5.864,0.265,0.215
5.866,0.305,0.210
5.868,0.285,0.200
5.870,0.295,0.190
5.872,0.335,0.175
5.874,0.335,0.165
5.876,0.375,0.150
5.878,0.330,0.135
5.880,0.260,0.125
5.882,0.215,0.115
5.884,0.205,0.105
5.886,0.185,0.100
5.888,0.170,0.095
5.890,0.190,0.085
5.892,0.285,0.070
5.894,0.235,0.060
5.896,0.220,0.045
5.898,0.190,0.030
5.900,0.150,0.015
5.902,0.135,0.005
5.904,0.090,-0.005
5.906,0.095,-0.005
5.908,0.105,-0.010
5.910,0.125,-0.010
5.912,0.165,-0.010
5.914,0.160,-0.010
5.916,0.165,-0.015
5.918,0.135,-0.020
5.920,0.120,-0.025
5.922,0.085,-0.035
5.924,0.065,-0.040
5.926,0.035,-0.045
5.928,0.075,-0.045
5.930,0.080,-0.045
5.932,0.135,-0.045
5.934,0.150,-0.045
5.936,0.145,-0.045
5.938,0.140,-0.045
5.940,0.105,-0.045
5.942,0.060,-0.045
5.944,0.040,-0.045
5.946,0.045,-0.050
5.948,0.055,-0.050
5.950,0.090,-0.055
5.952,0.110,-0.060
5.954,0.125,-0.060
5.956,0.110,-0.065
5.958,0.115,-0.070
5.960,0.095,-0.070
5.962,0.050,-0.075
5.964,0.045,-0.075
5.966,0.035,-0.075
5.968,0.060,-0.070
5.970,0.085,-0.070
5.972,0.125,-0.065
5.974,0.130,-0.065
5.976,0.105,-0.065
5.978,0.130,-0.060
5.980,0.105,-0.065
5.982,0.040,-0.065
5.984,0.035,-0.065
5.986,0.040,-0.070
5.988,0.060,-0.070
5.990,0.105,-0.070
5.992,0.135,-0.065
5.994,0.165,-0.065
5.996,0.180,-0.060
5.998,0.155,-0.050
6.000,0.120,-0.045
6.002,0.065,-0.045
6.004,0.050,-0.040
6.006,0.055,-0.040
6.008,0.070,-0.035
6.010,0.110,-0.040
6.012,0.145,-0.040
6.014,0.160,-0.040
6.016,0.140,-0.040
6.018,0.120,-0.045
6.020,0.130,-0.040
6.022,0.085,-0.040
6.024,0.050,-0.040
6.026,0.065,-0.035
6.028,0.080,-0.035
6.030,0.120,-0.030
6.032,0.170,-0.030
6.034,0.185,-0.030
6.036,0.155,-0.030
6.038,0.145,-0.035
6.040,0.115,-0.035
6.042,0.080,-0.035
6.044,0.075,-0.035
6.046,0.070,-0.035
6.048,0.100,-0.035
6.050,0.105,-0.030
6.052,0.155,-0.030
6.054,0.175,-0.025
6.056,0.160,-0.025
6.058,0.150,-0.025
6.060,0.090,-0.030
6.062,0.060,-0.035
6.064,0.085,-0.040
6.066,0.050,-0.045
6.068,0.085,-0.050
6.070,0.135,-0.055
6.072,0.140,-0.055
6.074,0.160,-0.055
6.076,0.165,-0.050
6.078,0.140,-0.045
6.080,0.095,-0.040
6.082,0.050,-0.035
6.084,0.055,-0.035
6.086,0.085,-0.040
6.088,0.085,-0.040
6.090,0.135,-0.045
6.092,0.125,-0.050
6.094,0.170,-0.055
6.096,0.150,-0.055
6.098,0.120,-0.055
6.100,0.075,-0.050
6.102,0.065,-0.045
6.104,0.030,-0.040
6.106,0.085,-0.035
6.108,0.090,-0.035
6.110,0.135,-0.035
6.112,0.150,-0.035
6.114,0.155,-0.040
6.116,0.180,-0.045
6.118,0.125,-0.050
6.120,0.085,-0.050
6.122,0.065,-0.055
6.124,0.050,-0.055
6.126,0.035,-0.055
6.128,0.050,-0.055
6.130,0.095,-0.060
6.132,0.135,-0.065
6.134,0.150,-0.070
6.136,0.125,-0.075
6.138,0.100,-0.075
6.140,0.070,-0.075
6.142,0.085,-0.075
6.144,0.035,-0.070
6.146,0.055,-0.060
6.148,0.090,-0.055
6.150,0.130,-0.045
6.152,0.175,-0.045
6.154,0.160,-0.045
6.156,0.140,-0.050
6.158,0.130,-0.055
6.160,0.030,-0.065
6.162,0.025,-0.075
6.164,0.035,-0.080
6.166,0.040,-0.080
6.168,0.090,-0.075
6.170,0.125,-0.070
6.172,0.140,-0.060
6.174,0.165,-0.050
6.176,0.135,-0.040
6.178,0.135,-0.035
6.180,0.070,-0.035
6.182,0.040,-0.040
6.184,0.030,-0.045
6.186,0.060,-0.055
6.188,0.070,-0.060
6.190,0.125,-0.065
6.192,0.185,-0.060
6.194,0.175,-0.055
6.196,0.130,-0.050
6.198,0.135,-0.040
6.200,0.070,-0.030
6.202,0.050,-0.025
6.204,0.075,-0.025
6.206,0.090,-0.030
6.208,0.100,-0.035
6.210,0.130,-0.045
6.212,0.160,-0.055
6.214,0.170,-0.060
6.216,0.175,-0.060
6.218,0.110,-0.060
6.220,0.055,-0.055
6.222,0.040,-0.050
6.224,0.035,-0.045
6.226,0.075,-0.040
6.228,0.100,-0.040
6.230,0.175,-0.035
6.232,0.210,-0.035
6.234,0.220,-0.035
6.236,0.200,-0.035
6.238,0.165,-0.030
6.240,0.110,-0.025
6.242,0.075,-0.020
6.244,0.085,-0.010
6.246,0.110,-0.005
6.248,0.165,0.000
6.250,0.190,0.000
6.252,0.205,0.000
6.254,0.195,-0.005
6.256,0.150,-0.015
6.258,0.120,-0.025
6.260,0.055,-0.035
6.262,0.050,-0.045
6.264,0.055,-0.055
6.266,0.070,-0.065
6.268,0.110,-0.070
6.270,0.145,-0.075
6.272,0.110,-0.080
6.274,0.110,-0.085
6.276,0.105,-0.085
6.278,0.095,-0.085
6.280,0.040,-0.080
6.282,0.030,-0.080
6.284,0.050,-0.075
6.286,0.055,-0.070
6.288,0.065,-0.065
6.290,0.105,-0.060
6.292,0.165,-0.055
6.294,0.155,-0.055
6.296,0.130,-0.060
6.298,0.075,-0.065
6.300,0.015,-0.075
6.302,0.005,-0.080
6.304,-0.010,-0.090
6.306,-0.005,-0.100
6.308,0.075,-0.105
6.310,0.090,-0.105
6.312,0.125,-0.110
6.314,0.135,-0.105
6.316,0.080,-0.100
6.318,0.030,-0.095
6.320,0.010,-0.090
6.322,0.035,-0.080
6.324,0.045,-0.075
6.326,0.045,-0.070
6.328,0.060,-0.070
6.330,0.135,-0.070
6.332,0.135,-0.075
6.334,0.125,-0.075
6.336,0.075,-0.080
6.338,0.065,-0.085
6.340,-0.005,-0.090
6.342,-0.020,-0.095
6.344,0.005,-0.095
6.346,0.030,-0.100
6.348,0.055,-0.100
6.350,0.070,-0.105
6.352,0.125,-0.110
6.354,0.090,-0.110
6.356,0.035,-0.115
6.358,0.025,-0.115
6.360,-0.025,-0.115
6.362,-0.020,-0.105
6.364,0.000,-0.090
6.366,0.060,-0.065
6.368,0.155,-0.030
6.370,0.260,0.025
6.372,0.325,0.095
6.374,0.410,0.180
6.376,0.470,0.275
6.378,0.485,0.375
6.380,0.540,0.475
6.382,0.725,0.570
6.384,0.855,0.650
6.386,0.905,0.705
6.388,0.950,0.725
6.390,0.925,0.715
6.392,0.870,0.665
6.394,0.760,0.580
6.396,0.630,0.470
6.398,0.460,0.345
6.400,0.285,0.215
6.402,0.135,0.090
6.404,0.050,-0.015
6.406,-0.020,-0.095
6.408,0.000,-0.145
6.410,0.030,-0.170
6.412,0.080,-0.170
6.414,0.075,-0.150
6.416,0.090,-0.125
6.418,0.075,-0.095
6.420,0.010,-0.065
6.422,0.030,-0.045
6.424,0.075,-0.035
6.426,0.095,-0.030
6.428,0.130,-0.030
6.430,0.145,-0.030
6.432,0.150,-0.035
6.434,0.150,-0.040
6.436,0.120,-0.045
6.438,0.085,-0.050
6.440,0.055,-0.050
6.442,0.015,-0.050
6.444,0.060,-0.055
6.446,0.050,-0.055
6.448,0.115,-0.055
6.450,0.140,-0.060
6.452,0.140,-0.060
6.454,0.155,-0.060
6.456,0.135,-0.060
6.458,0.060,-0.055
6.460,0.075,-0.055
6.462,0.040,-0.055
6.464,0.045,-0.055
6.466,0.090,-0.055
6.468,0.145,-0.050
6.470,0.145,-0.050
6.472,0.170,-0.045
6.474,0.145,-0.040
6.476,0.130,-0.040
6.478,0.090,-0.035
6.480,0.070,-0.030
6.482,0.055,-0.025
6.484,0.095,-0.025
6.486,0.090,-0.030
6.488,0.160,-0.030
6.490,0.175,-0.030
6.492,0.185,-0.030
6.494,0.145,-0.030
6.496,0.150,-0.030
6.498,0.115,-0.030
6.500,0.090,-0.025
6.502,0.070,-0.025
6.504,0.095,-0.020
6.506,0.115,-0.020
6.508,0.155,-0.020
6.510,0.160,-0.020
6.512,0.170,-0.020
6.514,0.160,-0.015
6.516,0.160,-0.010
6.518,0.130,0.000
6.520,0.100,0.005
6.522,0.115,0.015
6.524,0.120,0.020
6.526,0.125,0.025
6.528,0.220,0.030
6.530,0.235,0.030
6.532,0.205,0.025
6.534,0.210,0.025
6.536,0.180,0.020
6.538,0.130,0.020
6.540,0.105,0.020
6.542,0.145,0.025
6.544,0.145,0.030
6.546,0.200,0.040
6.548,0.245,0.050
6.550,0.275,0.055
6.552,0.275,0.065
6.554,0.255,0.070
6.556,0.240,0.070
6.558,0.165,0.075
6.560,0.170,0.075
6.562,0.195,0.080
6.564,0.230,0.085
6.566,0.270,0.095
6.568,0.300,0.105
6.570,0.315,0.115
6.572,0.335,0.130
6.574,0.335,0.140
6.576,0.335,0.155
6.578,0.280,0.160
6.580,0.245,0.165
6.582,0.240,0.170
6.584,0.285,0.170
6.586,0.305,0.170
6.588,0.335,0.165
6.590,0.380,0.165
6.592,0.390,0.170
6.594,0.360,0.170
6.596,0.355,0.180
6.598,0.295,0.185
6.600,0.240,0.195
6.602,0.285,0.205
6.604,0.325,0.215
6.606,0.350,0.220
6.608,0.420,0.220
6.610,0.445,0.220
6.612,0.425,0.220
6.614,0.410,0.215
6.616,0.370,0.210
6.618,0.305,0.205
6.620,0.275,0.195
6.622,0.265,0.190
6.624,0.295,0.185
6.626,0.345,0.180
6.628,0.375,0.175
6.630,0.365,0.175
6.632,0.340,0.170
6.634,0.335,0.165
6.636,0.290,0.160
6.638,0.250,0.150
6.640,0.190,0.135
6.642,0.185,0.120
6.644,0.175,0.105
6.646,0.215,0.090
6.648,0.260,0.070
6.650,0.240,0.055
6.652,0.250,0.045
6.654,0.205,0.035
6.656,0.165,0.035
6.658,0.120,0.030
6.660,0.125,0.035
6.662,0.110,0.035
6.664,0.125,0.035
6.666,0.135,0.030
6.668,0.160,0.020
6.670,0.185,0.005
6.672,0.220,-0.015
6.674,0.165,-0.030
6.676,0.065,-0.050
6.678,0.030,-0.065
6.680,0.035,-0.075
6.682,0.040,-0.080
6.684,0.060,-0.080
6.686,0.110,-0.080
6.688,0.095,-0.075
6.690,0.110,-0.065
6.692,0.130,-0.060
6.694,0.105,-0.060
6.696,0.050,-0.055
6.698,0.015,-0.060
6.700,-0.005,-0.065
6.702,0.010,-0.070
6.704,0.060,-0.075
6.706,0.130,-0.085
6.708,0.125,-0.090
6.710,0.100,-0.090
6.712,0.110,-0.095
6.714,0.065,-0.090
6.716,0.035,-0.090
6.718,0.025,-0.085
6.720,-0.020,-0.085
6.722,-0.025,-0.080
6.724,0.060,-0.080
6.726,0.075,-0.080
6.728,0.090,-0.080
6.730,0.105,-0.080
6.732,0.100,-0.085
6.734,0.100,-0.085
6.736,0.025,-0.080
6.738,0.030,-0.075
6.740,0.035,-0.070
6.742,0.030,-0.065
6.744,0.085,-0.055
6.746,0.100,-0.050
6.748,0.120,-0.050
6.750,0.115,-0.050
6.752,0.135,-0.055
6.754,0.100,-0.060
6.756,0.045,-0.065
6.758,0.000,-0.070
6.760,-0.010,-0.070
6.762,0.050,-0.070
6.764,0.060,-0.065
6.766,0.110,-0.060
6.768,0.130,-0.055
6.770,0.150,-0.055
6.772,0.130,-0.055
6.774,0.080,-0.055
6.776,0.040,-0.060
6.778,0.025,-0.065
6.780,0.000,-0.070
6.782,-0.005,-0.075
6.784,0.055,-0.075
6.786,0.090,-0.075
6.788,0.090,-0.070
6.790,0.150,-0.065
6.792,0.150,-0.060
6.794,0.105,-0.060
6.796,0.020,-0.060
6.798,-0.030,-0.065
6.800,-0.005,-0.070
6.802,0.025,-0.075
6.804,0.055,-0.080
6.806,0.115,-0.080
6.808,0.145,-0.075
6.810,0.155,-0.070
6.812,0.115,-0.060
6.814,0.110,-0.050
6.816,0.075,-0.040
6.818,0.020,-0.030
6.820,-0.015,-0.025
6.822,0.075,-0.030
6.824,0.090,-0.035
6.826,0.120,-0.040
6.828,0.145,-0.050
6.830,0.105,-0.055
6.832,0.105,-0.060
6.834,0.095,-0.065
6.836,0.050,-0.065
6.838,0.010,-0.065
6.840,0.015,-0.065
6.842,0.005,-0.065
6.844,0.070,-0.060
6.846,0.115,-0.060
6.848,0.125,-0.065
6.850,0.105,-0.065
6.852,0.075,-0.065
6.854,0.075,-0.070
6.856,0.025,-0.070
6.858,0.010,-0.075
6.860,0.000,-0.080
6.862,0.020,-0.080
6.864,0.060,-0.085
6.866,0.120,-0.090
6.868,0.090,-0.090
6.870,0.110,-0.090
6.872,0.100,-0.090
6.874,0.055,-0.085
6.876,0.035,-0.080
6.878,0.005,-0.075
6.880,-0.005,-0.065
6.882,-0.005,-0.060
6.884,0.085,-0.050
6.886,0.125,-0.045
6.888,0.155,-0.045
6.890,0.155,-0.045
6.892,0.115,-0.045
6.894,0.050,-0.050
6.896,0.020,-0.055
6.898,0.025,-0.060
6.900,0.005,-0.070
6.902,0.020,-0.075
6.904,0.055,-0.080
6.906,0.105,-0.085
6.908,0.130,-0.085
6.910,0.135,-0.085
6.912,0.085,-0.085
6.914,0.045,-0.080
6.916,0.010,-0.075
6.918,-0.005,-0.070
6.920,0.035,-0.065
6.922,0.045,-0.055
6.924,0.095,-0.050
6.926,0.135,-0.045
6.928,0.150,-0.045
6.930,0.120,-0.045
6.932,0.090,-0.045
6.934,0.080,-0.050
6.936,0.045,-0.055
6.938,0.005,-0.055
6.940,-0.015,-0.060
6.942,0.025,-0.060
6.944,0.085,-0.055
6.946,0.130,-0.050
6.948,0.135,-0.040
6.950,0.160,-0.030
6.952,0.125,-0.020
6.954,0.130,-0.010
6.956,0.075,-0.005
6.958,0.045,0.000
6.960,0.065,0.005
6.962,0.090,0.005
6.964,0.160,0.000
6.966,0.150,-0.005
6.968,0.160,-0.005
6.970,0.180,-0.010
6.972,0.150,-0.010
6.974,0.095,-0.015
6.976,0.070,-0.015
6.978,0.060,-0.015
6.980,0.035,-0.015
6.982,0.065,-0.020
6.984,0.130,-0.025
6.986,0.135,-0.035
6.988,0.120,-0.045
6.990,0.110,-0.055
6.992,0.075,-0.070
6.994,0.010,-0.080
6.996,-0.005,-0.085
6.998,-0.030,-0.090
7.000,-0.010,-0.090
7.002,0.020,-0.085
7.004,0.065,-0.080
7.006,0.085,-0.075
7.008,0.080,-0.070
7.010,0.105,-0.065
7.012,0.110,-0.065
7.014,0.060,-0.070
7.016,-0.015,-0.075
7.018,-0.015,-0.080
7.020,-0.020,-0.085
7.022,0.010,-0.090
7.024,0.060,-0.090
7.026,0.090,-0.090
7.028,0.105,-0.085
7.030,0.085,-0.085
7.032,0.080,-0.080
7.034,0.005,-0.080
7.036,-0.020,-0.085
7.038,-0.015,-0.085
7.040,0.025,-0.090
7.042,0.015,-0.095
7.044,0.055,-0.095
7.046,0.090,-0.095
7.048,0.090,-0.095
7.050,0.075,-0.090
7.052,0.080,-0.090
7.054,-0.005,-0.085
7.056,-0.045,-0.085
7.058,-0.065,-0.085
7.060,-0.035,-0.090
7.062,0.005,-0.095
7.064,0.050,-0.100
7.066,0.060,-0.100
7.068,0.095,-0.100
7.070,0.090,-0.100
7.072,0.055,-0.095
7.074,-0.010,-0.095
7.076,-0.030,-0.090
7.078,-0.040,-0.095
7.080,-0.030,-0.100
7.082,-0.015,-0.110
7.084,0.030,-0.120
7.086,0.030,-0.125
7.088,0.060,-0.125
7.090,0.060,-0.115
7.092,0.045,-0.090
7.094,0.070,-0.050
7.096,0.120,0.010
7.098,0.175,0.085
7.100,0.230,0.175
7.102,0.380,0.270
7.104,0.505,0.370
7.106,0.630,0.465
7.108,0.795,0.545
7.110,0.850,0.610
7.112,0.825,0.650
7.114,0.795,0.665
7.116,0.725,0.645
7.118,0.650,0.595
7.120,0.545,0.515
7.122,0.475,0.415
7.124,0.415,0.300
7.126,0.385,0.180
7.128,0.215,0.065
7.130,0.080,-0.030
7.132,-0.040,-0.105
7.134,-0.100,-0.150
7.136,-0.090,-0.175
7.138,-0.135,-0.175
7.140,-0.080,-0.160
7.142,-0.020,-0.135
7.144,0.060,-0.110
7.146,0.100,-0.090
7.148,0.120,-0.075
7.150,0.115,-0.065
7.152,0.060,-0.060
7.154,0.020,-0.055
7.156,0.040,-0.055
7.158,0.010,-0.055
7.160,0.030,-0.050
7.162,0.065,-0.045
7.164,0.085,-0.040
7.166,0.160,-0.040
7.168,0.160,-0.040
7.170,0.075,-0.045
7.172,0.030,-0.050
7.174,0.020,-0.055
7.176,0.010,-0.060
7.178,0.035,-0.065
7.180,0.025,-0.065
7.182,0.075,-0.060
7.184,0.100,-0.050
7.186,0.135,-0.040
7.188,0.125,-0.030
7.190,0.085,-0.025
7.192,0.080,-0.020
7.194,0.055,-0.015
7.196,0.015,-0.020
7.198,0.065,-0.020
7.200,0.050,-0.025
7.202,0.120,-0.025
7.204,0.145,-0.030
7.206,0.155,-0.030
7.208,0.160,-0.025
7.210,0.140,-0.025
7.212,0.080,-0.020
7.214,0.045,-0.020
7.216,0.060,-0.015
7.218,0.040,-0.015
7.220,0.050,-0.015
7.222,0.085,-0.015
7.224,0.150,-0.015
7.226,0.180,-0.010
7.228,0.185,-0.005
7.230,0.150,0.000
7.232,0.095,0.010
7.234,0.085,0.015
7.236,0.060,0.020
7.238,0.055,0.025
7.240,0.065,0.025
7.242,0.140,0.020
7.244,0.180,0.015
7.246,0.185,0.010
7.248,0.180,0.010
7.250,0.160,0.005
7.252,0.125,0.005
7.254,0.105,0.010
7.256,0.070,0.015
7.258,0.085,0.020
7.260,0.135,0.030
7.262,0.175,0.040
7.264,0.200,0.045
7.266,0.200,0.050
7.268,0.190,0.055
7.270,0.210,0.060
7.272,0.185,0.065
7.274,0.150,0.070
7.276,0.135,0.075
7.278,0.125,0.080
7.280,0.140,0.085
7.282,0.195,0.090
7.284,0.265,0.090
7.286,0.290,0.095
7.288,0.295,0.095
7.290,0.235,0.100
7.292,0.200,0.110
7.294,0.190,0.115
7.296,0.215,0.125
7.298,0.205,0.140
7.300,0.230,0.155
7.302,0.315,0.165
7.304,0.335,0.175
7.306,0.325,0.185
7.308,0.340,0.190
7.310,0.330,0.190
7.312,0.290,0.190
7.314,0.280,0.190
7.316,0.265,0.190
7.318,0.300,0.190
7.320,0.245,0.195
7.322,0.310,0.200
7.324,0.360,0.205
7.326,0.390,0.205
7.328,0.395,0.210
7.330,0.340,0.215
7.332,0.285,0.215
7.334,0.265,0.215
7.336,0.285,0.215
7.338,0.310,0.220
7.340,0.325,0.220
7.342,0.360,0.220
7.344,0.400,0.220
7.346,0.390,0.220
7.348,0.390,0.215
7.350,0.365,0.215
7.352,0.300,0.205
7.354,0.225,0.200
7.356,0.210,0.190
7.358,0.230,0.180
7.360,0.255,0.170
7.362,0.285,0.160
7.364,0.285,0.150
7.366,0.285,0.140
7.368,0.290,0.130
7.370,0.255,0.115
7.372,0.185,0.105
7.374,0.160,0.095
7.376,0.150,0.090
7.378,0.140,0.080
7.380,0.170,0.075
7.382,0.190,0.065
7.384,0.200,0.060
7.386,0.170,0.050
7.388,0.155,0.040
7.390,0.125,0.025
7.392,0.090,0.010
7.394,0.060,-0.010
7.396,0.015,-0.025
7.398,0.055,-0.040
7.400,0.030,-0.050
7.402,0.070,-0.055
7.404,0.130,-0.055
7.406,0.115,-0.050
7.408,0.145,-0.040
7.410,0.125,-0.035
7.412,0.045,-0.025
7.414,0.030,-0.020
7.416,0.015,-0.020
7.418,0.025,-0.025
7.420,0.065,-0.025
7.422,0.090,-0.035
7.424,0.085,-0.040
7.426,0.160,-0.045
7.428,0.115,-0.050
7.430,0.065,-0.055
7.432,0.025,-0.060
7.434,-0.010,-0.060
7.436,-0.015,-0.060
7.438,0.010,-0.065
7.440,0.070,-0.065
7.442,0.090,-0.065
7.444,0.100,-0.065
7.446,0.105,-0.060
7.448,0.090,-0.060
7.450,0.055,-0.055
7.452,0.010,-0.050
7.454,0.005,-0.045
7.456,0.005,-0.045
7.458,0.055,-0.040
7.460,0.050,-0.040
7.462,0.090,-0.045
7.464,0.105,-0.045
7.466,0.125,-0.050
7.468,0.110,-0.050
7.470,0.055,-0.055
7.472,0.005,-0.060
7.474,0.005,-0.060
7.476,-0.005,-0.065
7.478,0.015,-0.065
7.480,0.055,-0.065
7.482,0.080,-0.065
7.484,0.100,-0.065
7.486,0.125,-0.060
7.488,0.100,-0.060
7.490,0.065,-0.055
7.492,0.045,-0.055
7.494,0.025,-0.050
7.496,0.005,-0.050
7.498,0.020,-0.050
7.500,0.070,-0.050
7.502,0.120,-0.050
7.504,0.130,-0.045
7.506,0.100,-0.045
7.508,0.100,-0.040
7.510,0.085,-0.030
7.512,0.080,-0.025
7.514,0.055,-0.020
7.516,0.030,-0.010
7.518,0.040,-0.005
7.520,0.085,-0.005
7.522,0.165,-0.005
7.524,0.180,-0.010
7.526,0.140,-0.020
7.528,0.095,-0.025
7.530,0.045,-0.035
7.532,-0.005,-0.045
7.534,-0.010,-0.050
7.536,-0.015,-0.055
7.538,0.045,-0.055
7.540,0.075,-0.055
7.542,0.125,-0.050
7.544,0.145,-0.040
7.546,0.120,-0.035
7.548,0.110,-0.030
7.550,0.060,-0.025
7.552,0.025,-0.025
7.554,0.010,-0.025
7.556,0.010,-0.030
7.558,0.070,-0.035
7.560,0.105,-0.045
7.562,0.095,-0.050
7.564,0.120,-0.055
7.566,0.125,-0.055
7.568,0.090,-0.055
7.570,0.055,-0.055
7.572,0.030,-0.050
7.574,0.010,-0.045
7.576,0.000,-0.045
7.578,0.025,-0.045
7.580,0.060,-0.045
7.582,0.095,-0.050
7.584,0.140,-0.055
7.586,0.095,-0.055
7.588,0.055,-0.060
7.590,0.015,-0.065
7.592,0.000,-0.065
7.594,0.020,-0.070
7.596,0.070,-0.070
7.598,0.020,-0.070
7.600,0.055,-0.070
7.602,0.090,-0.070
7.604,0.115,-0.070
7.606,0.100,-0.065
7.608,0.090,-0.065
7.610,0.050,-0.060
7.612,0.030,-0.055
7.614,0.000,-0.055
7.616,0.005,-0.055
7.618,0.010,-0.055
7.620,0.050,-0.060
7.622,0.105,-0.065
7.624,0.120,-0.070
7.626,0.085,-0.075
7.628,0.065,-0.080
7.630,0.035,-0.080
7.632,0.000,-0.080
7.634,0.005,-0.075
7.636,-0.030,-0.070
7.638,0.025,-0.065
7.640,0.075,-0.060
7.642,0.110,-0.055
7.644,0.115,-0.055
7.646,0.080,-0.055
7.648,0.050,-0.055
7.650,0.015,-0.060
7.652,-0.025,-0.065
7.654,-0.040,-0.065
7.656,-0.010,-0.070
7.658,0.065,-0.075
7.660,0.095,-0.075
7.662,0.115,-0.075
7.664,0.130,-0.070
7.666,0.105,-0.065
7.668,0.070,-0.060
7.670,0.045,-0.050
7.672,0.050,-0.045
7.674,0.030,-0.040
7.676,0.025,-0.035
7.678,0.035,-0.035
7.680,0.090,-0.035
7.682,0.095,-0.040
7.684,0.115,-0.045
7.686,0.135,-0.045
7.688,0.085,-0.045
7.690,0.050,-0.045
7.692,0.035,-0.040
7.694,0.065,-0.030
7.696,0.065,-0.025
7.698,0.090,-0.015
7.700,0.130,-0.005
7.702,0.150,0.000
7.704,0.190,0.000
7.706,0.165,0.000
7.708,0.140,0.000
7.710,0.085,-0.005
7.712,0.065,-0.010
7.714,0.080,-0.010
7.716,0.085,-0.015
7.718,0.045,-0.020
7.720,0.090,-0.020
7.722,0.170,-0.025
7.724,0.170,-0.030
7.726,0.115,-0.040
7.728,0.085,-0.045
7.730,0.030,-0.055
7.732,-0.015,-0.065
7.734,-0.020,-0.070
7.736,0.015,-0.075
7.738,0.045,-0.080
7.740,0.065,-0.080
7.742,0.075,-0.080
7.744,0.085,-0.080
7.746,0.085,-0.085
7.748,0.060,-0.085
7.750,-0.010,-0.085
7.752,-0.020,-0.085
7.754,0.000,-0.080
7.756,0.010,-0.080
7.758,0.055,-0.075
7.760,0.075,-0.075
7.762,0.080,-0.075
7.764,0.095,-0.075
7.766,0.080,-0.080
7.768,0.020,-0.085
7.770,-0.060,-0.095
7.772,-0.040,-0.105
7.774,-0.040,-0.110
7.776,-0.025,-0.115
7.778,0.015,-0.115
7.780,0.075,-0.110
7.782,0.115,-0.100
7.784,0.135,-0.095
7.786,0.080,-0.085
7.788,0.035,-0.080
7.790,-0.020,-0.075
7.792,-0.035,-0.075
7.794,-0.010,-0.080
7.796,0.010,-0.085
7.798,0.015,-0.095
7.800,0.080,-0.100
7.802,0.085,-0.110
7.804,0.085,-0.110
7.806,0.065,-0.115
7.808,0.010,-0.115
7.810,-0.045,-0.110
7.812,-0.070,-0.110
7.814,-0.070,-0.110
7.816,-0.055,-0.110
7.818,0.030,-0.110
7.820,0.080,-0.110
7.822,0.060,-0.115
7.824,0.055,-0.115
7.826,0.035,-0.105
7.828,0.005,-0.095
7.830,-0.015,-0.075
7.832,0.045,-0.040
7.834,0.120,0.005
7.836,0.190,0.070
7.838,0.300,0.145
7.840,0.415,0.235
7.842,0.500,0.335
7.844,0.625,0.435
7.846,0.700,0.530
7.848,0.800,0.610
7.850,0.840,0.670
7.852,0.795,0.700
7.854,0.775,0.695
7.856,0.705,0.650
7.858,0.675,0.575
7.860,0.640,0.470
7.862,0.525,0.345
7.864,0.410,0.220
7.866,0.220,0.095
7.868,0.085,-0.010
7.870,-0.070,-0.090
7.872,-0.140,-0.145
7.874,-0.100,-0.170
7.876,-0.070,-0.175
7.878,0.010,-0.160
7.880,0.080,-0.135
7.882,0.095,-0.110
7.884,0.095,-0.085
7.886,0.125,-0.065
7.888,0.055,-0.050
7.890,0.035,-0.040
7.892,0.040,-0.035
7.894,0.030,-0.035
7.896,0.055,-0.035
7.898,0.090,-0.035
7.900,0.125,-0.035
7.902,0.150,-0.040
7.904,0.140,-0.040
7.906,0.120,-0.050
7.908,0.065,-0.055
7.910,0.035,-0.060
7.912,0.025,-0.065
7.914,0.035,-0.070
7.916,0.025,-0.070
7.918,0.095,-0.065
7.920,0.120,-0.065
7.922,0.140,-0.060
7.924,0.160,-0.055
7.926,0.110,-0.050
7.928,0.045,-0.050
7.930,0.020,-0.055
7.932,0.010,-0.055
7.934,0.030,-0.060
7.936,0.065,-0.060
7.938,0.120,-0.055
7.940,0.155,-0.050
7.942,0.150,-0.045
7.944,0.140,-0.035
7.946,0.135,-0.025
7.948,0.090,-0.015
7.950,0.080,-0.015
7.952,0.090,-0.010
7.954,0.060,-0.015
7.956,0.070,-0.020
7.958,0.125,-0.025
7.960,0.150,-0.030
7.962,0.160,-0.035
7.964,0.160,-0.035
7.966,0.130,-0.035
7.968,0.065,-0.035
7.970,0.035,-0.030
7.972,0.060,-0.025
7.974,0.090,-0.020
7.976,0.110,-0.015
7.978,0.160,-0.010
7.980,0.205,-0.005
7.982,0.215,0.000
7.984,0.180,0.000
7.986,0.155,0.005
7.988,0.110,0.005
7.990,0.060,0.005
7.992,0.060,0.005
7.994,0.075,0.005
7.996,0.125,0.005
7.998,0.165,0.005
8.000,0.190,0.005
8.002,0.240,0.010
8.004,0.185,0.015
8.006,0.180,0.020
8.008,0.160,0.030
8.010,0.135,0.045
8.012,0.165,0.055
8.014,0.140,0.065
8.016,0.155,0.070
8.018,0.245,0.075
8.020,0.285,0.075
8.022,0.315,0.075
8.024,0.235,0.075
8.026,0.215,0.075
8.028,0.230,0.080
8.030,0.190,0.085
8.032,0.170,0.095
8.034,0.205,0.105
8.036,0.225,0.120
8.038,0.305,0.130
8.040,0.335,0.135
8.042,0.335,0.140
8.044,0.340,0.145
8.046,0.320,0.150
8.048,0.255,0.155
8.050,0.270,0.155
8.052,0.275,0.165
8.054,0.280,0.170
8.056,0.310,0.180
8.058,0.375,0.185
8.060,0.410,0.190
8.062,0.400,0.195
8.064,0.380,0.200
8.066,0.345,0.200
8.068,0.330,0.200
8.070,0.315,0.200
8.072,0.290,0.200
8.074,0.300,0.200
8.076,0.345,0.205
8.078,0.390,0.210
8.080,0.405,0.210
8.082,0.425,0.210
8.084,0.390,0.210
8.086,0.310,0.205
8.088,0.280,0.195
8.090,0.280,0.190
8.092,0.280,0.180
8.094,0.315,0.170
8.096,0.305,0.165
8.098,0.345,0.165
8.100,0.370,0.165
8.102,0.360,0.160
8.104,0.325,0.160
8.106,0.250,0.155
8.108,0.210,0.145
8.110,0.185,0.135
8.112,0.155,0.115
8.114,0.195,0.095
8.116,0.220,0.075
8.118,0.240,0.055
8.120,0.220,0.035
8.122,0.245,0.020
8.124,0.175,0.005
8.126,0.130,-0.005
8.128,0.080,-0.010
8.130,0.050,-0.015
8.132,0.050,-0.015
8.134,0.100,-0.020
8.136,0.145,-0.020
8.138,0.165,-0.025
8.140,0.145,-0.030
8.142,0.130,-0.035
8.144,0.120,-0.035
8.146,0.110,-0.040
8.148,0.075,-0.040
8.150,0.050,-0.045
8.152,0.035,-0.045
8.154,0.060,-0.045
8.156,0.100,-0.045
8.158,0.105,-0.045
8.160,0.120,-0.050
8.162,0.140,-0.050
8.164,0.120,-0.050
8.166,0.085,-0.050
8.168,0.060,-0.055
8.170,0.035,-0.055
8.172,0.030,-0.060
8.174,0.055,-0.060
8.176,0.115,-0.060
8.178,0.160,-0.055
8.180,0.150,-0.055
8.182,0.120,-0.050
8.184,0.115,-0.050
8.186,0.055,-0.050
8.188,0.060,-0.050
8.190,0.030,-0.055
8.192,0.020,-0.065
8.194,0.060,-0.070
8.196,0.115,-0.080
8.198,0.100,-0.085
8.200,0.120,-0.085
8.202,0.130,-0.085
8.204,0.125,-0.080
8.206,0.055,-0.075
8.208,0.045,-0.065
8.210,0.035,-0.060
8.212,0.020,-0.055
8.214,0.065,-0.055
8.216,0.125,-0.055
8.218,0.130,-0.055
8.220,0.165,-0.055
8.222,0.155,-0.060
8.224,0.120,-0.060
8.226,0.070,-0.060
8.228,0.035,-0.055
8.230,0.055,-0.055
8.232,0.025,-0.055
8.234,0.060,-0.055
8.236,0.130,-0.060
8.238,0.140,-0.060
8.240,0.150,-0.065
8.242,0.130,-0.065
8.244,0.120,-0.060
8.246,0.085,-0.060
8.248,0.065,-0.050
8.250,0.045,-0.045
8.252,0.075,-0.035
8.254,0.095,-0.030
8.256,0.160,-0.030
8.258,0.140,-0.030
8.260,0.150,-0.035
8.262,0.145,-0.040
8.264,0.115,-0.045
8.266,0.055,-0.050
8.268,0.050,-0.055
8.270,0.040,-0.055
8.272,0.075,-0.055
8.274,0.115,-0.055
8.276,0.150,-0.055
8.278,0.120,-0.055
8.280,0.115,-0.055
8.282,0.130,-0.055
8.284,0.120,-0.055
8.286,0.080,-0.060
8.288,0.030,-0.060
8.290,0.055,-0.060
8.292,0.055,-0.060
8.294,0.075,-0.055
8.296,0.130,-0.050
8.298,0.135,-0.050
8.300,0.170,-0.045
8.302,0.150,-0.040
8.304,0.115,-0.040
8.306,0.055,-0.040
8.308,0.055,-0.040
8.310,0.055,-0.045
8.312,0.065,-0.050
8.314,0.105,-0.055
8.316,0.145,-0.060
8.318,0.105,-0.065
8.320,0.135,-0.070
8.322,0.130,-0.070
8.324,0.105,-0.070
8.326,0.080,-0.065
8.328,0.055,-0.060
8.330,0.035,-0.055
8.332,0.055,-0.050
8.334,0.085,-0.045
8.336,0.120,-0.045
8.338,0.140,-0.040
8.340,0.190,-0.045
8.342,0.140,-0.050
8.344,0.085,-0.055
8.346,0.060,-0.060
8.348,0.020,-0.065
8.350,0.050,-0.070
8.352,0.065,-0.070
8.354,0.050,-0.070
8.356,0.110,-0.070
8.358,0.110,-0.070
8.360,0.120,-0.070
8.362,0.095,-0.065
8.364,0.125,-0.065
8.366,0.080,-0.065
8.368,0.035,-0.060
8.370,0.010,-0.060
8.372,0.055,-0.055
8.374,0.090,-0.055
8.376,0.125,-0.055
8.378,0.145,-0.050
8.380,0.160,-0.050
8.382,0.135,-0.045
8.384,0.095,-0.045
8.386,0.040,-0.040
8.388,0.090,-0.040
8.390,0.060,-0.035
8.392,0.085,-0.030
8.394,0.105,-0.030
8.396,0.145,-0.025
8.398,0.160,-0.025
8.400,0.190,-0.020
8.402,0.165,-0.025
8.404,0.115,-0.025
8.406,0.070,-0.030
8.408,0.055,-0.035
8.410,0.080,-0.040
8.412,0.090,-0.045
8.414,0.080,-0.045
8.416,0.160,-0.045
8.418,0.165,-0.040
8.420,0.160,-0.035
8.422,0.165,-0.030
8.424,0.135,-0.020
8.426,0.110,-0.015
8.428,0.090,-0.015
8.430,0.080,-0.015
8.432,0.100,-0.015
8.434,0.155,-0.015
8.436,0.160,-0.015
8.438,0.170,-0.015
8.440,0.190,-0.015
8.442,0.200,-0.015
8.444,0.155,-0.015
8.446,0.120,-0.015
8.448,0.120,-0.015
8.450,0.075,-0.020
8.452,0.090,-0.025
8.454,0.105,-0.035
8.456,0.120,-0.040
8.458,0.145,-0.050
8.460,0.135,-0.060
8.462,0.110,-0.065
8.464,0.040,-0.075
8.466,0.025,-0.080
8.468,0.020,-0.085
8.470,0.020,-0.090
8.472,0.050,-0.095
8.474,0.085,-0.095
8.476,0.125,-0.095
8.478,0.125,-0.090
8.480,0.110,-0.090
8.482,0.100,-0.085
8.484,0.085,-0.080
8.486,0.035,-0.080
8.488,0.000,-0.075
8.490,0.030,-0.080
8.492,0.025,-0.085
8.494,0.075,-0.090
8.496,0.125,-0.095
8.498,0.100,-0.100
8.500,0.130,-0.100
8.502,0.105,-0.100
8.504,0.055,-0.095
8.506,0.040,-0.095
8.508,0.000,-0.090
8.510,-0.010,-0.085
8.512,0.035,-0.085
8.514,0.070,-0.090
8.516,0.100,-0.095
8.518,0.050,-0.105
8.520,0.105,-0.110
8.522,0.080,-0.115
8.524,0.025,-0.120
8.526,-0.005,-0.120
8.528,-0.010,-0.115
8.530,-0.010,-0.105
8.532,0.040,-0.095
8.534,0.055,-0.090
8.536,0.135,-0.080
8.538,0.140,-0.075
8.540,0.110,-0.075
8.542,0.070,-0.080
8.544,0.020,-0.090
8.546,-0.050,-0.100
8.548,-0.025,-0.115
8.550,-0.005,-0.125
8.552,0.010,-0.135
8.554,0.025,-0.140
8.556,0.065,-0.135
8.558,0.065,-0.125
8.560,0.075,-0.105
8.562,0.100,-0.075
8.564,0.110,-0.030
8.566,0.170,0.025
8.568,0.215,0.095
8.570,0.315,0.180
8.572,0.400,0.275
8.574,0.535,0.375
8.576,0.695,0.475
8.578,0.845,0.570
8.580,0.920,0.645
8.582,0.920,0.695
8.584,0.855,0.715
8.586,0.790,0.700
8.588,0.730,0.645
8.590,0.650,0.560
8.592,0.545,0.450
8.594,0.515,0.320
8.596,0.405,0.190
8.598,0.255,0.065
8.600,0.090,-0.040
8.602,-0.050,-0.120
8.604,-0.080,-0.165
8.606,-0.025,-0.185
8.608,-0.035,-0.175
8.610,-0.010,-0.155
8.612,0.035,-0.120
8.614,0.120,-0.085
8.616,0.165,-0.055
8.618,0.160,-0.040
8.620,0.170,-0.030
8.622,0.140,-0.030
8.624,0.060,-0.040
8.626,0.030,-0.050
8.628,0.015,-0.060
8.630,0.045,-0.070
8.632,0.060,-0.075
8.634,0.105,-0.075
8.636,0.160,-0.075
8.638,0.180,-0.070
8.640,0.145,-0.065
8.642,0.115,-0.065
8.644,0.050,-0.060
8.646,0.010,-0.060
8.648,0.025,-0.060
8.650,0.055,-0.065
8.652,0.080,-0.065
8.654,0.145,-0.065
8.656,0.140,-0.065
8.658,0.170,-0.065
8.660,0.125,-0.060
8.662,0.105,-0.060
8.664,0.065,-0.060
8.666,0.060,-0.055
8.668,0.040,-0.055
8.670,0.060,-0.050
8.672,0.115,-0.045
8.674,0.150,-0.040
8.676,0.175,-0.035
8.678,0.170,-0.030
8.680,0.155,-0.030
8.682,0.145,-0.025
8.684,0.105,-0.025
8.686,0.055,-0.025
8.688,0.070,-0.020
8.690,0.100,-0.020
8.692,0.115,-0.015
8.694,0.185,-0.010
8.696,0.210,-0.005
8.698,0.200,0.000
8.700,0.165,0.005
8.702,0.155,0.010
8.704,0.105,0.015
8.706,0.090,0.015
8.708,0.110,0.010
8.710,0.115,0.010
8.712,0.155,0.005
8.714,0.200,0.005
8.716,0.220,0.000
8.718,0.225,0.000
8.720,0.200,0.005
8.722,0.175,0.010
8.724,0.135,0.015
8.726,0.080,0.015
8.728,0.095,0.020
8.730,0.135,0.020
8.732,0.195,0.020
8.734,0.210,0.020
8.736,0.255,0.020
8.738,0.260,0.020
8.740,0.235,0.025
8.742,0.200,0.030
8.744,0.170,0.045
8.746,0.160,0.055
8.748,0.185,0.070
8.750,0.185,0.085
8.752,0.230,0.095
8.754,0.260,0.100
8.756,0.320,0.105
8.758,0.310,0.110
8.760,0.300,0.110
8.762,0.270,0.115
8.764,0.235,0.120
8.766,0.220,0.125
8.768,0.230,0.135
8.770,0.245,0.150
8.772,0.325,0.160
8.774,0.355,0.170
8.776,0.370,0.180
8.778,0.385,0.185
8.780,0.350,0.190
8.782,0.320,0.190
8.784,0.305,0.190
8.786,0.310,0.195
8.788,0.290,0.195
8.790,0.300,0.200
8.792,0.380,0.205
8.794,0.415,0.210
8.796,0.410,0.210
8.798,0.420,0.210
8.800,0.370,0.210
8.802,0.340,0.210
8.804,0.335,0.205
8.806,0.295,0.205
8.808,0.310,0.205
8.810,0.355,0.210
8.812,0.380,0.215
8.814,0.430,0.220
8.816,0.410,0.225
8.818,0.390,0.230
8.820,0.370,0.230
8.822,0.330,0.225
8.824,0.310,0.220
8.826,0.305,0.210
8.828,0.285,0.195
8.830,0.295,0.180
8.832,0.295,0.165
8.834,0.350,0.155
8.836,0.350,0.140
8.838,0.290,0.130
8.840,0.260,0.120
8.842,0.225,0.110
8.844,0.180,0.100
8.846,0.145,0.085
8.848,0.165,0.075
8.850,0.180,0.060
8.852,0.245,0.040
8.854,0.230,0.030
8.856,0.200,0.015
8.858,0.190,0.005
8.860,0.195,0.000
8.862,0.100,-0.005
8.864,0.085,-0.005
8.866,0.090,-0.005
8.868,0.095,-0.005
8.870,0.120,-0.005
8.872,0.145,-0.005
8.874,0.170,-0.010
8.876,0.175,-0.015
8.878,0.145,-0.020
8.880,0.105,-0.030
8.882,0.100,-0.035
8.884,0.060,-0.040
8.886,0.030,-0.045
8.888,0.070,-0.045
8.890,0.080,-0.045
8.892,0.115,-0.050
8.894,0.135,-0.050
8.896,0.140,-0.050
8.898,0.125,-0.050
8.900,0.110,-0.055
8.902,0.075,-0.055
8.904,0.025,-0.060
8.906,0.005,-0.060
8.908,0.030,-0.065
8.910,0.085,-0.065
8.912,0.130,-0.065
8.914,0.135,-0.065
8.916,0.125,-0.060
8.918,0.130,-0.060
8.920,0.100,-0.060
8.922,0.060,-0.060
8.924,0.035,-0.060
8.926,0.015,-0.060
8.928,0.035,-0.060
8.930,0.035,-0.060
8.932,0.115,-0.060
8.934,0.180,-0.055
8.936,0.165,-0.050
8.938,0.140,-0.045
8.940,0.105,-0.040
8.942,0.050,-0.035
8.944,0.005,-0.035
8.946,0.025,-0.035
8.948,0.095,-0.040
8.950,0.100,-0.050
8.952,0.120,-0.055
8.954,0.145,-0.065
8.956,0.150,-0.070
8.958,0.135,-0.070
8.960,0.105,-0.070
8.962,0.065,-0.065
8.964,0.045,-0.055
8.966,0.055,-0.045
8.968,0.045,-0.035
8.970,0.100,-0.030
8.972,0.140,-0.030
8.974,0.170,-0.030
8.976,0.180,-0.030
8.978,0.145,-0.040
8.980,0.080,-0.045
8.982,0.055,-0.050
8.984,0.030,-0.050
8.986,0.035,-0.050
8.988,0.060,-0.050
8.990,0.115,-0.045
8.992,0.150,-0.045
8.994,0.150,-0.045
8.996,0.155,-0.045
8.998,0.135,-0.050
9.000,0.110,-0.050
9.002,0.030,-0.055
9.004,0.020,-0.060
9.006,0.045,-0.055
9.008,0.050,-0.055
9.010,0.100,-0.050
9.012,0.170,-0.040
9.014,0.165,-0.035
9.016,0.125,-0.030
9.018,0.130,-0.030
9.020,0.085,-0.030
9.022,0.045,-0.035
9.024,0.045,-0.040
9.026,0.040,-0.045
9.028,0.050,-0.050
9.030,0.105,-0.050
9.032,0.130,-0.050
9.034,0.145,-0.050
9.036,0.155,-0.045
9.038,0.130,-0.045
9.040,0.125,-0.040
9.042,0.050,-0.035
9.044,0.015,-0.035
9.046,0.005,-0.035
9.048,0.015,-0.035
9.050,0.095,-0.035
9.052,0.145,-0.040
9.054,0.160,-0.045
9.056,0.150,-0.050
9.058,0.130,-0.055
9.060,0.070,-0.060
9.062,0.030,-0.060
9.064,0.035,-0.060
9.066,0.060,-0.060
9.068,0.055,-0.060
9.070,0.050,-0.060
9.072,0.085,-0.055
9.074,0.135,-0.055
9.076,0.140,-0.055
9.078,0.100,-0.055
9.080,0.055,-0.055
9.082,0.055,-0.055
9.084,0.020,-0.055
9.086,0.030,-0.060
9.088,0.035,-0.060
9.090,0.090,-0.060
9.092,0.120,-0.060
9.094,0.115,-0.060
9.096,0.120,-0.060
9.098,0.110,-0.065
9.100,0.055,-0.070
9.102,0.005,-0.070
9.104,0.010,-0.075
9.106,0.025,-0.075
9.108,0.050,-0.075
9.110,0.080,-0.070
9.112,0.095,-0.065
9.114,0.125,-0.060
9.116,0.165,-0.050
9.118,0.110,-0.045
9.120,0.055,-0.035
9.122,0.070,-0.030
9.124,0.040,-0.030
9.126,0.045,-0.030
9.128,0.040,-0.030
9.130,0.100,-0.030
9.132,0.135,-0.035
9.134,0.155,-0.035
9.136,0.145,-0.035
9.138,0.090,-0.035
9.140,0.065,-0.035
9.142,0.080,-0.035
9.144,0.045,-0.035
9.146,0.075,-0.040
9.148,0.090,-0.040
9.150,0.075,-0.040
9.152,0.105,-0.040
9.154,0.150,-0.040
9.156,0.155,-0.040
9.158,0.150,-0.035
9.160,0.120,-0.030
9.162,0.050,-0.025
9.164,0.045,-0.015
9.166,0.090,-0.010
9.168,0.115,-0.005
9.170,0.145,-0.005
9.172,0.185,0.000
9.174,0.175,0.000
9.176,0.150,0.000
9.178,0.140,0.000
9.180,0.110,0.000
9.182,0.060,0.000
9.184,0.095,0.000
9.186,0.105,-0.005
9.188,0.065,-0.010
9.190,0.125,-0.020
9.192,0.165,-0.030
9.194,0.160,-0.040
9.196,0.120,-0.050
9.198,0.085,-0.055
9.200,0.040,-0.060
9.202,0.030,-0.065
9.204,-0.010,-0.065
9.206,0.005,-0.065
9.208,0.030,-0.065
9.210,0.100,-0.065
9.212,0.140,-0.070
9.214,0.130,-0.070
9.216,0.105,-0.075
9.218,0.070,-0.075
9.220,0.040,-0.075
9.222,0.015,-0.070
9.224,-0.015,-0.065
9.226,0.030,-0.060
9.228,0.055,-0.055
9.230,0.115,-0.050
9.232,0.140,-0.045
9.234,0.135,-0.045
9.236,0.090,-0.050
9.238,0.055,-0.055
9.240,-0.010,-0.065
9.242,-0.010,-0.070
9.244,-0.010,-0.075
9.246,0.015,-0.075
9.248,0.035,-0.080
9.250,0.095,-0.080
9.252,0.110,-0.080
9.254,0.120,-0.080
9.256,0.100,-0.080
9.258,0.080,-0.080
9.260,0.010,-0.080
9.262,-0.010,-0.080
9.264,0.005,-0.080
9.266,0.015,-0.075
9.268,0.050,-0.075
9.270,0.100,-0.070
9.272,0.110,-0.065
9.274,0.090,-0.065
9.276,0.065,-0.070
9.278,0.060,-0.075
9.280,-0.005,-0.085
9.282,0.000,-0.095
9.284,-0.035,-0.105
9.286,-0.005,-0.115
9.288,0.010,-0.120
9.290,0.045,-0.120
9.292,0.070,-0.115
9.294,0.060,-0.100
9.296,0.035,-0.085
9.298,0.070,-0.065
9.300,0.110,-0.030
9.302,0.130,0.015
9.304,0.150,0.070
9.306,0.230,0.140
9.308,0.360,0.225
9.310,0.470,0.320
9.312,0.610,0.420
9.314,0.710,0.520
9.316,0.815,0.610
9.318,0.890,0.675
9.320,0.815,0.715
9.322,0.820,0.720
9.324,0.795,0.690
9.326,0.715,0.620
9.328,0.610,0.525
9.330,0.545,0.405
9.332,0.445,0.275
9.334,0.305,0.150
9.336,0.135,0.035
9.338,0.000,-0.060
9.340,-0.110,-0.125
9.342,-0.105,-0.165
9.344,-0.060,-0.180
9.346,-0.030,-0.170
9.348,0.020,-0.140
9.350,0.080,-0.110
9.352,0.115,-0.075
9.354,0.145,-0.045
9.356,0.155,-0.030
9.358,0.085,-0.020
9.360,0.020,-0.025
9.362,0.010,-0.035
9.364,0.010,-0.045
9.366,0.010,-0.060
9.368,0.080,-0.070
9.370,0.105,-0.075
9.372,0.120,-0.075
9.374,0.115,-0.070
9.376,0.120,-0.060
9.378,0.110,-0.050
9.380,0.045,-0.040
9.382,0.030,-0.035
9.384,0.025,-0.030
9.386,0.045,-0.030
9.388,0.085,-0.035
9.390,0.115,-0.040
9.392,0.135,-0.040
9.394,0.120,-0.045
9.396,0.075,-0.050
9.398,0.030,-0.050
9.400,0.020,-0.050
9.402,0.045,-0.045
9.404,0.025,-0.045
9.406,0.045,-0.040
9.408,0.115,-0.035
9.410,0.165,-0.030
9.412,0.170,-0.025
9.414,0.155,-0.015
9.416,0.140,-0.010
9.418,0.090,-0.010
9.420,0.060,-0.005
9.422,0.045,-0.010
9.424,0.050,-0.010
9.426,0.075,-0.020
9.428,0.105,-0.025
9.430,0.115,-0.035
9.432,0.130,-0.040
9.434,0.135,-0.045
9.436,0.135,-0.045
9.438,0.115,-0.035
9.440,0.090,-0.030
9.442,0.045,-0.020
9.444,0.055,-0.010
9.446,0.095,0.000
9.448,0.135,0.005
9.450,0.180,0.010
9.452,0.190,0.015
9.454,0.175,0.015
9.456,0.135,0.015
9.458,0.120,0.020
9.460,0.090,0.020
9.462,0.065,0.025
9.464,0.100,0.030
9.466,0.130,0.030
9.468,0.145,0.030
9.470,0.200,0.030
9.472,0.205,0.030
9.474,0.195,0.030
9.476,0.175,0.030
9.478,0.115,0.035
9.480,0.110,0.045
9.482,0.135,0.050
9.484,0.135,0.060
9.486,0.195,0.070
9.488,0.235,0.080
9.490,0.255,0.080
9.492,0.265,0.085
9.494,0.255,0.085
9.496,0.235,0.085
9.498,0.175,0.080
9.500,0.160,0.085
9.502,0.170,0.090
9.504,0.170,0.095
9.506,0.195,0.110
9.508,0.250,0.120
9.510,0.330,0.130
9.512,0.335,0.140
9.514,0.330,0.150
9.516,0.305,0.155
9.518,0.255,0.160
9.520,0.225,0.165
9.522,0.225,0.170
9.524,0.280,0.175
9.526,0.310,0.185
9.528,0.340,0.190
9.530,0.350,0.195
9.532,0.370,0.195
9.534,0.355,0.195
9.536,0.300,0.195
9.538,0.275,0.190
9.540,0.255,0.190
9.542,0.280,0.190
9.544,0.305,0.190
9.546,0.275,0.200
9.548,0.365,0.205
9.550,0.375,0.210
9.552,0.365,0.215
9.554,0.355,0.220
9.556,0.330,0.215
9.558,0.270,0.205
9.560,0.235,0.195
9.562,0.245,0.175
9.564,0.260,0.160
9.566,0.260,0.140
9.568,0.290,0.125
9.570,0.250,0.110
9.572,0.265,0.100
9.574,0.225,0.090
9.576,0.175,0.075
9.578,0.135,0.065
9.580,0.125,0.060
9.582,0.075,0.050
9.584,0.105,0.040
9.586,0.130,0.035
9.588,0.190,0.030
9.590,0.205,0.025
9.592,0.195,0.025
9.594,0.145,0.020
9.596,0.110,0.015
9.598,0.090,0.005
9.600,0.070,-0.005
9.602,0.040,-0.015
9.604,0.050,-0.025
9.606,0.085,-0.035
9.608,0.100,-0.040
9.610,0.080,-0.045
9.612,0.070,-0.050
9.614,0.105,-0.050
9.616,0.070,-0.050
9.618,0.030,-0.055
9.620,-0.020,-0.060
9.622,-0.025,-0.065
9.624,0.010,-0.070
9.626,0.035,-0.075
9.628,0.060,-0.080
9.630,0.080,-0.085
9.632,0.110,-0.085
9.634,0.065,-0.080
9.636,0.020,-0.080
9.638,-0.045,-0.075
9.640,-0.020,-0.075
9.642,0.015,-0.075
9.644,0.055,-0.075
9.646,0.055,-0.080
9.648,0.035,-0.080
9.650,0.065,-0.085
9.652,0.095,-0.085
9.654,0.100,-0.085
9.656,0.035,-0.085
9.658,-0.035,-0.085
9.660,-0.030,-0.080
9.662,-0.045,-0.080
9.664,-0.010,-0.080
9.666,0.055,-0.080
9.668,0.075,-0.080
9.670,0.130,-0.075
9.672,0.120,-0.075
9.674,0.080,-0.075
9.676,0.045,-0.070
9.678,-0.015,-0.070
9.680,-0.015,-0.065
9.682,0.000,-0.065
9.684,0.010,-0.060
9.686,0.050,-0.060
9.688,0.075,-0.065
9.690,0.075,-0.065
9.692,0.055,-0.065
9.694,0.070,-0.065
9.696,0.045,-0.065
9.698,0.035,-0.065
9.700,0.010,-0.065
9.702,-0.010,-0.065
9.704,0.015,-0.065
9.706,0.040,-0.065
9.708,0.055,-0.070
9.710,0.085,-0.075
9.712,0.095,-0.075
9.714,0.095,-0.080
9.716,0.045,-0.075
9.718,0.000,-0.070
9.720,-0.015,-0.065
9.722,0.010,-0.055
9.724,0.085,-0.045
9.726,0.080,-0.040
9.728,0.070,-0.035
9.730,0.130,-0.040
9.732,0.120,-0.045
9.734,0.055,-0.055
9.736,-0.010,-0.070
9.738,-0.010,-0.080
9.740,-0.005,-0.085
9.742,0.015,-0.090
9.744,0.045,-0.090
9.746,0.080,-0.085
9.748,0.120,-0.080
9.750,0.120,-0.070
9.752,0.090,-0.060
9.754,0.070,-0.055
9.756,0.025,-0.050
9.758,0.010,-0.045
9.760,-0.020,-0.050
9.762,-0.005,-0.050
9.764,0.010,-0.060
9.766,0.090,-0.065
9.768,0.090,-0.075
9.770,0.070,-0.085
9.772,0.065,-0.090
9.774,0.050,-0.095
9.776,0.040,-0.090
9.778,-0.010,-0.085
9.780,-0.025,-0.075
9.782,0.025,-0.065
9.784,0.030,-0.050
9.786,0.035,-0.045
9.788,0.105,-0.040
9.790,0.120,-0.040
9.792,0.120,-0.045
9.794,0.065,-0.055
9.796,-0.015,-0.070
9.798,-0.020,-0.080
9.800,-0.045,-0.085
9.802,0.005,-0.085
9.804,0.045,-0.085
9.806,0.120,-0.075
9.808,0.100,-0.070
9.810,0.080,-0.060
9.812,0.055,-0.055
9.814,0.060,-0.055
9.816,0.020,-0.055
9.818,-0.010,-0.060
9.820,-0.025,-0.070
9.822,-0.020,-0.075
9.824,0.015,-0.075
9.826,0.085,-0.075
9.828,0.105,-0.075
9.830,0.100,-0.070
9.832,0.055,-0.065
9.834,0.055,-0.065
9.836,-0.020,-0.065
9.838,-0.005,-0.065
9.840,0.015,-0.070
9.842,0.005,-0.070
9.844,0.045,-0.075
9.846,0.100,-0.070
9.848,0.105,-0.065
9.850,0.120,-0.060
9.852,0.110,-0.055
9.854,0.075,-0.045
9.856,0.015,-0.045
9.858,-0.015,-0.045
9.860,-0.010,-0.045
9.862,0.010,-0.050
9.864,0.055,-0.055
9.866,0.105,-0.055
9.868,0.165,-0.055
9.870,0.155,-0.050
9.872,0.130,-0.040
9.874,0.095,-0.030
9.876,0.055,-0.015
9.878,0.035,-0.005
9.880,0.035,0.000
9.882,0.050,0.000
9.884,0.065,0.000
9.886,0.140,-0.005
9.888,0.210,-0.015
9.890,0.175,-0.020
9.892,0.090,-0.030
9.894,0.060,-0.035
9.896,0.050,-0.040
9.898,0.020,-0.040
9.900,0.020,-0.045
9.902,0.010,-0.050
9.904,0.025,-0.055
9.906,0.085,-0.060
9.908,0.075,-0.065
9.910,0.055,-0.070
9.912,0.045,-0.075
9.914,0.005,-0.080
9.916,0.005,-0.085
9.918,-0.030,-0.085
9.920,-0.035,-0.090
9.922,0.000,-0.090
9.924,0.005,-0.090
9.926,0.050,-0.090
9.928,0.085,-0.090
9.930,0.105,-0.095
9.932,0.050,-0.095
9.934,-0.005,-0.095
9.936,-0.030,-0.100
9.938,-0.050,-0.100
9.940,-0.035,-0.105
9.942,-0.025,-0.105
9.944,0.015,-0.110
9.946,0.020,-0.110
9.948,0.050,-0.110
9.950,0.040,-0.110
9.952,0.040,-0.110
9.954,0.010,-0.105
9.956,-0.035,-0.105
9.958,-0.040,-0.100
9.960,-0.010,-0.100
9.962,0.015,-0.100
9.964,-0.005,-0.100
9.966,0.050,-0.100
9.968,0.070,-0.100
9.970,0.070,-0.100
9.972,0.040,-0.100
9.974,0.005,-0.100
9.976,-0.045,-0.100
9.978,-0.045,-0.095
9.980,-0.030,-0.095
9.982,-0.020,-0.100
9.984,-0.005,-0.100
9.986,0.045,-0.105
9.988,0.070,-0.105
9.990,0.045,-0.110
9.992,0.050,-0.115
9.994,-0.015,-0.115
9.996,-0.050,-0.120
9.998,-0.065,-0.120
