'Elapsed time','ECG I','ECG I filtered'
'seconds','mV','mV'
0.000,0.115,0.010
0.002,0.060,-0.030
0.004,0.040,-0.050
0.006,0.010,-0.065
0.008,-0.065,-0.070
0.010,0.000,-0.060
0.012,0.080,-0.045
0.014,0.070,-0.030
0.016,0.210,-0.015
0.018,0.165,-0.015
0.020,0.160,-0.015
0.022,0.080,-0.025
0.024,0.080,-0.030
0.026,-0.055,-0.035
0.028,-0.145,-0.030
0.030,0.140,-0.010
0.032,0.195,0.010
0.034,0.190,0.035
0.036,0.150,0.060
0.038,0.215,0.075
0.040,0.380,0.075
0.042,0.185,0.070
0.044,0.160,0.055
0.046,0.070,0.040
0.048,0.010,0.025
0.050,0.050,0.020
0.052,0.075,0.020
0.054,0.125,0.030
0.056,0.245,0.045
0.058,0.345,0.060
0.060,0.315,0.075
0.062,0.250,0.080
0.064,0.120,0.080
0.066,0.010,0.080
0.068,-0.025,0.070
0.070,0.090,0.060
0.072,0.210,0.060
0.074,0.180,0.060
0.076,0.350,0.065
0.078,0.340,0.075
0.080,0.250,0.090
0.082,0.250,0.100
0.084,0.115,0.110
0.086,0.135,0.120
0.088,0.100,0.125
0.090,0.130,0.125
0.092,0.240,0.125
0.094,0.290,0.120
0.096,0.250,0.115
0.098,0.465,0.110
0.100,0.330,0.105
0.102,0.150,0.100
0.104,0.100,0.095
0.106,0.125,0.095
0.108,0.200,0.100
0.110,0.070,0.110
0.112,0.235,0.120
0.114,0.385,0.130
0.116,0.335,0.145
0.118,0.315,0.150
0.120,0.355,0.155
0.122,0.280,0.150
0.124,0.200,0.140
0.126,0.165,0.130
0.128,0.045,0.110
0.130,0.080,0.095
0.132,0.170,0.080
0.134,0.220,0.070
0.136,0.325,0.065
0.138,0.380,0.060
0.140,0.265,0.060
0.142,0.240,0.060
0.144,0.165,0.060
0.146,0.005,0.055
0.148,-0.135,0.055
0.150,0.090,0.050
0.152,0.215,0.045
0.154,0.285,0.040
0.156,0.265,0.035
0.158,0.230,0.025
0.160,0.160,0.020
0.162,0.125,0.015
0.164,0.130,0.010
0.166,0.020,0.000
0.168,0.030,-0.005
0.170,-0.030,-0.010
0.172,0.075,-0.015
0.174,0.130,-0.020
0.176,0.280,-0.030
0.178,0.235,-0.035
0.180,0.115,-0.045
0.182,0.070,-0.060
0.184,-0.010,-0.070
0.186,-0.205,-0.075
0.188,-0.085,-0.080
0.190,0.015,-0.080
0.192,0.125,-0.070
0.194,0.105,-0.060
0.196,0.240,-0.040
0.198,0.285,-0.020
0.200,0.155,0.000
0.202,0.160,0.015
0.204,-0.025,0.025
0.206,0.050,0.025
0.208,0.005,0.015
0.210,0.015,0.005
0.212,0.140,-0.015
0.214,0.180,-0.030
0.216,0.255,-0.045
0.218,0.250,-0.055
0.220,0.050,-0.060
0.222,0.115,-0.060
0.224,-0.065,-0.055
0.226,-0.085,-0.050
0.228,-0.070,-0.040
0.230,0.085,-0.030
0.232,0.120,-0.025
0.234,0.175,-0.020
0.236,0.250,-0.020
0.238,0.275,-0.025
0.240,0.170,-0.030
0.242,0.125,-0.035
0.244,-0.115,-0.045
0.246,-0.170,-0.050
0.248,0.075,-0.055
0.250,-0.075,-0.060
0.252,0.035,-0.065
0.254,0.230,-0.070
0.256,0.275,-0.070
0.258,0.160,-0.065
0.260,0.090,-0.060
0.262,0.065,-0.050
0.264,0.030,-0.035
0.266,-0.105,-0.020
0.268,0.015,-0.005
0.270,0.105,0.005
0.272,0.210,0.015
0.274,0.250,0.010
0.276,0.355,0.005
0.278,0.220,-0.010
0.280,0.045,-0.025
0.282,0.080,-0.040
0.284,-0.085,-0.050
0.286,-0.055,-0.060
0.288,0.010,-0.055
0.290,0.020,-0.045
0.292,0.045,-0.030
0.294,0.285,-0.015
0.296,0.300,0.000
0.298,0.290,0.015
0.300,0.130,0.020
0.302,0.035,0.015
0.304,0.105,0.005
0.306,-0.075,-0.005
0.308,0.025,-0.020
0.310,0.085,-0.030
0.312,0.055,-0.040
0.314,0.285,-0.045
0.316,0.180,-0.045
0.318,0.160,-0.045
0.320,0.075,-0.040
0.322,0.125,-0.035
0.324,-0.010,-0.035
0.326,0.005,-0.040
0.328,0.020,-0.040
0.330,-0.110,-0.045
0.332,0.055,-0.050
0.334,0.270,-0.045
0.336,0.320,-0.040
0.338,0.165,-0.035
0.340,0.210,-0.025
0.342,0.195,-0.015
0.344,-0.080,-0.005
0.346,-0.075,-0.005
0.348,-0.035,-0.005
0.350,0.125,-0.015
0.352,0.250,-0.030
0.354,0.325,-0.045
0.356,0.140,-0.060
0.358,0.045,-0.070
0.360,0.055,-0.070
0.362,0.090,-0.070
0.364,-0.100,-0.060
0.366,-0.045,-0.045
0.368,0.045,-0.025
0.370,0.155,-0.005
0.372,0.220,0.010
0.374,0.305,0.020
0.376,0.330,0.020
0.378,0.210,0.020
0.380,0.105,0.005
0.382,0.070,-0.010
0.384,-0.025,-0.035
0.386,-0.075,-0.060
0.388,-0.125,-0.080
0.390,0.035,-0.095
0.392,0.135,-0.105
0.394,0.145,-0.110
0.396,0.110,-0.105
0.398,0.145,-0.095
0.400,0.085,-0.075
0.402,0.075,-0.060
0.404,-0.050,-0.040
0.406,-0.030,-0.030
0.408,0.100,-0.025
0.410,0.120,-0.025
0.412,0.030,-0.035
0.414,0.175,-0.050
0.416,0.290,-0.065
0.418,0.185,-0.075
0.420,0.125,-0.080
0.422,0.020,-0.080
0.424,-0.140,-0.075
0.426,-0.210,-0.060
0.428,-0.020,-0.045
0.430,0.050,-0.030
0.432,0.320,-0.015
0.434,0.340,-0.010
0.436,0.260,-0.010
0.438,0.120,-0.015
0.440,0.180,-0.020
0.442,0.000,-0.025
0.444,-0.050,-0.025
0.446,-0.015,-0.020
0.448,0.135,-0.010
0.450,0.090,0.000
0.452,0.245,0.010
0.454,0.360,0.015
0.456,0.305,0.010
0.458,0.240,0.000
0.460,0.035,-0.015
0.462,-0.035,-0.030
0.464,-0.065,-0.040
0.466,-0.035,-0.050
0.468,0.120,-0.045
0.470,0.215,-0.035
0.472,0.245,-0.015
0.474,0.210,0.005
0.476,0.290,0.020
0.478,0.160,0.035
0.480,0.190,0.040
0.482,0.100,0.035
0.484,-0.065,0.025
0.486,0.040,0.010
0.488,0.150,-0.005
0.490,0.155,-0.020
0.492,0.275,-0.025
0.494,0.260,-0.030
0.496,0.215,-0.030
0.498,0.195,-0.025
0.500,0.025,-0.025
0.502,-0.030,-0.025
0.504,-0.015,-0.025
0.506,0.050,-0.035
0.508,0.130,-0.045
0.510,0.110,-0.055
0.512,0.215,-0.065
0.514,0.150,-0.070
0.516,0.150,-0.075
0.518,0.075,-0.075
0.520,0.085,-0.075
0.522,-0.050,-0.070
0.524,-0.110,-0.060
0.526,-0.025,-0.055
0.528,0.150,-0.050
0.530,0.135,-0.045
0.532,0.235,-0.040
0.534,0.250,-0.035
0.536,0.240,-0.035
0.538,0.190,-0.030
0.540,0.135,-0.030
0.542,0.015,-0.025
0.544,-0.095,-0.025
0.546,-0.060,-0.030
0.548,0.100,-0.030
0.550,0.140,-0.035
0.552,0.325,-0.035
0.554,0.220,-0.040
0.556,0.155,-0.040
0.558,0.235,-0.035
0.560,0.105,-0.030
0.562,-0.125,-0.020
0.564,-0.015,-0.005
0.566,0.070,0.015
0.568,0.155,0.035
0.570,0.210,0.065
0.572,0.350,0.095
0.574,0.465,0.135
0.576,0.545,0.185
0.578,0.445,0.240
0.580,0.370,0.305
0.582,0.400,0.375
0.584,0.435,0.445
0.586,0.535,0.510
0.588,0.690,0.565
0.590,0.870,0.600
0.592,1.045,0.605
0.594,0.925,0.575
0.596,0.785,0.520
0.598,0.560,0.430
0.600,0.480,0.325
0.602,0.100,0.210
0.604,0.025,0.100
0.606,-0.035,0.005
0.608,-0.030,-0.070
0.610,0.205,-0.115
0.612,0.240,-0.130
0.614,0.155,-0.120
0.616,0.070,-0.100
0.618,0.060,-0.070
0.620,0.065,-0.035
0.622,-0.005,-0.015
0.624,0.040,0.000
0.626,0.080,0.005
0.628,0.135,0.000
0.630,0.175,-0.010
0.632,0.290,-0.020
0.634,0.235,-0.035
0.636,0.220,-0.045
0.638,0.145,-0.055
0.640,0.040,-0.060
0.642,-0.075,-0.065
0.644,-0.050,-0.065
0.646,-0.045,-0.065
0.648,0.060,-0.070
0.650,0.140,-0.070
0.652,0.250,-0.070
0.654,0.255,-0.070
0.656,0.175,-0.070
0.658,0.115,-0.075
0.660,-0.065,-0.075
0.662,-0.130,-0.080
0.664,-0.090,-0.085
0.666,0.005,-0.090
0.668,0.320,-0.090
0.670,0.005,-0.090
0.672,0.145,-0.090
0.674,0.275,-0.080
0.676,0.250,-0.070
0.678,-0.005,-0.060
0.680,0.045,-0.045
0.682,-0.025,-0.035
0.684,-0.005,-0.025
0.686,0.095,-0.020
0.688,0.185,-0.010
0.690,0.145,-0.005
0.692,0.275,0.000
0.694,0.360,0.005
0.696,0.290,0.010
0.698,0.150,0.010
0.700,0.085,0.010
0.702,-0.035,0.005
0.704,0.035,0.000
0.706,0.085,-0.015
0.708,0.075,-0.030
0.710,0.225,-0.045
0.712,0.230,-0.060
0.714,0.275,-0.065
0.716,0.120,-0.060
0.718,0.105,-0.055
0.720,0.075,-0.035
0.722,0.040,-0.020
0.724,0.020,0.000
0.726,0.085,0.015
0.728,0.225,0.025
0.730,0.260,0.030
0.732,0.355,0.025
0.734,0.255,0.015
0.736,0.295,0.000
0.738,0.155,-0.010
0.740,0.015,-0.020
0.742,-0.025,-0.025
0.744,-0.015,-0.025
0.746,0.105,-0.020
0.748,0.155,-0.015
0.750,0.235,-0.010
0.752,0.325,-0.005
0.754,0.360,0.005
0.756,0.250,0.010
0.758,-0.010,0.020
0.760,0.185,0.025
0.762,0.065,0.035
0.764,-0.005,0.040
0.766,0.160,0.045
0.768,0.165,0.045
0.770,0.350,0.050
0.772,0.465,0.055
0.774,0.375,0.060
0.776,0.305,0.070
0.778,0.245,0.080
0.780,0.055,0.090
0.782,0.115,0.100
0.784,0.180,0.105
0.786,0.230,0.110
0.788,0.315,0.105
0.790,0.295,0.100
0.792,0.320,0.085
0.794,0.365,0.070
0.796,0.320,0.055
0.798,0.255,0.045
0.800,0.095,0.045
0.802,0.050,0.050
0.804,0.120,0.065
0.806,0.210,0.080
0.808,0.230,0.100
0.810,0.430,0.120
0.812,0.460,0.135
0.814,0.395,0.145
0.816,0.315,0.150
0.818,0.345,0.155
0.820,0.185,0.150
0.822,0.225,0.150
0.824,0.095,0.150
0.826,0.355,0.150
0.828,0.340,0.150
0.830,0.435,0.145
0.832,0.520,0.145
0.834,0.385,0.135
0.836,0.345,0.125
0.838,0.245,0.115
0.840,0.110,0.105
0.842,0.090,0.095
0.844,0.105,0.090
0.846,0.325,0.090
0.848,0.250,0.085
0.850,0.390,0.085
0.852,0.395,0.085
0.854,0.370,0.085
0.856,0.280,0.080
0.858,0.230,0.070
0.860,0.050,0.060
0.862,0.160,0.055
0.864,0.080,0.045
0.866,0.055,0.045
0.868,0.300,0.040
0.870,0.335,0.045
0.872,0.350,0.045
0.874,0.330,0.045
0.876,0.245,0.040
0.878,0.175,0.025
0.880,0.055,0.010
0.882,0.015,-0.010
0.884,0.020,-0.030
0.886,0.110,-0.045
0.888,0.105,-0.055
0.890,0.155,-0.055
0.892,0.190,-0.050
0.894,0.330,-0.035
0.896,0.200,-0.020
0.898,0.090,-0.005
0.900,0.110,0.005
0.902,0.055,0.005
0.904,0.115,0.005
0.906,0.070,-0.005
0.908,0.140,-0.020
0.910,0.265,-0.030
0.912,0.275,-0.035
0.914,0.160,-0.035
0.916,0.195,-0.030
0.918,0.165,-0.020
0.920,0.155,-0.010
0.922,0.030,-0.005
0.924,0.005,-0.005
0.926,0.160,-0.020
0.928,0.125,-0.040
0.930,0.200,-0.065
0.932,0.265,-0.085
0.934,0.165,-0.105
0.936,0.055,-0.110
0.938,0.025,-0.100
0.940,-0.055,-0.080
0.942,0.040,-0.055
0.944,0.090,-0.020
0.946,0.180,0.005
0.948,0.195,0.025
0.950,0.385,0.030
0.952,0.355,0.025
0.954,0.235,0.005
0.956,0.090,-0.020
0.958,0.150,-0.045
0.960,-0.045,-0.060
0.962,-0.110,-0.075
0.964,0.080,-0.075
0.966,0.085,-0.070
0.968,0.085,-0.055
0.970,0.325,-0.045
0.972,0.265,-0.035
0.974,0.240,-0.025
0.976,0.235,-0.025
0.978,0.110,-0.030
0.980,-0.030,-0.040
0.982,-0.065,-0.045
0.984,-0.035,-0.050
0.986,0.150,-0.055
0.988,0.170,-0.050
0.990,0.370,-0.050
0.992,0.285,-0.045
0.994,0.165,-0.040
0.996,0.145,-0.035
0.998,0.125,-0.030
1.000,-0.045,-0.035
1.002,0.010,-0.035
1.004,0.040,-0.035
1.006,0.190,-0.030
1.008,0.280,-0.025
1.010,0.260,-0.020
1.012,0.245,-0.010
1.014,0.290,0.005
1.016,0.230,0.010
1.018,0.110,0.015
1.020,0.050,0.010
1.022,-0.005,0.000
1.024,0.085,-0.015
1.026,0.155,-0.035
1.028,0.135,-0.055
1.030,0.365,-0.070
1.032,0.140,-0.075
1.034,0.160,-0.075
1.036,0.195,-0.060
1.038,0.060,-0.040
1.040,0.015,-0.020
1.042,0.100,0.000
1.044,0.080,0.010
1.046,0.235,0.015
1.048,0.235,0.010
1.050,0.285,0.005
1.052,0.320,-0.010
1.054,0.175,-0.015
1.056,0.270,-0.015
1.058,0.075,-0.010
1.060,0.045,0.005
1.062,-0.075,0.015
1.064,0.230,0.030
1.066,0.280,0.030
1.068,0.300,0.020
1.070,0.335,0.000
1.072,0.150,-0.030
1.074,0.090,-0.060
1.076,0.120,-0.090
1.078,-0.025,-0.115
1.080,-0.055,-0.120
1.082,-0.025,-0.115
1.084,0.060,-0.100
1.086,0.180,-0.075
1.088,0.400,-0.055
1.090,0.115,-0.035
1.092,0.220,-0.020
1.094,0.290,-0.020
1.096,0.010,-0.020
1.098,0.060,-0.030
1.100,0.140,-0.040
1.102,0.040,-0.050
1.104,0.125,-0.060
1.106,0.220,-0.065
1.108,0.155,-0.070
1.110,0.165,-0.075
1.112,0.145,-0.075
1.114,0.175,-0.080
1.116,0.145,-0.080
1.118,-0.030,-0.080
1.120,-0.010,-0.070
1.122,0.065,-0.060
1.124,0.135,-0.050
1.126,0.215,-0.035
1.128,0.325,-0.025
1.130,0.250,-0.020
1.132,0.265,-0.015
1.134,0.150,-0.020
1.136,0.095,-0.030
1.138,0.020,-0.040
1.140,-0.005,-0.050
1.142,0.050,-0.055
1.144,0.155,-0.060
1.146,0.195,-0.060
1.148,0.240,-0.060
1.150,0.220,-0.055
1.152,0.230,-0.055
1.154,0.215,-0.055
1.156,0.010,-0.055
1.158,-0.095,-0.060
1.160,0.080,-0.060
1.162,0.120,-0.060
1.164,0.060,-0.060
1.166,0.180,-0.055
1.168,0.305,-0.050
1.170,0.275,-0.045
1.172,0.190,-0.040
1.174,0.145,-0.040
1.176,0.035,-0.045
1.178,0.050,-0.055
1.180,0.020,-0.065
1.182,0.070,-0.070
1.184,0.055,-0.080
1.186,0.170,-0.080
1.188,0.150,-0.075
1.190,0.255,-0.065
1.192,0.285,-0.050
1.194,0.230,-0.035
1.196,0.105,-0.015
1.198,0.030,0.005
1.200,0.115,0.025
1.202,0.100,0.045
1.204,0.165,0.055
1.206,0.210,0.065
1.208,0.440,0.065
1.210,0.380,0.060
1.212,0.425,0.050
1.214,0.340,0.035
1.216,0.105,0.020
1.218,-0.065,0.000
1.220,0.000,-0.015
1.222,0.070,-0.030
1.224,0.135,-0.040
1.226,0.190,-0.040
1.228,0.310,-0.040
1.230,0.385,-0.035
1.232,0.215,-0.025
1.234,0.160,-0.015
1.236,0.175,-0.005
1.238,0.095,0.000
1.240,-0.110,0.000
1.242,0.110,0.000
1.244,0.205,-0.010
1.246,0.300,-0.020
1.248,0.315,-0.030
1.250,0.350,-0.035
1.252,0.215,-0.045
1.254,0.055,-0.050
1.256,0.030,-0.050
1.258,-0.015,-0.050
1.260,0.090,-0.045
1.262,0.050,-0.045
1.264,0.210,-0.045
1.266,0.190,-0.045
1.268,0.275,-0.050
1.270,0.330,-0.050
1.272,0.135,-0.050
1.274,0.155,-0.050
1.276,0.040,-0.050
1.278,0.030,-0.050
1.280,0.035,-0.045
1.282,0.090,-0.045
1.284,0.140,-0.045
1.286,0.220,-0.050
1.288,0.350,-0.050
1.290,0.245,-0.060
1.292,0.160,-0.065
1.294,0.125,-0.065
1.296,-0.020,-0.070
1.298,-0.025,-0.065
1.300,-0.060,-0.055
1.302,0.130,-0.040
1.304,0.195,-0.015
1.306,0.280,0.020
1.308,0.480,0.070
1.310,0.405,0.140
1.312,0.390,0.220
1.314,0.560,0.315
1.316,0.500,0.415
1.318,0.650,0.515
1.320,0.700,0.600
1.322,0.840,0.660
1.324,0.885,0.685
1.326,0.980,0.675
1.328,0.980,0.625
1.330,0.905,0.535
1.332,0.735,0.425
1.334,0.450,0.300
1.336,0.115,0.175
1.338,-0.020,0.070
1.340,-0.005,-0.015
1.342,0.035,-0.065
1.344,0.150,-0.090
1.346,0.290,-0.090
1.348,0.425,-0.075
1.350,0.160,-0.055
1.352,0.200,-0.040
1.354,0.045,-0.030
1.356,0.120,-0.035
1.358,-0.100,-0.045
1.360,0.100,-0.060
1.362,0.085,-0.075
1.364,-0.050,-0.090
1.366,0.215,-0.090
1.368,0.320,-0.080
1.370,0.410,-0.065
1.372,0.220,-0.045
1.374,0.110,-0.025
1.376,-0.010,-0.010
1.378,0.010,0.000
1.380,-0.010,0.000
1.382,0.185,-0.010
1.384,0.245,-0.025
1.386,0.230,-0.040
1.388,0.295,-0.055
1.390,0.325,-0.065
1.392,0.090,-0.070
1.394,0.080,-0.070
1.396,0.085,-0.070
1.398,-0.010,-0.065
1.400,0.025,-0.060
1.402,0.020,-0.060
1.404,0.020,-0.055
1.406,0.300,-0.055
1.408,0.380,-0.055
1.410,0.265,-0.050
1.412,0.110,-0.045
1.414,0.160,-0.035
1.416,0.125,-0.025
1.418,0.055,-0.020
1.420,0.000,-0.015
1.422,0.075,-0.020
1.424,0.120,-0.030
1.426,0.365,-0.040
1.428,0.200,-0.055
1.430,0.325,-0.070
1.432,0.090,-0.080
1.434,0.170,-0.080
1.436,-0.055,-0.080
1.438,0.105,-0.070
1.440,-0.075,-0.060
1.442,-0.030,-0.055
1.444,0.230,-0.045
1.446,0.245,-0.040
1.448,0.345,-0.040
1.450,0.250,-0.035
1.452,0.280,-0.030
1.454,0.165,-0.025
1.456,0.015,-0.015
1.458,-0.015,-0.005
1.460,0.070,0.000
1.462,0.165,0.005
1.464,0.230,0.005
1.466,0.315,0.000
1.468,0.400,-0.010
1.470,0.260,-0.020
1.472,0.195,-0.030
1.474,0.130,-0.035
1.476,0.075,-0.035
1.478,-0.040,-0.035
1.480,0.090,-0.025
1.482,0.160,-0.020
1.484,0.185,-0.010
1.486,0.290,0.000
1.488,0.335,0.005
1.490,0.270,0.010
1.492,0.300,0.015
1.494,0.175,0.015
1.496,0.115,0.020
1.498,-0.025,0.020
1.500,0.130,0.020
1.502,0.260,0.020
1.504,0.190,0.020
1.506,0.380,0.015
1.508,0.320,0.015
1.510,0.295,0.015
1.512,0.270,0.015
1.514,0.065,0.025
1.516,0.095,0.035
1.518,0.140,0.050
1.520,0.160,0.070
1.522,0.305,0.085
1.524,0.360,0.095
1.526,0.470,0.100
1.528,0.340,0.100
1.530,0.365,0.100
1.532,0.295,0.090
1.534,0.205,0.080
1.536,0.170,0.075
1.538,0.095,0.070
1.540,0.075,0.075
1.542,0.395,0.080
1.544,0.250,0.090
1.546,0.430,0.095
1.548,0.500,0.105
1.550,0.375,0.110
1.552,0.245,0.110
1.554,0.300,0.105
1.556,0.140,0.095
1.558,0.115,0.085
1.560,0.165,0.080
1.562,0.330,0.075
1.564,0.325,0.075
1.566,0.430,0.080
1.568,0.350,0.095
1.570,0.370,0.115
1.572,0.315,0.135
1.574,0.395,0.155
1.576,0.265,0.165
1.578,0.220,0.170
1.580,0.205,0.165
1.582,0.390,0.155
1.584,0.195,0.130
1.586,0.450,0.105
1.588,0.470,0.075
1.590,0.310,0.050
1.592,0.340,0.035
1.594,0.110,0.025
1.596,0.085,0.020
1.598,0.005,0.025
1.600,0.110,0.030
1.602,0.190,0.040
1.604,0.200,0.045
1.606,0.530,0.045
1.608,0.375,0.045
1.610,0.215,0.035
1.612,0.300,0.025
1.614,0.150,0.015
1.616,-0.040,0.005
1.618,0.100,-0.005
1.620,0.085,-0.015
1.622,0.095,-0.020
1.624,0.235,-0.025
1.626,0.290,-0.025
1.628,0.280,-0.030
1.630,0.235,-0.030
1.632,0.140,-0.035
1.634,0.110,-0.040
1.636,-0.040,-0.045
1.638,0.000,-0.055
1.640,0.060,-0.060
1.642,0.220,-0.060
1.644,0.220,-0.060
1.646,0.275,-0.055
1.648,0.230,-0.050
1.650,0.150,-0.045
1.652,0.120,-0.040
1.654,0.055,-0.040
1.656,0.030,-0.045
1.658,0.105,-0.050
1.660,0.205,-0.065
1.662,0.085,-0.080
1.664,0.160,-0.095
1.666,0.205,-0.105
1.668,0.130,-0.115
1.670,0.075,-0.110
1.672,0.120,-0.105
1.674,0.010,-0.085
1.676,-0.050,-0.065
1.678,0.040,-0.040
1.680,0.210,-0.020
1.682,0.175,-0.005
1.684,0.300,0.005
1.686,0.325,0.005
1.688,0.310,0.000
1.690,0.210,-0.010
1.692,0.090,-0.025
1.694,0.000,-0.040
1.696,0.085,-0.050
1.698,-0.030,-0.060
1.700,0.050,-0.065
1.702,0.125,-0.065
1.704,0.260,-0.065
1.706,0.275,-0.070
1.708,0.300,-0.070
1.710,0.155,-0.070
1.712,0.000,-0.070
1.714,-0.065,-0.070
1.716,0.010,-0.070
1.718,0.010,-0.065
1.720,0.190,-0.060
1.722,0.045,-0.050
1.724,0.305,-0.040
1.726,0.285,-0.030
1.728,0.330,-0.020
1.730,0.270,-0.015
1.732,0.080,-0.015
1.734,0.030,-0.020
1.736,-0.040,-0.030
1.738,0.105,-0.035
1.740,0.060,-0.045
1.742,0.185,-0.045
1.744,0.305,-0.045
1.746,0.295,-0.045
1.748,0.235,-0.035
1.750,0.120,-0.025
1.752,0.120,-0.020
1.754,0.075,-0.015
1.756,0.035,-0.010
1.758,0.050,-0.015
1.760,0.185,-0.015
1.762,0.225,-0.025
1.764,0.180,-0.030
1.766,0.295,-0.040
1.768,0.215,-0.045
1.770,0.120,-0.045
1.772,0.170,-0.045
1.774,0.025,-0.040
1.776,0.020,-0.040
1.778,0.005,-0.035
1.780,0.145,-0.025
1.782,0.200,-0.025
1.784,0.200,-0.020
1.786,0.335,-0.020
1.788,0.330,-0.025
1.790,0.225,-0.030
1.792,0.010,-0.040
1.794,-0.010,-0.050
1.796,0.010,-0.060
1.798,0.090,-0.065
1.800,0.060,-0.070
1.802,0.140,-0.070
1.804,0.175,-0.065
1.806,0.230,-0.055
1.808,0.240,-0.045
1.810,0.265,-0.030
1.812,0.165,-0.020
1.814,-0.005,-0.015
1.816,0.055,-0.010
1.818,0.045,-0.015
1.820,0.115,-0.025
1.822,0.170,-0.040
1.824,0.290,-0.050
1.826,0.280,-0.065
1.828,0.135,-0.080
1.830,0.125,-0.085
1.832,-0.005,-0.090
1.834,-0.010,-0.085
1.836,-0.020,-0.070
1.838,0.045,-0.055
1.840,0.180,-0.040
1.842,0.090,-0.025
1.844,0.395,-0.010
1.846,0.320,-0.005
1.848,0.325,-0.005
1.850,0.165,-0.010
1.852,0.015,-0.025
1.854,-0.105,-0.045
1.856,-0.010,-0.060
1.858,0.075,-0.070
1.860,0.220,-0.075
1.862,0.185,-0.065
1.864,0.220,-0.050
1.866,0.320,-0.030
1.868,0.150,-0.010
1.870,0.190,0.005
1.872,0.070,0.010
1.874,0.015,0.010
1.876,0.060,-0.005
1.878,0.240,-0.030
1.880,0.105,-0.060
1.882,0.230,-0.085
1.884,0.150,-0.105
1.886,0.160,-0.110
1.888,0.045,-0.105
1.890,0.120,-0.085
1.892,0.040,-0.060
1.894,0.030,-0.035
1.896,0.135,-0.015
1.898,0.085,-0.005
1.900,0.220,-0.005
1.902,0.350,-0.015
1.904,0.140,-0.030
1.906,0.340,-0.050
1.908,0.120,-0.065
1.910,0.095,-0.075
1.912,-0.055,-0.075
1.914,-0.080,-0.070
1.916,0.065,-0.055
1.918,0.140,-0.040
1.920,0.160,-0.025
1.922,0.265,-0.010
1.924,0.275,-0.005
1.926,0.320,-0.005
1.928,0.235,-0.010
1.930,0.075,-0.020
1.932,0.005,-0.035
1.934,0.005,-0.050
1.936,-0.015,-0.060
1.938,0.085,-0.070
1.940,0.300,-0.075
1.942,0.165,-0.075
1.944,0.165,-0.075
1.946,0.145,-0.075
1.948,0.125,-0.070
1.950,0.170,-0.070
1.952,0.005,-0.065
1.954,0.010,-0.060
1.956,-0.025,-0.055
1.958,0.050,-0.045
1.960,0.240,-0.035
1.962,0.220,-0.020
1.964,0.330,-0.005
1.966,0.370,0.005
1.968,0.155,0.020
1.970,0.215,0.025
1.972,0.055,0.030
1.974,0.070,0.030
1.976,0.080,0.020
1.978,0.175,0.015
1.980,0.185,0.005
1.982,0.270,0.000
1.984,0.395,-0.005
1.986,0.240,-0.005
1.988,0.185,0.000
1.990,0.180,0.005
1.992,0.120,0.020
1.994,0.075,0.030
1.996,0.115,0.040
1.998,0.140,0.050
2.000,0.170,0.045
2.002,0.290,0.040
2.004,0.475,0.025
2.006,0.320,0.005
2.008,0.160,-0.015
2.010,0.120,-0.035
2.012,-0.080,-0.050
2.014,-0.020,-0.060
2.016,0.020,-0.065
2.018,0.110,-0.065
2.020,0.145,-0.065
2.022,0.290,-0.060
2.024,0.140,-0.060
2.026,0.205,-0.060
2.028,0.205,-0.065
2.030,0.140,-0.070
2.032,-0.090,-0.075
2.034,-0.025,-0.075
2.036,0.035,-0.070
2.038,0.015,-0.060
2.040,0.185,-0.045
2.042,0.300,-0.035
2.044,0.270,-0.025
2.046,0.260,-0.025
2.048,0.135,-0.030
2.050,0.095,-0.045
2.052,-0.020,-0.065
2.054,-0.055,-0.080
2.056,-0.005,-0.095
2.058,0.145,-0.100
2.060,-0.020,-0.095
2.062,0.200,-0.080
2.064,0.215,-0.060
2.066,0.255,-0.030
2.068,0.220,0.000
2.070,0.145,0.035
2.072,0.065,0.075
2.074,0.310,0.125
2.076,0.320,0.185
2.078,0.290,0.255
2.080,0.495,0.345
2.082,0.605,0.440
2.084,0.790,0.535
2.086,1.050,0.620
2.088,0.970,0.675
2.090,0.830,0.695
2.092,0.815,0.675
2.094,0.845,0.610
2.096,0.585,0.510
2.098,0.385,0.385
2.100,0.345,0.250
2.102,0.290,0.120
2.104,0.255,0.015
2.106,0.115,-0.065
2.108,0.065,-0.110
2.110,0.125,-0.125
2.112,-0.035,-0.115
2.114,-0.025,-0.090
2.116,0.035,-0.065
2.118,0.140,-0.040
2.120,0.020,-0.030
2.122,0.295,-0.025
2.124,0.200,-0.035
2.126,0.310,-0.050
2.128,0.070,-0.070
2.130,0.035,-0.090
2.132,0.045,-0.105
2.134,-0.110,-0.115
2.136,-0.065,-0.120
2.138,0.055,-0.115
2.140,0.135,-0.110
2.142,0.185,-0.100
2.144,0.200,-0.090
2.146,0.165,-0.070
2.148,0.100,-0.055
2.150,0.225,-0.040
2.152,0.015,-0.030
2.154,0.005,-0.025
2.156,0.085,-0.025
2.158,0.020,-0.035
2.160,0.170,-0.050
2.162,0.230,-0.070
2.164,0.175,-0.085
2.166,0.150,-0.100
2.168,0.055,-0.110
2.170,0.005,-0.110
2.172,-0.100,-0.100
2.174,-0.005,-0.085
2.176,-0.010,-0.055
2.178,0.145,-0.030
2.180,0.235,0.000
2.182,0.240,0.020
2.184,0.430,0.030
2.186,0.270,0.030
2.188,0.140,0.020
2.190,0.140,0.005
2.192,0.010,-0.015
2.194,-0.125,-0.040
2.196,0.030,-0.055
2.198,0.160,-0.065
2.200,0.265,-0.065
2.202,0.305,-0.055
2.204,0.050,-0.040
2.206,0.260,-0.030
2.208,0.140,-0.020
2.210,-0.035,-0.015
2.212,0.010,-0.020
2.214,0.075,-0.030
2.216,0.115,-0.045
2.218,0.205,-0.060
2.220,-0.010,-0.075
2.222,0.175,-0.085
2.224,0.125,-0.085
2.226,0.160,-0.075
2.228,0.165,-0.060
2.230,0.100,-0.040
2.232,0.050,-0.025
2.234,0.025,-0.010
2.236,0.040,-0.005
2.238,0.065,-0.005
2.240,0.145,-0.015
2.242,0.295,-0.025
2.244,0.375,-0.030
2.246,0.195,-0.040
2.248,0.190,-0.040
2.250,-0.040,-0.035
2.252,0.000,-0.020
2.254,0.055,-0.010
2.256,0.120,0.010
2.258,0.175,0.025
2.260,0.200,0.040
2.262,0.305,0.050
2.264,0.450,0.055
2.266,0.280,0.060
2.268,0.220,0.055
2.270,0.110,0.050
2.272,0.130,0.035
2.274,0.010,0.020
2.276,0.100,0.010
2.278,0.155,-0.005
2.280,0.165,-0.010
2.282,0.245,-0.010
2.284,0.290,0.005
2.286,0.190,0.025
2.288,0.310,0.045
2.290,0.195,0.075
2.292,0.130,0.095
2.294,0.095,0.105
2.296,0.195,0.110
2.298,0.225,0.100
2.300,0.345,0.080
2.302,0.335,0.060
2.304,0.340,0.045
2.306,0.190,0.035
2.308,0.145,0.040
2.310,0.130,0.055
2.312,0.115,0.080
2.314,0.220,0.105
2.316,0.335,0.130
2.318,0.340,0.145
2.320,0.340,0.150
2.322,0.380,0.140
2.324,0.325,0.120
2.326,0.230,0.100
2.328,0.235,0.075
2.330,0.090,0.065
2.332,0.150,0.060
2.334,0.190,0.065
2.336,0.185,0.080
2.338,0.340,0.095
2.340,0.255,0.110
2.342,0.405,0.125
2.344,0.405,0.130
2.346,0.280,0.125
2.348,0.200,0.115
2.350,0.135,0.095
2.352,0.135,0.080
2.354,0.095,0.060
2.356,0.290,0.040
2.358,0.145,0.025
2.360,0.235,0.015
2.362,0.305,0.010
2.364,0.240,0.005
2.366,0.180,0.005
2.368,0.125,0.005
2.370,0.010,0.010
2.372,-0.065,0.010
2.374,0.160,0.015
2.376,0.225,0.015
2.378,0.170,0.010
2.380,0.245,0.000
2.382,0.260,-0.010
2.384,0.280,-0.025
2.386,0.085,-0.035
2.388,0.105,-0.045
2.390,-0.080,-0.050
2.392,0.000,-0.050
2.394,-0.040,-0.045
2.396,0.095,-0.035
2.398,0.165,-0.030
2.400,0.290,-0.025
2.402,0.285,-0.030
2.404,0.155,-0.035
2.406,0.130,-0.045
2.408,0.085,-0.055
2.410,-0.145,-0.065
2.412,0.015,-0.070
2.414,0.055,-0.070
2.416,0.120,-0.065
2.418,0.015,-0.060
2.420,0.280,-0.055
2.422,0.240,-0.050
2.424,0.180,-0.045
2.426,0.065,-0.045
2.428,-0.050,-0.045
2.430,-0.010,-0.050
2.432,-0.010,-0.055
2.434,-0.025,-0.060
2.436,0.120,-0.065
2.438,0.140,-0.070
2.440,0.175,-0.075
2.442,0.245,-0.075
2.444,0.075,-0.075
2.446,0.085,-0.075
2.448,0.090,-0.075
2.450,-0.090,-0.065
2.452,-0.140,-0.060
2.454,0.045,-0.050
2.456,0.170,-0.040
2.458,0.220,-0.030
2.460,0.220,-0.025
2.462,0.200,-0.025
2.464,0.155,-0.030
2.466,0.175,-0.040
2.468,0.030,-0.050
2.470,-0.055,-0.065
2.472,-0.150,-0.070
2.474,0.010,-0.075
2.476,0.035,-0.070
2.478,0.210,-0.060
2.480,0.310,-0.045
2.482,0.270,-0.025
2.484,0.190,-0.005
2.486,0.025,0.010
2.488,0.005,0.025
2.490,0.175,0.030
2.492,0.100,0.030
2.494,0.075,0.020
2.496,0.160,0.010
2.498,0.190,-0.005
2.500,0.335,-0.020
2.502,0.205,-0.035
2.504,0.060,-0.045
2.506,0.125,-0.050
2.508,-0.025,-0.050
2.510,-0.040,-0.050
2.512,0.030,-0.045
2.514,-0.010,-0.040
2.516,0.135,-0.035
2.518,0.315,-0.035
2.520,0.355,-0.030
2.522,0.100,-0.035
2.524,0.165,-0.035
2.526,-0.010,-0.040
2.528,0.065,-0.045
2.530,-0.065,-0.045
2.532,-0.005,-0.045
2.534,0.080,-0.045
2.536,0.130,-0.040
2.538,0.210,-0.030
2.540,0.300,-0.025
2.542,0.250,-0.020
2.544,0.145,-0.015
2.546,0.085,-0.010
2.548,0.035,-0.010
2.550,-0.080,-0.005
2.552,0.055,-0.005
2.554,0.150,-0.005
2.556,0.145,-0.005
2.558,0.320,0.000
2.560,0.365,0.000
2.562,0.195,0.005
2.564,0.100,0.005
2.566,0.100,0.010
2.568,0.025,0.005
2.570,-0.040,0.005
2.572,0.070,0.000
2.574,0.105,-0.010
2.576,0.185,-0.015
2.578,0.125,-0.025
2.580,0.305,-0.030
2.582,0.215,-0.030
2.584,0.140,-0.030
2.586,0.095,-0.030
2.588,-0.005,-0.025
2.590,0.010,-0.020
2.592,0.035,-0.015
2.594,0.035,-0.010
2.596,0.065,-0.010
2.598,0.315,-0.015
2.600,0.220,-0.020
2.602,0.170,-0.025
2.604,0.195,-0.030
2.606,0.170,-0.035
2.608,-0.055,-0.035
2.610,0.020,-0.035
2.612,-0.055,-0.030
2.614,0.005,-0.025
2.616,0.180,-0.015
2.618,0.340,-0.010
2.620,0.285,-0.010
2.622,0.115,-0.010
2.624,0.200,-0.010
2.626,0.160,-0.010
2.628,-0.020,-0.010
2.630,-0.040,-0.010
2.632,0.075,-0.010
2.634,0.120,-0.005
2.636,0.120,-0.005
2.638,0.325,0.000
2.640,0.095,-0.005
2.642,0.255,-0.010
2.644,0.205,-0.020
2.646,0.140,-0.035
2.648,-0.065,-0.045
2.650,-0.035,-0.060
2.652,-0.050,-0.070
2.654,-0.045,-0.075
2.656,0.080,-0.070
2.658,0.200,-0.065
2.660,0.245,-0.055
2.662,0.270,-0.040
2.664,0.130,-0.030
2.666,0.105,-0.020
2.668,0.030,-0.010
2.670,-0.050,-0.010
2.672,0.025,-0.015
2.674,-0.050,-0.015
2.676,0.180,-0.020
2.678,0.235,-0.025
2.680,0.265,-0.025
2.682,0.185,-0.025
2.684,0.075,-0.020
2.686,0.200,-0.010
2.688,-0.010,0.000
2.690,-0.035,0.005
2.692,0.060,0.005
2.694,0.100,0.005
2.696,0.140,-0.005
2.698,0.305,-0.015
2.700,0.250,-0.030
2.702,0.150,-0.050
2.704,0.000,-0.065
2.706,0.000,-0.075
2.708,-0.025,-0.075
2.710,-0.020,-0.075
2.712,-0.100,-0.065
2.714,0.140,-0.050
2.716,0.185,-0.035
2.718,0.210,-0.020
2.720,0.265,-0.005
2.722,0.105,0.000
2.724,0.080,0.005
2.726,0.165,0.010
2.728,0.135,0.005
2.730,0.005,0.005
2.732,-0.035,0.000
2.734,0.110,0.000
2.736,0.215,0.000
2.738,0.255,0.005
2.740,0.270,0.010
2.742,0.205,0.020
2.744,0.175,0.035
2.746,0.050,0.045
2.748,0.115,0.055
2.750,0.165,0.065
2.752,0.150,0.070
2.754,0.200,0.065
2.756,0.110,0.060
2.758,0.365,0.045
2.760,0.335,0.035
2.762,0.095,0.025
2.764,0.155,0.020
2.766,0.145,0.025
2.768,0.095,0.030
2.770,-0.025,0.045
2.772,0.080,0.060
2.774,0.280,0.070
2.776,0.325,0.075
2.778,0.275,0.065
2.780,0.290,0.050
2.782,0.150,0.025
2.784,0.145,0.000
2.786,0.045,-0.025
2.788,-0.075,-0.045
2.790,0.010,-0.055
2.792,0.070,-0.050
2.794,-0.020,-0.040
2.796,0.145,-0.025
2.798,0.300,-0.010
2.800,0.305,-0.005
2.802,0.185,-0.005
2.804,0.175,-0.010
2.806,-0.020,-0.025
2.808,-0.050,-0.035
2.810,-0.085,-0.045
2.812,-0.005,-0.055
2.814,0.125,-0.055
2.816,0.160,-0.050
2.818,0.240,-0.040
2.820,0.240,-0.040
2.822,0.165,-0.040
2.824,0.025,-0.045
2.826,-0.045,-0.055
2.828,-0.080,-0.070
2.830,-0.030,-0.080
2.832,0.035,-0.085
2.834,0.120,-0.085
2.836,0.150,-0.075
2.838,0.185,-0.055
2.840,0.095,-0.030
2.842,0.120,-0.005
2.844,0.190,0.025
2.846,0.090,0.060
2.848,0.110,0.105
2.850,0.145,0.160
2.852,0.395,0.225
2.854,0.515,0.305
2.856,0.615,0.395
2.858,0.710,0.490
2.860,0.835,0.575
2.862,0.785,0.640
2.864,0.905,0.670
2.866,0.740,0.665
2.868,0.595,0.620
2.870,0.520,0.535
2.872,0.540,0.425
2.874,0.465,0.305
2.876,0.305,0.185
2.878,0.270,0.085
2.880,0.140,0.010
2.882,0.080,-0.035
2.884,0.125,-0.055
2.886,-0.020,-0.060
2.888,-0.110,-0.060
2.890,-0.080,-0.055
2.892,0.125,-0.060
2.894,0.105,-0.070
2.896,0.085,-0.080
2.898,0.115,-0.095
2.900,0.110,-0.105
2.902,0.095,-0.105
2.904,0.080,-0.095
2.906,-0.170,-0.075
2.908,-0.020,-0.050
2.910,0.030,-0.025
2.912,0.115,-0.010
2.914,0.220,-0.005
2.916,0.205,-0.005
2.918,0.230,-0.015
2.920,0.150,-0.025
2.922,0.120,-0.040
2.924,0.015,-0.045
2.926,-0.120,-0.050
2.928,-0.020,-0.045
2.930,0.000,-0.040
2.932,0.025,-0.040
2.934,0.120,-0.035
2.936,0.250,-0.040
2.938,0.230,-0.045
2.940,0.135,-0.050
2.942,0.070,-0.060
2.944,0.040,-0.060
2.946,-0.135,-0.060
2.948,-0.025,-0.055
2.950,-0.030,-0.050
2.952,-0.015,-0.045
2.954,0.145,-0.045
2.956,0.185,-0.050
2.958,0.175,-0.055
2.960,0.235,-0.060
2.962,0.020,-0.065
2.964,-0.005,-0.065
2.966,-0.065,-0.060
2.968,-0.125,-0.050
2.970,-0.080,-0.035
2.972,0.210,-0.020
2.974,0.165,-0.005
2.976,0.250,0.000
2.978,0.255,0.000
2.980,0.180,-0.005
2.982,0.150,-0.015
2.984,0.075,-0.025
2.986,-0.240,-0.040
2.988,-0.090,-0.050
2.990,0.055,-0.050
2.992,0.125,-0.050
2.994,0.120,-0.050
2.996,0.115,-0.040
2.998,0.225,-0.035
3.000,0.115,-0.025
3.002,0.105,-0.015
3.004,0.160,-0.010
3.006,0.015,-0.005
3.008,-0.040,0.000
3.010,-0.060,0.000
3.012,0.050,-0.005
3.014,0.110,-0.010
3.016,0.300,-0.015
3.018,0.290,-0.020
3.020,0.135,-0.020
3.022,0.115,-0.015
3.024,0.065,-0.005
3.026,-0.035,0.015
3.028,-0.020,0.035
3.030,0.115,0.055
3.032,0.205,0.070
3.034,0.290,0.075
3.036,0.400,0.075
3.038,0.435,0.070
3.040,0.135,0.055
3.042,0.110,0.040
3.044,0.055,0.025
3.046,-0.020,0.015
3.048,0.035,0.015
3.050,0.105,0.020
3.052,0.120,0.030
3.054,0.155,0.040
3.056,0.290,0.045
3.058,0.265,0.050
3.060,0.235,0.050
3.062,0.195,0.050
3.064,0.045,0.045
3.066,0.040,0.050
3.068,0.065,0.050
3.070,0.140,0.060
3.072,0.300,0.070
3.074,0.175,0.080
3.076,0.320,0.085
3.078,0.290,0.085
3.080,0.170,0.075
3.082,0.200,0.060
3.084,0.170,0.040
3.086,0.015,0.025
3.088,-0.075,0.020
3.090,-0.010,0.030
3.092,0.210,0.050
3.094,0.345,0.080
3.096,0.410,0.120
3.098,0.355,0.160
3.100,0.370,0.185
3.102,0.250,0.205
3.104,0.320,0.205
3.106,0.140,0.195
3.108,0.105,0.175
3.110,0.120,0.145
3.112,0.285,0.125
3.114,0.370,0.105
3.116,0.385,0.095
3.118,0.160,0.090
3.120,0.310,0.095
3.122,0.180,0.095
3.124,0.110,0.095
3.126,0.085,0.090
3.128,0.080,0.075
3.130,0.155,0.060
3.132,0.155,0.040
3.134,0.145,0.025
3.136,0.225,0.015
3.138,0.175,0.015
3.140,0.210,0.020
3.142,0.200,0.030
3.144,0.040,0.045
3.146,0.085,0.050
3.148,0.085,0.055
3.150,-0.055,0.045
3.152,0.165,0.030
3.154,0.195,0.010
3.156,0.255,-0.015
3.158,0.210,-0.035
3.160,0.055,-0.045
3.162,0.005,-0.050
3.164,-0.105,-0.045
3.166,-0.010,-0.040
3.168,0.030,-0.025
3.170,0.045,-0.020
3.172,0.135,-0.015
3.174,0.195,-0.020
3.176,0.165,-0.030
3.178,0.090,-0.045
3.180,0.100,-0.065
3.182,0.095,-0.075
3.184,-0.155,-0.085
3.186,-0.155,-0.090
3.188,0.020,-0.085
3.190,-0.055,-0.080
3.192,0.055,-0.075
3.194,0.160,-0.070
3.196,0.180,-0.070
3.198,0.100,-0.075
3.200,0.065,-0.080
3.202,0.070,-0.085
3.204,-0.225,-0.085
3.206,-0.065,-0.080
3.208,0.020,-0.065
3.210,-0.045,-0.050
3.212,0.025,-0.030
3.214,0.280,-0.010
3.216,0.245,0.005
3.218,0.270,0.010
3.220,0.130,0.005
3.222,0.015,-0.010
3.224,-0.080,-0.030
3.226,-0.140,-0.050
3.228,-0.120,-0.075
3.230,-0.040,-0.095
3.232,0.040,-0.105
3.234,0.160,-0.105
3.236,0.110,-0.100
3.238,0.055,-0.090
3.240,0.060,-0.080
3.242,0.095,-0.070
3.244,-0.075,-0.055
3.246,-0.115,-0.050
3.248,-0.210,-0.050
3.250,0.015,-0.050
3.252,0.050,-0.050
3.254,0.215,-0.055
3.256,0.240,-0.065
3.258,0.125,-0.070
3.260,0.065,-0.075
3.262,-0.005,-0.080
3.264,-0.150,-0.080
3.266,-0.150,-0.085
3.268,-0.070,-0.080
3.270,-0.050,-0.080
3.272,0.095,-0.070
3.274,0.165,-0.065
3.276,0.160,-0.055
3.278,0.180,-0.045
3.280,-0.055,-0.040
3.282,0.070,-0.030
3.284,-0.035,-0.025
3.286,-0.020,-0.025
3.288,-0.045,-0.020
3.290,0.105,-0.020
3.292,0.060,-0.015
3.294,0.200,-0.015
3.296,0.165,-0.010
3.298,0.135,-0.010
3.300,0.135,-0.015
3.302,0.010,-0.020
3.304,0.015,-0.030
3.306,-0.030,-0.050
3.308,-0.150,-0.065
3.310,-0.060,-0.085
3.312,0.045,-0.105
3.314,0.090,-0.110
3.316,0.115,-0.110
3.318,0.050,-0.105
3.320,0.025,-0.085
3.322,0.075,-0.065
3.324,-0.075,-0.040
3.326,-0.100,-0.025
3.328,-0.015,-0.020
3.330,0.050,-0.025
3.332,0.060,-0.040
3.334,0.200,-0.065
3.336,0.130,-0.095
3.338,0.020,-0.125
3.340,-0.025,-0.145
3.342,-0.180,-0.150
3.344,-0.270,-0.150
3.346,-0.180,-0.130
3.348,-0.055,-0.100
3.350,0.060,-0.070
3.352,0.190,-0.035
3.354,0.280,-0.010
3.356,0.195,0.010
3.358,0.180,0.015
3.360,0.050,0.010
3.362,0.000,-0.005
3.364,-0.040,-0.020
3.366,-0.095,-0.040
3.368,0.005,-0.055
3.370,0.000,-0.065
3.372,0.045,-0.070
3.374,0.155,-0.070
3.376,0.125,-0.060
3.378,0.100,-0.050
3.380,-0.005,-0.045
3.382,0.060,-0.035
3.384,-0.075,-0.035
3.386,-0.070,-0.035
3.388,-0.105,-0.040
3.390,0.105,-0.045
3.392,0.095,-0.055
3.394,0.120,-0.060
3.396,0.075,-0.060
3.398,0.035,-0.065
3.400,0.180,-0.065
3.402,-0.075,-0.065
3.404,-0.135,-0.065
3.406,-0.110,-0.065
3.408,-0.090,-0.065
3.410,-0.060,-0.070
3.412,0.105,-0.075
3.414,0.180,-0.080
3.416,0.185,-0.085
3.418,0.020,-0.085
3.420,0.000,-0.080
3.422,-0.165,-0.075
3.424,-0.145,-0.065
3.426,-0.045,-0.060
3.428,0.000,-0.055
3.430,0.080,-0.055
3.432,0.095,-0.060
3.434,0.155,-0.070
3.436,0.065,-0.080
3.438,-0.005,-0.095
3.440,-0.070,-0.105
3.442,-0.010,-0.115
3.444,-0.160,-0.120
3.446,-0.270,-0.115
3.448,-0.120,-0.110
3.450,0.070,-0.100
3.452,0.100,-0.090
3.454,0.105,-0.075
3.456,0.130,-0.060
3.458,0.150,-0.050
3.460,-0.030,-0.040
3.462,-0.135,-0.035
3.464,-0.080,-0.030
3.466,0.000,-0.025
3.468,-0.060,-0.025
3.470,0.120,-0.025
3.472,0.240,-0.030
3.474,0.215,-0.035
3.476,0.130,-0.040
3.478,-0.015,-0.045
3.480,-0.095,-0.055
3.482,-0.190,-0.060
3.484,-0.125,-0.070
3.486,0.005,-0.080
3.488,0.080,-0.090
3.490,0.065,-0.100
3.492,-0.035,-0.110
3.494,-0.075,-0.115
3.496,-0.015,-0.115
3.498,0.035,-0.115
3.500,0.040,-0.105
3.502,-0.175,-0.095
3.504,-0.010,-0.080
3.506,-0.115,-0.065
3.508,-0.120,-0.055
3.510,0.130,-0.050
3.512,0.060,-0.040
3.514,0.150,-0.035
3.516,0.170,-0.030
3.518,0.100,-0.025
3.520,-0.010,-0.010
3.522,-0.110,0.005
3.524,0.045,0.020
3.526,0.025,0.040
3.528,0.050,0.055
3.530,0.090,0.060
3.532,0.265,0.060
3.534,0.215,0.050
3.536,0.205,0.035
3.538,0.230,0.015
3.540,0.025,0.000
3.542,-0.165,-0.010
3.544,-0.110,-0.015
3.546,-0.025,-0.010
3.548,0.095,-0.005
3.550,0.140,0.005
3.552,0.200,0.015
3.554,0.210,0.020
3.556,0.255,0.015
3.558,0.015,0.005
3.560,-0.030,-0.010
3.562,-0.080,-0.025
3.564,-0.095,-0.040
3.566,-0.145,-0.050
3.568,0.040,-0.055
3.570,0.095,-0.055
3.572,0.060,-0.050
3.574,0.100,-0.045
3.576,0.140,-0.045
3.578,0.095,-0.045
3.580,0.030,-0.050
3.582,-0.240,-0.055
3.584,-0.130,-0.065
3.586,-0.075,-0.070
3.588,-0.050,-0.075
3.590,0.055,-0.080
3.592,0.180,-0.075
3.594,0.085,-0.070
3.596,0.110,-0.060
3.598,-0.050,-0.050
3.600,0.015,-0.045
3.602,-0.045,-0.040
3.604,-0.145,-0.040
3.606,-0.030,-0.045
3.608,-0.060,-0.050
3.610,0.020,-0.055
3.612,0.225,-0.060
3.614,0.150,-0.060
3.616,0.005,-0.055
3.618,0.030,-0.045
3.620,0.005,-0.025
3.622,-0.090,0.005
3.624,-0.065,0.040
3.626,0.085,0.090
3.628,0.210,0.145
3.630,0.245,0.215
3.632,0.685,0.295
3.634,0.630,0.385
3.636,0.440,0.475
3.638,0.450,0.560
3.640,0.665,0.635
3.642,0.755,0.690
3.644,0.785,0.705
3.646,0.795,0.685
3.648,0.720,0.625
3.650,0.645,0.530
3.652,0.495,0.405
3.654,0.380,0.265
3.656,0.145,0.130
3.658,-0.055,0.010
3.660,-0.080,-0.080
3.662,-0.205,-0.130
3.664,-0.135,-0.150
3.666,-0.095,-0.130
3.668,0.005,-0.095
3.670,0.085,-0.050
3.672,0.065,-0.010
3.674,0.085,0.020
3.676,0.185,0.030
3.678,0.135,0.025
3.680,0.030,0.005
3.682,-0.105,-0.025
3.684,-0.110,-0.050
3.686,-0.155,-0.075
3.688,-0.060,-0.090
3.690,-0.070,-0.100
3.692,0.165,-0.100
3.694,0.045,-0.095
3.696,-0.015,-0.090
3.698,0.000,-0.080
3.700,0.020,-0.075
3.702,-0.135,-0.065
3.704,-0.230,-0.050
3.706,-0.175,-0.040
3.708,0.105,-0.025
3.710,0.200,-0.010
3.712,0.225,0.000
3.714,0.185,0.005
3.716,0.055,0.005
3.718,-0.020,0.000
3.720,-0.105,-0.005
3.722,-0.105,-0.010
3.724,-0.095,-0.010
3.726,0.025,-0.005
3.728,0.090,0.005
3.730,0.190,0.025
3.732,0.235,0.045
3.734,0.315,0.060
3.736,0.145,0.065
3.738,-0.050,0.060
3.740,0.075,0.045
3.742,-0.075,0.020
3.744,-0.015,-0.010
3.746,-0.085,-0.035
3.748,-0.055,-0.055
3.750,-0.055,-0.060
3.752,0.185,-0.060
3.754,0.165,-0.045
3.756,0.075,-0.020
3.758,0.145,0.000
3.760,-0.020,0.020
3.762,-0.075,0.035
3.764,-0.210,0.035
3.766,-0.005,0.030
3.768,0.095,0.015
3.770,0.055,0.000
3.772,0.275,-0.015
3.774,0.250,-0.030
3.776,0.025,-0.035
3.778,-0.045,-0.035
3.780,-0.090,-0.030
3.782,-0.225,-0.020
3.784,-0.050,0.000
3.786,-0.030,0.015
3.788,0.135,0.030
3.790,0.270,0.040
3.792,0.250,0.050
3.794,0.230,0.055
3.796,0.065,0.055
3.798,0.010,0.050
3.800,-0.115,0.045
3.802,-0.005,0.035
3.804,0.065,0.030
3.806,0.010,0.025
3.808,0.115,0.025
3.810,0.225,0.025
3.812,0.185,0.030
3.814,0.195,0.040
3.816,0.060,0.045
3.818,0.035,0.050
3.820,-0.040,0.055
3.822,-0.070,0.055
3.824,0.005,0.060
3.826,0.105,0.060
3.828,0.205,0.070
3.830,0.200,0.075
3.832,0.280,0.090
3.834,0.130,0.105
3.836,0.260,0.120
3.838,0.095,0.135
3.840,0.065,0.140
3.842,0.040,0.140
3.844,0.135,0.130
3.846,0.125,0.115
3.848,0.035,0.095
3.850,0.250,0.085
3.852,0.305,0.075
3.854,0.340,0.080
3.856,0.110,0.090
3.858,0.040,0.110
3.860,-0.060,0.135
3.862,0.215,0.155
3.864,0.070,0.165
3.866,0.110,0.170
3.868,0.135,0.160
3.870,0.360,0.145
3.872,0.400,0.130
3.874,0.195,0.110
3.876,0.160,0.100
3.878,0.110,0.100
3.880,-0.005,0.110
3.882,-0.020,0.125
3.884,0.110,0.140
3.886,0.170,0.160
3.888,0.290,0.165
3.890,0.255,0.165
3.892,0.365,0.160
3.894,0.310,0.140
3.896,0.195,0.125
3.898,-0.040,0.105
3.900,-0.025,0.095
3.902,0.020,0.090
3.904,-0.025,0.095
3.906,0.175,0.105
3.908,0.230,0.120
3.910,0.280,0.130
3.912,0.350,0.140
3.914,0.220,0.140
3.916,0.160,0.135
3.918,0.080,0.115
3.920,-0.090,0.095
3.922,0.005,0.065
3.924,-0.020,0.035
3.926,0.045,0.005
3.928,0.020,-0.020
3.930,0.140,-0.040
3.932,0.055,-0.045
3.934,0.070,-0.050
3.936,-0.020,-0.045
3.938,-0.100,-0.035
3.940,-0.195,-0.020
3.942,-0.115,-0.010
3.944,0.070,-0.005
3.946,0.060,0.000
3.948,-0.045,0.000
3.950,0.130,-0.005
3.952,0.200,-0.010
3.954,0.165,-0.015
3.956,-0.015,-0.015
3.958,-0.050,-0.015
3.960,-0.205,-0.015
3.962,-0.200,-0.010
3.964,-0.045,0.000
3.966,0.120,0.000
3.968,0.165,0.000
3.970,0.225,-0.005
3.972,0.205,-0.010
3.974,-0.080,-0.025
3.976,-0.090,-0.040
3.978,-0.195,-0.055
3.980,-0.145,-0.070
3.982,-0.175,-0.080
3.984,-0.075,-0.095
3.986,-0.040,-0.100
3.988,-0.035,-0.100
3.990,0.085,-0.095
3.992,-0.030,-0.085
3.994,0.000,-0.065
3.996,-0.010,-0.045
3.998,-0.035,-0.020
4.000,-0.140,0.000
4.002,0.005,0.015
4.004,-0.030,0.025
4.006,-0.005,0.020
4.008,0.070,0.005
4.010,0.215,-0.015
4.012,0.125,-0.040
4.014,-0.060,-0.065
4.016,-0.080,-0.085
4.018,-0.210,-0.095
4.020,-0.135,-0.090
4.022,-0.260,-0.080
4.024,-0.130,-0.055
4.026,0.105,-0.030
4.028,0.125,-0.005
4.030,0.165,0.015
4.032,0.100,0.030
4.034,-0.025,0.035
4.036,0.030,0.030
4.038,-0.010,0.015
4.040,0.040,0.000
4.042,-0.050,-0.020
4.044,-0.110,-0.040
4.046,-0.120,-0.055
4.048,-0.130,-0.065
4.050,0.080,-0.070
4.052,0.065,-0.060
4.054,0.055,-0.050
4.056,0.030,-0.030
4.058,-0.105,-0.005
4.060,-0.135,0.015
4.062,0.000,0.035
4.064,0.090,0.045
4.066,0.000,0.050
4.068,0.155,0.045
4.070,0.175,0.030
4.072,0.050,0.015
4.074,0.100,-0.010
4.076,-0.070,-0.030
4.078,-0.120,-0.045
4.080,-0.230,-0.060
4.082,-0.085,-0.070
4.084,-0.140,-0.070
4.086,-0.195,-0.070
4.088,0.050,-0.065
4.090,0.235,-0.060
4.092,0.135,-0.045
4.094,-0.070,-0.035
4.096,-0.065,-0.020
4.098,-0.195,-0.005
4.100,-0.145,0.005
4.102,0.015,0.010
4.104,0.055,0.010
4.106,0.045,0.000
4.108,0.145,-0.015
4.110,0.055,-0.035
4.112,-0.140,-0.050
4.114,-0.025,-0.060
4.116,0.070,-0.060
4.118,-0.215,-0.050
4.120,-0.180,-0.030
4.122,0.015,0.000
4.124,0.020,0.025
4.126,0.030,0.045
4.128,0.205,0.055
4.130,0.160,0.050
4.132,0.100,0.030
4.134,-0.005,0.005
4.136,-0.145,-0.025
4.138,-0.190,-0.050
4.140,-0.165,-0.065
4.142,-0.110,-0.070
4.144,0.035,-0.060
4.146,0.125,-0.040
4.148,0.055,-0.015
4.150,0.030,0.010
4.152,0.035,0.020
4.154,-0.030,0.030
4.156,-0.100,0.025
4.158,0.175,0.015
4.160,-0.155,0.005
4.162,-0.120,-0.005
4.164,-0.080,-0.015
4.166,-0.055,-0.020
4.168,0.200,-0.025
4.170,0.025,-0.030
4.172,0.080,-0.035
4.174,-0.070,-0.045
4.176,-0.125,-0.060
4.178,-0.200,-0.075
4.180,-0.215,-0.085
4.182,-0.155,-0.090
4.184,-0.065,-0.090
4.186,-0.135,-0.075
4.188,0.045,-0.055
4.190,0.130,-0.035
4.192,0.130,-0.010
4.194,0.145,0.010
4.196,0.020,0.020
4.198,-0.195,0.020
4.200,-0.170,0.015
4.202,-0.155,0.000
4.204,-0.030,-0.020
4.206,-0.055,-0.040
4.208,0.135,-0.055
4.210,0.130,-0.065
4.212,-0.025,-0.065
4.214,-0.005,-0.060
4.216,-0.050,-0.050
4.218,-0.245,-0.040
4.220,-0.255,-0.030
4.222,-0.110,-0.020
4.224,-0.065,-0.015
4.226,0.150,-0.015
4.228,0.185,-0.020
4.230,0.085,-0.025
4.232,-0.020,-0.030
4.234,-0.085,-0.030
4.236,-0.170,-0.025
4.238,-0.130,-0.020
4.240,-0.195,-0.010
4.242,-0.040,0.000
4.244,0.110,0.005
4.246,0.150,0.010
4.248,0.205,0.000
4.250,-0.040,-0.015
4.252,-0.010,-0.040
4.254,-0.160,-0.065
4.256,-0.185,-0.090
4.258,-0.180,-0.110
4.260,-0.205,-0.115
4.262,-0.140,-0.110
4.264,-0.100,-0.090
4.266,-0.075,-0.060
4.268,0.090,-0.030
4.270,0.035,0.000
4.272,0.110,0.020
4.274,0.015,0.030
4.276,-0.055,0.025
4.278,-0.130,0.010
4.280,-0.110,-0.010
4.282,-0.045,-0.035
4.284,-0.095,-0.055
4.286,-0.025,-0.065
4.288,0.075,-0.065
4.290,0.020,-0.055
4.292,0.035,-0.035
4.294,-0.010,-0.010
4.296,-0.120,0.010
4.298,-0.175,0.025
4.300,-0.040,0.040
4.302,0.005,0.045
4.304,-0.020,0.045
4.306,0.080,0.045
4.308,0.200,0.045
4.310,0.275,0.045
4.312,0.070,0.045
4.314,-0.065,0.045
4.316,-0.085,0.045
4.318,-0.025,0.045
4.320,-0.090,0.040
4.322,-0.030,0.035
4.324,-0.075,0.025
4.326,0.150,0.015
4.328,0.095,0.010
4.330,0.170,0.010
4.332,0.010,0.010
4.334,-0.020,0.015
4.336,-0.005,0.025
4.338,-0.200,0.030
4.340,-0.040,0.035
4.342,-0.070,0.030
4.344,-0.005,0.020
4.346,0.025,0.005
4.348,0.145,-0.015
4.350,0.115,-0.035
4.352,-0.175,-0.055
4.354,-0.080,-0.065
4.356,-0.155,-0.070
4.358,-0.235,-0.070
4.360,-0.175,-0.060
4.362,-0.090,-0.055
4.364,-0.120,-0.045
4.366,0.085,-0.035
4.368,0.140,-0.035
4.370,-0.035,-0.035
4.372,0.035,-0.045
4.374,-0.050,-0.050
4.376,-0.250,-0.060
4.378,-0.180,-0.065
4.380,-0.240,-0.065
4.382,-0.245,-0.065
4.384,-0.080,-0.060
4.386,0.125,-0.055
4.388,0.030,-0.045
4.390,0.080,-0.035
4.392,0.055,-0.025
4.394,0.095,-0.015
4.396,-0.205,-0.010
4.398,-0.245,-0.010
4.400,-0.140,-0.010
4.402,-0.140,-0.010
4.404,-0.005,-0.015
4.406,0.095,-0.010
4.408,0.090,0.000
4.410,0.115,0.025
4.412,0.155,0.065
4.414,0.065,0.125
4.416,0.050,0.205
4.418,0.135,0.300
4.420,0.245,0.405
4.422,0.415,0.505
4.424,0.580,0.595
4.426,0.935,0.650
4.428,0.835,0.675
4.430,0.725,0.660
4.432,0.635,0.600
4.434,0.495,0.510
4.436,0.175,0.395
4.438,0.035,0.270
4.440,-0.065,0.150
4.442,-0.040,0.050
4.444,-0.050,-0.025
4.446,-0.065,-0.075
4.448,-0.010,-0.095
4.450,0.075,-0.100
4.452,-0.015,-0.090
4.454,-0.130,-0.075
4.456,-0.280,-0.060
4.458,-0.280,-0.055
4.460,-0.225,-0.050
4.462,-0.095,-0.050
4.464,-0.060,-0.050
4.466,0.015,-0.045
4.468,0.145,-0.040
4.470,0.090,-0.020
4.472,0.020,-0.005
4.474,-0.100,0.010
4.476,-0.120,0.020
4.478,-0.185,0.020
4.480,-0.165,0.015
4.482,-0.170,-0.005
4.484,0.005,-0.030
4.486,0.080,-0.050
4.488,0.080,-0.070
4.490,-0.065,-0.080
4.492,-0.115,-0.085
4.494,-0.060,-0.075
4.496,-0.255,-0.065
4.498,-0.295,-0.055
4.500,-0.145,-0.055
4.502,-0.085,-0.055
4.504,-0.120,-0.065
4.506,-0.005,-0.080
4.508,0.025,-0.095
4.510,-0.030,-0.100
4.512,-0.125,-0.100
4.514,-0.250,-0.085
4.516,-0.265,-0.065
4.518,-0.170,-0.035
4.520,-0.205,-0.010
4.522,0.065,0.015
4.524,0.070,0.020
4.526,0.130,0.015
4.528,0.125,-0.005
4.530,-0.040,-0.035
4.532,-0.165,-0.070
4.534,-0.195,-0.100
4.536,-0.330,-0.120
4.538,-0.325,-0.130
4.540,-0.255,-0.120
4.542,-0.110,-0.100
4.544,0.020,-0.070
4.546,0.125,-0.045
4.548,0.085,-0.020
4.550,0.055,-0.005
4.552,0.035,0.000
4.554,-0.230,-0.005
4.556,-0.245,-0.015
4.558,-0.285,-0.030
4.560,-0.135,-0.040
4.562,-0.065,-0.045
4.564,0.070,-0.050
4.566,0.140,-0.050
4.568,-0.055,-0.045
4.570,0.010,-0.045
4.572,0.045,-0.045
4.574,-0.275,-0.050
4.576,-0.275,-0.060
4.578,-0.240,-0.065
4.580,-0.280,-0.070
4.582,-0.090,-0.070
4.584,-0.010,-0.065
4.586,0.175,-0.045
4.588,0.055,-0.025
4.590,-0.060,0.000
4.592,-0.070,0.025
4.594,-0.055,0.045
4.596,-0.115,0.060
4.598,-0.065,0.065
4.600,-0.080,0.065
4.602,-0.070,0.060
4.604,0.170,0.050
4.606,0.155,0.040
4.608,0.175,0.030
4.610,-0.080,0.025
4.612,-0.010,0.020
4.614,-0.085,0.015
4.616,-0.165,0.015
4.618,-0.195,0.015
4.620,-0.130,0.010
4.622,-0.040,0.010
4.624,0.070,0.010
4.626,0.120,0.015
4.628,0.065,0.020
4.630,-0.010,0.030
4.632,0.000,0.035
4.634,-0.130,0.045
4.636,-0.125,0.050
4.638,-0.015,0.050
4.640,-0.130,0.050
4.642,0.015,0.055
4.644,0.095,0.055
4.646,0.205,0.055
4.648,0.170,0.065
4.650,0.130,0.075
4.652,-0.070,0.090
4.654,-0.120,0.105
4.656,-0.025,0.115
4.658,-0.050,0.125
4.660,-0.025,0.130
4.662,0.130,0.130
4.664,0.225,0.125
4.666,0.195,0.115
4.668,0.220,0.115
4.670,0.160,0.110
4.672,0.080,0.115
4.674,-0.170,0.125
4.676,-0.050,0.130
4.678,-0.045,0.140
4.680,0.030,0.140
4.682,0.125,0.135
4.684,0.185,0.120
4.686,0.140,0.100
4.688,0.075,0.075
4.690,0.070,0.050
4.692,0.000,0.035
4.694,-0.025,0.020
4.696,-0.265,0.015
4.698,-0.175,0.015
4.700,-0.170,0.015
4.702,-0.020,0.015
4.704,0.150,0.015
4.706,0.130,0.005
4.708,0.110,-0.010
4.710,-0.160,-0.025
4.712,-0.180,-0.045
4.714,-0.280,-0.060
4.716,-0.255,-0.065
4.718,-0.195,-0.065
4.720,-0.175,-0.060
4.722,-0.025,-0.045
4.724,0.105,-0.025
4.726,0.140,-0.010
4.728,0.025,0.005
4.730,-0.035,0.015
4.732,-0.185,0.015
4.734,-0.255,0.005
4.736,-0.150,-0.005
4.738,-0.155,-0.020
4.740,-0.105,-0.035
4.742,-0.105,-0.050
4.744,0.005,-0.060
4.746,0.040,-0.060
4.748,-0.120,-0.060
4.750,-0.125,-0.055
4.752,-0.080,-0.050
4.754,-0.210,-0.045
4.756,-0.255,-0.045
4.758,-0.240,-0.045
4.760,-0.185,-0.055
4.762,0.000,-0.060
4.764,0.000,-0.070
4.766,-0.055,-0.075
4.768,-0.105,-0.070
4.770,-0.245,-0.060
4.772,-0.065,-0.045
4.774,-0.195,-0.020
4.776,-0.225,0.005
4.778,-0.065,0.030
4.780,-0.015,0.040
4.782,-0.010,0.045
4.784,-0.010,0.030
4.786,0.125,0.010
4.788,0.030,-0.020
4.790,-0.135,-0.055
4.792,-0.190,-0.080
4.794,-0.365,-0.095
4.796,-0.275,-0.105
4.798,-0.180,-0.100
4.800,-0.135,-0.085
4.802,-0.180,-0.070
4.804,-0.080,-0.050
4.806,0.085,-0.045
4.808,-0.015,-0.040
4.810,0.035,-0.050
4.812,-0.205,-0.070
4.814,-0.375,-0.090
4.816,-0.405,-0.110
4.818,-0.270,-0.125
4.820,-0.280,-0.135
4.822,-0.105,-0.130
4.824,0.000,-0.120
4.826,-0.005,-0.100
4.828,-0.050,-0.080
4.830,-0.140,-0.060
4.832,-0.290,-0.040
4.834,-0.260,-0.035
4.836,-0.275,-0.030
4.838,-0.145,-0.040
4.840,-0.150,-0.050
4.842,-0.030,-0.060
4.844,0.145,-0.070
4.846,-0.020,-0.075
4.848,-0.105,-0.075
4.850,-0.190,-0.065
4.852,-0.265,-0.050
4.854,-0.330,-0.035
4.856,-0.190,-0.020
4.858,-0.145,-0.005
4.860,0.035,0.005
4.862,0.015,0.010
4.864,0.070,0.010
4.866,0.075,0.010
4.868,0.015,0.005
4.870,-0.120,0.000
4.872,-0.275,-0.005
4.874,-0.365,-0.010
4.876,-0.145,-0.015
4.878,-0.120,-0.020
4.880,-0.090,-0.025
4.882,0.000,-0.030
4.884,0.090,-0.035
4.886,-0.030,-0.040
4.888,-0.055,-0.045
4.890,-0.215,-0.045
4.892,-0.215,-0.040
4.894,-0.250,-0.040
4.896,-0.275,-0.040
4.898,-0.060,-0.040
4.900,-0.105,-0.045
4.902,-0.080,-0.055
4.904,-0.010,-0.065
4.906,-0.040,-0.075
4.908,-0.165,-0.085
4.910,-0.195,-0.090
4.912,-0.335,-0.090
4.914,-0.235,-0.080
4.916,-0.260,-0.070
4.918,-0.265,-0.060
4.920,-0.045,-0.055
4.922,-0.030,-0.050
4.924,0.000,-0.050
4.926,0.015,-0.055
4.928,-0.175,-0.065
4.930,-0.235,-0.080
4.932,-0.340,-0.090
4.934,-0.215,-0.105
4.936,-0.225,-0.110
4.938,-0.280,-0.115
4.940,-0.280,-0.115
4.942,-0.095,-0.105
4.944,-0.005,-0.095
4.946,-0.095,-0.080
4.948,-0.095,-0.060
4.950,-0.195,-0.045
4.952,-0.165,-0.025
4.954,-0.125,-0.015
4.956,-0.220,-0.010
4.958,-0.090,-0.015
4.960,-0.180,-0.025
4.962,0.005,-0.040
4.964,-0.090,-0.060
4.966,-0.060,-0.075
4.968,-0.095,-0.085
4.970,-0.230,-0.095
4.972,-0.260,-0.090
4.974,-0.365,-0.085
4.976,-0.265,-0.075
4.978,-0.130,-0.060
4.980,-0.060,-0.055
4.982,0.025,-0.045
4.984,-0.030,-0.045
4.986,-0.045,-0.045
4.988,-0.215,-0.045
4.990,-0.145,-0.050
4.992,-0.280,-0.055
4.994,-0.345,-0.060
4.996,-0.195,-0.060
4.998,-0.140,-0.065
5.000,-0.200,-0.070
5.002,0.030,-0.075
5.004,-0.115,-0.075
5.006,-0.035,-0.070
5.008,-0.125,-0.065
5.010,-0.230,-0.055
5.012,-0.240,-0.040
5.014,-0.290,-0.030
5.016,-0.180,-0.020
5.018,-0.140,-0.015
5.020,-0.090,-0.020
5.022,-0.060,-0.035
5.024,0.075,-0.050
5.026,-0.115,-0.070
5.028,-0.155,-0.090
5.030,-0.165,-0.100
5.032,-0.320,-0.100
5.034,-0.415,-0.095
5.036,-0.295,-0.085
5.038,-0.170,-0.070
5.040,-0.160,-0.055
5.042,0.070,-0.050
5.044,-0.015,-0.045
5.046,-0.010,-0.050
5.048,-0.085,-0.060
5.050,-0.250,-0.065
5.052,-0.460,-0.070
5.054,-0.280,-0.065
5.056,-0.285,-0.060
5.058,-0.115,-0.045
5.060,-0.085,-0.030
5.062,0.085,-0.020
5.064,0.025,-0.010
5.066,-0.055,0.000
5.068,-0.165,0.000
5.070,-0.060,0.005
5.072,-0.250,0.005
5.074,-0.235,0.015
5.076,-0.150,0.025
5.078,-0.155,0.040
5.080,0.095,0.055
5.082,0.150,0.065
5.084,0.030,0.070
5.086,0.115,0.065
5.088,-0.100,0.055
5.090,-0.120,0.035
5.092,-0.210,0.010
5.094,-0.200,-0.010
5.096,-0.225,-0.030
5.098,-0.270,-0.045
5.100,-0.135,-0.055
5.102,0.020,-0.055
5.104,0.060,-0.060
5.106,-0.010,-0.060
5.108,-0.210,-0.065
5.110,-0.230,-0.070
5.112,-0.350,-0.085
5.114,-0.465,-0.100
5.116,-0.305,-0.115
5.118,-0.170,-0.125
5.120,-0.190,-0.125
5.122,-0.085,-0.120
5.124,0.040,-0.105
5.126,-0.110,-0.080
5.128,-0.240,-0.055
5.130,-0.190,-0.035
5.132,-0.240,-0.015
5.134,-0.305,-0.010
5.136,-0.150,-0.015
5.138,-0.175,-0.030
5.140,-0.095,-0.055
5.142,0.000,-0.080
5.144,-0.120,-0.105
5.146,-0.205,-0.120
5.148,-0.225,-0.125
5.150,-0.210,-0.120
5.152,-0.375,-0.105
5.154,-0.345,-0.085
5.156,-0.260,-0.065
5.158,-0.155,-0.050
5.160,-0.100,-0.035
5.162,0.035,-0.020
5.164,0.100,-0.005
5.166,0.000,0.020
5.168,-0.065,0.065
5.170,-0.155,0.125
5.172,-0.045,0.205
5.174,-0.055,0.305
5.176,0.345,0.410
5.178,0.370,0.520
5.180,0.660,0.610
5.182,0.815,0.675
5.184,0.735,0.700
5.186,0.645,0.680
5.188,0.450,0.615
5.190,0.320,0.510
5.192,0.115,0.380
5.194,0.025,0.235
5.196,-0.155,0.100
5.198,-0.170,-0.015
5.200,-0.225,-0.100
5.202,-0.145,-0.150
5.204,-0.125,-0.165
5.206,-0.235,-0.160
5.208,-0.235,-0.135
5.210,-0.235,-0.105
5.212,-0.310,-0.080
5.214,-0.275,-0.065
5.216,-0.220,-0.060
5.218,-0.200,-0.070
5.220,-0.070,-0.080
5.222,-0.145,-0.090
5.224,-0.200,-0.100
5.226,-0.080,-0.100
5.228,-0.195,-0.095
5.230,-0.375,-0.085
5.232,-0.350,-0.075
5.234,-0.210,-0.070
5.236,-0.200,-0.070
5.238,-0.210,-0.080
5.240,-0.115,-0.085
5.242,-0.115,-0.095
5.244,-0.120,-0.095
5.246,-0.280,-0.095
5.248,-0.110,-0.085
5.250,-0.350,-0.070
5.252,-0.215,-0.055
5.254,-0.265,-0.040
5.256,-0.200,-0.035
5.258,-0.175,-0.030
5.260,-0.005,-0.030
5.262,-0.115,-0.030
5.264,-0.020,-0.025
5.266,-0.030,-0.020
5.268,-0.120,-0.010
5.270,-0.305,0.005
5.272,-0.270,0.015
5.274,-0.130,0.020
5.276,-0.125,0.020
5.278,-0.140,0.015
5.280,-0.020,0.000
5.282,-0.015,-0.020
5.284,0.010,-0.040
5.286,-0.225,-0.055
5.288,-0.200,-0.065
5.290,-0.330,-0.065
5.292,-0.240,-0.060
5.294,-0.345,-0.055
5.296,-0.235,-0.055
5.298,-0.160,-0.060
5.300,-0.030,-0.075
5.302,-0.050,-0.090
5.304,-0.265,-0.110
5.306,-0.205,-0.125
5.308,-0.265,-0.130
5.310,-0.360,-0.120
5.312,-0.355,-0.100
5.314,-0.315,-0.070
5.316,-0.155,-0.030
5.318,-0.090,0.000
5.320,0.040,0.025
5.322,0.085,0.040
5.324,-0.015,0.035
5.326,-0.085,0.015
5.328,-0.110,-0.015
5.330,-0.465,-0.055
5.332,-0.410,-0.085
5.334,-0.220,-0.110
5.336,-0.190,-0.120
5.338,-0.290,-0.115
5.340,-0.125,-0.095
5.342,-0.070,-0.065
5.344,-0.100,-0.025
5.346,-0.155,0.020
5.348,-0.035,0.060
5.350,-0.105,0.090
5.352,-0.170,0.110
5.354,-0.060,0.120
5.356,-0.075,0.110
5.358,-0.030,0.095
5.360,0.105,0.065
5.362,-0.065,0.035
5.364,-0.075,0.005
5.366,-0.075,-0.015
5.368,-0.200,-0.030
5.370,-0.345,-0.030
5.372,-0.265,-0.025
5.374,-0.210,-0.005
5.376,-0.115,0.015
5.378,-0.035,0.040
5.380,0.070,0.065
5.382,0.065,0.080
5.384,0.025,0.095
5.386,0.005,0.100
5.388,-0.070,0.100
5.390,-0.190,0.100
5.392,-0.150,0.095
5.394,-0.180,0.095
5.396,-0.045,0.095
5.398,0.005,0.095
5.400,0.145,0.100
5.402,0.110,0.105
5.404,0.000,0.110
5.406,-0.050,0.115
5.408,-0.130,0.115
5.410,-0.100,0.115
5.412,-0.210,0.115
5.414,-0.020,0.110
5.416,-0.050,0.100
5.418,0.015,0.095
5.420,0.095,0.090
5.422,0.020,0.090
5.424,-0.035,0.095
5.426,-0.090,0.100
5.428,-0.040,0.110
5.430,-0.145,0.125
5.432,-0.090,0.130
5.434,-0.025,0.135
5.436,0.100,0.135
5.438,0.035,0.130
5.440,0.075,0.115
5.442,-0.010,0.100
5.444,-0.085,0.085
5.446,-0.020,0.065
5.448,-0.185,0.055
5.450,-0.215,0.045
5.452,-0.265,0.040
5.454,-0.155,0.035
5.456,-0.055,0.030
5.458,-0.020,0.025
5.460,-0.055,0.020
5.462,-0.025,0.010
5.464,-0.050,0.000
5.466,-0.190,-0.005
5.468,-0.230,-0.010
5.470,-0.270,-0.010
5.472,-0.320,0.000
5.474,-0.180,0.010
5.476,-0.220,0.025
5.478,0.020,0.035
5.480,0.090,0.040
5.482,0.045,0.040
5.484,-0.010,0.030
5.486,-0.175,0.020
5.488,-0.305,0.000
5.490,-0.295,-0.015
5.492,-0.280,-0.030
5.494,-0.265,-0.040
5.496,-0.255,-0.045
5.498,-0.070,-0.045
5.500,0.015,-0.040
5.502,-0.080,-0.035
5.504,-0.180,-0.035
5.506,-0.195,-0.030
5.508,-0.285,-0.030
5.510,-0.250,-0.030
5.512,-0.310,-0.030
5.514,-0.205,-0.030
5.516,-0.310,-0.025
5.518,-0.065,-0.020
5.520,-0.090,-0.020
5.522,0.070,-0.020
5.524,-0.095,-0.020
5.526,-0.115,-0.030
5.528,-0.380,-0.045
5.530,-0.365,-0.060
5.532,-0.310,-0.075
5.534,-0.330,-0.085
5.536,-0.335,-0.085
5.538,-0.175,-0.075
5.540,0.000,-0.060
5.542,0.000,-0.030
5.544,-0.060,0.000
5.546,-0.110,0.025
5.548,-0.215,0.040
5.550,-0.320,0.045
5.552,-0.250,0.040
5.554,-0.305,0.015
5.556,-0.125,-0.010
5.558,-0.035,-0.040
5.560,-0.015,-0.065
5.562,-0.150,-0.075
5.564,-0.230,-0.080
5.566,-0.350,-0.070
5.568,-0.350,-0.050
5.570,-0.330,-0.025
5.572,-0.230,0.000
5.574,-0.070,0.020
5.576,-0.125,0.030
5.578,0.110,0.030
5.580,-0.005,0.025
5.582,-0.035,0.015
5.584,-0.245,0.000
5.586,-0.315,-0.010
5.588,-0.225,-0.020
5.590,-0.285,-0.025
5.592,-0.285,-0.030
5.594,-0.235,-0.030
5.596,-0.180,-0.030
5.598,-0.080,-0.030
5.600,-0.105,-0.035
5.602,-0.155,-0.035
5.604,-0.165,-0.040
5.606,-0.185,-0.040
5.608,-0.270,-0.040
5.610,-0.375,-0.040
5.612,-0.250,-0.040
5.614,-0.270,-0.035
5.616,-0.290,-0.030
5.618,-0.090,-0.025
5.620,0.030,-0.020
5.622,-0.050,-0.010
5.624,-0.170,0.000
5.626,-0.120,0.015
5.628,-0.285,0.030
5.630,-0.255,0.040
5.632,-0.300,0.050
5.634,-0.100,0.060
5.636,-0.055,0.055
5.638,0.005,0.050
5.640,0.070,0.035
5.642,-0.205,0.015
5.644,-0.105,-0.005
5.646,-0.155,-0.030
5.648,-0.345,-0.045
5.650,-0.340,-0.055
5.652,-0.310,-0.060
5.654,-0.240,-0.055
5.656,-0.195,-0.045
5.658,-0.100,-0.030
5.660,-0.020,-0.015
5.662,-0.185,0.000
5.664,-0.065,0.010
5.666,-0.075,0.015
5.668,-0.310,0.015
5.670,-0.330,0.010
5.672,-0.205,0.000
5.674,-0.105,-0.015
5.676,-0.230,-0.030
5.678,-0.125,-0.050
5.680,-0.135,-0.065
5.682,-0.200,-0.075
5.684,-0.255,-0.085
5.686,-0.280,-0.085
5.688,-0.270,-0.075
5.690,-0.335,-0.065
5.692,-0.375,-0.055
5.694,-0.320,-0.040
5.696,-0.065,-0.030
5.698,-0.065,-0.020
5.700,-0.070,-0.020
5.702,-0.185,-0.025
5.704,-0.235,-0.030
5.706,-0.290,-0.035
5.708,-0.245,-0.035
5.710,-0.270,-0.035
5.712,-0.355,-0.035
5.714,-0.275,-0.030
5.716,-0.090,-0.020
5.718,0.015,-0.020
5.720,-0.070,-0.015
5.722,-0.200,-0.020
5.724,-0.195,-0.025
5.726,-0.340,-0.030
5.728,-0.275,-0.030
5.730,-0.300,-0.030
5.732,-0.315,-0.030
5.734,-0.195,-0.020
5.736,-0.105,-0.010
5.738,-0.030,0.000
5.740,-0.025,0.005
5.742,-0.200,0.010
5.744,-0.085,0.005
5.746,-0.270,-0.010
5.748,-0.315,-0.025
5.750,-0.390,-0.035
5.752,-0.315,-0.045
5.754,-0.215,-0.050
5.756,-0.120,-0.045
5.758,-0.005,-0.035
5.760,-0.065,-0.025
5.762,-0.150,-0.010
5.764,-0.215,-0.005
5.766,-0.305,-0.005
5.768,-0.395,-0.015
5.770,-0.315,-0.030
5.772,-0.265,-0.050
5.774,-0.305,-0.065
5.776,-0.185,-0.075
5.778,0.005,-0.070
5.780,-0.110,-0.055
5.782,-0.215,-0.025
5.784,-0.200,0.010
5.786,-0.265,0.050
5.788,-0.180,0.080
5.790,-0.160,0.100
5.792,-0.125,0.110
5.794,-0.050,0.105
5.796,-0.070,0.090
5.798,0.045,0.070
5.800,-0.030,0.050
5.802,-0.120,0.040
5.804,-0.155,0.035
5.806,-0.255,0.040
5.808,-0.340,0.055
5.810,-0.225,0.065
5.812,-0.170,0.075
5.814,-0.115,0.075
5.816,0.105,0.065
5.818,-0.055,0.045
5.820,0.025,0.020
5.822,-0.185,-0.005
5.824,-0.320,-0.025
5.826,-0.405,-0.035
5.828,-0.310,-0.035
5.830,-0.345,-0.025
5.832,-0.340,-0.010
5.834,-0.150,0.000
5.836,0.085,0.010
5.838,0.015,0.010
5.840,-0.110,0.000
5.842,-0.235,-0.020
5.844,-0.315,-0.050
5.846,-0.370,-0.075
5.848,-0.405,-0.095
5.850,-0.470,-0.105
5.852,-0.315,-0.105
5.854,-0.240,-0.090
5.856,-0.130,-0.070
5.858,-0.065,-0.040
5.860,-0.155,-0.015
5.862,-0.160,0.005
5.864,-0.120,0.015
5.866,-0.250,0.015
5.868,-0.310,0.010
5.870,-0.300,-0.005
5.872,-0.430,-0.020
5.874,-0.165,-0.030
5.876,-0.115,-0.035
5.878,-0.090,-0.030
5.880,-0.075,-0.010
5.882,-0.095,0.020
5.884,-0.190,0.060
5.886,-0.185,0.115
5.888,-0.190,0.175
5.890,-0.040,0.245
5.892,0.165,0.320
5.894,0.215,0.400
5.896,0.385,0.475
5.898,0.495,0.545
5.900,0.555,0.595
5.902,0.540,0.625
5.904,0.440,0.625
5.906,0.200,0.595
5.908,0.335,0.530
5.910,0.175,0.435
5.912,0.095,0.325
5.914,-0.120,0.205
5.916,-0.030,0.100
5.918,-0.125,0.015
5.920,-0.180,-0.045
5.922,-0.280,-0.080
5.924,-0.250,-0.085
5.926,-0.440,-0.075
5.928,-0.335,-0.055
5.930,-0.225,-0.040
5.932,-0.245,-0.035
5.934,-0.290,-0.040
5.936,-0.195,-0.055
5.938,-0.165,-0.075
5.940,-0.200,-0.090
5.942,-0.315,-0.095
5.944,-0.295,-0.095
5.946,-0.335,-0.080
5.948,-0.370,-0.055
5.950,-0.390,-0.035
5.952,-0.210,-0.015
5.954,-0.225,-0.005
5.956,-0.075,-0.005
5.958,-0.025,-0.015
5.960,0.005,-0.030
5.962,-0.305,-0.040
5.964,-0.370,-0.045
5.966,-0.290,-0.045
5.968,-0.390,-0.030
5.970,-0.330,-0.015
5.972,-0.210,0.000
5.974,-0.155,0.005
5.976,0.050,0.005
5.978,-0.125,-0.005
5.980,-0.185,-0.025
5.982,-0.285,-0.045
5.984,-0.280,-0.060
5.986,-0.430,-0.070
5.988,-0.480,-0.070
5.990,-0.310,-0.055
5.992,-0.270,-0.035
5.994,-0.085,-0.015
5.996,-0.065,0.005
5.998,-0.090,0.015
6.000,-0.170,0.015
6.002,-0.175,0.005
6.004,-0.235,-0.010
6.006,-0.435,-0.020
6.008,-0.375,-0.035
6.010,-0.260,-0.035
6.012,-0.230,-0.035
6.014,-0.120,-0.030
6.016,-0.120,-0.020
6.018,-0.205,-0.010
6.020,-0.065,-0.005
6.022,-0.255,-0.005
6.024,-0.270,-0.010
6.026,-0.285,-0.020
6.028,-0.355,-0.025
6.030,-0.300,-0.030
6.032,-0.240,-0.030
6.034,-0.130,-0.025
6.036,-0.075,-0.015
6.038,-0.150,0.000
6.040,-0.060,0.010
6.042,-0.160,0.020
6.044,-0.350,0.025
6.046,-0.315,0.020
6.048,-0.280,0.010
6.050,-0.330,0.000
6.052,-0.255,-0.015
6.054,-0.070,-0.025
6.056,-0.095,-0.030
6.058,-0.100,-0.025
6.060,-0.150,-0.015
6.062,-0.220,0.000
6.064,-0.265,0.020
6.066,-0.305,0.040
6.068,-0.270,0.055
6.070,-0.195,0.070
6.072,-0.070,0.075
6.074,-0.005,0.075
6.076,-0.035,0.070
6.078,-0.050,0.060
6.080,-0.145,0.050
6.082,-0.150,0.040
6.084,-0.290,0.035
6.086,-0.335,0.030
6.088,-0.295,0.030
6.090,-0.220,0.035
6.092,-0.090,0.045
6.094,-0.115,0.050
6.096,0.030,0.065
6.098,0.090,0.075
6.100,-0.075,0.090
6.102,-0.245,0.105
6.104,-0.270,0.120
6.106,-0.120,0.135
6.108,-0.190,0.145
6.110,-0.135,0.150
6.112,-0.135,0.155
6.114,0.170,0.150
6.116,0.175,0.140
6.118,-0.005,0.130
6.120,-0.150,0.115
6.122,-0.245,0.110
6.124,-0.295,0.105
6.126,-0.135,0.110
6.128,-0.160,0.115
6.130,-0.110,0.125
6.132,-0.080,0.130
6.134,0.095,0.135
6.136,-0.010,0.135
6.138,0.015,0.130
6.140,-0.040,0.120
6.142,-0.185,0.105
6.144,-0.305,0.100
6.146,-0.245,0.095
6.148,-0.195,0.100
6.150,-0.030,0.105
6.152,-0.075,0.120
6.154,0.115,0.135
6.156,-0.025,0.145
6.158,0.025,0.150
6.160,-0.050,0.150
6.162,-0.055,0.145
6.164,-0.260,0.130
6.166,-0.225,0.115
6.168,-0.205,0.100
6.170,-0.175,0.090
6.172,-0.065,0.080
6.174,0.015,0.075
6.176,0.020,0.070
6.178,-0.065,0.070
6.180,-0.215,0.065
6.182,-0.235,0.060
6.184,-0.345,0.050
6.186,-0.230,0.040
6.188,-0.255,0.030
6.190,-0.155,0.025
6.192,-0.210,0.025
6.194,-0.015,0.025
6.196,-0.065,0.025
6.198,-0.200,0.030
6.200,-0.110,0.025
6.202,-0.215,0.025
6.204,-0.400,0.015
6.206,-0.480,0.005
6.208,-0.205,-0.005
6.210,-0.240,-0.015
6.212,-0.150,-0.025
6.214,-0.140,-0.030
6.216,-0.140,-0.035
6.218,-0.195,-0.035
6.220,-0.305,-0.035
6.222,-0.240,-0.035
6.224,-0.405,-0.040
6.226,-0.375,-0.045
6.228,-0.380,-0.050
6.230,-0.275,-0.055
6.232,-0.190,-0.055
6.234,-0.120,-0.050
6.236,-0.095,-0.040
6.238,-0.150,-0.030
6.240,-0.175,-0.015
6.242,-0.330,0.000
6.244,-0.460,0.005
6.246,-0.285,0.010
6.248,-0.195,0.005
6.250,-0.220,-0.005
6.252,-0.285,-0.020
6.254,-0.110,-0.035
6.256,-0.075,-0.050
6.258,-0.185,-0.060
6.260,-0.240,-0.065
6.262,-0.375,-0.065
6.264,-0.490,-0.070
6.266,-0.470,-0.070
6.268,-0.310,-0.070
6.270,-0.305,-0.075
6.272,-0.250,-0.075
6.274,-0.105,-0.075
6.276,-0.180,-0.070
6.278,-0.215,-0.065
6.280,-0.245,-0.050
6.282,-0.250,-0.035
6.284,-0.395,-0.020
6.286,-0.370,-0.010
6.288,-0.345,0.000
6.290,-0.235,0.000
6.292,-0.070,-0.010
6.294,-0.125,-0.015
6.296,-0.075,-0.025
6.298,-0.165,-0.030
6.300,-0.300,-0.030
6.302,-0.280,-0.025
6.304,-0.460,-0.015
6.306,-0.355,0.000
6.308,-0.305,0.010
6.310,-0.225,0.015
6.312,-0.060,0.010
6.314,-0.105,0.000
6.316,-0.050,-0.020
6.318,-0.055,-0.035
6.320,-0.280,-0.055
6.322,-0.440,-0.060
6.324,-0.635,-0.065
6.326,-0.440,-0.055
6.328,-0.255,-0.045
6.330,-0.205,-0.025
6.332,-0.055,-0.015
6.334,-0.080,-0.005
6.336,-0.095,0.000
6.338,-0.190,-0.005
6.340,-0.270,-0.020
6.342,-0.335,-0.030
6.344,-0.445,-0.045
6.346,-0.385,-0.060
6.348,-0.330,-0.065
6.350,-0.270,-0.070
6.352,-0.180,-0.070
6.354,-0.075,-0.065
6.356,-0.195,-0.055
6.358,-0.175,-0.050
6.360,-0.220,-0.045
6.362,-0.480,-0.040
6.364,-0.410,-0.040
6.366,-0.245,-0.045
6.368,-0.405,-0.050
6.370,-0.310,-0.055
6.372,-0.070,-0.065
6.374,-0.145,-0.070
6.376,-0.195,-0.070
6.378,-0.210,-0.065
6.380,-0.335,-0.055
6.382,-0.440,-0.040
6.384,-0.355,-0.030
6.386,-0.405,-0.020
6.388,-0.275,-0.010
6.390,-0.230,-0.015
6.392,0.010,-0.020
6.394,-0.100,-0.035
6.396,-0.145,-0.050
6.398,-0.325,-0.065
6.400,-0.375,-0.075
6.402,-0.465,-0.080
6.404,-0.420,-0.080
6.406,-0.400,-0.070
6.408,-0.300,-0.055
6.410,-0.200,-0.040
6.412,-0.120,-0.020
6.414,-0.160,-0.010
6.416,-0.085,0.000
6.418,-0.175,0.000
6.420,-0.260,0.000
6.422,-0.325,-0.010
6.424,-0.300,-0.020
6.426,-0.320,-0.030
6.428,-0.340,-0.045
6.430,-0.330,-0.055
6.432,-0.210,-0.065
6.434,-0.120,-0.070
6.436,-0.140,-0.075
6.438,-0.305,-0.075
6.440,-0.325,-0.070
6.442,-0.435,-0.065
6.444,-0.240,-0.055
6.446,-0.450,-0.050
6.448,-0.365,-0.040
6.450,-0.235,-0.040
6.452,-0.015,-0.040
6.454,-0.070,-0.045
6.456,-0.320,-0.055
6.458,-0.230,-0.065
6.460,-0.270,-0.075
6.462,-0.440,-0.085
6.464,-0.495,-0.085
6.466,-0.395,-0.080
6.468,-0.260,-0.070
6.470,-0.280,-0.060
6.472,-0.155,-0.045
6.474,-0.125,-0.035
6.476,-0.080,-0.030
6.478,-0.155,-0.025
6.480,-0.200,-0.025
6.482,-0.460,-0.030
6.484,-0.375,-0.030
6.486,-0.415,-0.030
6.488,-0.285,-0.020
6.490,-0.275,-0.010
6.492,-0.010,0.000
6.494,-0.050,0.015
6.496,-0.080,0.025
6.498,-0.170,0.030
6.500,-0.235,0.030
6.502,-0.325,0.025
6.504,-0.265,0.020
6.506,-0.345,0.010
6.508,-0.305,0.000
6.510,-0.215,0.000
6.512,-0.075,0.000
6.514,-0.150,0.005
6.516,0.030,0.015
6.518,-0.105,0.025
6.520,-0.200,0.030
6.522,-0.330,0.030
6.524,-0.350,0.030
6.526,-0.290,0.025
6.528,-0.300,0.015
6.530,-0.240,0.000
6.532,-0.080,-0.010
6.534,-0.055,-0.025
6.536,-0.115,-0.035
6.538,-0.230,-0.045
6.540,-0.280,-0.055
6.542,-0.470,-0.065
6.544,-0.525,-0.075
6.546,-0.360,-0.085
6.548,-0.385,-0.095
6.550,-0.355,-0.105
6.552,-0.065,-0.105
6.554,-0.190,-0.105
6.556,-0.150,-0.095
6.558,-0.365,-0.085
6.560,-0.320,-0.070
6.562,-0.375,-0.055
6.564,-0.395,-0.040
6.566,-0.330,-0.035
6.568,-0.240,-0.030
6.570,-0.195,-0.035
6.572,-0.170,-0.050
6.574,-0.180,-0.065
6.576,-0.260,-0.080
6.578,-0.285,-0.095
6.580,-0.290,-0.100
6.582,-0.445,-0.100
6.584,-0.360,-0.090
6.586,-0.470,-0.070
6.588,-0.360,-0.045
6.590,-0.115,-0.015
6.592,0.010,0.020
6.594,-0.015,0.065
6.596,-0.145,0.110
6.598,0.050,0.165
6.600,-0.045,0.235
6.602,-0.105,0.310
6.604,0.015,0.400
6.606,0.190,0.490
6.608,0.395,0.575
6.610,0.555,0.640
6.612,0.785,0.680
6.614,0.695,0.675
6.616,0.435,0.625
6.618,0.375,0.535
6.620,0.165,0.410
6.622,-0.170,0.265
6.624,-0.335,0.115
6.626,-0.420,-0.015
6.628,-0.440,-0.120
6.630,-0.265,-0.185
6.632,-0.220,-0.210
6.634,-0.240,-0.200
6.636,-0.330,-0.165
6.638,-0.360,-0.115
6.640,-0.415,-0.070
6.642,-0.460,-0.030
6.644,-0.320,-0.010
6.646,-0.160,-0.005
6.648,-0.190,-0.015
6.650,-0.175,-0.030
6.652,-0.115,-0.050
6.654,-0.110,-0.065
6.656,-0.235,-0.075
6.658,-0.340,-0.075
6.660,-0.385,-0.070
6.662,-0.445,-0.065
6.664,-0.335,-0.065
6.666,-0.255,-0.060
6.668,-0.280,-0.065
6.670,-0.225,-0.075
6.672,-0.175,-0.080
6.674,-0.175,-0.090
6.676,-0.210,-0.095
6.678,-0.310,-0.100
6.680,-0.370,-0.100
6.682,-0.450,-0.095
6.684,-0.410,-0.090
6.686,-0.410,-0.080
6.688,-0.280,-0.075
6.690,-0.225,-0.065
6.692,-0.070,-0.055
6.694,-0.095,-0.045
6.696,-0.090,-0.035
6.698,-0.275,-0.025
6.700,-0.395,-0.025
6.702,-0.445,-0.030
6.704,-0.330,-0.040
6.706,-0.340,-0.055
6.708,-0.245,-0.070
6.710,-0.040,-0.085
6.712,-0.130,-0.100
6.714,-0.125,-0.105
6.716,-0.470,-0.110
6.718,-0.340,-0.100
6.720,-0.445,-0.090
6.722,-0.465,-0.075
6.724,-0.300,-0.060
6.726,-0.185,-0.050
6.728,-0.250,-0.045
6.730,-0.105,-0.040
6.732,-0.035,-0.040
6.734,-0.045,-0.040
6.736,-0.325,-0.040
6.738,-0.315,-0.040
6.740,-0.390,-0.040
6.742,-0.370,-0.040
6.744,-0.265,-0.045
6.746,-0.260,-0.045
6.748,-0.230,-0.050
6.750,-0.085,-0.055
6.752,-0.175,-0.055
6.754,-0.205,-0.055
6.756,-0.280,-0.055
6.758,-0.235,-0.050
6.760,-0.350,-0.040
6.762,-0.380,-0.030
6.764,-0.365,-0.025
6.766,-0.155,-0.020
6.768,-0.205,-0.020
6.770,-0.060,-0.020
6.772,-0.110,-0.025
6.774,-0.230,-0.025
6.776,-0.195,-0.020
6.778,-0.200,-0.010
6.780,-0.345,0.000
6.782,-0.240,0.015
6.784,-0.310,0.030
6.786,-0.200,0.040
6.788,-0.145,0.045
6.790,0.060,0.045
6.792,-0.020,0.035
6.794,-0.120,0.020
6.796,-0.275,0.005
6.798,-0.185,-0.010
6.800,-0.320,-0.015
6.802,-0.555,-0.020
6.804,-0.280,-0.015
6.806,-0.115,-0.005
6.808,-0.055,0.005
6.810,-0.090,0.020
6.812,-0.035,0.030
6.814,-0.045,0.040
6.816,-0.215,0.045
6.818,-0.210,0.050
6.820,-0.295,0.050
6.822,-0.270,0.050
6.824,-0.165,0.055
6.826,-0.065,0.055
6.828,-0.100,0.060
6.830,0.015,0.070
6.832,-0.025,0.075
6.834,-0.080,0.085
6.836,-0.080,0.090
6.838,-0.160,0.095
6.840,-0.180,0.100
6.842,-0.230,0.100
6.844,-0.135,0.095
6.846,-0.155,0.095
6.848,-0.045,0.090
6.850,-0.045,0.085
6.852,0.090,0.085
6.854,-0.030,0.085
6.856,-0.075,0.080
6.858,-0.195,0.080
6.860,-0.245,0.080
6.862,-0.315,0.075
6.864,-0.165,0.070
6.866,-0.130,0.065
6.868,-0.070,0.055
6.870,-0.035,0.050
6.872,-0.085,0.040
6.874,-0.130,0.040
6.876,-0.185,0.035
6.878,-0.085,0.035
6.880,-0.315,0.040
6.882,-0.245,0.035
6.884,-0.210,0.035
6.886,-0.205,0.030
6.888,-0.180,0.015
6.890,-0.085,0.000
6.892,0.060,-0.015
6.894,-0.235,-0.035
6.896,-0.230,-0.055
6.898,-0.385,-0.065
6.900,-0.335,-0.075
6.902,-0.365,-0.075
6.904,-0.405,-0.070
6.906,-0.200,-0.060
6.908,-0.185,-0.050
6.910,-0.135,-0.040
6.912,-0.090,-0.030
6.914,-0.120,-0.025
6.916,-0.295,-0.025
6.918,-0.205,-0.025
6.920,-0.315,-0.030
6.922,-0.375,-0.040
6.924,-0.325,-0.050
6.926,-0.200,-0.060
6.928,-0.205,-0.070
6.930,-0.185,-0.080
6.932,-0.195,-0.085
6.934,-0.195,-0.085
6.936,-0.290,-0.085
6.938,-0.295,-0.080
6.940,-0.335,-0.075
6.942,-0.455,-0.075
6.944,-0.360,-0.070
6.946,-0.225,-0.075
6.948,-0.120,-0.075
6.950,-0.145,-0.080
6.952,-0.175,-0.085
6.954,-0.170,-0.090
6.956,-0.230,-0.085
6.958,-0.485,-0.080
6.960,-0.435,-0.075
6.962,-0.225,-0.065
6.964,-0.305,-0.060
6.966,-0.285,-0.065
6.968,-0.105,-0.070
6.970,-0.095,-0.085
6.972,-0.290,-0.100
6.974,-0.260,-0.115
6.976,-0.315,-0.125
6.978,-0.455,-0.125
6.980,-0.470,-0.115
6.982,-0.300,-0.100
6.984,-0.240,-0.080
6.986,-0.140,-0.060
6.988,-0.180,-0.045
6.990,-0.070,-0.040
6.992,-0.110,-0.040
6.994,-0.285,-0.050
6.996,-0.315,-0.065
6.998,-0.385,-0.085
7.000,-0.385,-0.095
7.002,-0.315,-0.095
7.004,-0.230,-0.090
7.006,-0.170,-0.080
7.008,-0.200,-0.065
7.010,-0.185,-0.050
7.012,-0.145,-0.040
7.014,-0.160,-0.040
7.016,-0.235,-0.045
7.018,-0.230,-0.055
7.020,-0.345,-0.065
7.022,-0.470,-0.080
7.024,-0.355,-0.090
7.026,-0.215,-0.090
7.028,-0.095,-0.090
7.030,-0.100,-0.080
7.032,-0.130,-0.070
7.034,-0.225,-0.060
7.036,-0.285,-0.055
7.038,-0.370,-0.055
7.040,-0.370,-0.055
7.042,-0.270,-0.055
7.044,-0.270,-0.065
7.046,-0.200,-0.070
7.048,-0.165,-0.075
7.050,-0.065,-0.075
7.052,-0.135,-0.080
7.054,-0.300,-0.080
7.056,-0.330,-0.080
7.058,-0.420,-0.080
7.060,-0.375,-0.075
7.062,-0.295,-0.075
7.064,-0.235,-0.070
7.066,-0.120,-0.065
7.068,-0.050,-0.060
7.070,-0.145,-0.055
7.072,-0.240,-0.055
7.074,-0.260,-0.060
7.076,-0.180,-0.065
7.078,-0.385,-0.070
7.080,-0.425,-0.080
7.082,-0.390,-0.085
7.084,-0.230,-0.090
7.086,-0.220,-0.090
7.088,-0.135,-0.090
7.090,-0.065,-0.085
7.092,-0.185,-0.075
7.094,-0.195,-0.070
7.096,-0.300,-0.065
7.098,-0.480,-0.060
7.100,-0.315,-0.060
7.102,-0.325,-0.060
7.104,-0.235,-0.055
7.106,-0.145,-0.055
7.108,-0.040,-0.050
7.110,-0.170,-0.045
7.112,-0.090,-0.040
7.114,-0.160,-0.040
7.116,-0.265,-0.040
7.118,-0.330,-0.050
7.120,-0.295,-0.060
7.122,-0.320,-0.075
7.124,-0.445,-0.095
7.126,-0.185,-0.110
7.128,-0.120,-0.125
7.130,-0.140,-0.130
7.132,-0.295,-0.135
7.134,-0.245,-0.125
7.136,-0.320,-0.115
7.138,-0.345,-0.100
7.140,-0.440,-0.085
7.142,-0.290,-0.070
7.144,-0.260,-0.055
7.146,-0.110,-0.050
7.148,-0.055,-0.040
7.150,-0.075,-0.035
7.152,-0.255,-0.030
7.154,-0.175,-0.025
7.156,-0.070,-0.020
7.158,-0.325,-0.010
7.160,-0.335,0.000
7.162,-0.265,0.005
7.164,-0.210,0.010
7.166,-0.105,0.015
7.168,0.045,0.015
7.170,0.035,0.015
7.172,-0.080,0.010
7.174,-0.190,0.010
7.176,-0.230,0.010
7.178,-0.365,0.010
7.180,-0.320,0.015
7.182,-0.110,0.020
7.184,-0.075,0.025
7.186,-0.110,0.030
7.188,-0.015,0.030
7.190,-0.040,0.025
7.192,-0.030,0.010
7.194,-0.140,-0.005
7.196,-0.320,-0.025
7.198,-0.360,-0.045
7.200,-0.370,-0.060
7.202,-0.345,-0.075
7.204,-0.195,-0.080
7.206,-0.135,-0.080
7.208,-0.130,-0.075
7.210,-0.185,-0.065
7.212,-0.165,-0.055
7.214,-0.140,-0.045
7.216,-0.245,-0.040
7.218,-0.340,-0.040
7.220,-0.325,-0.050
7.222,-0.270,-0.065
7.224,-0.280,-0.085
7.226,-0.160,-0.105
7.228,-0.145,-0.120
7.230,-0.145,-0.130
7.232,-0.255,-0.130
7.234,-0.305,-0.125
7.236,-0.300,-0.115
7.238,-0.410,-0.100
7.240,-0.365,-0.090
7.242,-0.350,-0.080
7.244,-0.295,-0.075
7.246,-0.085,-0.075
7.248,0.030,-0.080
7.250,-0.170,-0.090
7.252,-0.170,-0.095
7.254,-0.230,-0.095
7.256,-0.355,-0.090
7.258,-0.535,-0.080
7.260,-0.370,-0.050
7.262,-0.205,-0.015
7.264,-0.035,0.040
7.266,0.100,0.110
7.268,0.260,0.190
7.270,0.230,0.280
7.272,0.275,0.380
7.274,0.275,0.475
7.276,0.225,0.560
7.278,0.420,0.625
7.280,0.455,0.655
7.282,0.540,0.650
7.284,0.535,0.605
7.286,0.490,0.520
7.288,0.545,0.410
7.290,0.190,0.285
7.292,-0.130,0.160
7.294,-0.220,0.045
7.296,-0.440,-0.050
7.298,-0.430,-0.115
7.300,-0.340,-0.150
7.302,-0.190,-0.155
7.304,-0.230,-0.145
7.306,-0.175,-0.125
7.308,-0.155,-0.100
7.310,-0.280,-0.080
7.312,-0.235,-0.065
7.314,-0.160,-0.055
7.316,-0.245,-0.055
7.318,-0.365,-0.060
7.320,-0.345,-0.060
7.322,-0.260,-0.065
7.324,-0.150,-0.070
7.326,-0.115,-0.070
7.328,-0.045,-0.070
7.330,-0.130,-0.065
7.332,-0.165,-0.065
7.334,-0.250,-0.060
7.336,-0.440,-0.055
7.338,-0.355,-0.050
7.340,-0.220,-0.050
7.342,-0.205,-0.050
7.344,-0.190,-0.055
7.346,-0.030,-0.060
7.348,-0.140,-0.075
7.350,-0.185,-0.085
7.352,-0.165,-0.100
7.354,-0.325,-0.110
7.356,-0.445,-0.115
7.358,-0.475,-0.115
7.360,-0.350,-0.105
7.362,-0.255,-0.090
7.364,-0.055,-0.070
7.366,-0.005,-0.055
7.368,-0.130,-0.040
7.370,-0.125,-0.030
7.372,-0.095,-0.025
7.374,-0.180,-0.030
7.376,-0.365,-0.040
7.378,-0.360,-0.055
7.380,-0.280,-0.065
7.382,-0.170,-0.075
7.384,-0.195,-0.080
7.386,-0.085,-0.075
7.388,-0.070,-0.065
7.390,-0.125,-0.055
7.392,-0.185,-0.045
7.394,-0.180,-0.035
7.396,-0.360,-0.035
7.398,-0.310,-0.035
7.400,-0.280,-0.040
7.402,-0.225,-0.045
7.404,-0.090,-0.045
7.406,-0.055,-0.040
7.408,-0.110,-0.035
7.410,-0.120,-0.025
7.412,-0.195,-0.010
7.414,-0.145,0.000
7.416,-0.230,0.005
7.418,-0.250,0.010
7.420,-0.265,0.005
7.422,-0.170,0.000
7.424,-0.065,-0.010
7.426,-0.105,-0.015
7.428,0.045,-0.015
7.430,-0.125,-0.015
7.432,-0.125,-0.005
7.434,-0.160,0.005
7.436,-0.235,0.015
7.438,-0.260,0.020
7.440,-0.185,0.025
7.442,-0.180,0.025
7.444,-0.040,0.025
7.446,0.065,0.020
7.448,0.005,0.020
7.450,-0.020,0.020
7.452,-0.205,0.020
7.454,-0.210,0.025
7.456,-0.155,0.030
7.458,-0.295,0.030
7.460,-0.060,0.030
7.462,-0.135,0.030
7.464,-0.165,0.025
7.466,-0.005,0.015
7.468,-0.060,0.015
7.470,0.025,0.015
7.472,-0.120,0.020
7.474,-0.215,0.030
7.476,-0.300,0.045
7.478,-0.175,0.060
7.480,-0.060,0.075
7.482,-0.115,0.085
7.484,0.025,0.095
7.486,0.070,0.100
7.488,0.125,0.105
7.490,0.035,0.105
7.492,-0.010,0.115
7.494,-0.070,0.120
7.496,-0.200,0.135
7.498,-0.125,0.145
7.500,-0.085,0.150
7.502,0.070,0.155
7.504,0.110,0.155
7.506,0.110,0.150
7.508,0.125,0.140
7.510,0.035,0.125
7.512,-0.095,0.115
7.514,-0.195,0.110
7.516,-0.075,0.105
7.518,-0.145,0.110
7.520,-0.090,0.115
7.522,0.040,0.125
7.524,0.035,0.130
7.526,0.075,0.135
7.528,0.035,0.135
7.530,0.155,0.130
7.532,0.030,0.120
7.534,-0.215,0.105
7.536,-0.220,0.095
7.538,-0.150,0.080
7.540,-0.140,0.070
7.542,-0.100,0.065
7.544,0.040,0.060
7.546,0.075,0.055
7.548,0.060,0.055
7.550,0.005,0.055
7.552,-0.195,0.050
7.554,-0.110,0.050
7.556,-0.285,0.045
7.558,-0.305,0.040
7.560,-0.170,0.040
7.562,-0.065,0.035
7.564,0.100,0.035
7.566,0.165,0.030
7.568,-0.035,0.035
7.570,-0.130,0.035
7.572,-0.175,0.030
7.574,-0.220,0.025
7.576,-0.225,0.015
7.578,-0.250,0.000
7.580,-0.265,-0.020
7.582,-0.100,-0.040
7.584,-0.130,-0.060
7.586,-0.080,-0.070
7.588,-0.060,-0.075
7.590,-0.135,-0.065
7.592,-0.225,-0.050
7.594,-0.390,-0.025
7.596,-0.235,-0.005
7.598,-0.230,0.020
7.600,-0.205,0.030
7.602,-0.055,0.035
7.604,0.025,0.025
7.606,0.055,0.010
7.608,-0.120,-0.010
7.610,-0.180,-0.035
7.612,-0.220,-0.055
7.614,-0.330,-0.065
7.616,-0.320,-0.065
7.618,-0.315,-0.060
7.620,-0.225,-0.050
7.622,-0.130,-0.035
7.624,-0.065,-0.020
7.626,-0.060,-0.010
7.628,0.010,0.000
7.630,-0.010,0.010
7.632,-0.190,0.010
7.634,-0.370,0.010
7.636,-0.255,0.005
7.638,-0.145,0.000
7.640,-0.165,-0.005
7.642,-0.190,-0.010
7.644,-0.060,-0.020
7.646,-0.040,-0.025
7.648,-0.015,-0.030
7.650,-0.225,-0.035
7.652,-0.115,-0.035
7.654,-0.370,-0.030
7.656,-0.230,-0.020
7.658,-0.310,-0.015
7.660,-0.125,-0.005
7.662,-0.205,0.000
7.664,0.035,0.000
7.666,-0.025,-0.005
7.668,-0.030,-0.010
7.670,-0.135,-0.015
7.672,-0.110,-0.020
7.674,-0.345,-0.020
7.676,-0.320,-0.020
7.678,-0.225,-0.015
7.680,-0.185,-0.005
7.682,-0.165,0.000
7.684,0.030,0.010
7.686,0.050,0.010
7.688,-0.080,0.010
7.690,-0.190,0.005
7.692,-0.150,-0.005
7.694,-0.300,-0.010
7.696,-0.325,-0.020
7.698,-0.210,-0.020
7.700,-0.110,-0.015
7.702,-0.125,-0.010
7.704,-0.060,0.000
7.706,0.005,0.005
7.708,-0.070,0.010
7.710,-0.055,0.015
7.712,-0.145,0.010
7.714,-0.325,0.005
7.716,-0.160,-0.005
7.718,-0.390,-0.010
7.720,-0.230,-0.015
7.722,-0.060,-0.015
7.724,-0.005,-0.005
7.726,0.035,0.000
7.728,0.000,0.010
7.730,-0.045,0.020
7.732,-0.130,0.030
7.734,-0.235,0.030
7.736,-0.255,0.025
7.738,-0.285,0.020
7.740,-0.250,0.010
7.742,-0.190,0.000
7.744,0.060,-0.010
7.746,0.065,-0.015
7.748,-0.110,-0.015
7.750,-0.175,-0.015
7.752,-0.170,-0.010
7.754,-0.315,0.000
7.756,-0.275,0.000
7.758,-0.165,0.005
7.760,-0.190,0.000
7.762,-0.045,0.000
7.764,-0.090,-0.005
7.766,0.015,-0.010
7.768,-0.080,-0.015
7.770,-0.170,-0.015
7.772,-0.230,-0.015
7.774,-0.265,-0.015
7.776,-0.240,-0.015
7.778,-0.220,-0.015
7.780,-0.235,-0.020
7.782,-0.125,-0.020
7.784,0.005,-0.020
7.786,-0.050,-0.020
7.788,-0.070,-0.015
7.790,-0.100,-0.005
7.792,-0.215,0.005
7.794,-0.230,0.020
7.796,-0.210,0.030
7.798,-0.315,0.035
7.800,-0.030,0.035
7.802,-0.045,0.030
7.804,0.085,0.015
7.806,-0.085,0.005
7.808,-0.110,-0.005
7.810,-0.090,-0.005
7.812,-0.250,0.005
7.814,-0.265,0.020
7.816,-0.235,0.045
7.818,-0.085,0.070
7.820,0.025,0.090
7.822,0.075,0.105
7.824,0.070,0.110
7.826,0.000,0.105
7.828,-0.025,0.095
7.830,-0.100,0.075
7.832,-0.195,0.050
7.834,-0.210,0.030
7.836,-0.280,0.010
7.838,-0.140,0.000
7.840,-0.035,-0.010
7.842,-0.155,-0.015
7.844,-0.020,-0.020
7.846,-0.080,-0.025
7.848,-0.210,-0.025
7.850,-0.175,-0.030
7.852,-0.295,-0.035
7.854,-0.305,-0.035
7.856,-0.305,-0.035
7.858,-0.170,-0.030
7.860,-0.145,-0.025
7.862,-0.040,-0.020
7.864,-0.010,-0.010
7.866,-0.015,-0.005
7.868,-0.200,0.005
7.870,-0.090,0.015
7.872,-0.225,0.020
7.874,-0.295,0.025
7.876,-0.215,0.025
7.878,-0.160,0.025
7.880,-0.170,0.010
7.882,-0.020,-0.005
7.884,-0.045,-0.030
7.886,-0.065,-0.055
7.888,-0.230,-0.080
7.890,-0.295,-0.100
7.892,-0.390,-0.105
7.894,-0.365,-0.105
7.896,-0.370,-0.090
7.898,-0.215,-0.065
7.900,-0.130,-0.030
7.902,-0.105,0.005
7.904,0.065,0.035
7.906,0.030,0.070
7.908,-0.075,0.100
7.910,-0.040,0.130
7.912,-0.030,0.170
7.914,-0.050,0.220
7.916,-0.075,0.285
7.918,0.195,0.360
7.920,0.270,0.440
7.922,0.505,0.520
7.924,0.630,0.580
7.926,0.625,0.615
7.928,0.650,0.615
7.930,0.435,0.570
7.932,0.275,0.490
7.934,0.110,0.385
7.936,-0.155,0.260
7.938,-0.165,0.135
7.940,-0.200,0.025
7.942,-0.035,-0.055
7.944,-0.135,-0.110
7.946,-0.185,-0.125
7.948,-0.185,-0.120
7.950,-0.290,-0.100
7.952,-0.315,-0.075
7.954,-0.305,-0.055
7.956,-0.375,-0.045
7.958,-0.260,-0.050
7.960,-0.140,-0.060
7.962,-0.035,-0.075
7.964,-0.110,-0.085
7.966,-0.160,-0.095
7.968,-0.285,-0.090
7.970,-0.250,-0.080
7.972,-0.360,-0.065
7.974,-0.330,-0.045
7.976,-0.330,-0.035
7.978,-0.150,-0.025
7.980,-0.150,-0.025
7.982,-0.030,-0.025
7.984,0.075,-0.030
7.986,-0.140,-0.035
7.988,-0.220,-0.035
7.990,-0.260,-0.035
7.992,-0.375,-0.030
7.994,-0.275,-0.020
7.996,-0.265,-0.020
7.998,-0.140,-0.020
8.000,-0.180,-0.025
8.002,-0.010,-0.035
8.004,0.035,-0.040
8.006,-0.110,-0.045
8.008,-0.320,-0.045
8.010,-0.280,-0.040
8.012,-0.250,-0.025
8.014,-0.235,-0.010
8.016,-0.265,0.000
8.018,-0.205,0.005
8.020,-0.040,0.010
8.022,-0.060,0.005
8.024,-0.065,-0.005
8.026,-0.070,-0.015
8.028,-0.135,-0.025
8.030,-0.210,-0.030
8.032,-0.205,-0.030
8.034,-0.340,-0.025
8.036,-0.355,-0.020
8.038,-0.190,-0.015
8.040,-0.190,-0.015
8.042,-0.055,-0.020
8.044,0.075,-0.025
8.046,-0.075,-0.030
8.048,-0.210,-0.030
8.050,-0.260,-0.030
8.052,-0.285,-0.025
8.054,-0.305,-0.020
8.056,-0.240,-0.010
8.058,-0.205,0.000
8.060,-0.010,0.005
8.062,0.025,0.005
8.064,-0.110,-0.005
8.066,-0.215,-0.010
8.068,-0.145,-0.020
8.070,-0.240,-0.020
8.072,-0.365,-0.020
8.074,-0.240,-0.010
8.076,-0.140,0.010
8.078,-0.145,0.025
8.080,-0.035,0.045
8.082,-0.005,0.055
8.084,0.005,0.055
8.086,-0.040,0.050
8.088,-0.120,0.035
8.090,-0.250,0.015
8.092,-0.315,0.000
8.094,-0.340,-0.015
8.096,-0.365,-0.025
8.098,-0.095,-0.020
8.100,-0.110,-0.005
8.102,0.000,0.015
8.104,0.095,0.040
8.106,-0.060,0.065
8.108,-0.040,0.080
8.110,-0.170,0.095
8.112,-0.285,0.095
8.114,-0.140,0.095
8.116,-0.090,0.085
8.118,-0.155,0.075
8.120,-0.040,0.065
8.122,0.040,0.060
8.124,0.030,0.060
8.126,0.125,0.070
8.128,-0.095,0.080
8.130,-0.210,0.095
8.132,-0.195,0.110
8.134,-0.165,0.120
8.136,-0.155,0.125
8.138,-0.015,0.125
8.140,0.085,0.115
8.142,0.070,0.105
8.144,0.035,0.095
8.146,0.000,0.085
8.148,-0.105,0.080
8.150,-0.305,0.080
8.152,-0.170,0.085
8.154,-0.160,0.090
8.156,-0.140,0.100
8.158,-0.030,0.105
8.160,0.090,0.110
8.162,0.075,0.110
8.164,0.090,0.110
8.166,0.060,0.105
8.168,-0.095,0.100
8.170,-0.240,0.095
8.172,-0.295,0.085
8.174,-0.200,0.080
8.176,-0.125,0.080
8.178,0.065,0.080
8.180,0.030,0.080
8.182,0.080,0.085
8.184,0.025,0.095
8.186,-0.055,0.105
8.188,-0.070,0.120
8.190,-0.215,0.130
8.192,-0.095,0.130
8.194,-0.130,0.130
8.196,-0.190,0.115
8.198,-0.030,0.095
8.200,0.090,0.065
8.202,-0.010,0.030
8.204,-0.040,-0.005
8.206,-0.200,-0.040
8.208,-0.265,-0.060
8.210,-0.450,-0.075
8.212,-0.450,-0.075
8.214,-0.295,-0.065
8.216,-0.265,-0.050
8.218,-0.180,-0.025
8.220,0.055,-0.005
8.222,-0.025,0.010
8.224,-0.060,0.015
8.226,-0.250,0.015
8.228,-0.190,0.005
8.230,-0.310,-0.010
8.232,-0.280,-0.025
8.234,-0.340,-0.040
8.236,-0.230,-0.055
8.238,-0.185,-0.060
8.240,-0.105,-0.060
8.242,-0.055,-0.050
8.244,-0.240,-0.040
8.246,-0.090,-0.030
8.248,-0.200,-0.020
8.250,-0.315,-0.015
8.252,-0.355,-0.020
8.254,-0.410,-0.025
8.256,-0.320,-0.035
8.258,-0.210,-0.050
8.260,-0.070,-0.060
8.262,-0.075,-0.065
8.264,-0.025,-0.065
8.266,-0.185,-0.060
8.268,-0.300,-0.055
8.270,-0.400,-0.045
8.272,-0.370,-0.035
8.274,-0.385,-0.025
8.276,-0.145,-0.025
8.278,-0.170,-0.025
8.280,-0.115,-0.030
8.282,-0.110,-0.040
8.284,-0.105,-0.050
8.286,-0.130,-0.055
8.288,-0.235,-0.060
8.290,-0.460,-0.065
8.292,-0.390,-0.060
8.294,-0.325,-0.055
8.296,-0.265,-0.050
8.298,-0.155,-0.045
8.300,-0.125,-0.040
8.302,-0.065,-0.040
8.304,-0.090,-0.045
8.306,-0.240,-0.055
8.308,-0.265,-0.070
8.310,-0.420,-0.085
8.312,-0.475,-0.100
8.314,-0.380,-0.110
8.316,-0.250,-0.110
8.318,-0.290,-0.100
8.320,-0.150,-0.080
8.322,-0.130,-0.055
8.324,-0.080,-0.025
8.326,-0.145,0.000
8.328,-0.085,0.020
8.330,-0.205,0.030
8.332,-0.380,0.025
8.334,-0.330,0.010
8.336,-0.280,-0.015
8.338,-0.155,-0.035
8.340,-0.140,-0.055
8.342,-0.075,-0.065
8.344,-0.070,-0.065
8.346,-0.175,-0.055
8.348,-0.365,-0.040
8.350,-0.295,-0.025
8.352,-0.330,-0.015
8.354,-0.380,-0.015
8.356,-0.175,-0.025
8.358,-0.140,-0.040
8.360,-0.205,-0.065
8.362,-0.140,-0.080
8.364,-0.125,-0.090
8.366,-0.190,-0.090
8.368,-0.270,-0.080
8.370,-0.345,-0.060
8.372,-0.475,-0.035
8.374,-0.290,-0.015
8.376,-0.105,0.000
8.378,-0.145,0.005
8.380,-0.125,0.000
8.382,-0.155,-0.010
8.384,-0.080,-0.025
8.386,-0.160,-0.040
8.388,-0.330,-0.050
8.390,-0.355,-0.060
8.392,-0.320,-0.060
8.394,-0.390,-0.060
8.396,-0.260,-0.065
8.398,-0.215,-0.065
8.400,-0.105,-0.070
8.402,-0.165,-0.075
8.404,-0.215,-0.075
8.406,-0.290,-0.075
8.408,-0.320,-0.065
8.410,-0.410,-0.055
8.412,-0.315,-0.045
8.414,-0.225,-0.035
8.416,-0.230,-0.025
8.418,-0.155,-0.025
8.420,-0.085,-0.035
8.422,-0.100,-0.050
8.424,-0.220,-0.065
8.426,-0.260,-0.085
8.428,-0.435,-0.095
8.430,-0.430,-0.100
8.432,-0.345,-0.100
8.434,-0.425,-0.090
8.436,-0.190,-0.080
8.438,-0.185,-0.065
8.440,-0.155,-0.055
8.442,-0.220,-0.045
8.444,-0.125,-0.040
8.446,-0.185,-0.040
8.448,-0.365,-0.040
8.450,-0.265,-0.040
8.452,-0.385,-0.040
8.454,-0.345,-0.035
8.456,-0.260,-0.035
8.458,-0.025,-0.030
8.460,-0.070,-0.035
8.462,-0.115,-0.040
8.464,-0.250,-0.045
8.466,-0.335,-0.055
8.468,-0.370,-0.065
8.470,-0.435,-0.070
8.472,-0.390,-0.075
8.474,-0.265,-0.070
8.476,-0.170,-0.065
8.478,-0.115,-0.050
8.480,-0.115,-0.035
8.482,-0.150,-0.020
8.484,-0.140,0.000
8.486,-0.275,0.015
8.488,-0.230,0.035
8.490,-0.220,0.045
8.492,-0.360,0.055
8.494,-0.175,0.060
8.496,0.015,0.060
8.498,0.005,0.055
8.500,-0.125,0.040
8.502,-0.015,0.020
8.504,-0.185,0.000
8.506,-0.245,-0.020
8.508,-0.390,-0.035
8.510,-0.465,-0.045
8.512,-0.430,-0.050
8.514,-0.250,-0.045
8.516,-0.240,-0.040
8.518,-0.020,-0.035
8.520,-0.045,-0.030
8.522,-0.155,-0.030
8.524,-0.210,-0.035
8.526,-0.270,-0.045
8.528,-0.370,-0.060
8.530,-0.485,-0.075
8.532,-0.550,-0.085
8.534,-0.315,-0.090
8.536,-0.285,-0.090
8.538,-0.035,-0.090
8.540,-0.075,-0.080
8.542,-0.245,-0.070
8.544,-0.255,-0.065
8.546,-0.260,-0.060
8.548,-0.415,-0.055
8.550,-0.450,-0.055
8.552,-0.455,-0.060
8.554,-0.305,-0.060
8.556,-0.245,-0.065
8.558,-0.045,-0.060
8.560,-0.105,-0.060
8.562,-0.165,-0.055
8.564,-0.310,-0.050
8.566,-0.220,-0.040
8.568,-0.455,-0.035
8.570,-0.390,-0.025
8.572,-0.400,-0.020
8.574,-0.225,-0.005
8.576,-0.140,0.020
8.578,0.015,0.050
8.580,0.080,0.100
8.582,0.055,0.160
8.584,0.075,0.240
8.586,0.140,0.325
8.588,-0.040,0.420
8.590,0.085,0.505
8.592,0.265,0.575
8.594,0.560,0.620
8.596,0.490,0.630
8.598,0.580,0.605
8.600,0.505,0.545
8.602,0.295,0.455
8.604,0.265,0.345
8.606,-0.090,0.225
8.608,-0.355,0.115
8.610,-0.440,0.015
8.612,-0.380,-0.055
8.614,-0.315,-0.105
8.616,-0.345,-0.130
8.618,-0.200,-0.135
8.620,-0.170,-0.125
8.622,-0.150,-0.110
8.624,-0.330,-0.100
8.626,-0.325,-0.090
8.628,-0.505,-0.085
8.630,-0.440,-0.080
8.632,-0.330,-0.080
8.634,-0.365,-0.080
8.636,-0.270,-0.080
8.638,-0.120,-0.075
8.640,-0.145,-0.070
8.642,-0.240,-0.070
8.644,-0.170,-0.065
8.646,-0.350,-0.065
8.648,-0.475,-0.065
8.650,-0.460,-0.060
8.652,-0.365,-0.055
8.654,-0.265,-0.045
8.656,-0.255,-0.035
8.658,-0.030,-0.020
8.660,-0.020,-0.015
8.662,-0.125,-0.010
8.664,-0.270,-0.015
8.666,-0.400,-0.030
8.668,-0.525,-0.050
8.670,-0.375,-0.075
8.672,-0.450,-0.100
8.674,-0.320,-0.115
8.676,-0.265,-0.120
8.678,-0.165,-0.115
8.680,-0.160,-0.095
8.682,-0.145,-0.070
8.684,-0.195,-0.045
8.686,-0.395,-0.025
8.688,-0.350,-0.015
8.690,-0.460,-0.020
8.692,-0.410,-0.035
8.694,-0.380,-0.055
8.696,-0.130,-0.075
8.698,-0.025,-0.090
8.700,-0.235,-0.095
8.702,-0.310,-0.090
8.704,-0.305,-0.075
8.706,-0.295,-0.060
8.708,-0.320,-0.045
8.710,-0.460,-0.030
8.712,-0.390,-0.030
8.714,-0.275,-0.030
8.716,-0.210,-0.040
8.718,-0.040,-0.045
8.720,-0.145,-0.050
8.722,-0.200,-0.050
8.724,-0.275,-0.045
8.726,-0.290,-0.035
8.728,-0.420,-0.025
8.730,-0.360,-0.020
8.732,-0.380,-0.020
8.734,-0.345,-0.030
8.736,-0.150,-0.040
8.738,-0.160,-0.055
8.740,-0.165,-0.070
8.742,-0.275,-0.075
8.744,-0.265,-0.070
8.746,-0.350,-0.060
8.748,-0.415,-0.040
8.750,-0.355,-0.025
8.752,-0.240,-0.010
8.754,-0.300,-0.005
8.756,-0.155,-0.005
8.758,-0.030,-0.010
8.760,-0.140,-0.025
8.762,-0.225,-0.035
8.764,-0.295,-0.045
8.766,-0.485,-0.045
8.768,-0.435,-0.045
8.770,-0.305,-0.035
8.772,-0.330,-0.025
8.774,-0.195,-0.015
8.776,-0.125,-0.005
8.778,-0.065,-0.005
8.780,-0.170,-0.005
8.782,-0.195,-0.005
8.784,-0.235,-0.010
8.786,-0.485,-0.005
8.788,-0.350,0.000
8.790,-0.270,0.010
8.792,-0.205,0.025
8.794,-0.115,0.040
8.796,-0.085,0.060
8.798,-0.005,0.075
8.800,-0.135,0.085
8.802,-0.090,0.095
8.804,-0.210,0.095
8.806,-0.305,0.095
8.808,-0.220,0.095
8.810,-0.285,0.085
8.812,-0.225,0.080
8.814,-0.170,0.070
8.816,0.020,0.060
8.818,-0.065,0.050
8.820,-0.135,0.050
8.822,-0.165,0.050
8.824,-0.280,0.055
8.826,-0.385,0.065
8.828,-0.255,0.080
8.830,-0.195,0.090
8.832,-0.135,0.095
8.834,-0.080,0.100
8.836,0.005,0.100
8.838,-0.100,0.095
8.840,-0.105,0.085
8.842,-0.165,0.075
8.844,-0.260,0.065
8.846,-0.255,0.060
8.848,-0.280,0.055
8.850,-0.340,0.050
8.852,-0.140,0.050
8.854,-0.260,0.050
8.856,-0.085,0.045
8.858,-0.100,0.035
8.860,-0.140,0.025
8.862,-0.215,0.015
8.864,-0.245,0.000
8.866,-0.435,-0.010
8.868,-0.380,-0.020
8.870,-0.310,-0.020
8.872,-0.300,-0.020
8.874,-0.310,-0.020
8.876,-0.120,-0.010
8.878,-0.090,0.000
8.880,-0.220,0.005
8.882,-0.190,0.010
8.884,-0.215,0.015
8.886,-0.275,0.010
8.888,-0.390,0.000
8.890,-0.550,-0.015
8.892,-0.250,-0.030
8.894,-0.285,-0.045
8.896,-0.225,-0.060
8.898,-0.285,-0.070
8.900,-0.195,-0.075
8.902,-0.235,-0.075
8.904,-0.285,-0.070
8.906,-0.440,-0.055
8.908,-0.430,-0.040
8.910,-0.355,-0.030
8.912,-0.285,-0.020
8.914,-0.335,-0.015
8.916,-0.115,-0.020
8.918,-0.170,-0.030
8.920,-0.215,-0.045
8.922,-0.260,-0.065
8.924,-0.430,-0.080
8.926,-0.430,-0.100
8.928,-0.445,-0.110
8.930,-0.575,-0.110
8.932,-0.420,-0.110
8.934,-0.265,-0.100
8.936,-0.240,-0.090
8.938,-0.265,-0.075
8.940,-0.205,-0.060
8.942,-0.270,-0.045
8.944,-0.350,-0.035
8.946,-0.435,-0.025
8.948,-0.430,-0.020
8.950,-0.355,-0.020
8.952,-0.295,-0.020
8.954,-0.250,-0.025
8.956,-0.145,-0.035
8.958,-0.190,-0.045
8.960,-0.275,-0.060
8.962,-0.350,-0.070
8.964,-0.420,-0.080
8.966,-0.420,-0.085
8.968,-0.480,-0.085
8.970,-0.545,-0.080
8.972,-0.265,-0.075
8.974,-0.265,-0.065
8.976,-0.270,-0.055
8.978,-0.185,-0.045
8.980,-0.175,-0.045
8.982,-0.240,-0.045
8.984,-0.440,-0.050
8.986,-0.470,-0.055
8.988,-0.490,-0.060
8.990,-0.445,-0.065
8.992,-0.275,-0.065
8.994,-0.195,-0.060
8.996,-0.200,-0.055
8.998,-0.170,-0.045
9.000,-0.230,-0.035
9.002,-0.365,-0.025
9.004,-0.405,-0.015
9.006,-0.370,-0.010
9.008,-0.400,-0.005
9.010,-0.370,-0.005
9.012,-0.320,-0.005
9.014,-0.160,-0.005
9.016,-0.130,-0.005
9.018,-0.120,-0.005
9.020,-0.225,-0.005
9.022,-0.255,-0.010
9.024,-0.430,-0.020
9.026,-0.510,-0.030
9.028,-0.375,-0.040
9.030,-0.435,-0.055
9.032,-0.380,-0.065
9.034,-0.235,-0.075
9.036,-0.140,-0.080
9.038,-0.270,-0.085
9.040,-0.280,-0.080
9.042,-0.290,-0.075
9.044,-0.485,-0.065
9.046,-0.560,-0.055
9.048,-0.425,-0.050
9.050,-0.390,-0.050
9.052,-0.355,-0.050
9.054,-0.200,-0.055
9.056,-0.240,-0.065
9.058,-0.255,-0.065
9.060,-0.235,-0.065
9.062,-0.350,-0.060
9.064,-0.420,-0.050
9.066,-0.435,-0.035
9.068,-0.465,-0.025
9.070,-0.320,-0.020
9.072,-0.320,-0.015
9.074,-0.155,-0.020
9.076,-0.200,-0.030
9.078,-0.245,-0.035
9.080,-0.235,-0.045
9.082,-0.365,-0.045
9.084,-0.395,-0.040
9.086,-0.495,-0.035
9.088,-0.495,-0.030
9.090,-0.280,-0.030
9.092,-0.245,-0.030
9.094,-0.160,-0.040
9.096,-0.255,-0.055
9.098,-0.325,-0.075
9.100,-0.360,-0.085
9.102,-0.345,-0.090
9.104,-0.505,-0.085
9.106,-0.515,-0.075
9.108,-0.400,-0.055
9.110,-0.260,-0.040
9.112,-0.290,-0.030
9.114,-0.275,-0.025
9.116,-0.290,-0.035
9.118,-0.165,-0.055
9.120,-0.365,-0.070
9.122,-0.370,-0.085
9.124,-0.485,-0.095
9.126,-0.610,-0.085
9.128,-0.425,-0.070
9.130,-0.395,-0.045
9.132,-0.280,-0.020
9.134,-0.085,0.005
9.136,-0.140,0.015
9.138,-0.170,0.015
9.140,-0.265,0.005
9.142,-0.400,-0.015
9.144,-0.550,-0.030
9.146,-0.530,-0.035
9.148,-0.370,-0.035
9.150,-0.240,-0.020
9.152,-0.145,0.000
9.154,-0.125,0.025
9.156,-0.135,0.045
9.158,-0.165,0.055
9.160,-0.285,0.055
9.162,-0.235,0.045
9.164,-0.455,0.030
9.166,-0.340,0.010
9.168,-0.470,-0.010
9.170,-0.310,-0.020
9.172,-0.305,-0.025
9.174,-0.170,-0.030
9.176,-0.190,-0.030
9.178,-0.260,-0.035
9.180,-0.310,-0.040
9.182,-0.350,-0.055
9.184,-0.515,-0.065
9.186,-0.500,-0.080
9.188,-0.520,-0.095
9.190,-0.485,-0.105
9.192,-0.405,-0.105
9.194,-0.175,-0.100
9.196,-0.215,-0.090
9.198,-0.270,-0.080
9.200,-0.485,-0.070
9.202,-0.440,-0.060
9.204,-0.455,-0.055
9.206,-0.390,-0.045
9.208,-0.395,-0.040
9.210,-0.365,-0.035
9.212,-0.405,-0.030
9.214,-0.185,-0.030
9.216,-0.125,-0.030
9.218,-0.285,-0.035
9.220,-0.385,-0.045
9.222,-0.370,-0.060
9.224,-0.535,-0.070
9.226,-0.470,-0.080
9.228,-0.485,-0.080
9.230,-0.375,-0.075
9.232,-0.385,-0.060
9.234,-0.165,-0.035
9.236,-0.200,-0.010
9.238,-0.235,0.015
9.240,-0.240,0.045
9.242,-0.255,0.075
9.244,-0.390,0.110
9.246,-0.225,0.155
9.248,-0.110,0.215
9.250,0.025,0.290
9.252,0.095,0.375
9.254,0.230,0.465
9.256,0.345,0.550
9.258,0.465,0.620
9.260,0.480,0.660
9.262,0.490,0.660
9.264,0.070,0.615
9.266,0.065,0.530
9.268,0.070,0.415
9.270,0.020,0.280
9.272,-0.210,0.150
9.274,-0.335,0.035
9.276,-0.220,-0.055
9.278,-0.390,-0.105
9.280,-0.450,-0.125
9.282,-0.465,-0.110
9.284,-0.470,-0.080
9.286,-0.390,-0.045
9.288,-0.350,-0.015
9.290,-0.355,-0.005
9.292,-0.275,-0.005
9.294,-0.235,-0.025
9.296,-0.185,-0.060
9.298,-0.330,-0.095
9.300,-0.545,-0.125
9.302,-0.500,-0.140
9.304,-0.580,-0.145
9.306,-0.515,-0.135
9.308,-0.615,-0.110
9.310,-0.385,-0.085
9.312,-0.230,-0.055
9.314,-0.150,-0.030
9.316,-0.230,-0.010
9.318,-0.215,0.000
9.320,-0.315,0.000
9.322,-0.470,0.000
9.324,-0.490,-0.010
9.326,-0.435,-0.020
9.328,-0.385,-0.030
9.330,-0.325,-0.040
9.332,-0.275,-0.050
9.334,-0.300,-0.065
9.336,-0.345,-0.075
9.338,-0.440,-0.080
9.340,-0.345,-0.090
9.342,-0.510,-0.090
9.344,-0.550,-0.090
9.346,-0.450,-0.080
9.348,-0.515,-0.070
9.350,-0.430,-0.060
9.352,-0.075,-0.045
9.354,-0.235,-0.035
9.356,-0.290,-0.025
9.358,-0.405,-0.020
9.360,-0.330,-0.015
9.362,-0.470,-0.015
9.364,-0.450,-0.015
9.366,-0.380,-0.020
9.368,-0.345,-0.025
9.370,-0.335,-0.025
9.372,-0.265,-0.035
9.374,-0.260,-0.040
9.376,-0.280,-0.045
9.378,-0.325,-0.050
9.380,-0.350,-0.055
9.382,-0.570,-0.060
9.384,-0.460,-0.055
9.386,-0.395,-0.050
9.388,-0.430,-0.040
9.390,-0.315,-0.030
9.392,-0.220,-0.020
9.394,-0.235,-0.010
9.396,-0.250,-0.005
9.398,-0.340,-0.005
9.400,-0.300,-0.005
9.402,-0.460,-0.005
9.404,-0.430,-0.010
9.406,-0.435,-0.010
9.408,-0.405,-0.005
9.410,-0.315,0.000
9.412,-0.155,0.005
9.414,-0.150,0.010
9.416,-0.270,0.015
9.418,-0.320,0.020
9.420,-0.315,0.015
9.422,-0.400,0.010
9.424,-0.450,0.005
9.426,-0.430,0.000
9.428,-0.400,-0.005
9.430,-0.265,-0.010
9.432,-0.155,-0.010
9.434,-0.210,-0.010
9.436,-0.330,-0.010
9.438,-0.385,-0.005
9.440,-0.370,-0.005
9.442,-0.440,0.005
9.444,-0.340,0.010
9.446,-0.295,0.020
9.448,-0.240,0.030
9.450,-0.435,0.040
9.452,-0.100,0.045
9.454,-0.175,0.050
9.456,-0.385,0.050
9.458,-0.190,0.045
9.460,-0.240,0.035
9.462,-0.415,0.025
9.464,-0.465,0.015
9.466,-0.390,0.010
9.468,-0.315,0.010
9.470,-0.230,0.020
9.472,-0.145,0.040
9.474,-0.235,0.065
9.476,-0.180,0.095
9.478,-0.160,0.125
9.480,-0.190,0.150
9.482,-0.245,0.165
9.484,-0.265,0.175
9.486,-0.270,0.170
9.488,-0.135,0.160
9.490,-0.225,0.145
9.492,-0.100,0.125
9.494,-0.160,0.110
9.496,-0.130,0.090
9.498,-0.200,0.080
9.500,-0.240,0.070
9.502,-0.420,0.070
9.504,-0.390,0.070
9.506,-0.365,0.070
9.508,-0.285,0.075
9.510,-0.180,0.085
9.512,-0.175,0.090
9.514,-0.060,0.095
9.516,-0.215,0.095
9.518,-0.175,0.090
9.520,-0.280,0.085
9.522,-0.375,0.070
9.524,-0.370,0.055
9.526,-0.520,0.035
9.528,-0.280,0.020
9.530,-0.350,0.005
9.532,-0.180,-0.005
9.534,-0.160,-0.005
9.536,-0.305,-0.005
9.538,-0.405,0.005
9.540,-0.290,0.010
9.542,-0.470,0.015
9.544,-0.445,0.015
9.546,-0.455,0.010
9.548,-0.375,0.005
9.550,-0.315,-0.005
9.552,-0.190,-0.015
9.554,-0.095,-0.025
9.556,-0.320,-0.025
9.558,-0.480,-0.025
9.560,-0.430,-0.015
9.562,-0.380,-0.005
9.564,-0.520,0.000
9.566,-0.395,0.005
9.568,-0.250,0.005
9.570,-0.300,-0.005
9.572,-0.190,-0.025
9.574,-0.270,-0.040
9.576,-0.390,-0.060
9.578,-0.485,-0.075
9.580,-0.465,-0.085
9.582,-0.565,-0.080
9.584,-0.575,-0.075
9.586,-0.485,-0.065
9.588,-0.370,-0.050
9.590,-0.290,-0.040
9.592,-0.130,-0.035
9.594,-0.240,-0.035
9.596,-0.350,-0.045
9.598,-0.435,-0.060
9.600,-0.480,-0.075
9.602,-0.650,-0.090
9.604,-0.665,-0.100
9.606,-0.390,-0.105
9.608,-0.420,-0.100
9.610,-0.330,-0.090
9.612,-0.335,-0.070
9.614,-0.165,-0.050
9.616,-0.365,-0.030
9.618,-0.375,-0.010
9.620,-0.430,0.005
9.622,-0.475,0.015
9.624,-0.390,0.020
9.626,-0.370,0.015
9.628,-0.345,0.005
9.630,-0.245,-0.005
9.632,-0.240,-0.020
9.634,-0.350,-0.030
9.636,-0.295,-0.040
9.638,-0.365,-0.045
9.640,-0.465,-0.045
9.642,-0.455,-0.045
9.644,-0.540,-0.035
9.646,-0.415,-0.030
9.648,-0.405,-0.020
9.650,-0.260,-0.010
9.652,-0.245,0.000
9.654,-0.155,0.005
9.656,-0.310,0.005
9.658,-0.295,0.005
9.660,-0.465,0.000
9.662,-0.515,-0.005
9.664,-0.445,-0.015
9.666,-0.395,-0.020
9.668,-0.395,-0.030
9.670,-0.215,-0.035
9.672,-0.295,-0.040
9.674,-0.325,-0.045
9.676,-0.355,-0.050
9.678,-0.440,-0.055
9.680,-0.430,-0.060
9.682,-0.505,-0.065
9.684,-0.570,-0.065
9.686,-0.550,-0.070
9.688,-0.385,-0.065
9.690,-0.290,-0.060
9.692,-0.205,-0.055
9.694,-0.290,-0.045
9.696,-0.335,-0.040
9.698,-0.310,-0.030
9.700,-0.470,-0.025
9.702,-0.490,-0.025
9.704,-0.490,-0.030
9.706,-0.500,-0.035
9.708,-0.450,-0.040
9.710,-0.215,-0.045
9.712,-0.245,-0.045
9.714,-0.220,-0.045
9.716,-0.375,-0.035
9.718,-0.415,-0.025
9.720,-0.540,-0.015
9.722,-0.345,-0.005
9.724,-0.460,0.000
9.726,-0.405,0.000
9.728,-0.365,-0.005
9.730,-0.260,-0.010
9.732,-0.145,-0.020
9.734,-0.270,-0.025
9.736,-0.420,-0.030
9.738,-0.400,-0.035
9.740,-0.485,-0.035
9.742,-0.510,-0.035
9.744,-0.430,-0.035
9.746,-0.305,-0.035
9.748,-0.445,-0.035
9.750,-0.245,-0.040
9.752,-0.280,-0.045
9.754,-0.430,-0.050
9.756,-0.335,-0.050
9.758,-0.375,-0.050
9.760,-0.465,-0.045
9.762,-0.525,-0.035
9.764,-0.460,-0.025
9.766,-0.345,-0.015
9.768,-0.415,-0.005
9.770,-0.195,0.000
9.772,-0.200,0.000
9.774,-0.260,0.000
9.776,-0.305,-0.005
9.778,-0.445,-0.010
9.780,-0.470,-0.015
9.782,-0.400,-0.025
9.784,-0.495,-0.030
9.786,-0.440,-0.040
9.788,-0.375,-0.045
9.790,-0.365,-0.055
9.792,-0.225,-0.060
9.794,-0.385,-0.065
9.796,-0.465,-0.070
9.798,-0.285,-0.070
9.800,-0.590,-0.075
9.802,-0.620,-0.075
9.804,-0.450,-0.070
9.806,-0.430,-0.070
9.808,-0.395,-0.065
9.810,-0.320,-0.060
9.812,-0.285,-0.050
9.814,-0.260,-0.035
9.816,-0.335,-0.020
9.818,-0.340,0.000
9.820,-0.415,0.020
9.822,-0.465,0.035
9.824,-0.395,0.045
9.826,-0.340,0.050
9.828,-0.285,0.050
9.830,-0.190,0.050
9.832,-0.100,0.045
9.834,-0.185,0.040
9.836,-0.270,0.040
9.838,-0.335,0.040
9.840,-0.500,0.050
9.842,-0.450,0.060
9.844,-0.365,0.070
9.846,-0.215,0.075
9.848,-0.185,0.075
9.850,-0.165,0.065
9.852,-0.220,0.050
9.854,-0.185,0.030
9.856,-0.360,0.010
9.858,-0.455,-0.015
9.860,-0.475,-0.030
9.862,-0.545,-0.050
9.864,-0.475,-0.060
9.866,-0.505,-0.065
9.868,-0.285,-0.075
9.870,-0.235,-0.075
9.872,-0.325,-0.075
9.874,-0.430,-0.075
9.876,-0.390,-0.070
9.878,-0.515,-0.060
9.880,-0.545,-0.045
9.882,-0.415,-0.030
9.884,-0.365,-0.020
9.886,-0.460,-0.010
9.888,-0.175,-0.005
9.890,-0.205,-0.010
9.892,-0.270,-0.020
9.894,-0.315,-0.035
9.896,-0.430,-0.055
9.898,-0.590,-0.070
9.900,-0.655,-0.080
9.902,-0.515,-0.080
9.904,-0.405,-0.070
9.906,-0.340,-0.055
9.908,-0.270,-0.035
9.910,-0.265,-0.010
9.912,-0.155,0.010
9.914,-0.275,0.020
9.916,-0.310,0.025
9.918,-0.465,0.020
9.920,-0.500,0.005
9.922,-0.610,-0.005
9.924,-0.465,-0.015
9.926,-0.260,-0.010
9.928,-0.125,0.010
9.930,-0.030,0.055
9.932,-0.160,0.125
9.934,-0.085,0.215
9.936,-0.100,0.320
9.938,-0.030,0.435
9.940,-0.040,0.540
9.942,0.260,0.630
9.944,0.385,0.685
9.946,0.475,0.705
9.948,0.595,0.680
9.950,0.395,0.620
9.952,0.325,0.520
9.954,0.065,0.400
9.956,-0.155,0.275
9.958,-0.415,0.150
9.960,-0.540,0.045
9.962,-0.575,-0.035
9.964,-0.530,-0.090
9.966,-0.445,-0.115
9.968,-0.230,-0.115
9.970,-0.185,-0.100
9.972,-0.240,-0.075
9.974,-0.475,-0.050
9.976,-0.445,-0.025
9.978,-0.540,-0.015
9.980,-0.485,-0.010
9.982,-0.570,-0.020
9.984,-0.340,-0.030
9.986,-0.295,-0.045
9.988,-0.180,-0.060
9.990,-0.275,-0.070
9.992,-0.310,-0.070
9.994,-0.385,-0.070
9.996,-0.480,-0.060
9.998,-0.495,-0.045
