'Elapsed time','ECG I','ECG I filtered'
'seconds','mV','mV'
0.000,-0.125,-0.155
0.002,-0.145,-0.120
0.004,-0.105,-0.085
0.006,-0.150,-0.060
0.008,0.000,-0.030
0.010,0.210,-0.010
0.012,0.090,0.005
0.014,-0.015,0.020
0.016,0.030,0.025
0.018,0.145,0.030
0.020,0.040,0.030
0.022,-0.020,0.030
0.024,-0.050,0.025
0.026,0.010,0.020
0.028,0.110,0.010
0.030,0.210,0.005
0.032,0.070,-0.005
0.034,-0.035,-0.015
0.036,-0.060,-0.025
0.038,-0.060,-0.030
0.040,-0.025,-0.035
0.042,-0.045,-0.035
0.044,-0.010,-0.035
0.046,0.035,-0.030
0.048,0.115,-0.025
0.050,0.075,-0.020
0.052,0.025,-0.015
0.054,-0.065,-0.010
0.056,-0.055,-0.005
0.058,-0.025,0.000
0.060,0.055,0.005
0.062,0.110,0.005
0.064,0.070,0.010
0.066,0.100,0.010
0.068,0.040,0.015
0.070,0.045,0.015
0.072,0.080,0.010
0.074,0.050,0.010
0.076,-0.030,0.005
0.078,-0.050,0.000
0.080,-0.100,0.000
0.082,0.000,0.000
0.084,0.105,0.010
0.086,0.160,0.020
0.088,0.205,0.035
0.090,0.160,0.055
0.092,0.075,0.070
0.094,0.045,0.085
0.096,0.075,0.090
0.098,0.030,0.090
0.100,0.045,0.080
0.102,0.040,0.060
0.104,0.115,0.040
0.106,0.175,0.015
0.108,0.100,0.000
0.110,-0.005,-0.015
0.112,-0.005,-0.015
0.114,-0.005,-0.005
0.116,-0.075,0.015
0.118,0.040,0.040
0.120,0.220,0.065
0.122,0.075,0.085
0.124,0.150,0.100
0.126,0.205,0.110
0.128,0.180,0.115
0.130,0.150,0.110
0.132,0.110,0.105
0.134,0.150,0.095
0.136,0.130,0.090
0.138,0.090,0.085
0.140,0.105,0.085
0.142,0.055,0.085
0.144,0.085,0.090
0.146,0.160,0.095
0.148,0.200,0.095
0.150,0.180,0.100
0.152,0.150,0.100
0.154,0.125,0.105
0.156,0.100,0.110
0.158,0.090,0.120
0.160,0.125,0.135
0.162,0.220,0.155
0.164,0.270,0.180
0.166,0.260,0.205
0.168,0.325,0.225
0.170,0.340,0.240
0.172,0.275,0.245
0.174,0.265,0.245
0.176,0.175,0.235
0.178,0.155,0.220
0.180,0.215,0.205
0.182,0.335,0.195
0.184,0.275,0.190
0.186,0.185,0.200
0.188,0.190,0.220
0.190,0.280,0.245
0.192,0.450,0.270
0.194,0.405,0.295
0.196,0.260,0.305
0.198,0.225,0.305
0.200,0.270,0.295
0.202,0.290,0.275
0.204,0.275,0.250
0.206,0.225,0.230
0.208,0.340,0.220
0.210,0.365,0.215
0.212,0.250,0.225
0.214,0.275,0.245
0.216,0.300,0.265
0.218,0.300,0.280
0.220,0.250,0.285
0.222,0.250,0.275
0.224,0.270,0.255
0.226,0.290,0.220
0.228,0.245,0.185
0.230,0.165,0.155
0.232,0.150,0.130
0.234,0.130,0.115
0.236,0.050,0.110
0.238,0.085,0.115
0.240,0.235,0.120
0.242,0.205,0.120
0.244,0.125,0.115
0.246,0.140,0.105
0.248,0.120,0.080
0.250,0.150,0.055
0.252,0.090,0.035
0.254,0.000,0.015
0.256,-0.085,0.005
0.258,-0.050,0.005
0.260,0.065,0.015
0.262,0.120,0.025
0.264,0.135,0.035
0.266,0.125,0.035
0.268,0.120,0.035
0.270,0.040,0.025
0.272,0.010,0.010
0.274,-0.050,-0.005
0.276,-0.175,-0.020
0.278,-0.025,-0.030
0.280,0.060,-0.040
0.282,0.050,-0.040
0.284,0.050,-0.040
0.286,0.030,-0.040
0.288,-0.010,-0.040
0.290,0.000,-0.045
0.292,-0.065,-0.045
0.294,-0.175,-0.050
0.296,-0.140,-0.055
0.298,0.035,-0.055
0.300,0.155,-0.050
0.302,0.025,-0.040
0.304,0.055,-0.035
0.306,0.015,-0.025
0.308,-0.030,-0.025
0.310,0.005,-0.030
0.312,0.020,-0.040
0.314,-0.055,-0.055
0.316,-0.095,-0.070
0.318,-0.095,-0.080
0.320,-0.090,-0.080
0.322,-0.130,-0.075
0.324,-0.030,-0.065
0.326,0.130,-0.045
0.328,0.080,-0.025
0.330,0.045,-0.010
0.332,0.020,-0.005
0.334,-0.030,-0.010
0.336,-0.040,-0.020
0.338,-0.055,-0.040
0.340,-0.120,-0.060
0.342,-0.050,-0.075
0.344,0.030,-0.085
0.346,0.050,-0.085
0.348,0.055,-0.075
0.350,0.015,-0.060
0.352,-0.065,-0.045
0.354,-0.100,-0.035
0.356,-0.040,-0.030
0.358,-0.010,-0.035
0.360,-0.055,-0.045
0.362,0.025,-0.060
0.364,-0.010,-0.070
0.366,-0.025,-0.080
0.368,0.000,-0.080
0.370,0.000,-0.070
0.372,0.000,-0.055
0.374,-0.030,-0.040
0.376,-0.100,-0.025
0.378,-0.130,-0.015
0.380,-0.020,-0.015
0.382,0.090,-0.020
0.384,0.040,-0.035
0.386,0.085,-0.055
0.388,0.120,-0.070
0.390,0.005,-0.075
0.392,-0.155,-0.075
0.394,-0.220,-0.065
0.396,-0.180,-0.045
0.398,0.015,-0.030
0.400,0.110,-0.015
0.402,0.065,-0.005
0.404,0.105,-0.005
0.406,0.070,-0.010
0.408,0.050,-0.025
0.410,0.015,-0.045
0.412,-0.095,-0.065
0.414,-0.140,-0.080
0.416,-0.100,-0.085
0.418,-0.070,-0.090
0.420,-0.040,-0.085
0.422,-0.010,-0.075
0.424,-0.040,-0.070
0.426,-0.020,-0.060
0.428,-0.025,-0.055
0.430,0.075,-0.050
0.432,-0.005,-0.050
0.434,-0.035,-0.050
0.436,-0.050,-0.045
0.438,-0.060,-0.045
0.440,-0.100,-0.045
0.442,-0.015,-0.040
0.444,0.050,-0.045
0.446,0.020,-0.050
0.448,0.010,-0.060
0.450,0.025,-0.070
0.452,-0.105,-0.080
0.454,-0.120,-0.090
0.456,-0.095,-0.095
0.458,-0.095,-0.095
0.460,-0.060,-0.090
0.462,0.000,-0.080
0.464,-0.045,-0.070
0.466,-0.070,-0.055
0.468,0.090,-0.050
0.470,0.000,-0.045
0.472,-0.090,-0.050
0.474,-0.070,-0.060
0.476,-0.075,-0.070
0.478,-0.105,-0.080
0.480,-0.080,-0.090
0.482,-0.025,-0.095
0.484,-0.030,-0.090
0.486,0.005,-0.085
0.488,-0.050,-0.075
0.490,0.025,-0.065
0.492,-0.060,-0.055
0.494,-0.115,-0.045
0.496,-0.075,-0.045
0.498,-0.045,-0.045
0.500,-0.035,-0.050
0.502,0.025,-0.060
0.504,0.015,-0.070
0.506,0.020,-0.080
0.508,0.015,-0.085
0.510,-0.010,-0.095
0.512,-0.185,-0.095
0.514,-0.130,-0.095
0.516,-0.105,-0.095
0.518,-0.110,-0.095
0.520,-0.050,-0.090
0.522,-0.010,-0.090
0.524,-0.020,-0.085
0.526,-0.030,-0.085
0.528,0.015,-0.085
0.530,-0.045,-0.085
0.532,-0.195,-0.085
0.534,-0.140,-0.085
0.536,-0.065,-0.085
0.538,-0.020,-0.085
0.540,-0.065,-0.085
0.542,-0.045,-0.080
0.544,0.030,-0.080
0.546,-0.015,-0.075
0.548,-0.010,-0.070
0.550,-0.095,-0.065
0.552,-0.170,-0.060
0.554,-0.075,-0.060
0.556,-0.050,-0.055
0.558,-0.015,-0.055
0.560,-0.065,-0.055
0.562,-0.015,-0.055
0.564,0.070,-0.055
0.566,0.035,-0.055
0.568,-0.050,-0.060
0.570,-0.055,-0.060
0.572,-0.065,-0.060
0.574,-0.075,-0.060
0.576,-0.070,-0.060
0.578,-0.110,-0.060
0.580,-0.060,-0.060
0.582,-0.055,-0.070
0.584,-0.015,-0.075
0.586,0.065,-0.085
0.588,0.020,-0.090
0.590,-0.035,-0.090
0.592,-0.080,-0.090
0.594,-0.200,-0.080
0.596,-0.275,-0.070
0.598,-0.130,-0.050
0.600,0.105,-0.025
0.602,0.115,-0.005
0.604,0.115,0.015
0.606,0.165,0.030
0.608,0.080,0.035
0.610,0.040,0.035
0.612,0.000,0.025
0.614,-0.065,0.010
0.616,-0.040,-0.005
0.618,0.005,-0.020
0.620,-0.005,-0.030
0.622,0.010,-0.030
0.624,0.040,-0.030
0.626,0.020,-0.020
0.628,0.080,-0.010
0.630,0.005,0.000
0.632,-0.040,0.005
0.634,-0.030,0.005
0.636,-0.015,-0.005
0.638,-0.060,-0.020
0.640,-0.025,-0.040
0.642,0.010,-0.065
0.644,0.000,-0.080
0.646,0.065,-0.095
0.648,-0.050,-0.100
0.650,-0.210,-0.095
0.652,-0.275,-0.085
0.654,-0.165,-0.070
0.656,0.050,-0.050
0.658,0.085,-0.035
0.660,0.020,-0.030
0.662,0.000,-0.025
0.664,-0.030,-0.030
0.666,-0.035,-0.045
0.668,-0.020,-0.055
0.670,-0.025,-0.070
0.672,-0.040,-0.075
0.674,-0.140,-0.080
0.676,-0.120,-0.085
0.678,-0.060,-0.085
0.680,-0.060,-0.085
0.682,-0.015,-0.090
0.684,-0.065,-0.095
0.686,-0.125,-0.110
0.688,-0.050,-0.120
0.690,-0.120,-0.135
0.692,-0.210,-0.145
0.694,-0.210,-0.145
0.696,-0.115,-0.140
0.698,-0.135,-0.130
0.700,-0.030,-0.110
0.702,-0.010,-0.095
0.704,0.000,-0.080
0.706,-0.035,-0.070
0.708,-0.100,-0.070
0.710,-0.110,-0.075
0.712,-0.095,-0.080
0.714,0.000,-0.090
0.716,-0.060,-0.100
0.718,-0.180,-0.105
0.720,-0.225,-0.105
0.722,-0.040,-0.105
0.724,0.030,-0.100
0.726,-0.020,-0.095
0.728,-0.105,-0.095
0.730,-0.150,-0.100
0.732,-0.185,-0.110
0.734,-0.085,-0.120
0.736,-0.090,-0.125
0.738,-0.260,-0.130
0.740,-0.165,-0.120
0.742,0.020,-0.100
0.744,0.015,-0.065
0.746,0.030,-0.015
0.748,0.105,0.045
0.750,0.110,0.120
0.752,0.175,0.200
0.754,0.280,0.285
0.756,0.400,0.380
0.758,0.450,0.470
0.760,0.585,0.560
0.762,0.715,0.635
0.764,0.850,0.695
0.766,0.850,0.725
0.768,0.815,0.720
0.770,0.670,0.680
0.772,0.570,0.600
0.774,0.420,0.485
0.776,0.305,0.355
0.778,0.200,0.215
0.780,0.025,0.080
0.782,-0.085,-0.035
0.784,-0.135,-0.120
0.786,-0.120,-0.165
0.788,-0.030,-0.185
0.790,-0.175,-0.175
0.792,-0.195,-0.150
0.794,-0.150,-0.125
0.796,-0.150,-0.105
0.798,-0.110,-0.095
0.800,-0.050,-0.095
0.802,0.010,-0.105
0.804,0.010,-0.115
0.806,-0.125,-0.130
0.808,-0.160,-0.130
0.810,-0.150,-0.120
0.812,-0.240,-0.105
0.814,-0.080,-0.085
0.816,0.000,-0.060
0.818,-0.015,-0.045
0.820,-0.035,-0.040
0.822,-0.005,-0.045
0.824,0.005,-0.060
0.826,-0.045,-0.080
0.828,-0.070,-0.095
0.830,-0.125,-0.110
0.832,-0.155,-0.110
0.834,-0.235,-0.100
0.836,-0.140,-0.075
0.838,0.045,-0.050
0.840,0.060,-0.025
0.842,0.050,0.000
0.844,0.065,0.010
0.846,0.025,0.010
0.848,-0.050,0.000
0.850,-0.070,-0.015
0.852,-0.060,-0.035
0.854,-0.030,-0.060
0.856,-0.080,-0.075
0.858,-0.040,-0.080
0.860,0.020,-0.080
0.862,-0.015,-0.070
0.864,-0.150,-0.055
0.866,-0.150,-0.040
0.868,0.075,-0.025
0.870,-0.015,-0.015
0.872,-0.035,-0.010
0.874,-0.045,-0.015
0.876,-0.025,-0.020
0.878,-0.075,-0.030
0.880,-0.120,-0.040
0.882,-0.035,-0.045
0.884,0.055,-0.040
0.886,0.045,-0.035
0.888,-0.005,-0.025
0.890,-0.050,-0.010
0.892,-0.035,0.005
0.894,-0.065,0.020
0.896,-0.010,0.025
0.898,0.005,0.025
0.900,0.035,0.020
0.902,0.060,0.010
0.904,0.065,0.005
0.906,0.050,0.000
0.908,-0.030,0.000
0.910,-0.030,0.005
0.912,-0.055,0.020
0.914,-0.115,0.035
0.916,0.045,0.050
0.918,0.130,0.065
0.920,0.155,0.075
0.922,0.110,0.080
0.924,0.125,0.075
0.926,0.125,0.065
0.928,0.035,0.055
0.930,-0.010,0.050
0.932,-0.015,0.045
0.934,0.000,0.045
0.936,0.025,0.050
0.938,0.055,0.060
0.940,-0.005,0.070
0.942,0.140,0.080
0.944,0.185,0.085
0.946,0.195,0.090
0.948,0.110,0.090
0.950,0.035,0.095
0.952,0.035,0.100
0.954,0.005,0.110
0.956,0.065,0.130
0.958,0.170,0.150
0.960,0.120,0.175
0.962,0.320,0.200
0.964,0.330,0.220
0.966,0.280,0.235
0.968,0.210,0.235
0.970,0.170,0.235
0.972,0.190,0.225
0.974,0.125,0.210
0.976,0.155,0.200
0.978,0.190,0.195
0.980,0.235,0.195
0.982,0.290,0.200
0.984,0.270,0.205
0.986,0.255,0.210
0.988,0.195,0.215
0.990,0.130,0.210
0.992,0.115,0.200
0.994,0.185,0.185
0.996,0.105,0.170
0.998,0.095,0.155
1.000,0.185,0.145
1.002,0.210,0.140
1.004,0.225,0.140
1.006,0.250,0.140
1.008,0.145,0.145
1.010,0.125,0.150
1.012,0.080,0.155
1.014,-0.030,0.155
1.016,0.005,0.145
1.018,0.190,0.140
1.020,0.215,0.125
1.022,0.215,0.115
1.024,0.160,0.105
1.026,0.070,0.090
1.028,0.010,0.080
1.030,0.060,0.070
1.032,0.030,0.055
1.034,-0.035,0.045
1.036,-0.140,0.030
1.038,0.025,0.020
1.040,0.085,0.010
1.042,0.080,0.000
1.044,0.040,-0.010
1.046,0.030,-0.015
1.048,-0.035,-0.025
1.050,-0.110,-0.030
1.052,-0.185,-0.040
1.054,-0.175,-0.050
1.056,-0.075,-0.060
1.058,-0.030,-0.070
1.060,-0.055,-0.080
1.062,-0.030,-0.090
1.064,-0.020,-0.090
1.066,-0.040,-0.090
1.068,-0.155,-0.085
1.070,-0.145,-0.075
1.072,-0.120,-0.070
1.074,-0.130,-0.065
1.076,-0.100,-0.065
1.078,-0.055,-0.070
1.080,-0.070,-0.075
1.082,-0.070,-0.080
1.084,-0.055,-0.080
1.086,-0.050,-0.080
1.088,-0.065,-0.070
1.090,-0.060,-0.055
1.092,-0.085,-0.040
1.094,-0.080,-0.025
1.096,-0.090,-0.015
1.098,0.015,-0.015
1.100,-0.025,-0.020
1.102,-0.025,-0.030
1.104,-0.050,-0.050
1.106,-0.100,-0.070
1.108,-0.095,-0.085
1.110,-0.130,-0.100
1.112,-0.220,-0.110
1.114,-0.115,-0.110
1.116,-0.145,-0.100
1.118,-0.095,-0.090
1.120,-0.030,-0.080
1.122,0.015,-0.065
1.124,-0.070,-0.055
1.126,-0.105,-0.050
1.128,-0.070,-0.045
1.130,0.005,-0.045
1.132,-0.130,-0.045
1.134,-0.115,-0.050
1.136,-0.105,-0.050
1.138,-0.070,-0.050
1.140,0.015,-0.055
1.142,0.020,-0.055
1.144,-0.035,-0.055
1.146,-0.155,-0.050
1.148,-0.075,-0.050
1.150,-0.065,-0.050
1.152,-0.110,-0.050
1.154,-0.155,-0.050
1.156,-0.140,-0.050
1.158,-0.015,-0.045
1.160,0.060,-0.045
1.162,-0.010,-0.040
1.164,-0.015,-0.030
1.166,-0.045,-0.025
1.168,-0.045,-0.015
1.170,-0.020,-0.010
1.172,-0.095,-0.005
1.174,-0.120,-0.005
1.176,-0.035,-0.005
1.178,-0.005,-0.015
1.180,0.000,-0.025
1.182,-0.020,-0.040
1.184,-0.090,-0.055
1.186,-0.095,-0.065
1.188,-0.040,-0.075
1.190,-0.130,-0.075
1.192,-0.175,-0.070
1.194,-0.125,-0.060
1.196,-0.085,-0.045
1.198,0.020,-0.035
1.200,0.050,-0.025
1.202,0.035,-0.020
1.204,-0.020,-0.020
1.206,-0.090,-0.025
1.208,-0.110,-0.030
1.210,-0.155,-0.035
1.212,-0.135,-0.040
1.214,-0.020,-0.040
1.216,-0.015,-0.035
1.218,0.005,-0.035
1.220,-0.010,-0.035
1.222,-0.030,-0.040
1.224,-0.105,-0.050
1.226,-0.145,-0.065
1.228,-0.100,-0.085
1.230,-0.190,-0.100
1.232,-0.200,-0.110
1.234,-0.185,-0.110
1.236,-0.100,-0.105
1.238,-0.050,-0.090
1.240,0.025,-0.070
1.242,-0.005,-0.050
1.244,-0.105,-0.030
1.246,-0.055,-0.020
1.248,-0.055,-0.010
1.250,-0.060,-0.015
1.252,-0.130,-0.025
1.254,-0.090,-0.040
1.256,-0.025,-0.055
1.258,-0.070,-0.065
1.260,0.005,-0.070
1.262,-0.040,-0.070
1.264,-0.105,-0.065
1.266,-0.145,-0.060
1.268,-0.090,-0.055
1.270,-0.075,-0.045
1.272,-0.105,-0.045
1.274,-0.125,-0.050
1.276,-0.110,-0.060
1.278,0.000,-0.070
1.280,-0.070,-0.080
1.282,-0.075,-0.095
1.284,-0.125,-0.100
1.286,-0.205,-0.105
1.288,-0.130,-0.105
1.290,-0.080,-0.095
1.292,-0.170,-0.085
1.294,-0.240,-0.070
1.296,-0.125,-0.055
1.298,0.145,-0.040
1.300,0.045,-0.030
1.302,-0.050,-0.025
1.304,-0.045,-0.020
1.306,-0.065,-0.025
1.308,-0.125,-0.035
1.310,-0.120,-0.045
1.312,-0.095,-0.060
1.314,-0.090,-0.070
1.316,-0.065,-0.080
1.318,-0.050,-0.085
1.320,-0.010,-0.085
1.322,-0.025,-0.080
1.324,-0.155,-0.070
1.326,-0.155,-0.065
1.328,-0.125,-0.060
1.330,-0.075,-0.055
1.332,-0.090,-0.055
1.334,-0.090,-0.060
1.336,-0.060,-0.070
1.338,-0.075,-0.075
1.340,-0.110,-0.085
1.342,-0.170,-0.085
1.344,-0.115,-0.085
1.346,-0.080,-0.075
1.348,-0.065,-0.065
1.350,-0.110,-0.055
1.352,-0.075,-0.040
1.354,-0.025,-0.035
1.356,-0.010,-0.030
1.358,0.010,-0.030
1.360,-0.030,-0.030
1.362,-0.055,-0.040
1.364,-0.105,-0.045
1.366,-0.120,-0.050
1.368,-0.110,-0.055
1.370,-0.150,-0.055
1.372,-0.065,-0.050
1.374,0.005,-0.045
1.376,0.015,-0.035
1.378,-0.055,-0.025
1.380,-0.090,-0.015
1.382,-0.070,-0.010
1.384,-0.020,0.000
1.386,0.005,0.005
1.388,0.045,0.010
1.390,-0.090,0.010
1.392,-0.080,0.015
1.394,0.000,0.015
1.396,0.090,0.010
1.398,0.070,0.005
1.400,0.055,0.005
1.402,-0.070,0.000
1.404,-0.155,-0.005
1.406,-0.080,-0.005
1.408,-0.085,-0.005
1.410,-0.025,-0.005
1.412,0.015,-0.005
1.414,0.005,-0.010
1.416,-0.020,-0.015
1.418,-0.025,-0.025
1.420,-0.045,-0.040
1.422,-0.040,-0.050
1.424,-0.035,-0.065
1.426,-0.140,-0.080
1.428,-0.255,-0.090
1.430,-0.215,-0.095
1.432,-0.135,-0.095
1.434,-0.030,-0.090
1.436,-0.005,-0.085
1.438,0.040,-0.080
1.440,-0.035,-0.075
1.442,-0.195,-0.070
1.444,-0.230,-0.065
1.446,-0.115,-0.065
1.448,-0.145,-0.060
1.450,-0.095,-0.060
1.452,-0.030,-0.060
1.454,-0.015,-0.060
1.456,-0.050,-0.065
1.458,-0.095,-0.065
1.460,-0.125,-0.075
1.462,-0.165,-0.080
1.464,-0.120,-0.085
1.466,-0.110,-0.085
1.468,-0.115,-0.080
1.470,-0.185,-0.075
1.472,-0.100,-0.065
1.474,-0.015,-0.050
1.476,-0.025,-0.040
1.478,0.010,-0.030
1.480,-0.045,-0.030
1.482,-0.085,-0.035
1.484,-0.135,-0.045
1.486,-0.190,-0.055
1.488,-0.155,-0.065
1.490,-0.110,-0.075
1.492,-0.120,-0.085
1.494,-0.100,-0.085
1.496,-0.060,-0.090
1.498,-0.040,-0.090
1.500,-0.035,-0.090
1.502,-0.125,-0.095
1.504,-0.155,-0.105
1.506,-0.235,-0.115
1.508,-0.235,-0.125
1.510,-0.220,-0.135
1.512,-0.135,-0.135
1.514,-0.065,-0.135
1.516,-0.135,-0.125
1.518,-0.170,-0.110
1.520,-0.085,-0.090
1.522,-0.085,-0.060
1.524,-0.050,-0.025
1.526,0.020,0.015
1.528,-0.040,0.070
1.530,0.060,0.140
1.532,0.160,0.225
1.534,0.295,0.320
1.536,0.495,0.430
1.538,0.565,0.540
1.540,0.675,0.640
1.542,0.800,0.725
1.544,0.810,0.775
1.546,0.755,0.790
1.548,0.700,0.760
1.550,0.600,0.690
1.552,0.475,0.585
1.554,0.385,0.455
1.556,0.315,0.315
1.558,0.240,0.180
1.560,0.030,0.055
1.562,-0.115,-0.045
1.564,-0.210,-0.115
1.566,-0.260,-0.155
1.568,-0.300,-0.170
1.570,-0.265,-0.165
1.572,-0.180,-0.150
1.574,-0.140,-0.125
1.576,-0.090,-0.100
1.578,0.000,-0.080
1.580,-0.010,-0.070
1.582,-0.025,-0.065
1.584,-0.145,-0.065
1.586,-0.200,-0.065
1.588,-0.285,-0.070
1.590,-0.160,-0.070
1.592,-0.025,-0.065
1.594,-0.050,-0.055
1.596,-0.035,-0.045
1.598,-0.030,-0.035
1.600,-0.010,-0.030
1.602,-0.005,-0.030
1.604,-0.070,-0.030
1.606,-0.145,-0.040
1.608,-0.185,-0.050
1.610,-0.165,-0.060
1.612,-0.130,-0.070
1.614,-0.125,-0.070
1.616,-0.100,-0.065
1.618,-0.025,-0.055
1.620,0.110,-0.035
1.622,-0.015,-0.015
1.624,-0.105,0.000
1.626,-0.050,0.015
1.628,-0.075,0.020
1.630,-0.095,0.015
1.632,-0.030,0.005
1.634,0.010,-0.010
1.636,-0.020,-0.020
1.638,-0.010,-0.030
1.640,-0.095,-0.035
1.642,-0.095,-0.030
1.644,-0.030,-0.020
1.646,-0.075,-0.010
1.648,-0.040,0.000
1.650,-0.075,0.005
1.652,0.005,0.010
1.654,0.045,0.005
1.656,0.000,-0.005
1.658,0.010,-0.015
1.660,-0.135,-0.020
1.662,-0.085,-0.025
1.664,-0.010,-0.025
1.666,-0.030,-0.020
1.668,-0.075,-0.015
1.670,-0.040,-0.010
1.672,-0.060,-0.005
1.674,-0.030,0.000
1.676,-0.015,0.000
1.678,-0.015,0.000
1.680,-0.065,0.000
1.682,-0.085,0.000
1.684,-0.085,0.005
1.686,0.000,0.015
1.688,0.100,0.030
1.690,0.040,0.045
1.692,-0.060,0.060
1.694,0.070,0.070
1.696,0.085,0.075
1.698,0.050,0.075
1.700,0.010,0.070
1.702,0.015,0.065
1.704,0.000,0.060
1.706,0.015,0.055
1.708,-0.020,0.060
1.710,0.035,0.065
1.712,0.095,0.075
1.714,0.115,0.090
1.716,0.140,0.100
1.718,0.195,0.110
1.720,0.080,0.115
1.722,-0.030,0.115
1.724,0.010,0.115
1.726,-0.030,0.110
1.728,0.105,0.105
1.730,0.080,0.105
1.732,0.045,0.110
1.734,0.140,0.120
1.736,0.230,0.140
1.738,0.230,0.165
1.740,0.125,0.185
1.742,0.090,0.205
1.744,0.200,0.220
1.746,0.165,0.225
1.748,0.100,0.220
1.750,0.140,0.215
1.752,0.205,0.200
1.754,0.245,0.190
1.756,0.280,0.185
1.758,0.215,0.180
1.760,0.055,0.185
1.762,0.020,0.195
1.764,0.190,0.210
1.766,0.205,0.225
1.768,0.195,0.235
1.770,0.175,0.240
1.772,0.250,0.245
1.774,0.310,0.240
1.776,0.220,0.235
1.778,0.215,0.230
1.780,0.220,0.225
1.782,0.145,0.220
1.784,0.165,0.220
1.786,0.140,0.215
1.788,0.130,0.205
1.790,0.085,0.195
1.792,0.160,0.175
1.794,0.175,0.155
1.796,0.140,0.135
1.798,0.165,0.115
1.800,0.045,0.095
1.802,0.015,0.080
1.804,-0.025,0.070
1.806,0.015,0.065
1.808,-0.020,0.055
1.810,0.030,0.050
1.812,0.075,0.045
1.814,0.030,0.035
1.816,0.030,0.025
1.818,-0.025,0.020
1.820,-0.175,0.010
1.822,-0.025,0.005
1.824,0.010,0.005
1.826,-0.015,0.005
1.828,-0.045,0.005
1.830,-0.015,0.005
1.832,-0.020,0.010
1.834,-0.070,0.010
1.836,-0.050,0.005
1.838,0.030,0.005
1.840,0.000,0.000
1.842,-0.025,-0.005
1.844,-0.030,-0.010
1.846,-0.045,-0.015
1.848,-0.210,-0.025
1.850,-0.095,-0.035
1.852,-0.055,-0.045
1.854,-0.045,-0.055
1.856,-0.045,-0.060
1.858,-0.070,-0.065
1.860,-0.070,-0.065
1.862,-0.150,-0.060
1.864,-0.145,-0.050
1.866,-0.090,-0.040
1.868,-0.065,-0.035
1.870,-0.045,-0.035
1.872,-0.040,-0.040
1.874,-0.060,-0.050
1.876,-0.055,-0.065
1.878,-0.135,-0.085
1.880,-0.200,-0.095
1.882,-0.170,-0.100
1.884,-0.160,-0.095
1.886,-0.140,-0.085
1.888,-0.090,-0.060
1.890,-0.005,-0.035
1.892,0.045,-0.015
1.894,0.040,0.005
1.896,-0.015,0.010
1.898,0.005,0.005
1.900,-0.100,-0.010
1.902,-0.165,-0.025
1.904,-0.110,-0.045
1.906,-0.120,-0.060
1.908,-0.120,-0.065
1.910,-0.110,-0.065
1.912,-0.055,-0.055
1.914,-0.050,-0.045
1.916,-0.010,-0.035
1.918,-0.020,-0.025
1.920,0.020,-0.025
1.922,-0.110,-0.030
1.924,-0.115,-0.045
1.926,-0.160,-0.060
1.928,-0.140,-0.075
1.930,-0.115,-0.085
1.932,-0.070,-0.085
1.934,-0.020,-0.085
1.936,-0.075,-0.070
1.938,-0.055,-0.055
1.940,-0.035,-0.035
1.942,-0.110,-0.015
1.944,-0.070,0.000
1.946,-0.040,0.010
1.948,-0.070,0.010
1.950,-0.050,0.000
1.952,-0.020,-0.010
1.954,0.035,-0.020
1.956,-0.020,-0.035
1.958,-0.015,-0.045
1.960,-0.080,-0.050
1.962,-0.150,-0.050
1.964,-0.230,-0.045
1.966,-0.095,-0.035
1.968,-0.095,-0.025
1.970,-0.085,-0.015
1.972,0.045,-0.005
1.974,0.015,-0.005
1.976,0.010,-0.005
1.978,-0.025,-0.010
1.980,-0.065,-0.020
1.982,-0.105,-0.035
1.984,-0.100,-0.045
1.986,-0.155,-0.055
1.988,-0.165,-0.065
1.990,-0.130,-0.065
1.992,-0.065,-0.065
1.994,0.020,-0.060
1.996,0.065,-0.050
1.998,-0.030,-0.040
2.000,-0.100,-0.035
2.002,-0.125,-0.030
2.004,-0.140,-0.030
2.006,-0.110,-0.030
2.008,-0.110,-0.035
2.010,-0.090,-0.040
2.012,0.015,-0.040
2.014,-0.010,-0.040
2.016,-0.030,-0.040
2.018,-0.060,-0.035
2.020,-0.055,-0.035
2.022,-0.115,-0.035
2.024,-0.155,-0.035
2.026,-0.095,-0.040
2.028,-0.120,-0.050
2.030,-0.080,-0.055
2.032,-0.030,-0.060
2.034,-0.020,-0.060
2.036,-0.120,-0.050
2.038,-0.035,-0.040
2.040,0.030,-0.030
2.042,-0.125,-0.020
2.044,-0.105,-0.010
2.046,-0.115,-0.010
2.048,-0.095,-0.020
2.050,-0.045,-0.035
2.052,-0.045,-0.050
2.054,-0.060,-0.070
2.056,-0.095,-0.080
2.058,-0.085,-0.085
2.060,-0.130,-0.080
2.062,-0.195,-0.075
2.064,-0.145,-0.060
2.066,-0.125,-0.045
2.068,-0.040,-0.040
2.070,-0.005,-0.035
2.072,-0.015,-0.040
2.074,-0.025,-0.045
2.076,-0.120,-0.055
2.078,-0.195,-0.055
2.080,-0.120,-0.055
2.082,-0.080,-0.050
2.084,-0.100,-0.040
2.086,-0.060,-0.025
2.088,-0.030,-0.015
2.090,0.005,-0.015
2.092,0.005,-0.020
2.094,-0.030,-0.030
2.096,-0.060,-0.050
2.098,-0.100,-0.065
2.100,-0.305,-0.080
2.102,-0.195,-0.085
2.104,-0.045,-0.085
2.106,-0.080,-0.070
2.108,-0.095,-0.055
2.110,-0.055,-0.040
2.112,-0.030,-0.030
2.114,0.000,-0.030
2.116,0.050,-0.035
2.118,0.000,-0.055
2.120,-0.155,-0.075
2.122,-0.280,-0.090
2.124,-0.360,-0.105
2.126,-0.230,-0.110
2.128,-0.070,-0.105
2.130,0.010,-0.095
2.132,0.025,-0.080
2.134,-0.010,-0.065
2.136,-0.035,-0.055
2.138,-0.090,-0.055
2.140,-0.170,-0.060
2.142,-0.275,-0.065
2.144,-0.240,-0.070
2.146,-0.090,-0.075
2.148,-0.030,-0.070
2.150,0.025,-0.060
2.152,-0.020,-0.045
2.154,-0.020,-0.025
2.156,0.030,-0.015
2.158,-0.010,-0.005
2.160,-0.090,-0.010
2.162,-0.120,-0.015
2.164,-0.140,-0.030
2.166,-0.200,-0.045
2.168,-0.095,-0.055
2.170,0.025,-0.060
2.172,0.085,-0.055
2.174,-0.080,-0.045
2.176,-0.045,-0.030
2.178,-0.005,-0.015
2.180,-0.070,0.000
2.182,-0.055,0.005
2.184,-0.060,0.010
2.186,-0.055,0.005
2.188,-0.145,0.000
2.190,0.010,-0.010
2.192,0.010,-0.020
2.194,-0.065,-0.025
2.196,0.015,-0.025
2.198,0.030,-0.025
2.200,-0.045,-0.025
2.202,-0.135,-0.025
2.204,-0.120,-0.020
2.206,-0.085,-0.020
2.208,-0.140,-0.020
2.210,-0.115,-0.020
2.212,0.065,-0.020
2.214,0.100,-0.020
2.216,0.025,-0.020
2.218,-0.055,-0.020
2.220,-0.120,-0.025
2.222,-0.110,-0.035
2.224,-0.200,-0.045
2.226,-0.190,-0.060
2.228,-0.120,-0.070
2.230,-0.030,-0.085
2.232,-0.035,-0.090
2.234,-0.025,-0.085
2.236,-0.060,-0.080
2.238,-0.070,-0.070
2.240,-0.075,-0.060
2.242,-0.210,-0.055
2.244,-0.230,-0.055
2.246,-0.135,-0.060
2.248,-0.085,-0.070
2.250,-0.085,-0.085
2.252,-0.090,-0.100
2.254,-0.115,-0.115
2.256,-0.115,-0.115
2.258,-0.110,-0.105
2.260,-0.115,-0.090
2.262,-0.120,-0.070
2.264,-0.090,-0.050
2.266,-0.040,-0.035
2.268,-0.050,-0.030
2.270,-0.115,-0.040
2.272,-0.125,-0.060
2.274,-0.175,-0.085
2.276,-0.075,-0.120
2.278,-0.065,-0.145
2.280,-0.225,-0.165
2.282,-0.230,-0.175
2.284,-0.225,-0.170
2.286,-0.200,-0.150
2.288,-0.140,-0.125
2.290,-0.075,-0.095
2.292,-0.085,-0.070
2.294,-0.005,-0.050
2.296,-0.075,-0.045
2.298,-0.110,-0.050
2.300,-0.155,-0.065
2.302,-0.170,-0.085
2.304,-0.205,-0.105
2.306,-0.215,-0.130
2.308,-0.200,-0.145
2.310,-0.095,-0.150
2.312,-0.055,-0.150
2.314,-0.170,-0.135
2.316,-0.185,-0.120
2.318,-0.105,-0.095
2.320,-0.080,-0.060
2.322,-0.065,-0.020
2.324,-0.010,0.025
2.326,0.050,0.085
2.328,0.115,0.150
2.330,0.180,0.225
2.332,0.320,0.315
2.334,0.480,0.405
2.336,0.575,0.495
2.338,0.540,0.580
2.340,0.575,0.655
2.342,0.660,0.705
2.344,0.710,0.725
2.346,0.720,0.715
2.348,0.695,0.670
2.350,0.510,0.590
2.352,0.490,0.485
2.354,0.380,0.365
2.356,0.205,0.240
2.358,0.040,0.120
2.360,-0.050,0.020
2.362,-0.195,-0.060
2.364,-0.275,-0.115
2.366,-0.175,-0.140
2.368,-0.210,-0.145
2.370,-0.080,-0.135
2.372,-0.025,-0.115
2.374,-0.090,-0.095
2.376,-0.110,-0.075
2.378,-0.095,-0.060
2.380,-0.050,-0.050
2.382,-0.150,-0.040
2.384,-0.085,-0.035
2.386,-0.105,-0.035
2.388,-0.010,-0.030
2.390,-0.040,-0.025
2.392,-0.020,-0.025
2.394,-0.035,-0.030
2.396,-0.060,-0.040
2.398,-0.095,-0.050
2.400,-0.105,-0.065
2.402,-0.150,-0.080
2.404,-0.205,-0.090
2.406,-0.220,-0.095
2.408,-0.095,-0.090
2.410,-0.030,-0.080
2.412,-0.030,-0.065
2.414,-0.025,-0.050
2.416,-0.070,-0.040
2.418,-0.025,-0.030
2.420,-0.085,-0.030
2.422,-0.100,-0.030
2.424,-0.135,-0.035
2.426,-0.155,-0.040
2.428,-0.055,-0.040
2.430,0.000,-0.035
2.432,0.015,-0.030
2.434,-0.035,-0.020
2.436,0.010,-0.015
2.438,-0.065,-0.010
2.440,-0.015,-0.010
2.442,-0.105,-0.020
2.444,-0.200,-0.030
2.446,-0.100,-0.045
2.448,-0.015,-0.055
2.450,-0.025,-0.055
2.452,-0.035,-0.050
2.454,-0.085,-0.040
2.456,-0.110,-0.015
2.458,0.030,0.005
2.460,0.080,0.030
2.462,-0.035,0.045
2.464,-0.050,0.050
2.466,-0.030,0.045
2.468,0.035,0.035
2.470,0.055,0.010
2.472,0.065,-0.010
2.474,-0.045,-0.030
2.476,-0.120,-0.045
2.478,-0.065,-0.050
2.480,-0.150,-0.050
2.482,-0.255,-0.035
2.484,-0.075,-0.015
2.486,0.060,0.005
2.488,0.120,0.030
2.490,0.095,0.050
2.492,0.075,0.065
2.494,0.065,0.080
2.496,0.060,0.085
2.498,0.000,0.085
2.500,-0.040,0.075
2.502,0.010,0.070
2.504,0.015,0.055
2.506,0.020,0.045
2.508,0.015,0.035
2.510,-0.035,0.030
2.512,0.040,0.030
2.514,0.055,0.035
2.516,0.105,0.050
2.518,0.080,0.070
2.520,0.110,0.090
2.522,0.005,0.110
2.524,-0.005,0.125
2.526,0.090,0.135
2.528,0.145,0.135
2.530,0.150,0.135
2.532,0.200,0.130
2.534,0.210,0.130
2.536,0.110,0.130
2.538,0.020,0.135
2.540,0.060,0.150
2.542,0.065,0.165
2.544,0.150,0.180
2.546,0.195,0.195
2.548,0.305,0.200
2.550,0.240,0.205
2.552,0.210,0.200
2.554,0.135,0.195
2.556,0.120,0.195
2.558,0.145,0.195
2.560,0.130,0.200
2.562,0.115,0.210
2.564,0.150,0.225
2.566,0.270,0.245
2.568,0.300,0.260
2.570,0.300,0.265
2.572,0.275,0.260
2.574,0.240,0.245
2.576,0.215,0.225
2.578,0.115,0.195
2.580,0.025,0.170
2.582,0.075,0.150
2.584,0.120,0.140
2.586,0.105,0.135
2.588,0.215,0.135
2.590,0.220,0.145
2.592,0.145,0.150
2.594,0.145,0.155
2.596,0.165,0.150
2.598,0.050,0.140
2.600,-0.010,0.120
2.602,0.025,0.100
2.604,0.005,0.070
2.606,0.075,0.045
2.608,0.045,0.025
2.610,0.000,0.005
2.612,0.065,-0.005
2.614,-0.015,-0.010
2.616,-0.060,-0.010
2.618,-0.185,-0.005
2.620,-0.185,0.000
2.622,0.000,0.005
2.624,0.070,0.010
2.626,0.105,0.015
2.628,0.025,0.015
2.630,0.025,0.010
2.632,-0.045,0.005
2.634,-0.055,-0.005
2.636,0.000,-0.015
2.638,-0.100,-0.025
2.640,-0.140,-0.035
2.642,-0.090,-0.045
2.644,-0.110,-0.055
2.646,-0.080,-0.060
2.648,0.000,-0.060
2.650,-0.040,-0.065
2.652,-0.105,-0.070
2.654,-0.150,-0.075
2.656,-0.120,-0.080
2.658,-0.130,-0.085
2.660,-0.175,-0.090
2.662,-0.130,-0.090
2.664,-0.095,-0.090
2.666,-0.125,-0.080
2.668,-0.180,-0.075
2.670,-0.055,-0.065
2.672,0.090,-0.055
2.674,-0.015,-0.050
2.676,-0.125,-0.050
2.678,-0.165,-0.055
2.680,-0.175,-0.065
2.682,-0.090,-0.070
2.684,-0.230,-0.080
2.686,-0.110,-0.085
2.688,0.020,-0.085
2.690,0.005,-0.080
2.692,0.005,-0.075
2.694,-0.030,-0.065
2.696,-0.150,-0.060
2.698,-0.145,-0.055
2.700,-0.160,-0.055
2.702,-0.195,-0.060
2.704,-0.165,-0.065
2.706,-0.040,-0.070
2.708,0.040,-0.070
2.710,-0.025,-0.070
2.712,-0.060,-0.065
2.714,-0.015,-0.055
2.716,-0.115,-0.050
2.718,-0.135,-0.045
2.720,-0.155,-0.045
2.722,-0.050,-0.045
2.724,-0.030,-0.050
2.726,-0.080,-0.060
2.728,-0.140,-0.070
2.730,-0.090,-0.080
2.732,-0.005,-0.085
2.734,-0.055,-0.090
2.736,-0.145,-0.085
2.738,-0.155,-0.080
2.740,-0.160,-0.070
2.742,-0.105,-0.060
2.744,-0.030,-0.050
2.746,-0.020,-0.040
2.748,0.005,-0.030
2.750,-0.005,-0.025
2.752,-0.015,-0.025
2.754,-0.065,-0.025
2.756,-0.115,-0.030
2.758,-0.085,-0.040
2.760,-0.145,-0.045
2.762,-0.075,-0.050
2.764,-0.075,-0.050
2.766,-0.060,-0.050
2.768,-0.030,-0.050
2.770,0.045,-0.040
2.772,-0.025,-0.035
2.774,-0.095,-0.025
2.776,-0.065,-0.015
2.778,-0.045,-0.010
2.780,-0.095,-0.010
2.782,0.005,-0.015
2.784,-0.090,-0.025
2.786,-0.090,-0.040
2.788,-0.005,-0.055
2.790,0.020,-0.070
2.792,-0.070,-0.080
2.794,-0.110,-0.085
2.796,-0.120,-0.085
2.798,-0.155,-0.080
2.800,-0.135,-0.075
2.802,-0.140,-0.065
2.804,-0.075,-0.060
2.806,-0.005,-0.050
2.808,-0.025,-0.045
2.810,-0.055,-0.045
2.812,-0.015,-0.050
2.814,-0.030,-0.050
2.816,-0.110,-0.055
2.818,-0.125,-0.060
2.820,-0.085,-0.060
2.822,-0.130,-0.055
2.824,-0.105,-0.050
2.826,-0.010,-0.045
2.828,0.070,-0.040
2.830,0.005,-0.035
2.832,-0.035,-0.030
2.834,-0.095,-0.035
2.836,-0.165,-0.040
2.838,-0.080,-0.050
2.840,-0.185,-0.065
2.842,-0.155,-0.075
2.844,-0.070,-0.085
2.846,-0.035,-0.090
2.848,-0.040,-0.085
2.850,-0.020,-0.080
2.852,-0.025,-0.065
2.854,-0.090,-0.050
2.856,-0.200,-0.040
2.858,-0.095,-0.030
2.860,-0.090,-0.025
2.862,-0.085,-0.030
2.864,-0.020,-0.040
2.866,-0.010,-0.055
2.868,-0.045,-0.075
2.870,-0.055,-0.090
2.872,-0.070,-0.100
2.874,-0.120,-0.100
2.876,-0.150,-0.100
2.878,-0.210,-0.090
2.880,-0.210,-0.070
2.882,0.000,-0.055
2.884,-0.005,-0.040
2.886,-0.015,-0.030
2.888,-0.035,-0.025
2.890,0.000,-0.030
2.892,-0.030,-0.045
2.894,-0.130,-0.060
2.896,-0.165,-0.080
2.898,-0.185,-0.100
2.900,-0.145,-0.115
2.902,-0.100,-0.125
2.904,-0.145,-0.120
2.906,-0.165,-0.110
2.908,-0.125,-0.090
2.910,0.060,-0.070
2.912,0.020,-0.050
2.914,-0.055,-0.035
2.916,-0.125,-0.025
2.918,-0.110,-0.030
2.920,-0.145,-0.035
2.922,-0.140,-0.055
2.924,-0.095,-0.070
2.926,-0.025,-0.085
2.928,-0.010,-0.095
2.930,-0.020,-0.100
2.932,-0.105,-0.095
2.934,-0.145,-0.085
2.936,-0.110,-0.070
2.938,-0.125,-0.055
2.940,-0.080,-0.040
2.942,-0.020,-0.035
2.944,0.035,-0.030
2.946,0.005,-0.035
2.948,-0.050,-0.040
2.950,-0.030,-0.050
2.952,-0.095,-0.060
2.954,-0.070,-0.070
2.956,-0.090,-0.075
2.958,-0.240,-0.075
2.960,-0.170,-0.075
2.962,-0.045,-0.070
2.964,-0.010,-0.065
2.966,-0.010,-0.065
2.968,-0.020,-0.060
2.970,-0.020,-0.060
2.972,-0.030,-0.055
2.974,-0.095,-0.055
2.976,-0.120,-0.050
2.978,-0.120,-0.050
2.980,-0.105,-0.040
2.982,-0.105,-0.035
2.984,0.010,-0.025
2.986,0.065,-0.015
2.988,0.085,-0.005
2.990,0.050,0.000
2.992,-0.005,0.010
2.994,-0.090,0.015
2.996,-0.135,0.020
2.998,-0.035,0.020
3.000,-0.005,0.020
3.002,0.000,0.025
3.004,0.020,0.020
3.006,0.050,0.020
3.008,0.030,0.015
3.010,0.025,0.005
3.012,0.050,-0.005
3.014,-0.045,-0.020
3.016,-0.020,-0.035
3.018,-0.105,-0.055
3.020,-0.195,-0.070
3.022,-0.170,-0.085
3.024,-0.110,-0.095
3.026,-0.035,-0.105
3.028,0.005,-0.105
3.030,-0.030,-0.105
3.032,-0.050,-0.105
3.034,-0.095,-0.100
3.036,-0.155,-0.095
3.038,-0.255,-0.095
3.040,-0.215,-0.090
3.042,-0.170,-0.085
3.044,-0.020,-0.075
3.046,0.110,-0.070
3.048,0.055,-0.060
3.050,0.000,-0.050
3.052,-0.080,-0.040
3.054,-0.105,-0.040
3.056,-0.165,-0.040
3.058,-0.130,-0.045
3.060,-0.070,-0.055
3.062,-0.070,-0.070
3.064,-0.095,-0.080
3.066,-0.075,-0.095
3.068,-0.005,-0.105
3.070,-0.015,-0.105
3.072,-0.050,-0.105
3.074,-0.170,-0.095
3.076,-0.150,-0.090
3.078,-0.160,-0.080
3.080,-0.180,-0.080
3.082,-0.105,-0.080
3.084,-0.050,-0.085
3.086,-0.040,-0.090
3.088,0.025,-0.095
3.090,-0.090,-0.100
3.092,-0.110,-0.100
3.094,-0.105,-0.095
3.096,-0.140,-0.085
3.098,-0.160,-0.075
3.100,-0.095,-0.070
3.102,-0.070,-0.065
3.104,-0.040,-0.070
3.106,-0.080,-0.085
3.108,-0.090,-0.105
3.110,-0.105,-0.125
3.112,-0.165,-0.145
3.114,-0.240,-0.155
3.116,-0.260,-0.155
3.118,-0.205,-0.145
3.120,-0.190,-0.120
3.122,-0.040,-0.080
3.124,-0.020,-0.030
3.126,0.095,0.040
3.128,0.225,0.115
3.130,0.230,0.200
3.132,0.310,0.290
3.134,0.295,0.390
3.136,0.390,0.490
3.138,0.600,0.580
3.140,0.715,0.665
3.142,0.845,0.730
3.144,0.830,0.765
3.146,0.815,0.770
3.148,0.755,0.740
3.150,0.620,0.680
3.152,0.470,0.585
3.154,0.455,0.470
3.156,0.390,0.350
3.158,0.205,0.225
3.160,0.020,0.110
3.162,-0.010,0.020
3.164,-0.105,-0.050
3.166,-0.065,-0.090
3.168,-0.050,-0.110
3.170,-0.120,-0.115
3.172,-0.120,-0.105
3.174,-0.145,-0.095
3.176,-0.120,-0.080
3.178,-0.070,-0.070
3.180,-0.045,-0.060
3.182,-0.020,-0.055
3.184,-0.075,-0.050
3.186,-0.020,-0.050
3.188,-0.015,-0.045
3.190,0.000,-0.040
3.192,0.035,-0.035
3.194,-0.070,-0.035
3.196,-0.120,-0.040
3.198,-0.105,-0.050
3.200,-0.045,-0.060
3.202,-0.015,-0.070
3.204,-0.030,-0.080
3.206,-0.125,-0.090
3.208,-0.160,-0.090
3.210,-0.040,-0.085
3.212,-0.090,-0.075
3.214,-0.125,-0.065
3.216,-0.055,-0.055
3.218,-0.050,-0.045
3.220,-0.095,-0.045
3.222,-0.035,-0.045
3.224,0.010,-0.050
3.226,0.045,-0.055
3.228,-0.060,-0.060
3.230,-0.130,-0.060
3.232,-0.055,-0.055
3.234,0.000,-0.045
3.236,-0.055,-0.030
3.238,-0.110,-0.015
3.240,-0.120,0.000
3.242,0.040,0.010
3.244,0.120,0.020
3.246,0.085,0.020
3.248,0.050,0.020
3.250,0.050,0.015
3.252,-0.005,0.010
3.254,-0.020,0.005
3.256,0.015,0.000
3.258,-0.145,-0.005
3.260,-0.130,-0.010
3.262,0.050,-0.010
3.264,0.075,-0.015
3.266,0.045,-0.015
3.268,0.040,-0.020
3.270,-0.025,-0.020
3.272,-0.105,-0.025
3.274,-0.135,-0.025
3.276,0.000,-0.020
3.278,0.010,-0.015
3.280,-0.050,-0.010
3.282,0.020,0.000
3.284,0.060,0.005
3.286,0.085,0.015
3.288,0.050,0.020
3.290,0.025,0.025
3.292,0.085,0.025
3.294,-0.030,0.020
3.296,-0.035,0.015
3.298,-0.045,0.015
3.300,-0.025,0.010
3.302,0.060,0.015
3.304,0.050,0.020
3.306,0.090,0.035
3.308,0.140,0.055
3.310,0.145,0.075
3.312,0.045,0.100
3.314,0.100,0.120
3.316,0.065,0.135
3.318,0.110,0.145
3.320,0.100,0.145
3.322,0.185,0.145
3.324,0.195,0.140
3.326,0.165,0.140
3.328,0.215,0.140
3.330,0.140,0.140
3.332,0.075,0.150
3.334,0.150,0.160
3.336,0.090,0.170
3.338,0.165,0.180
3.340,0.225,0.185
3.342,0.235,0.190
3.344,0.220,0.190
3.346,0.230,0.190
3.348,0.160,0.195
3.350,0.090,0.200
3.352,0.260,0.210
3.354,0.215,0.220
3.356,0.105,0.235
3.358,0.245,0.245
3.360,0.335,0.255
3.362,0.370,0.255
3.364,0.250,0.255
3.366,0.225,0.250
3.368,0.280,0.245
3.370,0.265,0.245
3.372,0.195,0.245
3.374,0.170,0.250
3.376,0.240,0.255
3.378,0.250,0.265
3.380,0.295,0.265
3.382,0.310,0.265
3.384,0.300,0.250
3.386,0.275,0.230
3.388,0.235,0.200
3.390,0.145,0.170
3.392,0.000,0.135
3.394,-0.075,0.110
3.396,0.070,0.090
3.398,0.155,0.080
3.400,0.220,0.080
3.402,0.170,0.090
3.404,0.190,0.095
3.406,0.170,0.100
3.408,0.095,0.100
3.410,-0.025,0.090
3.412,-0.110,0.070
3.414,0.000,0.050
3.416,0.090,0.025
3.418,0.085,0.005
3.420,-0.025,-0.015
3.422,-0.025,-0.025
3.424,0.055,-0.030
3.426,0.060,-0.025
3.428,0.015,-0.015
3.430,-0.020,-0.005
3.432,0.005,0.005
3.434,-0.070,0.005
3.436,-0.080,0.005
3.438,0.020,-0.005
3.440,0.010,-0.020
3.442,0.000,-0.035
3.444,0.000,-0.050
3.446,-0.025,-0.065
3.448,-0.150,-0.075
3.450,-0.100,-0.080
3.452,-0.070,-0.085
3.454,-0.095,-0.085
3.456,-0.160,-0.080
3.458,-0.045,-0.070
3.460,0.010,-0.065
3.462,0.000,-0.060
3.464,0.000,-0.055
3.466,-0.040,-0.050
3.468,-0.050,-0.050
3.470,-0.050,-0.055
3.472,-0.090,-0.065
3.474,-0.120,-0.070
3.476,-0.120,-0.085
3.478,-0.170,-0.095
3.480,-0.045,-0.105
3.482,0.040,-0.110
3.484,-0.080,-0.110
3.486,-0.200,-0.110
3.488,-0.135,-0.100
3.490,-0.010,-0.085
3.492,0.015,-0.065
3.494,-0.050,-0.045
3.496,-0.060,-0.025
3.498,-0.045,-0.015
3.500,-0.025,-0.005
3.502,-0.050,-0.005
3.504,0.040,-0.015
3.506,0.050,-0.030
3.508,-0.020,-0.045
3.510,-0.080,-0.065
3.512,-0.105,-0.080
3.514,-0.110,-0.095
3.516,-0.075,-0.100
3.518,-0.130,-0.100
3.520,-0.125,-0.095
3.522,-0.150,-0.085
3.524,-0.030,-0.075
3.526,0.015,-0.065
3.528,0.090,-0.055
3.530,-0.005,-0.045
3.532,-0.040,-0.040
3.534,-0.140,-0.040
3.536,-0.125,-0.035
3.538,-0.045,-0.035
3.540,-0.030,-0.035
3.542,-0.015,-0.035
3.544,0.040,-0.035
3.546,0.060,-0.040
3.548,0.040,-0.050
3.550,-0.085,-0.060
3.552,-0.095,-0.070
3.554,-0.145,-0.075
3.556,-0.130,-0.085
3.558,-0.085,-0.085
3.560,-0.045,-0.080
3.562,-0.035,-0.075
3.564,0.005,-0.065
3.566,0.045,-0.055
3.568,0.050,-0.050
3.570,-0.045,-0.045
3.572,-0.085,-0.045
3.574,-0.105,-0.050
3.576,-0.065,-0.055
3.578,-0.075,-0.060
3.580,-0.040,-0.060
3.582,-0.025,-0.060
3.584,0.040,-0.050
3.586,0.005,-0.045
3.588,-0.070,-0.035
3.590,-0.060,-0.025
3.592,0.010,-0.020
3.594,-0.015,-0.025
3.596,0.020,-0.030
3.598,-0.105,-0.045
3.600,-0.045,-0.055
3.602,-0.005,-0.065
3.604,-0.025,-0.075
3.606,-0.035,-0.080
3.608,-0.025,-0.080
3.610,-0.090,-0.080
3.612,-0.130,-0.075
3.614,-0.105,-0.075
3.616,-0.095,-0.070
3.618,-0.095,-0.065
3.620,-0.050,-0.060
3.622,-0.030,-0.060
3.624,0.050,-0.055
3.626,0.025,-0.055
3.628,-0.030,-0.055
3.630,-0.100,-0.055
3.632,-0.165,-0.060
3.634,-0.185,-0.065
3.636,-0.040,-0.075
3.638,-0.060,-0.080
3.640,-0.005,-0.085
3.642,-0.035,-0.085
3.644,-0.180,-0.085
3.646,-0.045,-0.080
3.648,0.020,-0.070
3.650,0.005,-0.060
3.652,-0.040,-0.055
3.654,-0.090,-0.055
3.656,-0.095,-0.060
3.658,-0.140,-0.065
3.660,-0.070,-0.075
3.662,0.055,-0.080
3.664,-0.045,-0.085
3.666,-0.095,-0.085
3.668,-0.030,-0.080
3.670,-0.025,-0.070
3.672,-0.045,-0.060
3.674,-0.080,-0.050
3.676,-0.040,-0.050
3.678,-0.040,-0.055
3.680,-0.115,-0.065
3.682,-0.050,-0.075
3.684,-0.050,-0.090
3.686,-0.090,-0.100
3.688,0.005,-0.105
3.690,-0.120,-0.100
3.692,-0.165,-0.090
3.694,-0.145,-0.080
3.696,-0.020,-0.070
3.698,0.015,-0.055
3.700,0.000,-0.050
3.702,0.035,-0.045
3.704,-0.035,-0.045
3.706,-0.075,-0.045
3.708,-0.085,-0.045
3.710,-0.015,-0.045
3.712,-0.025,-0.040
3.714,-0.040,-0.035
3.716,0.020,-0.035
3.718,-0.045,-0.035
3.720,-0.075,-0.040
3.722,-0.060,-0.045
3.724,-0.045,-0.055
3.726,0.035,-0.065
3.728,0.030,-0.070
3.730,-0.040,-0.065
3.732,-0.210,-0.055
3.734,-0.110,-0.035
3.736,0.040,-0.010
3.738,0.065,0.015
3.740,0.120,0.030
3.742,0.130,0.045
3.744,0.090,0.045
3.746,0.035,0.040
3.748,0.030,0.025
3.750,-0.040,0.005
3.752,-0.060,-0.010
3.754,-0.045,-0.025
3.756,-0.030,-0.035
3.758,-0.020,-0.040
3.760,-0.025,-0.040
3.762,-0.065,-0.040
3.764,0.040,-0.040
3.766,0.075,-0.045
3.768,-0.015,-0.050
3.770,-0.095,-0.055
3.772,-0.125,-0.060
3.774,-0.125,-0.070
3.776,-0.105,-0.070
3.778,-0.020,-0.075
3.780,-0.025,-0.075
3.782,-0.055,-0.075
3.784,0.000,-0.080
3.786,-0.025,-0.085
3.788,-0.115,-0.095
3.790,-0.120,-0.105
3.792,-0.120,-0.115
3.794,-0.100,-0.120
3.796,-0.120,-0.120
3.798,-0.100,-0.115
3.800,-0.070,-0.105
3.802,-0.035,-0.090
3.804,0.020,-0.080
3.806,0.045,-0.070
3.808,0.010,-0.070
3.810,-0.150,-0.080
3.812,-0.265,-0.095
3.814,-0.115,-0.110
3.816,-0.180,-0.125
3.818,-0.150,-0.130
3.820,-0.035,-0.130
3.822,0.035,-0.115
3.824,-0.045,-0.090
3.826,-0.015,-0.065
3.828,-0.075,-0.040
3.830,0.010,-0.020
3.832,-0.045,-0.015
3.834,-0.065,-0.020
3.836,-0.040,-0.040
3.838,-0.115,-0.065
3.840,-0.075,-0.095
3.842,-0.045,-0.115
3.844,-0.075,-0.135
3.846,-0.095,-0.140
3.848,-0.140,-0.140
3.850,-0.115,-0.135
3.852,-0.130,-0.125
3.854,-0.130,-0.120
3.856,-0.120,-0.120
3.858,-0.080,-0.120
3.860,-0.120,-0.125
3.862,-0.070,-0.120
3.864,-0.030,-0.115
3.866,-0.065,-0.090
3.868,-0.040,-0.060
3.870,-0.020,-0.010
3.872,0.040,0.050
3.874,0.010,0.125
3.876,0.240,0.200
3.878,0.415,0.280
3.880,0.380,0.360
3.882,0.450,0.440
3.884,0.545,0.515
3.886,0.710,0.590
3.888,0.705,0.650
3.890,0.760,0.695
3.892,0.755,0.715
3.894,0.700,0.705
3.896,0.690,0.655
3.898,0.635,0.575
3.900,0.455,0.465
3.902,0.345,0.330
3.904,0.185,0.190
3.906,0.115,0.060
3.908,-0.095,-0.055
3.910,-0.205,-0.135
3.912,-0.280,-0.180
3.914,-0.270,-0.195
3.916,-0.090,-0.180
3.918,-0.040,-0.145
3.920,-0.055,-0.110
3.922,-0.065,-0.075
3.924,-0.015,-0.050
3.926,-0.030,-0.040
3.928,-0.045,-0.040
3.930,-0.040,-0.045
3.932,-0.095,-0.050
3.934,-0.070,-0.055
3.936,-0.050,-0.050
3.938,-0.025,-0.045
3.940,0.045,-0.035
3.942,0.160,-0.030
3.944,0.060,-0.025
3.946,-0.055,-0.030
3.948,-0.120,-0.040
3.950,-0.120,-0.055
3.952,-0.070,-0.065
3.954,-0.095,-0.075
3.956,-0.115,-0.080
3.958,-0.090,-0.075
3.960,0.025,-0.065
3.962,0.175,-0.055
3.964,0.060,-0.040
3.966,-0.135,-0.035
3.968,-0.060,-0.030
3.970,-0.035,-0.035
3.972,-0.100,-0.035
3.974,-0.080,-0.040
3.976,-0.025,-0.045
3.978,0.020,-0.040
3.980,0.065,-0.035
3.982,0.105,-0.020
3.984,0.085,-0.010
3.986,0.105,0.005
3.988,0.010,0.020
3.990,-0.025,0.025
3.992,-0.080,0.030
3.994,-0.055,0.025
3.996,0.035,0.015
3.998,0.085,0.005
4.000,0.085,-0.005
4.002,0.100,-0.015
4.004,0.040,-0.025
4.006,-0.010,-0.025
4.008,-0.060,-0.025
4.010,-0.070,-0.025
4.012,-0.080,-0.020
4.014,-0.045,-0.015
4.016,0.030,-0.015
4.018,0.055,-0.020
4.020,0.045,-0.025
4.022,0.065,-0.030
4.024,0.005,-0.040
4.026,-0.045,-0.050
4.028,-0.090,-0.050
4.030,-0.180,-0.045
4.032,-0.090,-0.035
4.034,-0.105,-0.015
4.036,0.025,0.015
4.038,0.240,0.045
4.040,0.260,0.075
4.042,0.170,0.100
4.044,0.140,0.115
4.046,0.130,0.120
4.048,0.095,0.115
4.050,0.035,0.100
4.052,0.015,0.085
4.054,0.060,0.070
4.056,0.070,0.060
4.058,0.095,0.055
4.060,0.145,0.065
4.062,0.185,0.080
4.064,0.200,0.100
4.066,0.165,0.120
4.068,0.105,0.140
4.070,0.145,0.155
4.072,0.140,0.165
4.074,0.130,0.165
4.076,0.150,0.165
4.078,0.210,0.155
4.080,0.245,0.150
4.082,0.205,0.145
4.084,0.170,0.145
4.086,0.200,0.150
4.088,0.155,0.165
4.090,0.175,0.180
4.092,0.175,0.195
4.094,0.190,0.215
4.096,0.190,0.230
4.098,0.205,0.245
4.100,0.370,0.250
4.102,0.355,0.250
4.104,0.330,0.245
4.106,0.245,0.235
4.108,0.125,0.225
4.110,0.160,0.210
4.112,0.155,0.200
4.114,0.250,0.190
4.116,0.195,0.190
4.118,0.265,0.195
4.120,0.290,0.205
4.122,0.280,0.210
4.124,0.290,0.220
4.126,0.220,0.225
4.128,0.170,0.220
4.130,0.105,0.210
4.132,0.190,0.190
4.134,0.160,0.170
4.136,0.220,0.150
4.138,0.205,0.135
4.140,0.145,0.120
4.142,0.135,0.115
4.144,0.255,0.115
4.146,0.145,0.110
4.148,0.065,0.110
4.150,0.030,0.100
4.152,0.015,0.090
4.154,0.060,0.070
4.156,0.125,0.050
4.158,0.140,0.030
4.160,0.070,0.010
4.162,0.055,-0.005
4.164,0.045,-0.010
4.166,-0.005,-0.015
4.168,0.020,-0.010
4.170,-0.045,-0.005
4.172,-0.115,-0.005
4.174,-0.030,-0.005
4.176,0.065,-0.015
4.178,0.105,-0.025
4.180,0.040,-0.035
4.182,-0.060,-0.050
4.184,-0.080,-0.060
4.186,-0.090,-0.070
4.188,0.000,-0.075
4.190,0.000,-0.080
4.192,-0.100,-0.080
4.194,-0.090,-0.080
4.196,-0.060,-0.075
4.198,-0.110,-0.070
4.200,0.000,-0.065
4.202,0.075,-0.055
4.204,0.010,-0.045
4.206,-0.045,-0.035
4.208,-0.055,-0.030
4.210,-0.050,-0.025
4.212,-0.050,-0.025
4.214,-0.030,-0.035
4.216,0.015,-0.045
4.218,0.025,-0.055
4.220,-0.080,-0.065
4.222,-0.085,-0.070
4.224,-0.005,-0.070
4.226,-0.055,-0.065
4.228,-0.095,-0.055
4.230,-0.065,-0.040
4.232,-0.010,-0.030
4.234,0.000,-0.030
4.236,-0.010,-0.035
4.238,-0.015,-0.050
4.240,-0.040,-0.070
4.242,-0.075,-0.090
4.244,-0.040,-0.110
4.246,-0.120,-0.120
4.248,-0.250,-0.125
4.250,-0.290,-0.120
4.252,0.015,-0.105
4.254,-0.040,-0.090
4.256,-0.060,-0.070
4.258,0.060,-0.060
4.260,0.065,-0.050
4.262,-0.025,-0.045
4.264,-0.035,-0.045
4.266,-0.045,-0.045
4.268,-0.120,-0.045
4.270,-0.055,-0.045
4.272,-0.005,-0.045
4.274,-0.010,-0.045
4.276,0.000,-0.045
4.278,0.040,-0.050
4.280,0.095,-0.055
4.282,-0.035,-0.070
4.284,-0.105,-0.080
4.286,-0.175,-0.090
4.288,-0.180,-0.090
4.290,-0.185,-0.085
4.292,0.000,-0.070
4.294,0.035,-0.050
4.296,0.025,-0.030
4.298,0.025,-0.010
4.300,0.045,0.010
4.302,0.115,0.015
4.304,0.060,0.015
4.306,-0.050,0.000
4.308,-0.095,-0.020
4.310,-0.120,-0.050
4.312,-0.095,-0.075
4.314,-0.015,-0.100
4.316,-0.025,-0.115
4.318,-0.055,-0.120
4.320,-0.120,-0.115
4.322,-0.095,-0.105
4.324,-0.045,-0.085
4.326,-0.110,-0.070
4.328,0.000,-0.055
4.330,-0.095,-0.045
4.332,-0.025,-0.040
4.334,-0.010,-0.045
4.336,-0.035,-0.055
4.338,0.000,-0.070
4.340,-0.060,-0.085
4.342,-0.105,-0.095
4.344,-0.050,-0.100
4.346,-0.040,-0.100
4.348,-0.155,-0.090
4.350,-0.130,-0.080
4.352,-0.030,-0.065
4.354,-0.015,-0.050
4.356,0.095,-0.040
4.358,0.005,-0.035
4.360,-0.070,-0.030
4.362,-0.010,-0.035
4.364,-0.050,-0.040
4.366,-0.055,-0.045
4.368,-0.080,-0.050
4.370,-0.095,-0.055
4.372,-0.020,-0.055
4.374,-0.045,-0.060
4.376,-0.020,-0.060
4.378,-0.005,-0.060
4.380,0.060,-0.065
4.382,0.040,-0.070
4.384,-0.020,-0.080
4.386,-0.110,-0.090
4.388,-0.345,-0.100
4.390,-0.340,-0.105
4.392,0.050,-0.110
4.394,0.065,-0.110
4.396,-0.050,-0.105
4.398,-0.060,-0.100
4.400,-0.045,-0.090
4.402,-0.020,-0.085
4.404,-0.060,-0.075
4.406,-0.085,-0.070
4.408,-0.060,-0.065
4.410,-0.080,-0.060
4.412,-0.055,-0.055
4.414,-0.010,-0.050
4.416,0.045,-0.045
4.418,0.045,-0.045
4.420,-0.015,-0.040
4.422,-0.040,-0.045
4.424,-0.025,-0.045
4.426,-0.055,-0.055
4.428,-0.120,-0.065
4.430,-0.075,-0.075
4.432,-0.045,-0.080
4.434,-0.045,-0.085
4.436,-0.100,-0.085
4.438,-0.035,-0.075
4.440,0.040,-0.065
4.442,0.070,-0.045
4.444,-0.020,-0.030
4.446,-0.070,-0.015
4.448,-0.130,-0.010
4.450,-0.010,-0.005
4.452,0.055,-0.010
4.454,0.005,-0.015
4.456,0.000,-0.025
4.458,0.025,-0.030
4.460,0.070,-0.030
4.462,0.045,-0.020
4.464,0.005,-0.010
4.466,0.040,0.010
4.468,0.020,0.025
4.470,-0.055,0.030
4.472,-0.045,0.030
4.474,0.090,0.015
4.476,0.100,-0.005
4.478,0.045,-0.040
4.480,-0.080,-0.075
4.482,-0.085,-0.110
4.484,-0.075,-0.140
4.486,-0.210,-0.155
4.488,-0.225,-0.155
4.490,-0.180,-0.145
4.492,-0.045,-0.125
4.494,0.060,-0.100
4.496,-0.065,-0.070
4.498,0.020,-0.050
4.500,0.000,-0.035
4.502,-0.045,-0.030
4.504,-0.080,-0.035
4.506,-0.060,-0.045
4.508,-0.125,-0.065
4.510,-0.115,-0.085
4.512,0.000,-0.105
4.514,-0.035,-0.120
4.516,-0.110,-0.130
4.518,-0.105,-0.135
4.520,-0.095,-0.130
4.522,-0.075,-0.120
4.524,-0.080,-0.105
4.526,-0.105,-0.090
4.528,-0.120,-0.080
4.530,-0.070,-0.070
4.532,-0.085,-0.070
4.534,0.010,-0.080
4.536,-0.065,-0.090
4.538,-0.050,-0.105
4.540,-0.020,-0.120
4.542,-0.055,-0.130
4.544,-0.175,-0.130
4.546,-0.205,-0.130
4.548,-0.145,-0.120
4.550,-0.110,-0.110
4.552,-0.045,-0.100
4.554,-0.045,-0.095
4.556,0.015,-0.090
4.558,0.035,-0.090
4.560,0.010,-0.090
4.562,-0.145,-0.095
4.564,-0.230,-0.100
4.566,-0.300,-0.105
4.568,-0.090,-0.105
4.570,0.045,-0.105
4.572,-0.055,-0.105
4.574,-0.075,-0.105
4.576,-0.060,-0.100
4.578,-0.050,-0.100
4.580,-0.045,-0.095
4.582,-0.025,-0.080
4.584,-0.135,-0.055
4.586,-0.070,-0.015
4.588,-0.020,0.045
4.590,0.215,0.120
4.592,0.285,0.215
4.594,0.345,0.315
4.596,0.500,0.420
4.598,0.625,0.515
4.600,0.685,0.600
4.602,0.730,0.660
4.604,0.685,0.690
4.606,0.680,0.695
4.608,0.665,0.665
4.610,0.650,0.605
4.612,0.505,0.520
4.614,0.345,0.415
4.616,0.325,0.305
4.618,0.345,0.190
4.620,0.160,0.080
4.622,-0.020,-0.015
4.624,-0.145,-0.090
4.626,-0.200,-0.140
4.628,-0.245,-0.170
4.630,-0.325,-0.170
4.632,-0.210,-0.155
4.634,-0.015,-0.130
4.636,0.050,-0.095
4.638,0.070,-0.060
4.640,0.055,-0.035
4.642,-0.035,-0.015
4.644,-0.045,-0.010
4.646,-0.050,-0.015
4.648,0.000,-0.030
4.650,-0.055,-0.045
4.652,-0.100,-0.060
4.654,-0.155,-0.070
4.656,0.015,-0.075
4.658,0.090,-0.070
4.660,0.065,-0.060
4.662,-0.045,-0.050
4.664,-0.105,-0.040
4.666,-0.090,-0.030
4.668,-0.075,-0.030
4.670,-0.040,-0.030
4.672,0.005,-0.035
4.674,0.085,-0.045
4.676,0.010,-0.050
4.678,-0.010,-0.055
4.680,-0.035,-0.055
4.682,-0.040,-0.050
4.684,0.000,-0.040
4.686,-0.075,-0.030
4.688,-0.090,-0.025
4.690,-0.015,-0.020
4.692,0.005,-0.020
4.694,-0.010,-0.020
4.696,0.040,-0.030
4.698,0.060,-0.035
4.700,0.035,-0.040
4.702,-0.015,-0.045
4.704,-0.085,-0.045
4.706,-0.095,-0.045
4.708,-0.140,-0.040
4.710,-0.065,-0.035
4.712,0.040,-0.035
4.714,0.030,-0.030
4.716,0.070,-0.030
4.718,0.110,-0.025
4.720,0.095,-0.020
4.722,0.020,-0.010
4.724,-0.095,0.000
4.726,-0.105,0.010
4.728,-0.085,0.025
4.730,0.110,0.035
4.732,0.100,0.040
4.734,0.115,0.045
4.736,0.125,0.045
4.738,0.105,0.040
4.740,0.065,0.035
4.742,-0.030,0.030
4.744,-0.080,0.030
4.746,-0.045,0.030
4.748,0.030,0.030
4.750,0.095,0.030
4.752,0.150,0.035
4.754,0.115,0.035
4.756,0.080,0.035
4.758,0.090,0.035
4.760,0.050,0.030
4.762,-0.015,0.030
4.764,-0.045,0.035
4.766,-0.015,0.045
4.768,0.050,0.055
4.770,0.070,0.070
4.772,0.225,0.090
4.774,0.235,0.105
4.776,0.155,0.120
4.778,0.175,0.130
4.780,0.115,0.135
4.782,0.070,0.135
4.784,0.130,0.135
4.786,0.135,0.130
4.788,0.070,0.130
4.790,0.125,0.130
4.792,0.225,0.130
4.794,0.265,0.135
4.796,0.240,0.145
4.798,0.190,0.160
4.800,0.195,0.170
4.802,0.110,0.180
4.804,0.095,0.190
4.806,0.135,0.200
4.808,0.240,0.205
4.810,0.305,0.210
4.812,0.285,0.215
4.814,0.340,0.220
4.816,0.340,0.220
4.818,0.195,0.220
4.820,0.195,0.220
4.822,0.220,0.220
4.824,0.165,0.220
4.826,0.100,0.215
4.828,0.215,0.215
4.830,0.325,0.210
4.832,0.300,0.210
4.834,0.305,0.210
4.836,0.165,0.205
4.838,0.245,0.205
4.840,0.220,0.200
4.842,0.225,0.195
4.844,0.145,0.185
4.846,0.095,0.175
4.848,0.160,0.160
4.850,0.180,0.145
4.852,0.175,0.130
4.854,0.190,0.115
4.856,0.125,0.100
4.858,0.140,0.090
4.860,0.145,0.085
4.862,0.055,0.080
4.864,-0.005,0.075
4.866,0.005,0.075
4.868,0.095,0.070
4.870,0.125,0.065
4.872,0.115,0.055
4.874,0.115,0.045
4.876,0.115,0.030
4.878,0.040,0.015
4.880,-0.045,0.005
4.882,-0.045,-0.005
4.884,0.030,-0.010
4.886,-0.065,-0.010
4.888,-0.015,-0.010
4.890,0.035,-0.010
4.892,0.110,-0.010
4.894,0.075,-0.010
4.896,0.035,-0.015
4.898,0.010,-0.025
4.900,-0.115,-0.030
4.902,-0.115,-0.040
4.904,-0.085,-0.045
4.906,0.045,-0.045
4.908,0.000,-0.040
4.910,-0.010,-0.040
4.912,0.005,-0.040
4.914,0.065,-0.040
4.916,-0.005,-0.050
4.918,-0.110,-0.060
4.920,-0.145,-0.075
4.922,-0.135,-0.095
4.924,-0.130,-0.105
4.926,-0.130,-0.115
4.928,-0.070,-0.110
4.930,-0.025,-0.100
4.932,0.010,-0.085
4.934,-0.035,-0.070
4.936,-0.010,-0.055
4.938,-0.010,-0.040
4.940,-0.020,-0.035
4.942,0.010,-0.035
4.944,-0.105,-0.040
4.946,-0.060,-0.050
4.948,-0.070,-0.050
4.950,-0.035,-0.055
4.952,0.070,-0.045
4.954,-0.065,-0.040
4.956,0.055,-0.025
4.958,0.095,-0.015
4.960,0.015,-0.015
4.962,-0.090,-0.015
4.964,-0.075,-0.025
4.966,-0.090,-0.040
4.968,-0.095,-0.055
4.970,-0.040,-0.065
4.972,-0.025,-0.075
4.974,0.010,-0.075
4.976,0.045,-0.070
4.978,0.000,-0.065
4.980,-0.095,-0.060
4.982,-0.100,-0.060
4.984,-0.135,-0.065
4.986,-0.120,-0.075
4.988,-0.105,-0.090
4.990,-0.035,-0.100
4.992,-0.055,-0.110
4.994,-0.080,-0.115
4.996,-0.020,-0.105
4.998,-0.075,-0.090
5.000,-0.130,-0.070
5.002,-0.050,-0.045
5.004,-0.060,-0.025
5.006,-0.095,-0.015
5.008,-0.085,-0.010
5.010,0.050,-0.015
5.012,0.100,-0.030
5.014,0.030,-0.040
5.016,0.015,-0.055
5.018,0.010,-0.065
5.020,-0.140,-0.065
5.022,-0.145,-0.060
5.024,-0.095,-0.050
5.026,-0.005,-0.040
5.028,0.045,-0.025
5.030,0.070,-0.015
5.032,0.020,-0.005
5.034,-0.020,-0.005
5.036,0.020,-0.010
5.038,0.005,-0.015
5.040,-0.030,-0.025
5.042,-0.055,-0.035
5.044,-0.070,-0.040
5.046,-0.075,-0.050
5.048,-0.075,-0.055
5.050,-0.095,-0.055
5.052,-0.085,-0.060
5.054,0.040,-0.060
5.056,0.030,-0.060
5.058,-0.045,-0.060
5.060,-0.100,-0.060
5.062,-0.095,-0.065
5.064,-0.065,-0.070
5.066,-0.075,-0.070
5.068,-0.105,-0.075
5.070,-0.030,-0.070
5.072,0.025,-0.070
5.074,-0.060,-0.060
5.076,-0.080,-0.055
5.078,0.005,-0.045
5.080,0.020,-0.040
5.082,-0.065,-0.035
5.084,-0.085,-0.040
5.086,-0.040,-0.045
5.088,-0.080,-0.055
5.090,-0.025,-0.070
5.092,-0.070,-0.080
5.094,-0.030,-0.090
5.096,-0.020,-0.095
5.098,-0.065,-0.095
5.100,-0.085,-0.090
5.102,-0.075,-0.080
5.104,-0.155,-0.070
5.106,-0.065,-0.065
5.108,-0.015,-0.060
5.110,0.005,-0.055
5.112,0.030,-0.060
5.114,-0.080,-0.060
5.116,-0.100,-0.065
5.118,-0.060,-0.065
5.120,-0.090,-0.065
5.122,-0.040,-0.060
5.124,-0.025,-0.055
5.126,-0.045,-0.045
5.128,0.005,-0.040
5.130,-0.015,-0.035
5.132,0.005,-0.030
5.134,-0.035,-0.035
5.136,-0.055,-0.035
5.138,-0.030,-0.045
5.140,-0.050,-0.050
5.142,-0.085,-0.055
5.144,-0.095,-0.060
5.146,0.010,-0.065
5.148,-0.095,-0.065
5.150,-0.165,-0.065
5.152,-0.005,-0.060
5.154,0.075,-0.055
5.156,0.010,-0.050
5.158,-0.050,-0.045
5.160,-0.040,-0.040
5.162,-0.085,-0.035
5.164,-0.095,-0.030
5.166,-0.085,-0.025
5.168,-0.065,-0.020
5.170,0.065,-0.015
5.172,0.125,-0.010
5.174,0.150,-0.005
5.176,0.080,0.000
5.178,-0.080,0.000
5.180,-0.070,0.000
5.182,-0.030,0.000
5.184,-0.030,-0.010
5.186,-0.030,-0.020
5.188,-0.025,-0.030
5.190,0.045,-0.040
5.192,-0.030,-0.050
5.194,-0.025,-0.060
5.196,-0.030,-0.060
5.198,-0.030,-0.055
5.200,-0.075,-0.050
5.202,-0.110,-0.040
5.204,-0.070,-0.035
5.206,-0.025,-0.035
5.208,0.035,-0.040
5.210,0.010,-0.050
5.212,-0.060,-0.065
5.214,-0.020,-0.080
5.216,-0.025,-0.100
5.218,-0.120,-0.110
5.220,-0.170,-0.115
5.222,-0.210,-0.115
5.224,-0.195,-0.105
5.226,-0.090,-0.095
5.228,-0.040,-0.080
5.230,0.000,-0.070
5.232,0.010,-0.065
5.234,-0.035,-0.060
5.236,-0.050,-0.065
5.238,-0.090,-0.070
5.240,-0.115,-0.080
5.242,-0.120,-0.085
5.244,-0.145,-0.085
5.246,-0.130,-0.085
5.248,-0.085,-0.085
5.250,0.045,-0.080
5.252,0.015,-0.075
5.254,-0.050,-0.075
5.256,-0.095,-0.075
5.258,-0.075,-0.080
5.260,-0.180,-0.080
5.262,-0.135,-0.085
5.264,-0.045,-0.080
5.266,-0.070,-0.075
5.268,-0.065,-0.070
5.270,-0.010,-0.060
5.272,0.015,-0.050
5.274,0.050,-0.040
5.276,0.015,-0.040
5.278,-0.080,-0.045
5.280,-0.130,-0.055
5.282,-0.155,-0.070
5.284,-0.140,-0.095
5.286,-0.150,-0.120
5.288,-0.125,-0.140
5.290,-0.075,-0.160
5.292,-0.105,-0.170
5.294,-0.175,-0.170
5.296,-0.095,-0.160
5.298,-0.120,-0.140
5.300,-0.175,-0.105
5.302,-0.150,-0.060
5.304,-0.115,-0.005
5.306,0.110,0.065
5.308,0.245,0.145
5.310,0.275,0.235
5.312,0.425,0.330
5.314,0.475,0.430
5.316,0.535,0.520
5.318,0.630,0.605
5.320,0.705,0.665
5.322,0.710,0.705
5.324,0.700,0.715
5.326,0.675,0.690
5.328,0.705,0.635
5.330,0.620,0.555
5.332,0.470,0.455
5.334,0.300,0.340
5.336,0.280,0.225
5.338,0.115,0.120
5.340,-0.050,0.025
5.342,-0.185,-0.050
5.344,-0.175,-0.100
5.346,-0.200,-0.135
5.348,-0.165,-0.145
5.350,-0.045,-0.145
5.352,-0.055,-0.125
5.354,-0.085,-0.105
5.356,-0.070,-0.075
5.358,-0.045,-0.050
5.360,0.005,-0.035
5.362,-0.055,-0.020
5.364,-0.055,-0.020
5.366,-0.070,-0.030
5.368,-0.025,-0.045
5.370,0.030,-0.065
5.372,0.000,-0.080
5.374,-0.035,-0.095
5.376,-0.120,-0.105
5.378,-0.280,-0.100
5.380,-0.230,-0.090
5.382,-0.015,-0.075
5.384,0.005,-0.055
5.386,-0.020,-0.040
5.388,0.005,-0.030
5.390,0.010,-0.030
5.392,-0.020,-0.035
5.394,-0.035,-0.045
5.396,-0.045,-0.060
5.398,-0.080,-0.070
5.400,-0.145,-0.070
5.402,-0.130,-0.065
5.404,-0.055,-0.055
5.406,0.040,-0.035
5.408,0.050,-0.015
5.410,0.065,0.000
5.412,0.045,0.005
5.414,-0.020,0.005
5.416,-0.055,-0.005
5.418,-0.095,-0.015
5.420,-0.085,-0.035
5.422,-0.045,-0.045
5.424,-0.035,-0.055
5.426,-0.045,-0.055
5.428,0.005,-0.045
5.430,0.105,-0.030
5.432,-0.035,-0.020
5.434,-0.020,-0.005
5.436,0.030,0.000
5.438,-0.055,-0.005
5.440,-0.080,-0.015
5.442,-0.080,-0.025
5.444,-0.065,-0.040
5.446,-0.015,-0.045
5.448,0.005,-0.045
5.450,-0.060,-0.035
5.452,-0.105,-0.020
5.454,0.115,0.000
5.456,0.100,0.020
5.458,0.045,0.040
5.460,-0.010,0.055
5.462,-0.045,0.055
5.464,0.010,0.055
5.466,0.065,0.045
5.468,0.075,0.035
5.470,0.090,0.025
5.472,0.095,0.015
5.474,0.020,0.015
5.476,-0.050,0.015
5.478,-0.005,0.020
5.480,0.050,0.030
5.482,-0.055,0.035
5.484,-0.050,0.040
5.486,0.100,0.040
5.488,0.150,0.045
5.490,0.090,0.045
5.492,0.115,0.050
5.494,0.035,0.060
5.496,0.080,0.070
5.498,0.070,0.085
5.500,0.080,0.100
5.502,0.075,0.115
5.504,0.070,0.130
5.506,0.160,0.140
5.508,0.215,0.145
5.510,0.215,0.145
5.512,0.190,0.145
5.514,0.125,0.150
5.516,0.065,0.155
5.518,0.105,0.160
5.520,0.150,0.170
5.522,0.160,0.180
5.524,0.200,0.190
5.526,0.275,0.195
5.528,0.315,0.200
5.530,0.265,0.200
5.532,0.195,0.195
5.534,0.160,0.195
5.536,0.115,0.190
5.538,0.075,0.190
5.540,0.145,0.200
5.542,0.235,0.210
5.544,0.260,0.220
5.546,0.280,0.230
5.548,0.305,0.235
5.550,0.255,0.235
5.552,0.270,0.225
5.554,0.230,0.205
5.556,0.140,0.180
5.558,0.105,0.150
5.560,0.115,0.125
5.562,0.035,0.105
5.564,-0.035,0.100
5.566,0.025,0.100
5.568,0.315,0.115
5.570,0.285,0.130
5.572,0.165,0.145
5.574,0.170,0.155
5.576,0.145,0.155
5.578,0.050,0.145
5.580,0.020,0.125
5.582,0.025,0.090
5.584,0.045,0.060
5.586,0.055,0.025
5.588,0.015,0.000
5.590,-0.010,-0.015
5.592,0.045,-0.025
5.594,-0.020,-0.025
5.596,-0.020,-0.020
5.598,-0.115,-0.020
5.600,-0.040,-0.020
5.602,-0.025,-0.020
5.604,0.040,-0.030
5.606,0.000,-0.040
5.608,-0.050,-0.050
5.610,-0.100,-0.055
5.612,-0.065,-0.060
5.614,-0.015,-0.065
5.616,-0.150,-0.060
5.618,-0.030,-0.055
5.620,-0.025,-0.045
5.622,-0.080,-0.040
5.624,-0.065,-0.040
5.626,0.005,-0.040
5.628,-0.030,-0.040
5.630,-0.010,-0.045
5.632,-0.010,-0.050
5.634,-0.045,-0.055
5.636,-0.050,-0.065
5.638,-0.110,-0.070
5.640,-0.130,-0.075
5.642,-0.185,-0.075
5.644,-0.115,-0.075
5.646,-0.035,-0.075
5.648,0.000,-0.075
5.650,0.050,-0.075
5.652,-0.120,-0.070
5.654,-0.055,-0.070
5.656,-0.055,-0.075
5.658,-0.110,-0.080
5.660,-0.185,-0.085
5.662,-0.135,-0.090
5.664,-0.050,-0.100
5.666,-0.035,-0.100
5.668,-0.205,-0.100
5.670,-0.170,-0.095
5.672,0.075,-0.080
5.674,0.095,-0.070
5.676,-0.055,-0.055
5.678,-0.130,-0.045
5.680,-0.130,-0.035
5.682,-0.105,-0.040
5.684,-0.100,-0.045
5.686,0.030,-0.055
5.688,0.020,-0.070
5.690,-0.110,-0.080
5.692,-0.055,-0.085
5.694,-0.105,-0.080
5.696,-0.080,-0.070
5.698,-0.065,-0.055
5.700,-0.045,-0.040
5.702,-0.015,-0.030
5.704,-0.025,-0.020
5.706,-0.055,-0.025
5.708,-0.015,-0.030
5.710,0.000,-0.045
5.712,-0.030,-0.060
5.714,-0.085,-0.075
5.716,-0.130,-0.080
5.718,-0.125,-0.080
5.720,-0.115,-0.075
5.722,-0.060,-0.060
5.724,-0.015,-0.050
5.726,0.035,-0.040
5.728,0.030,-0.040
5.730,-0.010,-0.040
5.732,-0.110,-0.045
5.734,-0.160,-0.055
5.736,-0.095,-0.060
5.738,-0.105,-0.065
5.740,-0.090,-0.060
5.742,-0.130,-0.055
5.744,-0.080,-0.040
5.746,0.085,-0.030
5.748,0.085,-0.020
5.750,0.060,-0.020
5.752,-0.045,-0.025
5.754,-0.065,-0.040
5.756,-0.045,-0.055
5.758,-0.110,-0.070
5.760,-0.215,-0.080
5.762,-0.295,-0.080
5.764,-0.085,-0.070
5.766,0.110,-0.055
5.768,0.140,-0.035
5.770,0.075,-0.015
5.772,-0.010,0.000
5.774,-0.085,0.005
5.776,-0.050,0.000
5.778,-0.055,-0.010
5.780,-0.130,-0.025
5.782,-0.105,-0.045
5.784,-0.080,-0.060
5.786,-0.030,-0.075
5.788,0.050,-0.080
5.790,-0.005,-0.075
5.792,-0.030,-0.070
5.794,-0.125,-0.065
5.796,-0.105,-0.060
5.798,-0.060,-0.055
5.800,-0.105,-0.055
5.802,-0.180,-0.055
5.804,-0.190,-0.060
5.806,0.040,-0.060
5.808,0.030,-0.060
5.810,-0.005,-0.060
5.812,0.000,-0.060
5.814,-0.070,-0.060
5.816,-0.120,-0.055
5.818,-0.170,-0.060
5.820,-0.200,-0.060
5.822,-0.115,-0.060
5.824,-0.015,-0.065
5.826,0.000,-0.065
5.828,-0.045,-0.065
5.830,-0.035,-0.065
5.832,0.045,-0.060
5.834,0.005,-0.055
5.836,-0.075,-0.050
5.838,-0.135,-0.045
5.840,-0.140,-0.045
5.842,-0.200,-0.045
5.844,-0.125,-0.045
5.846,0.055,-0.050
5.848,0.075,-0.050
5.850,0.045,-0.050
5.852,0.015,-0.050
5.854,-0.040,-0.050
5.856,-0.105,-0.045
5.858,-0.145,-0.045
5.860,-0.155,-0.045
5.862,-0.180,-0.045
5.864,-0.035,-0.050
5.866,-0.005,-0.050
5.868,0.035,-0.060
5.870,-0.020,-0.065
5.872,-0.085,-0.065
5.874,-0.125,-0.070
5.876,-0.020,-0.065
5.878,0.030,-0.060
5.880,-0.205,-0.055
5.882,-0.305,-0.045
5.884,-0.010,-0.035
5.886,0.130,-0.025
5.888,0.090,-0.020
5.890,0.000,-0.020
5.892,-0.050,-0.020
5.894,-0.090,-0.025
5.896,-0.050,-0.025
5.898,-0.080,-0.030
5.900,-0.070,-0.025
5.902,-0.030,-0.020
5.904,-0.035,-0.005
5.906,0.090,0.005
5.908,0.110,0.020
5.910,0.070,0.030
5.912,0.030,0.035
5.914,-0.050,0.035
5.916,-0.100,0.030
5.918,-0.120,0.020
5.920,0.005,0.005
5.922,0.000,-0.005
5.924,0.000,-0.020
5.926,0.020,-0.025
5.928,0.055,-0.030
5.930,0.010,-0.035
5.932,-0.110,-0.040
5.934,-0.135,-0.045
5.936,-0.135,-0.050
5.938,-0.075,-0.065
5.940,-0.060,-0.075
5.942,-0.085,-0.090
5.944,-0.025,-0.095
5.946,0.015,-0.100
5.948,-0.165,-0.095
5.950,-0.265,-0.085
5.952,-0.065,-0.070
5.954,-0.010,-0.060
5.956,-0.045,-0.050
5.958,-0.015,-0.045
5.960,-0.100,-0.045
5.962,-0.110,-0.055
5.964,-0.070,-0.065
5.966,-0.045,-0.075
5.968,0.020,-0.085
5.970,-0.115,-0.085
5.972,-0.160,-0.075
5.974,-0.050,-0.065
5.976,-0.080,-0.055
5.978,-0.115,-0.040
5.980,-0.115,-0.035
5.982,-0.065,-0.040
5.984,-0.055,-0.050
5.986,-0.040,-0.060
5.988,-0.030,-0.080
5.990,-0.035,-0.095
5.992,-0.100,-0.105
5.994,-0.200,-0.110
5.996,-0.240,-0.105
5.998,-0.190,-0.095
6.000,-0.070,-0.085
6.002,-0.025,-0.070
6.004,-0.040,-0.060
6.006,-0.010,-0.050
6.008,-0.050,-0.050
6.010,-0.100,-0.060
6.012,-0.080,-0.070
6.014,-0.010,-0.085
6.016,-0.095,-0.105
6.018,-0.225,-0.120
6.020,-0.290,-0.135
6.022,-0.260,-0.145
6.024,-0.175,-0.150
6.026,-0.020,-0.145
6.028,0.025,-0.140
6.030,-0.090,-0.130
6.032,-0.110,-0.115
6.034,-0.115,-0.095
6.036,-0.185,-0.080
6.038,-0.175,-0.060
6.040,-0.090,-0.035
6.042,0.010,0.000
6.044,0.070,0.040
6.046,0.115,0.100
6.048,0.240,0.170
6.050,0.320,0.255
6.052,0.340,0.355
6.054,0.470,0.455
6.056,0.510,0.550
6.058,0.585,0.635
6.060,0.585,0.695
6.062,0.760,0.725
6.064,0.840,0.725
6.066,0.775,0.690
6.068,0.685,0.625
6.070,0.545,0.535
6.072,0.385,0.435
6.074,0.205,0.325
6.076,0.120,0.215
6.078,0.015,0.110
6.080,-0.050,0.025
6.082,-0.105,-0.050
6.084,-0.090,-0.100
6.086,-0.125,-0.135
6.088,-0.155,-0.150
6.090,-0.145,-0.145
6.092,-0.115,-0.130
6.094,-0.145,-0.100
6.096,-0.050,-0.070
6.098,-0.035,-0.045
6.100,-0.050,-0.020
6.102,-0.090,-0.010
6.104,-0.050,-0.005
6.106,0.035,-0.010
6.108,0.060,-0.020
6.110,-0.015,-0.035
6.112,-0.110,-0.045
6.114,-0.115,-0.055
6.116,-0.095,-0.055
6.118,-0.115,-0.045
6.120,-0.045,-0.040
6.122,0.105,-0.025
6.124,-0.050,-0.020
6.126,-0.105,-0.015
6.128,0.040,-0.020
6.130,-0.025,-0.025
6.132,-0.075,-0.040
6.134,-0.125,-0.055
6.136,-0.160,-0.070
6.138,-0.140,-0.080
6.140,-0.070,-0.085
6.142,-0.085,-0.085
6.144,-0.065,-0.080
6.146,0.035,-0.075
6.148,-0.010,-0.065
6.150,-0.115,-0.055
6.152,-0.100,-0.050
6.154,-0.140,-0.040
6.156,-0.170,-0.040
6.158,-0.095,-0.040
6.160,-0.015,-0.040
6.162,0.030,-0.040
6.164,0.015,-0.045
6.166,-0.060,-0.045
6.168,0.005,-0.045
6.170,-0.105,-0.040
6.172,-0.070,-0.030
6.174,-0.120,-0.015
6.176,-0.110,0.000
6.178,0.040,0.015
6.180,0.065,0.025
6.182,0.025,0.035
6.184,0.095,0.040
6.186,0.085,0.040
6.188,0.010,0.035
6.190,-0.010,0.025
6.192,-0.020,0.010
6.194,-0.070,-0.005
6.196,-0.080,-0.015
6.198,-0.130,-0.020
6.200,-0.045,-0.025
6.202,0.070,-0.025
6.204,0.015,-0.015
6.206,0.040,-0.005
6.208,0.020,0.005
6.210,0.020,0.015
6.212,-0.015,0.030
6.214,0.005,0.035
6.216,-0.070,0.045
6.218,-0.015,0.050
6.220,0.070,0.050
6.222,0.075,0.050
6.224,0.080,0.055
6.226,0.075,0.055
6.228,0.050,0.055
6.230,-0.055,0.060
6.232,-0.020,0.065
6.234,0.060,0.070
6.236,0.035,0.080
6.238,0.100,0.090
6.240,0.125,0.105
6.242,0.160,0.115
6.244,0.150,0.125
6.246,0.125,0.135
6.248,0.085,0.145
6.250,0.065,0.150
6.252,0.170,0.150
6.254,0.125,0.155
6.256,0.180,0.160
6.258,0.110,0.165
6.260,0.160,0.175
6.262,0.230,0.185
6.264,0.210,0.200
6.266,0.130,0.210
6.268,0.245,0.225
6.270,0.230,0.230
6.272,0.205,0.230
6.274,0.185,0.225
6.276,0.130,0.220
6.278,0.165,0.210
6.280,0.190,0.205
6.282,0.230,0.200
6.284,0.225,0.200
6.286,0.170,0.205
6.288,0.215,0.210
6.290,0.240,0.215
6.292,0.175,0.215
6.294,0.135,0.215
6.296,0.105,0.205
6.298,0.175,0.195
6.300,0.120,0.175
6.302,0.205,0.160
6.304,0.215,0.150
6.306,0.105,0.140
6.308,0.140,0.135
6.310,0.145,0.140
6.312,0.090,0.140
6.314,0.055,0.145
6.316,0.100,0.140
6.318,0.075,0.130
6.320,0.070,0.115
6.322,0.065,0.085
6.324,0.095,0.055
6.326,0.135,0.025
6.328,0.035,0.000
6.330,-0.115,-0.020
6.332,-0.120,-0.025
6.334,-0.075,-0.025
6.336,-0.065,-0.020
6.338,0.015,-0.005
6.340,0.015,0.000
6.342,-0.020,0.005
6.344,0.020,0.005
6.346,-0.005,-0.005
6.348,0.015,-0.015
6.350,-0.040,-0.025
6.352,-0.085,-0.035
6.354,-0.210,-0.040
6.356,-0.215,-0.040
6.358,-0.010,-0.030
6.360,0.060,-0.025
6.362,0.010,-0.020
6.364,0.045,-0.020
6.366,0.055,-0.030
6.368,-0.080,-0.045
6.370,-0.135,-0.065
6.372,-0.170,-0.080
6.374,-0.210,-0.100
6.376,-0.175,-0.105
6.378,-0.140,-0.110
6.380,-0.105,-0.100
6.382,-0.020,-0.085
6.384,0.030,-0.070
6.386,-0.015,-0.055
6.388,-0.040,-0.040
6.390,-0.125,-0.035
6.392,-0.105,-0.035
6.394,-0.095,-0.040
6.396,-0.120,-0.050
6.398,-0.110,-0.060
6.400,-0.095,-0.070
6.402,-0.105,-0.075
6.404,-0.035,-0.080
6.406,-0.045,-0.080
6.408,-0.015,-0.075
6.410,-0.180,-0.070
6.412,-0.135,-0.065
6.414,-0.085,-0.065
6.416,-0.020,-0.065
6.418,-0.115,-0.065
6.420,-0.150,-0.065
6.422,-0.070,-0.065
6.424,-0.050,-0.065
6.426,-0.010,-0.065
6.428,0.000,-0.065
6.430,-0.105,-0.065
6.432,-0.105,-0.060
6.434,-0.090,-0.055
6.436,-0.135,-0.055
6.438,-0.065,-0.050
6.440,-0.120,-0.050
6.442,-0.070,-0.050
6.444,-0.025,-0.050
6.446,0.075,-0.055
6.448,-0.050,-0.060
6.450,-0.130,-0.065
6.452,-0.140,-0.075
6.454,-0.135,-0.080
6.456,-0.140,-0.085
6.458,-0.105,-0.090
6.460,-0.075,-0.095
6.462,-0.025,-0.095
6.464,0.035,-0.095
6.466,-0.215,-0.095
6.468,-0.145,-0.090
6.470,-0.110,-0.085
6.472,-0.085,-0.075
6.474,-0.065,-0.065
6.476,-0.105,-0.050
6.478,-0.120,-0.040
6.480,-0.055,-0.025
6.482,0.020,-0.015
6.484,0.030,-0.010
6.486,-0.035,-0.005
6.488,-0.060,-0.005
6.490,-0.105,-0.015
6.492,0.010,-0.020
6.494,-0.150,-0.030
6.496,-0.095,-0.040
6.498,0.005,-0.050
6.500,-0.035,-0.055
6.502,-0.085,-0.055
6.504,-0.040,-0.055
6.506,-0.125,-0.050
6.508,-0.060,-0.045
6.510,-0.075,-0.045
6.512,-0.055,-0.045
6.514,-0.090,-0.050
6.516,-0.050,-0.055
6.518,-0.025,-0.065
6.520,-0.080,-0.080
6.522,-0.160,-0.085
6.524,-0.205,-0.090
6.526,-0.120,-0.090
6.528,-0.095,-0.085
6.530,-0.060,-0.070
6.532,-0.055,-0.055
6.534,-0.090,-0.045
6.536,-0.040,-0.030
6.538,-0.020,-0.025
6.540,-0.015,-0.025
6.542,-0.040,-0.030
6.544,-0.085,-0.040
6.546,-0.150,-0.050
6.548,-0.130,-0.060
6.550,-0.020,-0.065
6.552,-0.115,-0.070
6.554,-0.065,-0.065
6.556,-0.075,-0.055
6.558,-0.095,-0.040
6.560,-0.045,-0.030
6.562,0.010,-0.020
6.564,-0.050,-0.020
6.566,-0.090,-0.025
6.568,-0.135,-0.040
6.570,-0.080,-0.055
6.572,-0.060,-0.075
6.574,-0.020,-0.085
6.576,-0.255,-0.095
6.578,-0.180,-0.090
6.580,-0.030,-0.085
6.582,-0.005,-0.075
6.584,0.030,-0.070
6.586,-0.100,-0.065
6.588,-0.175,-0.065
6.590,-0.160,-0.070
6.592,-0.175,-0.080
6.594,-0.135,-0.095
6.596,-0.075,-0.105
6.598,-0.125,-0.105
6.600,-0.080,-0.100
6.602,-0.045,-0.090
6.604,-0.070,-0.070
6.606,-0.035,-0.050
6.608,-0.040,-0.030
6.610,-0.005,-0.020
6.612,-0.080,-0.020
6.614,-0.160,-0.025
6.616,-0.145,-0.040
6.618,-0.145,-0.060
6.620,-0.075,-0.080
6.622,-0.065,-0.095
6.624,-0.050,-0.100
6.626,-0.060,-0.100
6.628,-0.090,-0.090
6.630,-0.110,-0.070
6.632,-0.145,-0.055
6.634,-0.165,-0.035
6.636,-0.105,-0.020
6.638,-0.025,-0.015
6.640,-0.010,-0.020
6.642,-0.025,-0.035
6.644,-0.045,-0.050
6.646,-0.080,-0.075
6.648,-0.130,-0.095
6.650,-0.130,-0.115
6.652,-0.240,-0.120
6.654,-0.205,-0.125
6.656,-0.195,-0.115
6.658,-0.215,-0.095
6.660,-0.070,-0.075
6.662,0.050,-0.050
6.664,0.030,-0.030
6.666,0.035,-0.015
6.668,-0.055,-0.005
6.670,-0.050,0.000
6.672,-0.100,-0.005
6.674,-0.115,-0.015
6.676,-0.170,-0.025
6.678,-0.165,-0.040
6.680,0.010,-0.045
6.682,0.075,-0.050
6.684,-0.015,-0.055
6.686,-0.015,-0.050
6.688,-0.100,-0.045
6.690,-0.155,-0.040
6.692,-0.120,-0.035
6.694,-0.115,-0.030
6.696,-0.095,-0.030
6.698,-0.055,-0.030
6.700,-0.005,-0.035
6.702,0.020,-0.040
6.704,-0.015,-0.045
6.706,-0.045,-0.050
6.708,-0.130,-0.055
6.710,-0.155,-0.055
6.712,-0.095,-0.050
6.714,-0.080,-0.040
6.716,-0.095,-0.025
6.718,-0.005,-0.010
6.720,0.045,0.000
6.722,0.020,0.010
6.724,0.000,0.015
6.726,-0.005,0.010
6.728,-0.005,-0.005
6.730,-0.075,-0.025
6.732,-0.150,-0.050
6.734,-0.180,-0.070
6.736,-0.190,-0.085
6.738,-0.135,-0.095
6.740,-0.100,-0.090
6.742,-0.030,-0.080
6.744,-0.020,-0.060
6.746,-0.060,-0.040
6.748,-0.115,-0.020
6.750,-0.040,-0.005
6.752,-0.080,0.000
6.754,-0.115,-0.010
6.756,-0.095,-0.020
6.758,-0.040,-0.040
6.760,-0.060,-0.065
6.762,-0.080,-0.080
6.764,-0.090,-0.095
6.766,-0.110,-0.100
6.768,-0.210,-0.105
6.770,-0.155,-0.105
6.772,-0.120,-0.105
6.774,-0.175,-0.105
6.776,-0.135,-0.105
6.778,-0.090,-0.105
6.780,-0.115,-0.105
6.782,-0.135,-0.100
6.784,-0.105,-0.090
6.786,-0.155,-0.075
6.788,-0.065,-0.060
6.790,-0.040,-0.045
6.792,-0.065,-0.030
6.794,-0.095,-0.025
6.796,-0.175,-0.030
6.798,-0.045,-0.045
6.800,-0.070,-0.065
6.802,-0.085,-0.080
6.804,-0.050,-0.100
6.806,-0.135,-0.110
6.808,-0.205,-0.110
6.810,-0.180,-0.105
6.812,-0.170,-0.090
6.814,-0.160,-0.075
6.816,-0.020,-0.065
6.818,-0.045,-0.060
6.820,-0.130,-0.055
6.822,-0.055,-0.060
6.824,0.000,-0.070
6.826,-0.090,-0.075
6.828,-0.180,-0.085
6.830,-0.185,-0.090
6.832,-0.190,-0.090
6.834,-0.190,-0.085
6.836,-0.105,-0.075
6.838,-0.095,-0.055
6.840,0.020,-0.030
6.842,0.065,0.015
6.844,0.090,0.070
6.846,0.110,0.150
6.848,0.225,0.245
6.850,0.240,0.350
6.852,0.395,0.460
6.854,0.535,0.565
6.856,0.645,0.650
6.858,0.760,0.710
6.860,0.885,0.735
6.862,0.775,0.725
6.864,0.695,0.680
6.866,0.490,0.600
6.868,0.380,0.505
6.870,0.300,0.395
6.872,0.155,0.285
6.874,0.110,0.185
6.876,0.085,0.100
6.878,0.010,0.030
6.880,-0.085,-0.020
6.882,-0.070,-0.055
6.884,-0.125,-0.075
6.886,-0.110,-0.085
6.888,-0.080,-0.085
6.890,-0.160,-0.075
6.892,-0.165,-0.060
6.894,-0.110,-0.045
6.896,-0.025,-0.030
6.898,0.080,-0.020
6.900,0.015,-0.015
6.902,-0.075,-0.020
6.904,-0.050,-0.030
6.906,-0.125,-0.045
6.908,-0.145,-0.065
6.910,-0.160,-0.085
6.912,-0.190,-0.095
6.914,-0.265,-0.100
6.916,-0.145,-0.100
6.918,-0.030,-0.085
6.920,-0.010,-0.070
6.922,0.015,-0.050
6.924,-0.020,-0.030
6.926,-0.040,-0.010
6.928,-0.080,0.000
6.930,-0.085,0.010
6.932,-0.130,0.010
6.934,-0.030,0.005
6.936,0.025,0.005
6.938,0.075,-0.005
6.940,0.010,-0.010
6.942,0.000,-0.010
6.944,-0.035,-0.015
6.946,-0.070,-0.015
6.948,-0.050,-0.010
6.950,-0.090,-0.010
6.952,-0.145,-0.010
6.954,-0.165,-0.010
6.956,-0.025,-0.015
6.958,0.000,-0.020
6.960,0.025,-0.025
6.962,0.020,-0.030
6.964,-0.040,-0.035
6.966,-0.140,-0.035
6.968,-0.170,-0.035
6.970,-0.205,-0.035
6.972,-0.140,-0.035
6.974,0.095,-0.030
6.976,0.010,-0.030
6.978,-0.075,-0.030
6.980,-0.025,-0.025
6.982,0.025,-0.025
6.984,0.000,-0.025
6.986,-0.170,-0.020
6.988,-0.125,-0.015
6.990,-0.050,-0.005
6.992,-0.005,0.000
6.994,0.025,0.010
6.996,0.065,0.020
6.998,0.020,0.030
7.000,0.000,0.035
7.002,0.045,0.040
7.004,-0.025,0.045
7.006,-0.075,0.045
7.008,-0.025,0.045
7.010,-0.030,0.045
7.012,-0.020,0.045
7.014,0.030,0.050
7.016,0.075,0.055
7.018,0.090,0.060
7.020,0.070,0.070
7.022,0.110,0.080
7.024,0.005,0.090
7.026,-0.005,0.100
7.028,0.025,0.110
7.030,0.080,0.120
7.032,0.090,0.125
7.034,0.095,0.130
7.036,0.105,0.130
7.038,0.155,0.130
7.040,0.165,0.125
7.042,0.145,0.120
7.044,0.110,0.120
7.046,-0.010,0.120
7.048,-0.050,0.125
7.050,0.040,0.135
7.052,0.045,0.145
7.054,0.225,0.160
7.056,0.275,0.175
7.058,0.190,0.185
7.060,0.190,0.195
7.062,0.165,0.200
7.064,0.205,0.200
7.066,0.180,0.200
7.068,0.150,0.200
7.070,0.075,0.205
7.072,0.095,0.215
7.074,0.185,0.225
7.076,0.270,0.240
7.078,0.300,0.250
7.080,0.255,0.260
7.082,0.220,0.265
7.084,0.270,0.260
7.086,0.190,0.250
7.088,0.230,0.240
7.090,0.090,0.220
7.092,0.020,0.205
7.094,0.180,0.195
7.096,0.185,0.190
7.098,0.180,0.185
7.100,0.235,0.185
7.102,0.200,0.185
7.104,0.180,0.185
7.106,0.105,0.180
7.108,0.115,0.170
7.110,0.040,0.160
7.112,0.065,0.145
7.114,0.085,0.125
7.116,0.055,0.110
7.118,0.120,0.095
7.120,0.100,0.085
7.122,0.110,0.075
7.124,0.055,0.070
7.126,-0.035,0.070
7.128,-0.020,0.065
7.130,-0.010,0.065
7.132,-0.015,0.060
7.134,0.010,0.055
7.136,0.035,0.040
7.138,0.050,0.030
7.140,0.075,0.015
7.142,-0.010,0.000
7.144,-0.135,-0.015
7.146,-0.090,-0.030
7.148,-0.070,-0.040
7.150,-0.185,-0.045
7.152,0.005,-0.045
7.154,-0.100,-0.040
7.156,-0.095,-0.030
7.158,-0.055,-0.025
7.160,0.040,-0.020
7.162,0.000,-0.020
7.164,-0.010,-0.025
7.166,-0.130,-0.035
7.168,-0.160,-0.050
7.170,-0.170,-0.070
7.172,-0.125,-0.085
7.174,-0.120,-0.090
7.176,-0.230,-0.095
7.178,-0.075,-0.085
7.180,0.015,-0.075
7.182,-0.015,-0.055
7.184,-0.085,-0.035
7.186,-0.130,-0.020
7.188,-0.055,-0.010
7.190,-0.110,-0.005
7.192,-0.110,-0.010
7.194,-0.095,-0.020
7.196,-0.040,-0.030
7.198,0.020,-0.040
7.200,0.015,-0.050
7.202,-0.045,-0.055
7.204,-0.110,-0.055
7.206,-0.200,-0.050
7.208,-0.175,-0.045
7.210,-0.090,-0.035
7.212,-0.020,-0.030
7.214,-0.030,-0.025
7.216,-0.065,-0.025
7.218,-0.025,-0.030
7.220,0.030,-0.035
7.222,0.005,-0.040
7.224,-0.080,-0.050
7.226,-0.110,-0.055
7.228,-0.180,-0.065
7.230,-0.165,-0.075
7.232,-0.225,-0.080
7.234,-0.095,-0.085
7.236,-0.080,-0.090
7.238,-0.040,-0.085
7.240,-0.020,-0.080
7.242,-0.045,-0.075
7.244,-0.095,-0.065
7.246,-0.120,-0.055
7.248,-0.120,-0.050
7.250,-0.160,-0.045
7.252,-0.100,-0.045
7.254,-0.120,-0.050
7.256,-0.040,-0.050
7.258,0.030,-0.055
7.260,-0.005,-0.055
7.262,-0.075,-0.050
7.264,-0.130,-0.045
7.266,-0.175,-0.035
7.268,-0.090,-0.025
7.270,-0.090,-0.015
7.272,-0.085,-0.010
7.274,0.050,-0.010
7.276,0.015,-0.010
7.278,-0.065,-0.020
7.280,-0.040,-0.025
7.282,-0.070,-0.035
7.284,-0.055,-0.045
7.286,-0.075,-0.050
7.288,-0.135,-0.050
7.290,-0.120,-0.050
7.292,-0.110,-0.050
7.294,-0.070,-0.050
7.296,-0.010,-0.045
7.298,-0.015,-0.045
7.300,-0.060,-0.045
7.302,-0.150,-0.040
7.304,-0.120,-0.040
7.306,-0.050,-0.040
7.308,-0.070,-0.035
7.310,-0.055,-0.035
7.312,-0.060,-0.030
7.314,-0.035,-0.030
7.316,-0.075,-0.025
7.318,-0.075,-0.025
7.320,-0.030,-0.025
7.322,0.000,-0.025
7.324,-0.070,-0.030
7.326,-0.115,-0.030
7.328,-0.095,-0.035
7.330,-0.110,-0.035
7.332,-0.045,-0.035
7.334,0.025,-0.030
7.336,-0.065,-0.025
7.338,-0.110,-0.020
7.340,0.005,-0.015
7.342,0.025,-0.010
7.344,-0.030,-0.005
7.346,-0.085,-0.010
7.348,-0.125,-0.020
7.350,-0.135,-0.035
7.352,-0.170,-0.055
7.354,-0.060,-0.075
7.356,-0.005,-0.090
7.358,-0.120,-0.100
7.360,-0.135,-0.100
7.362,-0.085,-0.095
7.364,-0.090,-0.080
7.366,-0.080,-0.060
7.368,-0.150,-0.045
7.370,-0.155,-0.030
7.372,-0.025,-0.025
7.374,0.065,-0.030
7.376,-0.020,-0.035
7.378,-0.060,-0.045
7.380,-0.125,-0.055
7.382,-0.125,-0.060
7.384,-0.115,-0.060
7.386,-0.050,-0.050
7.388,-0.060,-0.035
7.390,-0.080,-0.020
7.392,-0.060,-0.010
7.394,0.000,0.000
7.396,0.020,0.005
7.398,0.005,-0.005
7.400,-0.065,-0.015
7.402,-0.065,-0.030
7.404,-0.105,-0.045
7.406,-0.130,-0.060
7.408,-0.165,-0.070
7.410,-0.170,-0.070
7.412,-0.100,-0.070
7.414,-0.010,-0.065
7.416,0.045,-0.055
7.418,-0.060,-0.050
7.420,-0.090,-0.050
7.422,-0.075,-0.050
7.424,-0.150,-0.055
7.426,-0.120,-0.065
7.428,-0.120,-0.070
7.430,-0.095,-0.075
7.432,-0.085,-0.075
7.434,-0.155,-0.070
7.436,-0.125,-0.060
7.438,-0.010,-0.050
7.440,0.090,-0.035
7.442,-0.010,-0.025
7.444,-0.060,-0.015
7.446,-0.115,-0.010
7.448,-0.165,-0.015
7.450,-0.165,-0.025
7.452,-0.085,-0.035
7.454,-0.005,-0.045
7.456,0.030,-0.060
7.458,-0.030,-0.065
7.460,-0.070,-0.070
7.462,-0.125,-0.070
7.464,-0.150,-0.065
7.466,-0.080,-0.060
7.468,-0.160,-0.050
7.470,-0.180,-0.045
7.472,-0.030,-0.035
7.474,0.020,-0.035
7.476,-0.045,-0.035
7.478,-0.010,-0.035
7.480,-0.040,-0.040
7.482,-0.030,-0.045
7.484,-0.060,-0.050
7.486,-0.075,-0.055
7.488,-0.155,-0.060
7.490,-0.180,-0.065
7.492,-0.130,-0.065
7.494,-0.025,-0.065
7.496,-0.040,-0.060
7.498,-0.040,-0.050
7.500,-0.060,-0.035
7.502,-0.030,-0.025
7.504,-0.080,-0.010
7.506,-0.050,-0.005
7.508,-0.070,0.000
7.510,0.005,-0.005
7.512,-0.060,-0.010
7.514,-0.020,-0.020
7.516,0.010,-0.025
7.518,0.000,-0.030
7.520,-0.025,-0.025
7.522,-0.130,-0.020
7.524,-0.110,-0.005
7.526,0.030,0.010
7.528,0.000,0.025
7.530,-0.040,0.030
7.532,-0.010,0.035
7.534,0.025,0.025
7.536,0.025,0.010
7.538,0.075,-0.010
7.540,-0.010,-0.030
7.542,-0.155,-0.055
7.544,-0.130,-0.070
7.546,-0.145,-0.080
7.548,-0.130,-0.085
7.550,-0.055,-0.080
7.552,-0.045,-0.070
7.554,-0.090,-0.055
7.556,-0.060,-0.040
7.558,0.060,-0.030
7.560,-0.045,-0.020
7.562,-0.150,-0.015
7.564,-0.045,-0.020
7.566,-0.050,-0.025
7.568,-0.055,-0.035
7.570,-0.115,-0.050
7.572,-0.130,-0.065
7.574,-0.115,-0.075
7.576,-0.065,-0.085
7.578,-0.070,-0.090
7.580,-0.100,-0.090
7.582,-0.065,-0.090
7.584,-0.155,-0.090
7.586,-0.120,-0.090
7.588,-0.155,-0.090
7.590,-0.155,-0.095
7.592,-0.190,-0.100
7.594,-0.105,-0.105
7.596,-0.025,-0.105
7.598,-0.060,-0.105
7.600,-0.140,-0.095
7.602,-0.110,-0.090
7.604,-0.085,-0.075
7.606,-0.075,-0.065
7.608,-0.075,-0.060
7.610,-0.105,-0.060
7.612,-0.055,-0.070
7.614,-0.095,-0.080
7.616,-0.115,-0.095
7.618,-0.155,-0.105
7.620,-0.095,-0.110
7.622,-0.185,-0.110
7.624,-0.105,-0.100
7.626,-0.065,-0.080
7.628,-0.085,-0.065
7.630,-0.095,-0.050
7.632,-0.050,-0.040
7.634,0.030,-0.045
7.636,-0.100,-0.065
7.638,-0.075,-0.095
7.640,-0.050,-0.125
7.642,-0.230,-0.155
7.644,-0.265,-0.175
7.646,-0.250,-0.185
7.648,-0.175,-0.175
7.650,-0.175,-0.150
7.652,-0.145,-0.105
7.654,-0.050,-0.055
7.656,0.045,0.000
7.658,0.145,0.060
7.660,0.135,0.125
7.662,0.145,0.195
7.664,0.235,0.270
7.666,0.310,0.350
7.668,0.370,0.435
7.670,0.500,0.515
7.672,0.705,0.590
7.674,0.750,0.650
7.676,0.765,0.685
7.678,0.715,0.685
7.680,0.650,0.650
7.682,0.520,0.580
7.684,0.370,0.485
7.686,0.290,0.365
7.688,0.200,0.245
7.690,0.095,0.125
7.692,0.025,0.025
7.694,-0.060,-0.055
7.696,-0.180,-0.110
7.698,-0.140,-0.140
7.700,-0.060,-0.155
7.702,-0.200,-0.150
7.704,-0.190,-0.135
7.706,-0.210,-0.115
7.708,-0.105,-0.100
7.710,-0.080,-0.085
7.712,-0.055,-0.075
7.714,0.025,-0.065
7.716,-0.015,-0.060
7.718,-0.070,-0.060
7.720,-0.070,-0.060
7.722,-0.135,-0.060
7.724,-0.115,-0.065
7.726,-0.055,-0.070
7.728,-0.110,-0.070
7.730,-0.125,-0.075
7.732,-0.080,-0.075
7.734,-0.005,-0.070
7.736,0.010,-0.065
7.738,-0.010,-0.060
7.740,-0.050,-0.055
7.742,-0.060,-0.055
7.744,-0.110,-0.055
7.746,-0.165,-0.055
7.748,-0.155,-0.060
7.750,-0.075,-0.060
7.752,-0.075,-0.065
7.754,0.005,-0.065
7.756,0.075,-0.060
7.758,-0.020,-0.055
7.760,-0.045,-0.045
7.762,-0.050,-0.035
7.764,-0.075,-0.030
7.766,-0.055,-0.020
7.768,-0.015,-0.020
7.770,-0.025,-0.020
7.772,0.010,-0.025
7.774,-0.045,-0.030
7.776,-0.015,-0.035
7.778,-0.030,-0.035
7.780,-0.060,-0.030
7.782,-0.015,-0.025
7.784,0.000,-0.015
7.786,-0.015,-0.005
7.788,-0.045,0.000
7.790,-0.080,0.010
7.792,-0.040,0.010
7.794,0.065,0.005
7.796,0.085,0.000
7.798,0.065,-0.005
7.800,-0.010,-0.010
7.802,-0.090,-0.010
7.804,-0.070,-0.010
7.806,-0.020,-0.005
7.808,-0.080,0.000
7.810,-0.070,0.005
7.812,0.100,0.010
7.814,0.095,0.010
7.816,0.095,0.005
7.818,0.060,0.005
7.820,-0.090,0.000
7.822,-0.135,0.000
7.824,-0.060,0.005
7.826,0.010,0.015
7.828,0.060,0.030
7.830,0.130,0.045
7.832,0.135,0.060
7.834,0.130,0.075
7.836,0.145,0.080
7.838,0.055,0.080
7.840,0.070,0.075
7.842,0.045,0.070
7.844,-0.015,0.060
7.846,0.010,0.055
7.848,0.035,0.055
7.850,0.085,0.065
7.852,0.165,0.080
7.854,0.190,0.100
7.856,0.185,0.125
7.858,0.225,0.140
7.860,0.140,0.155
7.862,0.110,0.160
7.864,0.110,0.160
7.866,0.140,0.160
7.868,0.125,0.150
7.870,0.170,0.145
7.872,0.180,0.145
7.874,0.180,0.145
7.876,0.180,0.155
7.878,0.260,0.165
7.880,0.135,0.175
7.882,0.205,0.185
7.884,0.125,0.195
7.886,0.145,0.200
7.888,0.180,0.200
7.890,0.235,0.200
7.892,0.340,0.205
7.894,0.285,0.205
7.896,0.265,0.210
7.898,0.250,0.220
7.900,0.230,0.225
7.902,0.190,0.235
7.904,0.085,0.235
7.906,0.210,0.235
7.908,0.230,0.230
7.910,0.310,0.225
7.912,0.295,0.215
7.914,0.230,0.205
7.916,0.195,0.190
7.918,0.235,0.180
7.920,0.120,0.175
7.922,0.110,0.165
7.924,0.105,0.155
7.926,0.160,0.150
7.928,0.150,0.140
7.930,0.205,0.125
7.932,0.145,0.115
7.934,0.095,0.100
7.936,0.130,0.090
7.938,0.145,0.080
7.940,0.060,0.070
7.942,0.025,0.060
7.944,-0.030,0.050
7.946,-0.050,0.035
7.948,-0.025,0.025
7.950,0.085,0.010
7.952,0.050,-0.005
7.954,-0.015,-0.015
7.956,0.070,-0.025
7.958,0.085,-0.030
7.960,-0.020,-0.030
7.962,-0.125,-0.030
7.964,-0.140,-0.025
7.966,-0.080,-0.025
7.968,0.075,-0.020
7.970,0.065,-0.020
7.972,-0.005,-0.020
7.974,0.030,-0.025
7.976,0.020,-0.025
7.978,0.020,-0.030
7.980,-0.045,-0.030
7.982,-0.115,-0.030
7.984,-0.080,-0.030
7.986,-0.015,-0.035
7.988,-0.015,-0.040
7.990,-0.010,-0.050
7.992,0.005,-0.060
7.994,-0.050,-0.070
7.996,-0.170,-0.075
7.998,-0.030,-0.080
8.000,-0.005,-0.080
8.002,-0.100,-0.075
8.004,-0.080,-0.070
8.006,-0.045,-0.060
8.008,-0.050,-0.050
8.010,0.015,-0.045
8.012,0.030,-0.050
8.014,-0.010,-0.055
8.016,0.000,-0.070
8.018,-0.100,-0.085
8.020,-0.110,-0.095
8.022,-0.150,-0.105
8.024,-0.085,-0.110
8.026,-0.130,-0.105
8.028,-0.170,-0.100
8.030,-0.045,-0.090
8.032,0.030,-0.080
8.034,0.060,-0.070
8.036,0.045,-0.065
8.038,-0.090,-0.060
8.040,-0.075,-0.065
8.042,-0.135,-0.070
8.044,-0.115,-0.075
8.046,-0.135,-0.080
8.048,-0.070,-0.080
8.050,0.035,-0.085
8.052,0.050,-0.085
8.054,-0.020,-0.080
8.056,-0.090,-0.075
8.058,-0.060,-0.070
8.060,-0.040,-0.060
8.062,-0.115,-0.055
8.064,-0.095,-0.050
8.066,-0.070,-0.040
8.068,0.030,-0.040
8.070,0.050,-0.040
8.072,0.055,-0.045
8.074,0.055,-0.050
8.076,0.045,-0.055
8.078,-0.060,-0.060
8.080,-0.165,-0.065
8.082,-0.135,-0.065
8.084,-0.085,-0.060
8.086,0.005,-0.050
8.088,0.075,-0.040
8.090,0.050,-0.035
8.092,0.010,-0.030
8.094,0.010,-0.030
8.096,0.055,-0.040
8.098,-0.055,-0.050
8.100,-0.055,-0.065
8.102,-0.170,-0.080
8.104,-0.130,-0.095
8.106,-0.050,-0.095
8.108,-0.005,-0.095
8.110,0.000,-0.085
8.112,-0.020,-0.070
8.114,0.010,-0.055
8.116,-0.035,-0.040
8.118,-0.110,-0.030
8.120,0.025,-0.030
8.122,-0.025,-0.030
8.124,-0.095,-0.035
8.126,-0.020,-0.040
8.128,0.005,-0.045
8.130,-0.050,-0.050
8.132,0.100,-0.050
8.134,0.020,-0.050
8.136,0.005,-0.055
8.138,0.010,-0.055
8.140,-0.140,-0.060
8.142,-0.145,-0.070
8.144,-0.075,-0.080
8.146,-0.050,-0.090
8.148,-0.100,-0.100
8.150,-0.055,-0.105
8.152,0.010,-0.105
8.154,0.010,-0.100
8.156,0.015,-0.090
8.158,-0.050,-0.075
8.160,-0.060,-0.060
8.162,-0.105,-0.050
8.164,-0.060,-0.040
8.166,-0.060,-0.030
8.168,0.010,-0.030
8.170,0.025,-0.035
8.172,0.045,-0.040
8.174,0.035,-0.050
8.176,0.000,-0.060
8.178,-0.085,-0.075
8.180,-0.105,-0.085
8.182,-0.140,-0.090
8.184,-0.080,-0.095
8.186,-0.120,-0.090
8.188,-0.025,-0.085
8.190,-0.010,-0.075
8.192,0.065,-0.065
8.194,0.075,-0.055
8.196,0.015,-0.045
8.198,-0.020,-0.045
8.200,-0.040,-0.045
8.202,-0.135,-0.055
8.204,-0.135,-0.065
8.206,-0.075,-0.075
8.208,0.025,-0.085
8.210,0.070,-0.090
8.212,0.065,-0.090
8.214,-0.070,-0.085
8.216,-0.075,-0.075
8.218,-0.040,-0.065
8.220,-0.080,-0.055
8.222,-0.100,-0.055
8.224,-0.065,-0.055
8.226,-0.025,-0.065
8.228,0.045,-0.080
8.230,-0.025,-0.090
8.232,-0.010,-0.100
8.234,-0.015,-0.100
8.236,-0.010,-0.095
8.238,-0.075,-0.085
8.240,-0.135,-0.075
8.242,-0.090,-0.060
8.244,-0.015,-0.050
8.246,-0.040,-0.050
8.248,-0.005,-0.055
8.250,0.020,-0.065
8.252,-0.025,-0.080
8.254,-0.100,-0.090
8.256,-0.025,-0.095
8.258,-0.025,-0.095
8.260,-0.030,-0.090
8.262,-0.030,-0.075
8.264,-0.060,-0.055
8.266,-0.020,-0.040
8.268,-0.025,-0.030
8.270,0.035,-0.030
8.272,0.025,-0.040
8.274,0.045,-0.050
8.276,0.055,-0.070
8.278,-0.065,-0.085
8.280,-0.125,-0.100
8.282,-0.085,-0.110
8.284,-0.085,-0.110
8.286,-0.155,-0.110
8.288,-0.150,-0.100
8.290,0.070,-0.090
8.292,0.110,-0.080
8.294,-0.030,-0.075
8.296,-0.095,-0.070
8.298,-0.050,-0.065
8.300,0.000,-0.060
8.302,-0.050,-0.055
8.304,-0.005,-0.050
8.306,0.005,-0.045
8.308,0.055,-0.045
8.310,0.025,-0.045
8.312,-0.015,-0.050
8.314,-0.015,-0.065
8.316,-0.020,-0.080
8.318,-0.035,-0.095
8.320,-0.025,-0.105
8.322,-0.150,-0.110
8.324,-0.145,-0.105
8.326,-0.045,-0.090
8.328,-0.005,-0.070
8.330,0.150,-0.040
8.332,0.090,-0.015
8.334,0.040,0.005
8.336,0.040,0.015
8.338,-0.005,0.015
8.340,0.005,0.005
8.342,-0.005,-0.010
8.344,0.030,-0.025
8.346,0.035,-0.040
8.348,-0.010,-0.050
8.350,0.030,-0.050
8.352,0.075,-0.045
8.354,0.025,-0.040
8.356,-0.040,-0.030
8.358,0.010,-0.025
8.360,-0.020,-0.020
8.362,-0.030,-0.025
8.364,-0.100,-0.035
8.366,0.020,-0.050
8.368,0.075,-0.060
8.370,0.105,-0.070
8.372,0.045,-0.075
8.374,-0.070,-0.070
8.376,-0.045,-0.060
8.378,-0.020,-0.050
8.380,-0.060,-0.045
8.382,-0.090,-0.040
8.384,0.000,-0.040
8.386,0.030,-0.050
8.388,0.035,-0.060
8.390,-0.010,-0.075
8.392,-0.060,-0.090
8.394,0.020,-0.095
8.396,-0.040,-0.100
8.398,-0.125,-0.100
8.400,-0.180,-0.100
8.402,-0.120,-0.095
8.404,-0.010,-0.090
8.406,0.045,-0.090
8.408,0.070,-0.090
8.410,-0.010,-0.090
8.412,-0.020,-0.095
8.414,-0.025,-0.090
8.416,-0.065,-0.090
8.418,-0.075,-0.080
8.420,-0.050,-0.075
8.422,0.005,-0.065
8.424,0.000,-0.060
8.426,0.010,-0.055
8.428,0.000,-0.060
8.430,0.025,-0.070
8.432,-0.025,-0.085
8.434,-0.120,-0.100
8.436,-0.160,-0.115
8.438,-0.060,-0.120
8.440,-0.055,-0.120
8.442,-0.025,-0.110
8.444,-0.090,-0.095
8.446,-0.100,-0.080
8.448,0.080,-0.060
8.450,0.075,-0.045
8.452,0.040,-0.040
8.454,0.010,-0.040
8.456,-0.035,-0.050
8.458,-0.090,-0.065
8.460,-0.115,-0.085
8.462,-0.085,-0.105
8.464,-0.070,-0.120
8.466,-0.035,-0.130
8.468,-0.025,-0.135
8.470,0.020,-0.140
8.472,-0.080,-0.130
8.474,-0.080,-0.120
8.476,-0.065,-0.105
8.478,-0.080,-0.080
8.480,-0.100,-0.050
8.482,0.045,-0.010
8.484,0.125,0.045
8.486,0.225,0.115
8.488,0.315,0.195
8.490,0.365,0.285
8.492,0.480,0.390
8.494,0.575,0.495
8.496,0.665,0.590
8.498,0.785,0.675
8.500,0.775,0.735
8.502,0.790,0.765
8.504,0.810,0.755
8.506,0.740,0.715
8.508,0.715,0.635
8.510,0.645,0.530
8.512,0.545,0.405
8.514,0.345,0.280
8.516,0.160,0.160
8.518,0.020,0.055
8.520,-0.115,-0.015
8.522,-0.125,-0.065
8.524,-0.060,-0.080
8.526,0.060,-0.075
8.528,0.090,-0.060
8.530,0.070,-0.040
8.532,0.040,-0.025
8.534,0.055,-0.020
8.536,0.010,-0.025
8.538,-0.070,-0.035
8.540,-0.120,-0.055
8.542,0.005,-0.070
8.544,-0.070,-0.075
8.546,-0.020,-0.075
8.548,0.135,-0.065
8.550,0.095,-0.045
8.552,0.080,-0.020
8.554,0.115,0.000
8.556,0.050,0.010
8.558,-0.030,0.015
8.560,-0.075,0.010
8.562,-0.065,-0.005
8.564,0.035,-0.025
8.566,0.120,-0.045
8.568,0.110,-0.055
8.570,0.060,-0.065
8.572,0.010,-0.060
8.574,-0.030,-0.055
8.576,0.005,-0.045
8.578,0.005,-0.035
8.580,-0.040,-0.030
8.582,-0.035,-0.025
8.584,0.005,-0.030
8.586,0.025,-0.035
8.588,0.040,-0.040
8.590,0.015,-0.045
8.592,0.005,-0.045
8.594,0.070,-0.040
8.596,0.060,-0.030
8.598,0.050,-0.020
8.600,0.070,-0.010
8.602,-0.040,-0.005
8.604,0.085,0.000
8.606,0.110,-0.005
8.608,0.035,-0.010
8.610,0.055,-0.020
8.612,0.125,-0.025
8.614,-0.015,-0.030
8.616,0.050,-0.030
8.618,0.040,-0.025
8.620,-0.005,-0.020
8.622,0.015,-0.010
8.624,0.100,-0.005
8.626,0.090,0.005
8.628,0.055,0.010
8.630,0.035,0.010
8.632,0.105,0.010
8.634,0.130,0.015
8.636,0.050,0.015
8.638,0.030,0.020
8.640,0.070,0.030
8.642,0.070,0.035
8.644,0.140,0.045
8.646,0.165,0.050
8.648,0.130,0.050
8.650,0.115,0.050
8.652,0.110,0.045
8.654,0.115,0.040
8.656,0.110,0.040
8.658,0.065,0.040
8.660,0.010,0.045
8.662,0.020,0.055
8.664,0.165,0.065
8.666,0.320,0.080
8.668,0.190,0.090
8.670,0.200,0.100
8.672,0.190,0.110
8.674,0.145,0.110
8.676,0.145,0.115
8.678,0.125,0.115
8.680,0.145,0.115
8.682,0.180,0.115
8.684,0.190,0.115
8.686,0.210,0.115
8.688,0.235,0.120
8.690,0.260,0.120
8.692,0.250,0.125
8.694,0.235,0.130
8.696,0.165,0.140
8.698,0.185,0.150
8.700,0.130,0.165
8.702,0.155,0.180
8.704,0.275,0.195
8.706,0.335,0.210
8.708,0.400,0.225
8.710,0.390,0.235
8.712,0.340,0.245
8.714,0.310,0.245
8.716,0.300,0.245
8.718,0.235,0.245
8.720,0.170,0.240
8.722,0.235,0.235
8.724,0.345,0.235
8.726,0.380,0.235
8.728,0.335,0.235
8.730,0.385,0.240
8.732,0.340,0.240
8.734,0.290,0.240
8.736,0.265,0.235
8.738,0.185,0.230
8.740,0.225,0.225
8.742,0.220,0.215
8.744,0.340,0.210
8.746,0.325,0.205
8.748,0.310,0.195
8.750,0.295,0.190
8.752,0.265,0.185
8.754,0.250,0.170
8.756,0.170,0.155
8.758,0.160,0.135
8.760,0.105,0.115
8.762,0.125,0.090
8.764,0.135,0.070
8.766,0.165,0.050
8.768,0.165,0.040
8.770,0.080,0.035
8.772,0.115,0.035
8.774,0.075,0.040
8.776,0.040,0.045
8.778,0.100,0.045
8.780,0.140,0.045
8.782,0.125,0.035
8.784,0.085,0.020
8.786,0.010,0.005
8.788,0.090,-0.005
8.790,0.105,-0.015
8.792,0.070,-0.020
8.794,0.035,-0.020
8.796,0.005,-0.015
8.798,-0.025,-0.015
8.800,-0.040,-0.015
8.802,0.060,-0.020
8.804,0.030,-0.035
8.806,0.055,-0.045
8.808,0.045,-0.060
8.810,-0.005,-0.070
8.812,0.025,-0.070
8.814,0.030,-0.065
8.816,-0.070,-0.050
8.818,-0.035,-0.030
8.820,0.045,-0.015
8.822,0.155,0.000
8.824,0.150,0.010
8.826,0.055,0.005
8.828,0.070,-0.005
8.830,0.075,-0.025
8.832,0.015,-0.040
8.834,0.000,-0.055
8.836,-0.030,-0.060
8.838,-0.005,-0.060
8.840,0.020,-0.055
8.842,0.000,-0.050
8.844,0.055,-0.040
8.846,0.060,-0.035
8.848,0.025,-0.035
8.850,0.015,-0.040
8.852,-0.010,-0.050
8.854,0.005,-0.055
8.856,-0.025,-0.060
8.858,-0.015,-0.060
8.860,-0.095,-0.055
8.862,0.040,-0.045
8.864,0.050,-0.035
8.866,0.110,-0.030
8.868,0.210,-0.030
8.870,0.010,-0.035
8.872,-0.055,-0.045
8.874,-0.040,-0.055
8.876,-0.025,-0.060
8.878,0.005,-0.060
8.880,0.055,-0.055
8.882,0.075,-0.040
8.884,0.055,-0.025
8.886,0.000,-0.010
8.888,0.065,0.005
8.890,0.100,0.005
8.892,0.090,0.005
8.894,0.070,-0.010
8.896,0.015,-0.020
8.898,-0.040,-0.035
8.900,0.005,-0.040
8.902,0.030,-0.040
8.904,-0.010,-0.035
8.906,0.140,-0.020
8.908,0.170,-0.005
8.910,0.085,0.005
8.912,0.050,0.010
8.914,0.000,0.005
8.916,0.020,-0.005
8.918,0.035,-0.025
8.920,0.015,-0.045
8.922,-0.080,-0.060
8.924,-0.025,-0.075
8.926,0.090,-0.075
8.928,0.070,-0.070
8.930,0.025,-0.055
8.932,0.015,-0.040
8.934,0.055,-0.020
8.936,0.065,0.000
8.938,0.030,0.010
8.940,0.055,0.020
8.942,0.105,0.020
8.944,0.110,0.015
8.946,0.110,0.010
8.948,0.075,0.000
8.950,0.085,-0.010
8.952,0.025,-0.015
8.954,0.000,-0.025
8.956,0.010,-0.030
8.958,-0.015,-0.035
8.960,0.005,-0.035
8.962,0.050,-0.035
8.964,0.070,-0.030
8.966,0.080,-0.025
8.968,0.100,-0.020
8.970,0.035,-0.015
8.972,0.115,-0.010
8.974,0.065,-0.005
8.976,-0.035,-0.005
8.978,0.015,-0.005
8.980,0.070,-0.010
8.982,0.040,-0.020
8.984,0.040,-0.030
8.986,0.035,-0.045
8.988,0.060,-0.055
8.990,0.100,-0.065
8.992,-0.020,-0.070
8.994,-0.020,-0.070
8.996,0.040,-0.065
8.998,-0.140,-0.055
9.000,-0.030,-0.045
9.002,0.070,-0.030
9.004,0.150,-0.015
9.006,0.145,-0.005
9.008,0.105,0.005
9.010,0.090,0.010
9.012,0.045,0.005
9.014,-0.020,0.000
9.016,-0.045,-0.010
9.018,0.015,-0.020
9.020,0.045,-0.035
9.022,0.030,-0.050
9.024,0.060,-0.060
9.026,0.085,-0.070
9.028,0.030,-0.075
9.030,0.015,-0.080
9.032,-0.015,-0.075
9.034,-0.040,-0.070
9.036,0.000,-0.065
9.038,0.015,-0.055
9.040,-0.055,-0.045
9.042,0.055,-0.035
9.044,0.115,-0.030
9.046,0.105,-0.025
9.048,0.070,-0.030
9.050,0.005,-0.035
9.052,-0.025,-0.045
9.054,0.020,-0.050
9.056,0.005,-0.060
9.058,-0.105,-0.060
9.060,-0.035,-0.055
9.062,0.100,-0.050
9.064,0.100,-0.040
9.066,0.115,-0.030
9.068,0.040,-0.025
9.070,0.045,-0.025
9.072,0.105,-0.025
9.074,-0.020,-0.030
9.076,-0.100,-0.040
9.078,-0.085,-0.050
9.080,-0.060,-0.055
9.082,0.165,-0.060
9.084,0.080,-0.060
9.086,-0.025,-0.055
9.088,-0.005,-0.050
9.090,0.115,-0.045
9.092,0.010,-0.040
9.094,-0.025,-0.035
9.096,-0.020,-0.035
9.098,0.035,-0.035
9.100,0.070,-0.035
9.102,0.050,-0.035
9.104,0.065,-0.035
9.106,0.075,-0.035
9.108,0.050,-0.035
9.110,0.055,-0.035
9.112,0.000,-0.040
9.114,-0.015,-0.045
9.116,0.005,-0.050
9.118,0.020,-0.055
9.120,-0.020,-0.065
9.122,-0.080,-0.070
9.124,0.040,-0.070
9.126,0.065,-0.070
9.128,0.030,-0.065
9.130,0.025,-0.055
9.132,0.070,-0.050
9.134,0.005,-0.040
9.136,-0.010,-0.035
9.138,-0.010,-0.035
9.140,0.060,-0.030
9.142,0.125,-0.030
9.144,0.030,-0.030
9.146,0.080,-0.030
9.148,0.045,-0.030
9.150,0.040,-0.030
9.152,-0.015,-0.030
9.154,-0.040,-0.030
9.156,0.000,-0.035
9.158,0.115,-0.040
9.160,0.040,-0.050
9.162,-0.010,-0.060
9.164,0.000,-0.065
9.166,0.035,-0.070
9.168,0.000,-0.070
9.170,0.005,-0.065
9.172,0.050,-0.050
9.174,0.040,-0.040
9.176,-0.020,-0.025
9.178,0.060,-0.010
9.180,0.090,0.000
9.182,0.075,0.000
9.184,0.070,0.000
9.186,0.070,-0.005
9.188,0.095,-0.015
9.190,0.080,-0.020
9.192,0.005,-0.030
9.194,-0.020,-0.030
9.196,-0.055,-0.030
9.198,-0.015,-0.025
9.200,0.065,-0.020
9.202,0.125,-0.010
9.204,0.140,0.000
9.206,0.140,0.015
9.208,0.135,0.020
9.210,0.165,0.030
9.212,0.050,0.030
9.214,0.025,0.030
9.216,0.005,0.025
9.218,0.020,0.015
9.220,0.110,0.010
9.222,0.130,0.000
9.224,0.100,-0.005
9.226,0.110,-0.010
9.228,0.070,-0.010
9.230,0.040,-0.010
9.232,0.020,-0.010
9.234,0.055,-0.010
9.236,0.030,-0.015
9.238,0.015,-0.015
9.240,0.040,-0.020
9.242,0.020,-0.030
9.244,0.080,-0.035
9.246,0.050,-0.045
9.248,0.030,-0.050
9.250,0.035,-0.055
9.252,-0.020,-0.060
9.254,-0.080,-0.060
9.256,-0.095,-0.065
9.258,0.000,-0.065
9.260,0.040,-0.065
9.262,0.015,-0.065
9.264,0.025,-0.060
9.266,0.055,-0.055
9.268,0.065,-0.050
9.270,0.040,-0.040
9.272,0.020,-0.035
9.274,-0.025,-0.025
9.276,-0.045,-0.025
9.278,-0.015,-0.030
9.280,0.045,-0.035
9.282,0.100,-0.050
9.284,0.105,-0.065
9.286,0.040,-0.075
9.288,-0.050,-0.090
9.290,-0.080,-0.095
9.292,-0.075,-0.100
9.294,-0.075,-0.100
9.296,-0.070,-0.095
9.298,-0.065,-0.090
9.300,0.025,-0.085
9.302,0.105,-0.080
9.304,-0.025,-0.080
9.306,-0.015,-0.075
9.308,0.035,-0.075
9.310,-0.005,-0.070
9.312,-0.030,-0.065
9.314,0.025,-0.060
9.316,-0.015,-0.055
9.318,-0.055,-0.050
9.320,-0.060,-0.055
9.322,0.020,-0.060
9.324,0.030,-0.080
9.326,0.000,-0.100
9.328,-0.045,-0.125
9.330,-0.050,-0.150
9.332,-0.160,-0.170
9.334,-0.160,-0.180
9.336,-0.140,-0.175
9.338,-0.080,-0.160
9.340,-0.060,-0.130
9.342,-0.135,-0.090
9.344,0.030,-0.040
9.346,0.190,0.015
9.348,0.225,0.080
9.350,0.180,0.145
9.352,0.255,0.220
9.354,0.345,0.300
9.356,0.400,0.390
9.358,0.545,0.480
9.360,0.660,0.570
9.362,0.780,0.655
9.364,0.935,0.725
9.366,0.930,0.770
9.368,0.940,0.790
9.370,0.790,0.775
9.372,0.705,0.720
9.374,0.630,0.635
9.376,0.575,0.520
9.378,0.410,0.390
9.380,0.335,0.255
9.382,0.205,0.130
9.384,0.065,0.020
9.386,-0.090,-0.065
9.388,-0.050,-0.115
9.390,-0.090,-0.145
9.392,-0.070,-0.145
9.394,-0.115,-0.130
9.396,-0.075,-0.110
9.398,-0.040,-0.085
9.400,0.000,-0.065
9.402,0.105,-0.050
9.404,0.080,-0.040
9.406,0.045,-0.040
9.408,0.005,-0.040
9.410,0.010,-0.040
9.412,-0.070,-0.045
9.414,-0.120,-0.045
9.416,-0.010,-0.045
9.418,0.105,-0.050
9.420,0.085,-0.050
9.422,0.040,-0.060
9.424,0.000,-0.065
9.426,-0.020,-0.070
9.428,0.000,-0.075
9.430,-0.070,-0.075
9.432,-0.090,-0.070
9.434,-0.015,-0.065
9.436,-0.015,-0.055
9.438,-0.010,-0.045
9.440,0.065,-0.035
9.442,0.035,-0.035
9.444,0.060,-0.040
9.446,0.115,-0.045
9.448,0.055,-0.050
9.450,-0.060,-0.055
9.452,-0.065,-0.055
9.454,-0.035,-0.055
9.456,-0.020,-0.045
9.458,-0.005,-0.035
9.460,0.095,-0.025
9.462,0.095,-0.020
9.464,0.115,-0.015
9.466,0.045,-0.020
9.468,0.000,-0.030
9.470,0.010,-0.045
9.472,0.005,-0.060
9.474,-0.075,-0.075
9.476,-0.120,-0.080
9.478,-0.125,-0.085
9.480,-0.035,-0.080
9.482,0.100,-0.070
9.484,0.210,-0.060
9.486,0.080,-0.045
9.488,-0.025,-0.030
9.490,-0.040,-0.020
9.492,-0.060,-0.010
9.494,0.005,0.000
9.496,0.070,0.010
9.498,0.190,0.020
9.500,0.195,0.030
9.502,0.055,0.035
9.504,0.140,0.040
9.506,0.110,0.045
9.508,0.000,0.040
9.510,0.055,0.035
9.512,0.075,0.025
9.514,0.055,0.010
9.516,0.025,0.005
9.518,0.075,-0.005
9.520,0.135,-0.005
9.522,0.150,0.000
9.524,0.065,0.015
9.526,0.060,0.030
9.528,0.075,0.045
9.530,0.130,0.060
9.532,0.155,0.070
9.534,0.075,0.075
9.536,0.095,0.070
9.538,0.185,0.065
9.540,0.125,0.060
9.542,0.240,0.055
9.544,0.070,0.050
9.546,0.055,0.055
9.548,0.115,0.060
9.550,0.075,0.075
9.552,0.145,0.095
9.554,0.160,0.120
9.556,0.225,0.145
9.558,0.250,0.165
9.560,0.275,0.180
9.562,0.320,0.190
9.564,0.290,0.195
9.566,0.240,0.195
9.568,0.170,0.190
9.570,0.185,0.185
9.572,0.165,0.185
9.574,0.155,0.190
9.576,0.255,0.200
9.578,0.320,0.210
9.580,0.405,0.230
9.582,0.435,0.245
9.584,0.355,0.260
9.586,0.320,0.265
9.588,0.285,0.265
9.590,0.235,0.255
9.592,0.205,0.235
9.594,0.240,0.215
9.596,0.190,0.190
9.598,0.160,0.175
9.600,0.305,0.165
9.602,0.340,0.170
9.604,0.285,0.180
9.606,0.325,0.195
9.608,0.290,0.210
9.610,0.240,0.220
9.612,0.220,0.225
9.614,0.170,0.210
9.616,0.140,0.190
9.618,0.200,0.160
9.620,0.305,0.125
9.622,0.225,0.095
9.624,0.230,0.070
9.626,0.215,0.060
9.628,0.015,0.060
9.630,0.000,0.065
9.632,0.100,0.075
9.634,0.050,0.080
9.636,0.055,0.085
9.638,0.170,0.075
9.640,0.205,0.055
9.642,0.165,0.030
9.644,0.050,0.005
9.646,0.035,-0.015
9.648,0.015,-0.030
9.650,-0.020,-0.035
9.652,-0.005,-0.030
9.654,0.005,-0.025
9.656,-0.030,-0.015
9.658,-0.025,-0.010
9.660,0.145,-0.015
9.662,0.110,-0.030
9.664,0.045,-0.045
9.666,-0.095,-0.070
9.668,-0.100,-0.090
9.670,-0.040,-0.105
9.672,-0.035,-0.110
9.674,-0.125,-0.105
9.676,-0.045,-0.090
9.678,0.015,-0.075
9.680,0.005,-0.060
9.682,0.030,-0.045
9.684,0.120,-0.035
9.686,0.040,-0.035
9.688,-0.040,-0.040
9.690,-0.085,-0.050
9.692,-0.145,-0.060
9.694,-0.105,-0.075
9.696,0.000,-0.080
9.698,0.085,-0.085
9.700,0.065,-0.085
9.702,0.015,-0.080
9.704,-0.060,-0.075
9.706,-0.060,-0.070
9.708,-0.055,-0.065
9.710,-0.045,-0.065
9.712,-0.015,-0.065
9.714,-0.045,-0.065
9.716,-0.020,-0.070
9.718,-0.030,-0.075
9.720,-0.040,-0.085
9.722,0.020,-0.090
9.724,0.025,-0.090
9.726,-0.070,-0.090
9.728,-0.170,-0.085
9.730,-0.055,-0.080
9.732,-0.075,-0.070
9.734,0.030,-0.060
9.736,0.050,-0.050
9.738,0.050,-0.045
9.740,0.015,-0.045
9.742,-0.005,-0.050
9.744,-0.040,-0.060
9.746,-0.030,-0.075
9.748,-0.060,-0.090
9.750,-0.130,-0.105
9.752,-0.075,-0.110
9.754,-0.080,-0.115
9.756,-0.085,-0.110
9.758,-0.030,-0.105
9.760,-0.080,-0.095
9.762,0.000,-0.085
9.764,0.055,-0.080
9.766,-0.010,-0.075
9.768,-0.090,-0.070
9.770,-0.095,-0.075
9.772,-0.040,-0.075
9.774,-0.015,-0.075
9.776,0.035,-0.070
9.778,-0.015,-0.065
9.780,0.030,-0.060
9.782,0.040,-0.055
9.784,-0.045,-0.050
9.786,-0.030,-0.050
9.788,0.005,-0.050
9.790,0.025,-0.050
9.792,-0.045,-0.055
9.794,-0.025,-0.055
9.796,0.005,-0.055
9.798,0.010,-0.055
9.800,-0.015,-0.050
9.802,-0.055,-0.045
9.804,0.045,-0.040
9.806,-0.015,-0.040
9.808,-0.010,-0.040
9.810,-0.080,-0.040
9.812,-0.040,-0.045
9.814,0.000,-0.050
9.816,0.025,-0.055
9.818,0.045,-0.065
9.820,0.045,-0.070
9.822,0.005,-0.075
9.824,-0.075,-0.085
9.826,-0.105,-0.095
9.828,-0.125,-0.105
9.830,-0.175,-0.115
9.832,-0.150,-0.120
9.834,-0.115,-0.120
9.836,-0.085,-0.110
9.838,0.040,-0.100
9.840,0.045,-0.080
9.842,0.040,-0.060
9.844,0.090,-0.040
9.846,0.020,-0.025
9.848,-0.065,-0.015
9.850,-0.100,-0.020
9.852,-0.125,-0.030
9.854,-0.055,-0.045
9.856,0.010,-0.065
9.858,0.040,-0.085
9.860,0.030,-0.095
9.862,-0.090,-0.105
9.864,-0.060,-0.100
9.866,-0.005,-0.095
9.868,-0.080,-0.085
9.870,-0.155,-0.080
9.872,-0.095,-0.075
9.874,-0.055,-0.075
9.876,-0.020,-0.080
9.878,-0.030,-0.085
9.880,0.015,-0.095
9.882,0.040,-0.105
9.884,-0.045,-0.105
9.886,-0.090,-0.105
9.888,-0.125,-0.095
9.890,-0.090,-0.085
9.892,-0.060,-0.075
9.894,-0.005,-0.065
9.896,0.020,-0.065
9.898,-0.035,-0.070
9.900,-0.040,-0.080
9.902,-0.020,-0.095
9.904,-0.010,-0.105
9.906,-0.135,-0.115
9.908,-0.200,-0.120
9.910,-0.125,-0.120
9.912,-0.060,-0.110
9.914,-0.045,-0.100
9.916,-0.005,-0.085
9.918,-0.015,-0.075
9.920,0.000,-0.070
9.922,-0.005,-0.070
9.924,-0.040,-0.075
9.926,-0.100,-0.080
9.928,-0.070,-0.085
9.930,-0.125,-0.085
9.932,-0.080,-0.085
9.934,-0.020,-0.080
9.936,0.000,-0.075
9.938,0.025,-0.070
9.940,0.040,-0.065
9.942,-0.010,-0.065
9.944,-0.050,-0.070
9.946,-0.110,-0.075
9.948,-0.150,-0.085
9.950,-0.170,-0.095
9.952,-0.110,-0.100
9.954,-0.060,-0.100
9.956,0.010,-0.095
9.958,0.005,-0.090
9.960,-0.035,-0.080
9.962,0.065,-0.070
9.964,-0.020,-0.065
9.966,-0.110,-0.060
9.968,-0.115,-0.065
9.970,-0.150,-0.070
9.972,-0.155,-0.080
9.974,-0.110,-0.085
9.976,0.020,-0.090
9.978,0.150,-0.090
9.980,0.065,-0.080
9.982,-0.060,-0.070
9.984,-0.105,-0.060
9.986,-0.065,-0.050
9.988,-0.055,-0.040
9.990,-0.075,-0.045
9.992,-0.065,-0.050
9.994,-0.035,-0.060
9.996,0.020,-0.075
9.998,-0.020,-0.080
