'Elapsed time','ECG I','ECG I filtered'
'seconds','mV','mV'
0.000,-0.290,-0.150
0.002,-0.205,-0.050
0.004,-0.120,0.010
0.006,-0.045,0.060
0.008,-0.050,0.085
0.010,-0.035,0.080
0.012,0.030,0.055
0.014,-0.020,0.020
0.016,-0.210,-0.010
0.018,-0.295,-0.035
0.020,-0.355,-0.040
0.022,-0.225,-0.030
0.024,-0.175,-0.005
0.026,0.000,0.025
0.028,-0.080,0.050
0.030,0.115,0.065
0.032,0.070,0.065
0.034,-0.105,0.055
0.036,-0.240,0.035
0.038,-0.280,0.010
0.040,-0.335,-0.010
0.042,-0.255,-0.025
0.044,-0.200,-0.030
0.046,0.025,-0.030
0.048,0.000,-0.020
0.050,-0.140,-0.015
0.052,-0.130,-0.010
0.054,-0.045,-0.010
0.056,-0.170,-0.010
0.058,-0.325,-0.015
0.060,-0.320,-0.020
0.062,-0.275,-0.020
0.064,-0.270,-0.020
0.066,-0.005,-0.015
0.068,0.080,-0.010
0.070,-0.035,-0.005
0.072,-0.060,-0.005
0.074,-0.165,-0.010
0.076,-0.265,-0.020
0.078,-0.305,-0.030
0.080,-0.245,-0.035
0.082,-0.320,-0.040
0.084,-0.175,-0.040
0.086,-0.040,-0.035
0.088,-0.055,-0.025
0.090,-0.035,-0.010
0.092,-0.015,0.000
0.094,-0.130,0.005
0.096,-0.265,0.005
0.098,-0.245,0.000
0.100,-0.205,-0.015
0.102,-0.295,-0.025
0.104,-0.185,-0.030
0.106,-0.130,-0.035
0.108,-0.010,-0.030
0.110,-0.070,-0.020
0.112,-0.025,-0.010
0.114,-0.125,0.005
0.116,-0.225,0.010
0.118,-0.205,0.010
0.120,-0.300,0.005
0.122,-0.335,-0.010
0.124,-0.190,-0.025
0.126,-0.005,-0.040
0.128,-0.040,-0.050
0.130,-0.030,-0.060
0.132,-0.085,-0.060
0.134,-0.125,-0.055
0.136,-0.310,-0.045
0.138,-0.325,-0.040
0.140,-0.375,-0.035
0.142,-0.270,-0.030
0.144,-0.260,-0.030
0.146,0.065,-0.035
0.148,-0.005,-0.035
0.150,-0.020,-0.030
0.152,-0.165,-0.025
0.154,-0.145,-0.020
0.156,-0.320,-0.010
0.158,-0.265,0.000
0.160,-0.265,0.000
0.162,-0.230,0.000
0.164,-0.040,-0.010
0.166,-0.070,-0.020
0.168,-0.055,-0.035
0.170,-0.120,-0.050
0.172,-0.165,-0.060
0.174,-0.210,-0.060
0.176,-0.290,-0.050
0.178,-0.215,-0.035
0.180,-0.250,-0.015
0.182,-0.285,0.005
0.184,-0.080,0.025
0.186,-0.045,0.030
0.188,-0.005,0.030
0.190,0.050,0.020
0.192,-0.025,0.010
0.194,-0.185,-0.010
0.196,-0.290,-0.020
0.198,-0.310,-0.030
0.200,-0.310,-0.030
0.202,-0.285,-0.025
0.204,-0.105,-0.015
0.206,0.020,0.000
0.208,0.055,0.010
0.210,-0.040,0.020
0.212,-0.065,0.025
0.214,-0.170,0.020
0.216,-0.190,0.015
0.218,-0.215,0.000
0.220,-0.295,-0.010
0.222,-0.195,-0.025
0.224,-0.070,-0.035
0.226,-0.110,-0.040
0.228,-0.060,-0.040
0.230,-0.075,-0.035
0.232,-0.150,-0.030
0.234,-0.235,-0.025
0.236,-0.190,-0.020
0.238,-0.235,-0.015
0.240,-0.210,-0.020
0.242,-0.215,-0.025
0.244,-0.240,-0.035
0.246,-0.090,-0.045
0.248,-0.045,-0.050
0.250,0.000,-0.055
0.252,-0.125,-0.055
0.254,-0.170,-0.045
0.256,-0.300,-0.035
0.258,-0.435,-0.020
0.260,-0.200,-0.005
0.262,-0.150,0.005
0.264,-0.055,0.015
0.266,-0.060,0.020
0.268,0.050,0.015
0.270,0.045,0.010
0.272,-0.130,0.000
0.274,-0.220,-0.015
0.276,-0.260,-0.025
0.278,-0.355,-0.035
0.280,-0.270,-0.045
0.282,-0.195,-0.045
0.284,-0.090,-0.045
0.286,-0.075,-0.040
0.288,0.010,-0.030
0.290,0.000,-0.020
0.292,-0.100,-0.010
0.294,-0.255,0.000
0.296,-0.250,0.000
0.298,-0.335,0.000
0.300,-0.220,-0.010
0.302,-0.095,-0.015
0.304,-0.100,-0.025
0.306,-0.085,-0.030
0.308,0.025,-0.030
0.310,-0.125,-0.015
0.312,-0.195,0.015
0.314,-0.035,0.060
0.316,-0.070,0.120
0.318,-0.050,0.190
0.320,0.050,0.270
0.322,0.235,0.350
0.324,0.240,0.420
0.326,0.495,0.475
0.328,0.655,0.505
0.330,0.545,0.505
0.332,0.355,0.475
0.334,0.155,0.415
0.336,0.035,0.335
0.338,-0.035,0.230
0.340,-0.115,0.115
0.342,-0.195,0.000
0.344,-0.140,-0.105
0.346,-0.275,-0.190
0.348,-0.315,-0.255
0.350,-0.305,-0.295
0.352,-0.400,-0.310
0.354,-0.555,-0.310
0.356,-0.565,-0.290
0.358,-0.470,-0.265
0.360,-0.565,-0.240
0.362,-0.350,-0.220
0.364,-0.170,-0.200
0.366,-0.095,-0.185
0.368,-0.180,-0.175
0.370,-0.260,-0.165
0.372,-0.315,-0.150
0.374,-0.300,-0.135
0.376,-0.355,-0.115
0.378,-0.335,-0.095
0.380,-0.265,-0.070
0.382,-0.150,-0.050
0.384,-0.080,-0.035
0.386,0.020,-0.020
0.388,-0.020,-0.015
0.390,-0.035,-0.010
0.392,-0.160,-0.005
0.394,-0.280,-0.005
0.396,-0.305,0.000
0.398,-0.230,0.005
0.400,-0.205,0.010
0.402,-0.020,0.015
0.404,0.080,0.020
0.406,0.030,0.020
0.408,-0.020,0.020
0.410,-0.070,0.015
0.412,-0.110,0.005
0.414,-0.255,-0.005
0.416,-0.355,-0.010
0.418,-0.265,-0.015
0.420,-0.155,-0.015
0.422,-0.080,-0.010
0.424,0.010,0.000
0.426,0.000,0.010
0.428,0.040,0.015
0.430,-0.070,0.025
0.432,-0.105,0.025
0.434,-0.295,0.025
0.436,-0.225,0.020
0.438,-0.085,0.020
0.440,-0.245,0.015
0.442,-0.105,0.015
0.444,0.080,0.020
0.446,0.015,0.025
0.448,0.030,0.030
0.450,-0.005,0.035
0.452,-0.140,0.040
0.454,-0.140,0.040
0.456,-0.110,0.040
0.458,-0.375,0.040
0.460,-0.175,0.035
0.462,-0.075,0.035
0.464,0.160,0.040
0.466,0.065,0.045
0.468,0.010,0.050
0.470,-0.090,0.055
0.472,-0.065,0.060
0.474,-0.130,0.065
0.476,-0.250,0.065
0.478,-0.180,0.060
0.480,-0.085,0.055
0.482,0.015,0.055
0.484,0.050,0.055
0.486,0.085,0.060
0.488,0.065,0.070
0.490,0.010,0.080
0.492,-0.105,0.095
0.494,-0.205,0.105
0.496,-0.155,0.110
0.498,-0.010,0.115
0.500,0.045,0.115
0.502,-0.125,0.115
0.504,0.100,0.115
0.506,0.160,0.115
0.508,0.270,0.120
0.510,0.000,0.125
0.512,-0.095,0.135
0.514,-0.100,0.145
0.516,-0.060,0.150
0.518,-0.050,0.160
0.520,-0.045,0.160
0.522,0.100,0.165
0.524,0.220,0.165
0.526,0.145,0.170
0.528,0.155,0.175
0.530,0.190,0.180
0.532,-0.055,0.190
0.534,0.005,0.195
0.536,-0.065,0.205
0.538,-0.070,0.205
0.540,0.055,0.205
0.542,0.175,0.205
0.544,0.195,0.200
0.546,0.235,0.200
0.548,0.185,0.200
0.550,0.145,0.205
0.552,0.010,0.210
0.554,0.050,0.220
0.556,-0.130,0.225
0.558,0.060,0.230
0.560,0.060,0.225
0.562,0.165,0.215
0.564,0.185,0.200
0.566,0.165,0.180
0.568,0.235,0.155
0.570,0.050,0.140
0.572,-0.130,0.125
0.574,-0.115,0.115
0.576,-0.130,0.110
0.578,-0.085,0.110
0.580,-0.045,0.105
0.582,0.095,0.095
0.584,0.095,0.080
0.586,0.000,0.060
0.588,0.035,0.040
0.590,-0.045,0.015
0.592,-0.200,-0.005
0.594,-0.315,-0.015
0.596,-0.315,-0.025
0.598,-0.230,-0.025
0.600,-0.120,-0.020
0.602,-0.050,-0.015
0.604,-0.005,-0.015
0.606,0.115,-0.015
0.608,-0.065,-0.020
0.610,-0.105,-0.025
0.612,-0.335,-0.030
0.614,-0.305,-0.040
0.616,-0.275,-0.045
0.618,-0.250,-0.045
0.620,-0.170,-0.045
0.622,0.005,-0.045
0.624,-0.020,-0.045
0.626,-0.065,-0.050
0.628,-0.160,-0.060
0.630,-0.235,-0.070
0.632,-0.180,-0.085
0.634,-0.370,-0.095
0.636,-0.350,-0.100
0.638,-0.190,-0.100
0.640,-0.270,-0.095
0.642,-0.080,-0.080
0.644,-0.085,-0.070
0.646,-0.035,-0.055
0.648,0.005,-0.050
0.650,-0.180,-0.045
0.652,-0.325,-0.050
0.654,-0.315,-0.055
0.656,-0.295,-0.065
0.658,-0.265,-0.075
0.660,-0.155,-0.075
0.662,-0.145,-0.075
0.664,-0.020,-0.070
0.666,-0.040,-0.055
0.668,-0.075,-0.040
0.670,-0.105,-0.030
0.672,-0.195,-0.020
0.674,-0.280,-0.015
0.676,-0.370,-0.020
0.678,-0.210,-0.025
0.680,-0.090,-0.035
0.682,-0.020,-0.050
0.684,-0.025,-0.060
0.686,-0.090,-0.070
0.688,-0.130,-0.075
0.690,-0.205,-0.080
0.692,-0.305,-0.085
0.694,-0.285,-0.085
0.696,-0.340,-0.080
0.698,-0.245,-0.080
0.700,-0.110,-0.075
0.702,-0.040,-0.070
0.704,-0.200,-0.065
0.706,-0.060,-0.060
0.708,0.020,-0.055
0.710,-0.135,-0.050
0.712,-0.295,-0.045
0.714,-0.340,-0.040
0.716,-0.370,-0.040
0.718,-0.215,-0.040
0.720,-0.035,-0.040
0.722,-0.050,-0.040
0.724,0.055,-0.040
0.726,0.005,-0.040
0.728,-0.135,-0.040
0.730,-0.190,-0.035
0.732,-0.250,-0.030
0.734,-0.340,-0.030
0.736,-0.230,-0.030
0.738,-0.205,-0.030
0.740,0.005,-0.030
0.742,-0.055,-0.035
0.744,0.025,-0.045
0.746,-0.050,-0.050
0.748,-0.215,-0.055
0.750,-0.200,-0.060
0.752,-0.260,-0.065
0.754,-0.320,-0.070
0.756,-0.270,-0.070
0.758,-0.195,-0.070
0.760,-0.120,-0.060
0.762,-0.035,-0.050
0.764,0.095,-0.040
0.766,-0.030,-0.025
0.768,-0.160,-0.010
0.770,-0.310,0.000
0.772,-0.120,0.000
0.774,-0.235,0.000
0.776,-0.260,-0.010
0.778,-0.170,-0.025
0.780,0.020,-0.045
0.782,-0.060,-0.060
0.784,-0.020,-0.070
0.786,0.020,-0.075
0.788,-0.215,-0.070
0.790,-0.355,-0.055
0.792,-0.300,-0.040
0.794,-0.170,-0.025
0.796,-0.195,-0.015
0.798,-0.210,-0.015
0.800,0.005,-0.025
0.802,-0.010,-0.040
0.804,-0.055,-0.060
0.806,-0.095,-0.075
0.808,-0.145,-0.090
0.810,-0.240,-0.095
0.812,-0.245,-0.090
0.814,-0.335,-0.075
0.816,-0.275,-0.055
0.818,-0.240,-0.035
0.820,-0.040,-0.015
0.822,0.065,-0.005
0.824,0.075,-0.005
0.826,-0.010,-0.005
0.828,-0.115,-0.015
0.830,-0.250,-0.025
0.832,-0.270,-0.035
0.834,-0.270,-0.045
0.836,-0.255,-0.045
0.838,-0.200,-0.045
0.840,-0.060,-0.045
0.842,0.075,-0.040
0.844,0.005,-0.040
0.846,-0.085,-0.040
0.848,-0.125,-0.045
0.850,-0.210,-0.055
0.852,-0.335,-0.060
0.854,-0.320,-0.070
0.856,-0.235,-0.070
0.858,-0.110,-0.070
0.860,-0.030,-0.070
0.862,-0.105,-0.060
0.864,-0.150,-0.055
0.866,-0.025,-0.050
0.868,-0.070,-0.050
0.870,-0.210,-0.050
0.872,-0.325,-0.060
0.874,-0.320,-0.065
0.876,-0.245,-0.075
0.878,-0.195,-0.080
0.880,-0.035,-0.080
0.882,0.020,-0.075
0.884,-0.035,-0.065
0.886,-0.170,-0.055
0.888,-0.130,-0.040
0.890,-0.275,-0.030
0.892,-0.220,-0.025
0.894,-0.215,-0.025
0.896,-0.280,-0.030
0.898,-0.005,-0.040
0.900,-0.155,-0.050
0.902,-0.025,-0.060
0.904,0.005,-0.070
0.906,-0.055,-0.070
0.908,-0.130,-0.065
0.910,-0.200,-0.060
0.912,-0.395,-0.050
0.914,-0.330,-0.040
0.916,-0.150,-0.030
0.918,-0.165,-0.025
0.920,0.055,-0.020
0.922,0.170,-0.025
0.924,0.040,-0.025
0.926,-0.080,-0.030
0.928,-0.340,-0.030
0.930,-0.290,-0.030
0.932,-0.225,-0.035
0.934,-0.155,-0.040
0.936,-0.150,-0.045
0.938,-0.130,-0.055
0.940,-0.145,-0.060
0.942,-0.030,-0.070
0.944,-0.015,-0.075
0.946,-0.030,-0.075
0.948,-0.215,-0.070
0.950,-0.305,-0.065
0.952,-0.320,-0.050
0.954,-0.340,-0.040
0.956,-0.100,-0.030
0.958,-0.025,-0.025
0.960,-0.080,-0.030
0.962,0.030,-0.040
0.964,-0.025,-0.050
0.966,-0.120,-0.060
0.968,-0.235,-0.065
0.970,-0.280,-0.060
0.972,-0.250,-0.050
0.974,-0.220,-0.030
0.976,-0.190,-0.010
0.978,-0.065,0.015
0.980,0.210,0.030
0.982,0.085,0.040
0.984,0.015,0.040
0.986,0.025,0.035
0.988,-0.140,0.020
0.990,-0.310,0.000
0.992,-0.255,-0.015
0.994,-0.220,-0.030
0.996,-0.180,-0.040
0.998,-0.095,-0.045
1.000,-0.035,-0.045
1.002,-0.040,-0.045
1.004,-0.035,-0.040
1.006,-0.025,-0.045
1.008,-0.180,-0.045
1.010,-0.275,-0.050
1.012,-0.230,-0.055
1.014,-0.350,-0.060
1.016,-0.250,-0.060
1.018,-0.030,-0.060
1.020,0.060,-0.055
1.022,0.015,-0.045
1.024,-0.070,-0.035
1.026,-0.105,-0.030
1.028,-0.110,-0.025
1.030,-0.235,-0.025
1.032,-0.335,-0.030
1.034,-0.250,-0.040
1.036,-0.110,-0.050
1.038,-0.110,-0.065
1.040,-0.040,-0.075
1.042,-0.020,-0.085
1.044,-0.055,-0.085
1.046,-0.135,-0.085
1.048,-0.295,-0.075
1.050,-0.280,-0.060
1.052,-0.245,-0.050
1.054,-0.255,-0.040
1.056,-0.180,-0.035
1.058,-0.015,-0.035
1.060,-0.030,-0.040
1.062,-0.020,-0.050
1.064,-0.015,-0.065
1.066,-0.065,-0.070
1.068,-0.200,-0.065
1.070,-0.360,-0.050
1.072,-0.370,-0.025
1.074,-0.160,0.015
1.076,0.025,0.070
1.078,0.175,0.135
1.080,0.200,0.205
1.082,0.355,0.275
1.084,0.425,0.345
1.086,0.350,0.405
1.088,0.340,0.455
1.090,0.310,0.485
1.092,0.300,0.495
1.094,0.320,0.480
1.096,0.295,0.440
1.098,0.360,0.365
1.100,0.260,0.270
1.102,0.155,0.155
1.104,0.115,0.035
1.106,-0.095,-0.085
1.108,-0.490,-0.195
1.110,-0.540,-0.280
1.112,-0.680,-0.335
1.114,-0.555,-0.365
1.116,-0.365,-0.365
1.118,-0.325,-0.350
1.120,-0.420,-0.320
1.122,-0.180,-0.285
1.124,-0.235,-0.250
1.126,-0.330,-0.225
1.128,-0.365,-0.200
1.130,-0.435,-0.180
1.132,-0.380,-0.160
1.134,-0.260,-0.140
1.136,-0.190,-0.120
1.138,-0.050,-0.095
1.140,-0.040,-0.075
1.142,-0.075,-0.055
1.144,-0.055,-0.040
1.146,-0.060,-0.035
1.148,-0.240,-0.030
1.150,-0.235,-0.035
1.152,-0.260,-0.040
1.154,-0.210,-0.045
1.156,-0.065,-0.045
1.158,0.070,-0.045
1.160,-0.040,-0.040
1.162,-0.010,-0.035
1.164,-0.140,-0.030
1.166,-0.130,-0.030
1.168,-0.125,-0.030
1.170,-0.225,-0.030
1.172,-0.290,-0.035
1.174,-0.185,-0.035
1.176,-0.040,-0.030
1.178,-0.045,-0.020
1.180,0.050,-0.005
1.182,0.025,0.010
1.184,0.010,0.020
1.186,-0.075,0.025
1.188,-0.175,0.025
1.190,-0.215,0.020
1.192,-0.215,0.005
1.194,-0.245,-0.010
1.196,-0.015,-0.025
1.198,-0.045,-0.035
1.200,0.035,-0.035
1.202,0.035,-0.030
1.204,-0.105,-0.015
1.206,-0.040,0.000
1.208,-0.145,0.015
1.210,-0.175,0.025
1.212,-0.230,0.030
1.214,-0.085,0.030
1.216,-0.075,0.030
1.218,0.040,0.025
1.220,0.055,0.020
1.222,0.025,0.020
1.224,0.060,0.025
1.226,-0.135,0.030
1.228,-0.030,0.040
1.230,-0.185,0.050
1.232,-0.110,0.060
1.234,-0.145,0.065
1.236,-0.085,0.070
1.238,0.105,0.070
1.240,0.160,0.070
1.242,0.115,0.065
1.244,0.040,0.060
1.246,-0.130,0.055
1.248,-0.040,0.055
1.250,-0.270,0.050
1.252,-0.170,0.045
1.254,-0.030,0.045
1.256,-0.020,0.050
1.258,0.140,0.055
1.260,0.145,0.070
1.262,0.120,0.085
1.264,-0.010,0.100
1.266,0.010,0.115
1.268,-0.110,0.125
1.270,-0.080,0.130
1.272,-0.080,0.125
1.274,0.060,0.120
1.276,0.145,0.110
1.278,0.030,0.100
1.280,0.125,0.095
1.282,0.135,0.100
1.284,0.120,0.115
1.286,0.025,0.135
1.288,-0.115,0.155
1.290,-0.015,0.180
1.292,0.010,0.200
1.294,0.035,0.215
1.296,0.300,0.220
1.298,0.340,0.220
1.300,0.185,0.215
1.302,0.160,0.210
1.304,0.190,0.205
1.306,0.085,0.200
1.308,-0.025,0.205
1.310,0.035,0.210
1.312,-0.005,0.220
1.314,0.110,0.225
1.316,0.205,0.225
1.318,0.240,0.220
1.320,0.280,0.215
1.322,0.225,0.205
1.324,0.115,0.195
1.326,0.030,0.190
1.328,0.050,0.180
1.330,-0.035,0.180
1.332,0.030,0.175
1.334,0.005,0.170
1.336,0.110,0.160
1.338,0.175,0.145
1.340,0.185,0.130
1.342,0.145,0.110
1.344,0.050,0.095
1.346,-0.160,0.075
1.348,-0.190,0.060
1.350,-0.150,0.050
1.352,-0.110,0.045
1.354,0.025,0.040
1.356,0.050,0.030
1.358,0.025,0.025
1.360,0.010,0.015
1.362,0.030,0.005
1.364,-0.150,-0.005
1.366,-0.185,-0.020
1.368,-0.220,-0.025
1.370,-0.205,-0.035
1.372,-0.155,-0.035
1.374,-0.170,-0.040
1.376,-0.065,-0.040
1.378,-0.020,-0.045
1.380,0.115,-0.045
1.382,-0.045,-0.050
1.384,-0.220,-0.055
1.386,-0.215,-0.060
1.388,-0.310,-0.060
1.390,-0.190,-0.060
1.392,-0.275,-0.055
1.394,-0.220,-0.050
1.396,0.005,-0.045
1.398,0.090,-0.045
1.400,0.055,-0.045
1.402,-0.115,-0.050
1.404,-0.215,-0.055
1.406,-0.260,-0.060
1.408,-0.145,-0.065
1.410,-0.370,-0.060
1.412,-0.195,-0.055
1.414,-0.100,-0.045
1.416,0.035,-0.035
1.418,0.065,-0.025
1.420,0.000,-0.020
1.422,-0.110,-0.020
1.424,-0.110,-0.020
1.426,-0.220,-0.030
1.428,-0.305,-0.035
1.430,-0.190,-0.040
1.432,-0.205,-0.040
1.434,-0.100,-0.040
1.436,0.030,-0.030
1.438,0.040,-0.025
1.440,-0.050,-0.020
1.442,-0.010,-0.015
1.444,0.000,-0.020
1.446,-0.190,-0.035
1.448,-0.430,-0.045
1.450,-0.270,-0.060
1.452,-0.305,-0.070
1.454,-0.050,-0.080
1.456,0.050,-0.075
1.458,-0.060,-0.070
1.460,0.005,-0.055
1.462,-0.120,-0.045
1.464,-0.050,-0.035
1.466,-0.205,-0.025
1.468,-0.325,-0.025
1.470,-0.285,-0.025
1.472,-0.280,-0.030
1.474,0.040,-0.040
1.476,0.065,-0.045
1.478,-0.045,-0.050
1.480,-0.005,-0.055
1.482,-0.140,-0.060
1.484,-0.190,-0.070
1.486,-0.215,-0.075
1.488,-0.185,-0.080
1.490,-0.340,-0.085
1.492,-0.230,-0.085
1.494,-0.215,-0.080
1.496,-0.100,-0.065
1.498,0.030,-0.050
1.500,0.135,-0.025
1.502,0.000,-0.005
1.504,-0.085,0.010
1.506,-0.155,0.015
1.508,-0.160,0.015
1.510,-0.255,0.000
1.512,-0.165,-0.020
1.514,-0.155,-0.045
1.516,0.010,-0.060
1.518,-0.060,-0.070
1.520,-0.040,-0.075
1.522,-0.010,-0.065
1.524,-0.135,-0.045
1.526,-0.245,-0.025
1.528,-0.275,-0.010
1.530,-0.260,0.005
1.532,-0.100,0.010
1.534,-0.020,0.010
1.536,0.050,0.000
1.538,0.050,-0.015
1.540,-0.080,-0.030
1.542,-0.025,-0.040
1.544,-0.195,-0.055
1.546,-0.300,-0.060
1.548,-0.290,-0.060
1.550,-0.270,-0.065
1.552,-0.210,-0.060
1.554,-0.055,-0.055
1.556,-0.015,-0.050
1.558,-0.025,-0.045
1.560,-0.005,-0.040
1.562,-0.030,-0.030
1.564,-0.185,-0.020
1.566,-0.275,-0.015
1.568,-0.240,-0.010
1.570,-0.080,-0.010
1.572,-0.115,-0.015
1.574,-0.030,-0.025
1.576,-0.085,-0.035
1.578,-0.020,-0.045
1.580,0.010,-0.050
1.582,-0.110,-0.055
1.584,-0.140,-0.055
1.586,-0.210,-0.050
1.588,-0.280,-0.045
1.590,-0.270,-0.040
1.592,-0.135,-0.040
1.594,-0.165,-0.035
1.596,-0.020,-0.040
1.598,-0.015,-0.040
1.600,0.140,-0.040
1.602,-0.065,-0.035
1.604,-0.210,-0.030
1.606,-0.300,-0.025
1.608,-0.210,-0.015
1.610,-0.260,-0.010
1.612,-0.240,-0.010
1.614,-0.005,-0.020
1.616,0.085,-0.030
1.618,0.030,-0.045
1.620,0.035,-0.060
1.622,-0.185,-0.065
1.624,-0.235,-0.070
1.626,-0.275,-0.065
1.628,-0.330,-0.050
1.630,-0.190,-0.035
1.632,-0.140,-0.020
1.634,0.035,-0.010
1.636,0.005,-0.005
1.638,0.000,-0.005
1.640,0.050,-0.010
1.642,-0.110,-0.025
1.644,-0.210,-0.035
1.646,-0.215,-0.045
1.648,-0.295,-0.050
1.650,-0.245,-0.050
1.652,-0.160,-0.050
1.654,-0.005,-0.045
1.656,0.010,-0.040
1.658,-0.035,-0.040
1.660,0.070,-0.040
1.662,-0.190,-0.040
1.664,-0.245,-0.040
1.666,-0.215,-0.040
1.668,-0.275,-0.040
1.670,-0.150,-0.030
1.672,-0.125,-0.020
1.674,-0.020,-0.010
1.676,0.015,-0.005
1.678,-0.030,-0.005
1.680,0.100,-0.005
1.682,-0.165,-0.015
1.684,-0.175,-0.030
1.686,-0.225,-0.040
1.688,-0.300,-0.050
1.690,-0.240,-0.055
1.692,-0.135,-0.050
1.694,0.000,-0.045
1.696,0.005,-0.030
1.698,0.010,-0.015
1.700,0.025,0.000
1.702,-0.080,0.005
1.704,-0.105,0.010
1.706,-0.190,0.010
1.708,-0.295,0.000
1.710,-0.230,-0.010
1.712,-0.100,-0.020
1.714,0.045,-0.030
1.716,0.000,-0.035
1.718,0.070,-0.035
1.720,-0.035,-0.035
1.722,-0.135,-0.035
1.724,-0.285,-0.035
1.726,-0.195,-0.040
1.728,-0.315,-0.045
1.730,-0.250,-0.050
1.732,-0.175,-0.055
1.734,0.005,-0.060
1.736,0.090,-0.060
1.738,-0.090,-0.055
1.740,-0.025,-0.045
1.742,-0.135,-0.035
1.744,-0.190,-0.025
1.746,-0.190,-0.015
1.748,-0.280,-0.005
1.750,-0.220,-0.005
1.752,-0.045,-0.010
1.754,-0.015,-0.015
1.756,0.025,-0.020
1.758,0.095,-0.025
1.760,-0.065,-0.030
1.762,-0.110,-0.030
1.764,-0.295,-0.030
1.766,-0.310,-0.025
1.768,-0.190,-0.025
1.770,-0.145,-0.030
1.772,-0.125,-0.035
1.774,0.025,-0.040
1.776,-0.025,-0.050
1.778,-0.110,-0.060
1.780,-0.095,-0.065
1.782,-0.180,-0.070
1.784,-0.260,-0.065
1.786,-0.260,-0.060
1.788,-0.220,-0.050
1.790,-0.095,-0.035
1.792,-0.070,-0.025
1.794,-0.090,-0.005
1.796,0.055,0.020
1.798,-0.020,0.050
1.800,0.075,0.095
1.802,-0.065,0.150
1.804,0.090,0.215
1.806,0.145,0.290
1.808,0.235,0.365
1.810,0.325,0.430
1.812,0.415,0.480
1.814,0.580,0.505
1.816,0.575,0.505
1.818,0.565,0.465
1.820,0.375,0.400
1.822,0.105,0.305
1.824,-0.100,0.195
1.826,-0.245,0.080
1.828,-0.150,-0.030
1.830,-0.195,-0.130
1.832,-0.300,-0.215
1.834,-0.270,-0.270
1.836,-0.375,-0.310
1.838,-0.335,-0.325
1.840,-0.345,-0.330
1.842,-0.485,-0.320
1.844,-0.465,-0.300
1.846,-0.510,-0.275
1.848,-0.540,-0.250
1.850,-0.365,-0.225
1.852,-0.195,-0.200
1.854,-0.095,-0.170
1.856,-0.050,-0.145
1.858,0.000,-0.120
1.860,-0.200,-0.100
1.862,-0.260,-0.080
1.864,-0.320,-0.065
1.866,-0.225,-0.055
1.868,-0.265,-0.050
1.870,-0.180,-0.050
1.872,-0.095,-0.050
1.874,-0.010,-0.045
1.876,0.105,-0.045
1.878,-0.070,-0.040
1.880,-0.080,-0.030
1.882,-0.190,-0.020
1.884,-0.295,-0.010
1.886,-0.235,0.000
1.888,-0.140,0.010
1.890,-0.115,0.015
1.892,-0.055,0.015
1.894,0.065,0.015
1.896,0.100,0.010
1.898,0.035,0.005
1.900,-0.020,0.000
1.902,-0.190,0.000
1.904,-0.235,0.000
1.906,-0.245,-0.005
1.908,-0.275,0.000
1.910,-0.180,0.000
1.912,0.065,0.005
1.914,0.170,0.010
1.916,0.210,0.015
1.918,-0.045,0.025
1.920,-0.065,0.030
1.922,-0.245,0.035
1.924,-0.225,0.035
1.926,-0.145,0.030
1.928,-0.175,0.020
1.930,-0.120,0.010
1.932,0.040,0.000
1.934,-0.015,-0.005
1.936,0.030,-0.005
1.938,0.070,0.000
1.940,-0.010,0.015
1.942,-0.190,0.030
1.944,-0.180,0.050
1.946,-0.170,0.070
1.948,-0.110,0.080
1.950,-0.060,0.085
1.952,0.135,0.080
1.954,0.095,0.075
1.956,0.185,0.065
1.958,0.025,0.055
1.960,-0.100,0.050
1.962,-0.150,0.050
1.964,-0.235,0.055
1.966,-0.195,0.065
1.968,-0.040,0.070
1.970,0.040,0.075
1.972,0.075,0.075
1.974,0.030,0.070
1.976,0.075,0.065
1.978,0.045,0.060
1.980,0.020,0.065
1.982,-0.140,0.070
1.984,-0.035,0.085
1.986,-0.205,0.100
1.988,-0.110,0.120
1.990,0.050,0.135
1.992,0.185,0.145
1.994,0.250,0.155
1.996,0.125,0.155
1.998,0.125,0.155
2.000,0.080,0.155
2.002,0.005,0.160
2.004,-0.055,0.170
2.006,-0.035,0.180
2.008,0.000,0.190
2.010,0.060,0.205
2.012,0.250,0.210
2.014,0.275,0.210
2.016,0.215,0.205
2.018,0.085,0.195
2.020,0.075,0.185
2.022,0.035,0.175
2.024,-0.105,0.170
2.026,-0.005,0.170
2.028,0.040,0.175
2.030,0.140,0.185
2.032,0.160,0.200
2.034,0.205,0.205
2.036,0.310,0.215
2.038,0.125,0.215
2.040,0.080,0.215
2.042,0.110,0.205
2.044,-0.040,0.200
2.046,-0.040,0.190
2.048,0.015,0.185
2.050,0.035,0.175
2.052,0.155,0.170
2.054,0.365,0.160
2.056,0.165,0.155
2.058,0.010,0.145
2.060,0.030,0.130
2.062,-0.125,0.120
2.064,-0.155,0.105
2.066,-0.220,0.090
2.068,0.025,0.075
2.070,0.115,0.060
2.072,0.065,0.045
2.074,-0.020,0.030
2.076,-0.080,0.020
2.078,0.000,0.010
2.080,-0.175,0.005
2.082,-0.200,0.005
2.084,-0.190,0.010
2.086,-0.135,0.015
2.088,-0.130,0.025
2.090,-0.010,0.025
2.092,0.025,0.025
2.094,0.095,0.015
2.096,-0.075,0.005
2.098,-0.070,-0.015
2.100,-0.120,-0.030
2.102,-0.360,-0.045
2.104,-0.265,-0.060
2.106,-0.270,-0.060
2.108,-0.160,-0.060
2.110,-0.040,-0.055
2.112,-0.085,-0.045
2.114,-0.050,-0.035
2.116,-0.035,-0.035
2.118,0.015,-0.035
2.120,-0.225,-0.040
2.122,-0.265,-0.045
2.124,-0.265,-0.055
2.126,-0.320,-0.060
2.128,-0.175,-0.060
2.130,-0.120,-0.060
2.132,-0.085,-0.055
2.134,0.065,-0.050
2.136,-0.025,-0.045
2.138,-0.155,-0.035
2.140,-0.260,-0.035
2.142,-0.385,-0.030
2.144,-0.235,-0.035
2.146,-0.115,-0.035
2.148,-0.185,-0.040
2.150,-0.025,-0.045
2.152,-0.060,-0.050
2.154,-0.045,-0.055
2.156,-0.135,-0.065
2.158,-0.150,-0.065
2.160,-0.210,-0.070
2.162,-0.230,-0.070
2.164,-0.330,-0.070
2.166,-0.255,-0.065
2.168,-0.220,-0.055
2.170,-0.055,-0.050
2.172,-0.035,-0.040
2.174,-0.060,-0.035
2.176,-0.110,-0.030
2.178,-0.040,-0.030
2.180,-0.275,-0.030
2.182,-0.310,-0.025
2.184,-0.160,-0.025
2.186,-0.190,-0.020
2.188,-0.215,-0.015
2.190,-0.015,-0.010
2.192,0.020,-0.005
2.194,-0.050,0.000
2.196,0.045,-0.005
2.198,-0.070,-0.010
2.200,-0.205,-0.020
2.202,-0.285,-0.035
2.204,-0.405,-0.050
2.206,-0.300,-0.060
2.208,-0.260,-0.070
2.210,0.030,-0.075
2.212,-0.020,-0.070
2.214,-0.025,-0.065
2.216,-0.070,-0.060
2.218,-0.130,-0.055
2.220,-0.270,-0.050
2.222,-0.270,-0.045
2.224,-0.265,-0.045
2.226,-0.280,-0.045
2.228,-0.165,-0.045
2.230,-0.120,-0.040
2.232,0.035,-0.040
2.234,0.020,-0.040
2.236,-0.110,-0.040
2.238,-0.135,-0.040
2.240,-0.280,-0.045
2.242,-0.310,-0.045
2.244,-0.230,-0.050
2.246,-0.230,-0.050
2.248,-0.145,-0.045
2.250,-0.010,-0.040
2.252,-0.020,-0.035
2.254,-0.100,-0.030
2.256,-0.050,-0.025
2.258,-0.150,-0.020
2.260,-0.240,-0.025
2.262,-0.285,-0.030
2.264,-0.300,-0.035
2.266,-0.220,-0.045
2.268,-0.210,-0.050
2.270,0.025,-0.050
2.272,0.035,-0.050
2.274,-0.100,-0.040
2.276,-0.225,-0.035
2.278,-0.035,-0.030
2.280,-0.280,-0.025
2.282,-0.250,-0.030
2.284,-0.250,-0.035
2.286,-0.360,-0.045
2.288,-0.090,-0.060
2.290,0.055,-0.070
2.292,-0.095,-0.075
2.294,-0.100,-0.075
2.296,-0.105,-0.065
2.298,-0.225,-0.055
2.300,-0.215,-0.040
2.302,-0.290,-0.025
2.304,-0.185,-0.020
2.306,-0.245,-0.020
2.308,-0.135,-0.025
2.310,-0.045,-0.035
2.312,-0.030,-0.055
2.314,-0.090,-0.070
2.316,-0.130,-0.080
2.318,-0.180,-0.085
2.320,-0.370,-0.085
2.322,-0.265,-0.075
2.324,-0.240,-0.060
2.326,-0.280,-0.045
2.328,-0.095,-0.030
2.330,-0.080,-0.025
2.332,0.050,-0.020
2.334,0.020,-0.025
2.336,-0.105,-0.030
2.338,-0.365,-0.045
2.340,-0.235,-0.055
2.342,-0.215,-0.070
2.344,-0.265,-0.075
2.346,-0.320,-0.080
2.348,-0.155,-0.075
2.350,-0.065,-0.065
2.352,-0.055,-0.055
2.354,-0.145,-0.045
2.356,0.040,-0.030
2.358,-0.140,-0.020
2.360,-0.315,-0.015
2.362,-0.290,-0.015
2.364,-0.270,-0.015
2.366,-0.175,-0.020
2.368,-0.080,-0.030
2.370,-0.035,-0.040
2.372,-0.075,-0.050
2.374,0.065,-0.060
2.376,-0.275,-0.065
2.378,-0.235,-0.065
2.380,-0.275,-0.065
2.382,-0.225,-0.060
2.384,-0.305,-0.050
2.386,-0.200,-0.045
2.388,-0.045,-0.035
2.390,-0.025,-0.030
2.392,-0.090,-0.025
2.394,0.020,-0.025
2.396,-0.110,-0.025
2.398,-0.320,-0.030
2.400,-0.285,-0.035
2.402,-0.170,-0.035
2.404,-0.215,-0.035
2.406,-0.210,-0.035
2.408,-0.190,-0.035
2.410,0.035,-0.035
2.412,-0.045,-0.035
2.414,-0.060,-0.040
2.416,-0.160,-0.045
2.418,-0.270,-0.050
2.420,-0.235,-0.055
2.422,-0.245,-0.055
2.424,-0.440,-0.050
2.426,-0.140,-0.045
2.428,-0.075,-0.030
2.430,0.020,-0.020
2.432,0.040,-0.010
2.434,-0.025,0.000
2.436,-0.075,0.000
2.438,-0.200,-0.005
2.440,-0.285,-0.020
2.442,-0.365,-0.030
2.444,-0.270,-0.040
2.446,-0.125,-0.040
2.448,-0.025,-0.040
2.450,-0.065,-0.030
2.452,0.015,-0.015
2.454,0.085,0.000
2.456,-0.095,0.015
2.458,-0.230,0.020
2.460,-0.235,0.015
2.462,-0.280,0.005
2.464,-0.285,-0.015
2.466,-0.160,-0.035
2.468,-0.065,-0.055
2.470,-0.060,-0.070
2.472,-0.055,-0.075
2.474,-0.240,-0.070
2.476,-0.065,-0.055
2.478,-0.150,-0.040
2.480,-0.365,-0.020
2.482,-0.270,-0.005
2.484,-0.225,0.005
2.486,0.005,0.005
2.488,-0.040,0.000
2.490,-0.065,-0.015
2.492,-0.125,-0.035
2.494,-0.040,-0.055
2.496,-0.090,-0.070
2.498,-0.365,-0.080
2.500,-0.315,-0.085
2.502,-0.345,-0.085
2.504,-0.260,-0.075
2.506,-0.150,-0.065
2.508,-0.045,-0.055
2.510,-0.100,-0.045
2.512,-0.050,-0.045
2.514,-0.015,-0.045
2.516,-0.100,-0.050
2.518,-0.375,-0.060
2.520,-0.260,-0.065
2.522,-0.355,-0.070
2.524,-0.405,-0.075
2.526,-0.240,-0.070
2.528,0.050,-0.060
2.530,-0.010,-0.050
2.532,0.050,-0.030
2.534,-0.080,-0.015
2.536,-0.200,0.000
2.538,-0.235,0.005
2.540,-0.200,0.010
2.542,-0.235,0.010
2.544,-0.245,0.005
2.546,-0.160,0.005
2.548,-0.005,0.010
2.550,0.075,0.025
2.552,0.055,0.060
2.554,0.035,0.105
2.556,0.100,0.170
2.558,0.145,0.250
2.560,-0.005,0.330
2.562,0.095,0.410
2.564,0.225,0.470
2.566,0.555,0.510
2.568,0.555,0.520
2.570,0.570,0.495
2.572,0.450,0.440
2.574,0.245,0.350
2.576,0.030,0.245
2.578,-0.085,0.125
2.580,-0.285,0.005
2.582,-0.355,-0.110
2.584,-0.460,-0.205
2.586,-0.410,-0.275
2.588,-0.385,-0.325
2.590,-0.430,-0.350
2.592,-0.320,-0.355
2.594,-0.410,-0.345
2.596,-0.515,-0.320
2.598,-0.460,-0.290
2.600,-0.375,-0.255
2.602,-0.545,-0.220
2.604,-0.510,-0.190
2.606,-0.225,-0.160
2.608,-0.075,-0.135
2.610,-0.155,-0.115
2.612,-0.060,-0.095
2.614,-0.135,-0.075
2.616,-0.165,-0.060
2.618,-0.230,-0.045
2.620,-0.265,-0.035
2.622,-0.250,-0.025
2.624,-0.225,-0.020
2.626,-0.140,-0.020
2.628,-0.035,-0.025
2.630,-0.010,-0.035
2.632,0.010,-0.045
2.634,-0.185,-0.055
2.636,-0.180,-0.060
2.638,-0.275,-0.060
2.640,-0.380,-0.055
2.642,-0.305,-0.045
2.644,-0.215,-0.030
2.646,-0.075,-0.010
2.648,0.050,0.010
2.650,0.075,0.025
2.652,0.085,0.035
2.654,0.015,0.035
2.656,-0.245,0.030
2.658,-0.155,0.015
2.660,-0.290,0.000
2.662,-0.350,-0.015
2.664,-0.200,-0.025
2.666,-0.165,-0.030
2.668,0.045,-0.030
2.670,0.005,-0.020
2.672,-0.015,0.000
2.674,-0.035,0.020
2.676,-0.155,0.040
2.678,-0.195,0.050
2.680,-0.240,0.060
2.682,-0.165,0.060
2.684,-0.095,0.050
2.686,-0.080,0.040
2.688,0.035,0.030
2.690,0.050,0.020
2.692,0.020,0.020
2.694,-0.105,0.025
2.696,-0.140,0.035
2.698,-0.250,0.050
2.700,-0.350,0.060
2.702,-0.040,0.070
2.704,0.030,0.080
2.706,-0.045,0.075
2.708,0.060,0.070
2.710,0.040,0.060
2.712,0.010,0.050
2.714,-0.010,0.045
2.716,-0.175,0.040
2.718,-0.205,0.040
2.720,-0.200,0.045
2.722,-0.190,0.050
2.724,-0.065,0.060
2.726,0.055,0.065
2.728,0.040,0.065
2.730,0.100,0.065
2.732,0.070,0.065
2.734,-0.065,0.070
2.736,-0.105,0.070
2.738,-0.230,0.080
2.740,-0.190,0.090
2.742,-0.160,0.100
2.744,0.090,0.110
2.746,0.030,0.125
2.748,0.130,0.135
2.750,0.165,0.145
2.752,0.195,0.150
2.754,0.090,0.160
2.756,-0.120,0.165
2.758,-0.080,0.165
2.760,-0.110,0.170
2.762,-0.095,0.170
2.764,0.100,0.175
2.766,0.140,0.180
2.768,0.185,0.185
2.770,0.160,0.195
2.772,0.055,0.205
2.774,0.190,0.215
2.776,0.005,0.225
2.778,-0.080,0.235
2.780,0.045,0.235
2.782,0.065,0.235
2.784,0.015,0.230
2.786,0.140,0.220
2.788,0.215,0.205
2.790,0.250,0.190
2.792,0.175,0.185
2.794,0.035,0.180
2.796,-0.075,0.180
2.798,-0.145,0.185
2.800,-0.090,0.195
2.802,0.095,0.200
2.804,0.105,0.195
2.806,0.195,0.190
2.808,0.145,0.175
2.810,0.190,0.155
2.812,0.075,0.135
2.814,0.005,0.115
2.816,-0.225,0.105
2.818,-0.130,0.095
2.820,-0.195,0.090
2.822,-0.095,0.085
2.824,-0.035,0.080
2.826,0.020,0.070
2.828,0.070,0.055
2.830,-0.015,0.035
2.832,0.005,0.010
2.834,-0.175,-0.015
2.836,-0.285,-0.035
2.838,-0.415,-0.045
2.840,-0.275,-0.050
2.842,-0.265,-0.050
2.844,-0.120,-0.040
2.846,0.035,-0.030
2.848,-0.015,-0.020
2.850,-0.155,-0.010
2.852,0.005,-0.010
2.854,-0.030,-0.020
2.856,-0.325,-0.030
2.858,-0.315,-0.050
2.860,-0.355,-0.065
2.862,-0.360,-0.080
2.864,-0.185,-0.095
2.866,-0.135,-0.100
2.868,-0.060,-0.100
2.870,-0.055,-0.095
2.872,-0.160,-0.085
2.874,-0.220,-0.070
2.876,-0.315,-0.055
2.878,-0.300,-0.040
2.880,-0.335,-0.030
2.882,-0.300,-0.025
2.884,-0.045,-0.025
2.886,0.025,-0.030
2.888,-0.020,-0.040
2.890,-0.095,-0.050
2.892,-0.230,-0.065
2.894,-0.215,-0.075
2.896,-0.320,-0.080
2.898,-0.385,-0.080
2.900,-0.350,-0.080
2.902,-0.195,-0.075
2.904,-0.115,-0.065
2.906,-0.090,-0.060
2.908,-0.040,-0.055
2.910,-0.155,-0.050
2.912,-0.060,-0.045
2.914,-0.255,-0.045
2.916,-0.265,-0.050
2.918,-0.305,-0.050
2.920,-0.285,-0.050
2.922,-0.255,-0.050
2.924,-0.090,-0.050
2.926,-0.105,-0.050
2.928,-0.025,-0.050
2.930,-0.070,-0.050
2.932,-0.140,-0.045
2.934,-0.220,-0.045
2.936,-0.365,-0.045
2.938,-0.255,-0.045
2.940,-0.280,-0.045
2.942,-0.245,-0.045
2.944,-0.080,-0.050
2.946,-0.140,-0.050
2.948,-0.015,-0.055
2.950,-0.030,-0.060
2.952,-0.105,-0.065
2.954,-0.335,-0.065
2.956,-0.380,-0.065
2.958,-0.265,-0.065
2.960,-0.230,-0.060
2.962,-0.215,-0.055
2.964,-0.130,-0.050
2.966,-0.055,-0.045
2.968,-0.055,-0.045
2.970,-0.130,-0.040
2.972,-0.060,-0.040
2.974,-0.175,-0.045
2.976,-0.355,-0.045
2.978,-0.505,-0.045
2.980,-0.235,-0.040
2.982,-0.155,-0.040
2.984,-0.025,-0.035
2.986,-0.025,-0.035
2.988,-0.035,-0.030
2.990,-0.105,-0.035
2.992,-0.100,-0.035
2.994,-0.395,-0.040
2.996,-0.265,-0.045
2.998,-0.295,-0.050
3.000,-0.190,-0.050
3.002,-0.260,-0.050
3.004,-0.095,-0.050
3.006,0.005,-0.045
3.008,-0.055,-0.040
3.010,-0.050,-0.035
3.012,-0.165,-0.030
3.014,-0.255,-0.035
3.016,-0.335,-0.035
3.018,-0.250,-0.040
3.020,-0.205,-0.050
3.022,-0.340,-0.055
3.024,-0.145,-0.055
3.026,0.000,-0.055
3.028,0.070,-0.050
3.030,-0.070,-0.045
3.032,-0.175,-0.040
3.034,-0.295,-0.035
3.036,-0.315,-0.035
3.038,-0.365,-0.040
3.040,-0.310,-0.050
3.042,-0.190,-0.055
3.044,0.040,-0.065
3.046,-0.070,-0.070
3.048,-0.030,-0.065
3.050,-0.040,-0.060
3.052,-0.145,-0.050
3.054,-0.375,-0.035
3.056,-0.300,-0.025
3.058,-0.275,-0.015
3.060,-0.260,-0.015
3.062,-0.175,-0.020
3.064,-0.010,-0.030
3.066,-0.035,-0.045
3.068,0.005,-0.055
3.070,-0.125,-0.065
3.072,-0.205,-0.065
3.074,-0.305,-0.065
3.076,-0.300,-0.055
3.078,-0.345,-0.045
3.080,-0.170,-0.035
3.082,-0.205,-0.025
3.084,-0.055,-0.020
3.086,-0.030,-0.020
3.088,-0.020,-0.025
3.090,-0.080,-0.030
3.092,-0.260,-0.035
3.094,-0.250,-0.040
3.096,-0.325,-0.050
3.098,-0.265,-0.055
3.100,-0.280,-0.060
3.102,-0.165,-0.065
3.104,-0.120,-0.065
3.106,-0.010,-0.065
3.108,-0.145,-0.060
3.110,-0.030,-0.050
3.112,-0.235,-0.045
3.114,-0.295,-0.035
3.116,-0.240,-0.030
3.118,-0.290,-0.025
3.120,-0.230,-0.025
3.122,-0.115,-0.030
3.124,0.015,-0.035
3.126,0.000,-0.045
3.128,-0.085,-0.050
3.130,-0.240,-0.055
3.132,-0.275,-0.055
3.134,-0.345,-0.050
3.136,-0.130,-0.045
3.138,-0.230,-0.040
3.140,-0.265,-0.040
3.142,-0.255,-0.040
3.144,-0.070,-0.050
3.146,-0.055,-0.055
3.148,-0.075,-0.065
3.150,-0.075,-0.070
3.152,-0.325,-0.070
3.154,-0.315,-0.070
3.156,-0.305,-0.060
3.158,-0.260,-0.050
3.160,-0.205,-0.045
3.162,-0.110,-0.040
3.164,-0.030,-0.040
3.166,0.055,-0.045
3.168,-0.100,-0.055
3.170,-0.235,-0.060
3.172,-0.375,-0.065
3.174,-0.325,-0.065
3.176,-0.200,-0.055
3.178,-0.305,-0.035
3.180,-0.190,-0.015
3.182,0.025,0.010
3.184,0.020,0.030
3.186,-0.005,0.050
3.188,0.040,0.055
3.190,0.045,0.055
3.192,-0.155,0.045
3.194,-0.295,0.030
3.196,-0.320,0.015
3.198,-0.250,0.000
3.200,-0.165,-0.015
3.202,-0.060,-0.030
3.204,-0.080,-0.040
3.206,0.105,-0.050
3.208,-0.105,-0.055
3.210,-0.250,-0.060
3.212,-0.270,-0.065
3.214,-0.330,-0.070
3.216,-0.365,-0.075
3.218,-0.375,-0.075
3.220,-0.215,-0.075
3.222,-0.040,-0.075
3.224,-0.110,-0.065
3.226,0.015,-0.060
3.228,-0.090,-0.050
3.230,-0.185,-0.040
3.232,-0.205,-0.030
3.234,-0.230,-0.025
3.236,-0.335,-0.025
3.238,-0.305,-0.020
3.240,-0.165,-0.025
3.242,-0.085,-0.030
3.244,-0.095,-0.035
3.246,-0.010,-0.040
3.248,0.030,-0.045
3.250,-0.205,-0.050
3.252,-0.320,-0.055
3.254,-0.245,-0.050
3.256,-0.345,-0.045
3.258,-0.305,-0.040
3.260,-0.270,-0.035
3.262,0.010,-0.025
3.264,0.025,-0.020
3.266,-0.075,-0.015
3.268,-0.045,-0.010
3.270,-0.085,-0.010
3.272,-0.210,-0.005
3.274,-0.300,0.005
3.276,-0.265,0.020
3.278,-0.155,0.050
3.280,-0.055,0.100
3.282,0.135,0.160
3.284,0.205,0.230
3.286,0.375,0.310
3.288,0.390,0.385
3.290,0.410,0.455
3.292,0.225,0.505
3.294,0.325,0.525
3.296,0.385,0.515
3.298,0.250,0.475
3.300,0.180,0.400
3.302,0.195,0.300
3.304,0.095,0.185
3.306,0.060,0.060
3.308,0.025,-0.055
3.310,-0.255,-0.160
3.312,-0.575,-0.240
3.314,-0.615,-0.300
3.316,-0.705,-0.340
3.318,-0.530,-0.355
3.320,-0.450,-0.355
3.322,-0.445,-0.340
3.324,-0.300,-0.320
3.326,-0.355,-0.295
3.328,-0.300,-0.260
3.330,-0.305,-0.230
3.332,-0.440,-0.195
3.334,-0.370,-0.160
3.336,-0.350,-0.125
3.338,-0.260,-0.090
3.340,-0.260,-0.060
3.342,-0.060,-0.035
3.344,-0.045,-0.020
3.346,0.025,-0.010
3.348,-0.080,-0.010
3.350,-0.155,-0.010
3.352,-0.245,-0.020
3.354,-0.365,-0.030
3.356,-0.315,-0.035
3.358,-0.170,-0.035
3.360,-0.075,-0.035
3.362,-0.085,-0.025
3.364,-0.105,-0.015
3.366,0.070,0.000
3.368,-0.060,0.015
3.370,-0.185,0.025
3.372,-0.275,0.030
3.374,-0.145,0.035
3.376,-0.205,0.035
3.378,-0.300,0.035
3.380,0.005,0.030
3.382,-0.010,0.030
3.384,-0.010,0.025
3.386,0.125,0.025
3.388,-0.020,0.020
3.390,-0.210,0.020
3.392,-0.305,0.015
3.394,-0.290,0.010
3.396,-0.275,0.010
3.398,-0.185,0.005
3.400,0.005,0.005
3.402,0.050,0.005
3.404,0.020,0.010
3.406,-0.025,0.015
3.408,-0.090,0.020
3.410,-0.180,0.025
3.412,-0.090,0.030
3.414,-0.225,0.030
3.416,-0.255,0.030
3.418,-0.200,0.025
3.420,-0.145,0.020
3.422,-0.150,0.020
3.424,0.070,0.025
3.426,0.155,0.030
3.428,0.015,0.040
3.430,-0.155,0.050
3.432,-0.145,0.060
3.434,-0.160,0.065
3.436,-0.255,0.070
3.438,-0.215,0.070
3.440,-0.085,0.065
3.442,0.140,0.060
3.444,0.090,0.060
3.446,0.100,0.060
3.448,0.075,0.065
3.450,-0.110,0.075
3.452,-0.150,0.090
3.454,-0.300,0.100
3.456,-0.140,0.110
3.458,-0.050,0.115
3.460,0.030,0.115
3.462,0.165,0.105
3.464,0.080,0.100
3.466,0.125,0.090
3.468,0.100,0.085
3.470,-0.170,0.090
3.472,-0.220,0.100
3.474,-0.185,0.115
3.476,0.005,0.135
3.478,-0.040,0.150
3.480,0.105,0.165
3.482,0.155,0.175
3.484,0.210,0.180
3.486,0.110,0.180
3.488,0.105,0.180
3.490,-0.040,0.180
3.492,-0.035,0.190
3.494,-0.055,0.200
3.496,0.105,0.210
3.498,0.080,0.225
3.500,0.000,0.235
3.502,0.155,0.235
3.504,0.295,0.235
3.506,0.265,0.230
3.508,0.175,0.220
3.510,-0.025,0.210
3.512,-0.060,0.205
3.514,-0.060,0.205
3.516,0.010,0.210
3.518,-0.060,0.220
3.520,0.215,0.230
3.522,0.310,0.235
3.524,0.350,0.235
3.526,0.225,0.230
3.528,0.100,0.220
3.530,-0.130,0.200
3.532,-0.130,0.180
3.534,-0.160,0.155
3.536,-0.090,0.135
3.538,0.065,0.115
3.540,0.135,0.100
3.542,0.040,0.090
3.544,0.045,0.080
3.546,0.140,0.080
3.548,-0.035,0.075
3.550,-0.255,0.075
3.552,-0.210,0.075
3.554,-0.215,0.075
3.556,-0.080,0.070
3.558,-0.015,0.060
3.560,0.015,0.050
3.562,0.000,0.035
3.564,0.035,0.020
3.566,-0.025,0.005
3.568,-0.170,-0.005
3.570,-0.360,-0.015
3.572,-0.270,-0.025
3.574,-0.270,-0.025
3.576,-0.230,-0.025
3.578,-0.190,-0.025
3.580,-0.070,-0.025
3.582,0.025,-0.030
3.584,0.025,-0.035
3.586,-0.020,-0.045
3.588,-0.245,-0.060
3.590,-0.335,-0.070
3.592,-0.355,-0.075
3.594,-0.325,-0.080
3.596,-0.290,-0.080
3.598,-0.200,-0.075
3.600,-0.095,-0.070
3.602,0.045,-0.060
3.604,-0.035,-0.050
3.606,-0.120,-0.045
3.608,-0.130,-0.040
3.610,-0.315,-0.040
3.612,-0.465,-0.040
3.614,-0.430,-0.035
3.616,-0.035,-0.040
3.618,-0.115,-0.040
3.620,-0.035,-0.045
3.622,0.005,-0.050
3.624,-0.045,-0.055
3.626,-0.230,-0.065
3.628,-0.215,-0.075
3.630,-0.395,-0.085
3.632,-0.380,-0.090
3.634,-0.355,-0.095
3.636,-0.220,-0.090
3.638,-0.070,-0.085
3.640,-0.160,-0.070
3.642,-0.065,-0.060
3.644,0.015,-0.040
3.646,-0.070,-0.025
3.648,-0.170,-0.015
3.650,-0.305,-0.010
3.652,-0.290,-0.005
3.654,-0.315,-0.010
3.656,-0.175,-0.015
3.658,-0.085,-0.025
3.660,-0.040,-0.035
3.662,0.000,-0.040
3.664,-0.055,-0.045
3.666,-0.145,-0.045
3.668,-0.205,-0.045
3.670,-0.365,-0.040
3.672,-0.285,-0.035
3.674,-0.240,-0.035
3.676,-0.220,-0.035
3.678,-0.095,-0.035
3.680,-0.030,-0.040
3.682,-0.045,-0.045
3.684,-0.085,-0.050
3.686,-0.050,-0.050
3.688,-0.220,-0.045
3.690,-0.325,-0.040
3.692,-0.440,-0.035
3.694,-0.420,-0.025
3.696,-0.080,-0.020
3.698,0.035,-0.015
3.700,0.050,-0.015
3.702,-0.030,-0.015
3.704,-0.070,-0.015
3.706,-0.150,-0.020
3.708,-0.205,-0.015
3.710,-0.260,-0.015
3.712,-0.220,-0.010
3.714,-0.195,-0.005
3.716,-0.220,-0.005
3.718,-0.065,-0.010
3.720,0.000,-0.020
3.722,-0.095,-0.035
3.724,-0.090,-0.055
3.726,-0.175,-0.070
3.728,-0.210,-0.085
3.730,-0.245,-0.095
3.732,-0.475,-0.095
3.734,-0.360,-0.085
3.736,-0.155,-0.070
3.738,-0.070,-0.045
3.740,-0.025,-0.025
3.742,0.060,-0.005
3.744,-0.055,0.005
3.746,-0.150,0.005
3.748,-0.280,0.000
3.750,-0.225,-0.010
3.752,-0.235,-0.020
3.754,-0.270,-0.035
3.756,-0.225,-0.045
3.758,-0.105,-0.045
3.760,-0.030,-0.045
3.762,-0.035,-0.040
3.764,0.000,-0.030
3.766,-0.110,-0.015
3.768,-0.290,-0.010
3.770,-0.205,-0.005
3.772,-0.245,-0.005
3.774,-0.310,-0.010
3.776,-0.250,-0.020
3.778,-0.080,-0.035
3.780,-0.020,-0.050
3.782,-0.020,-0.065
3.784,-0.055,-0.070
3.786,-0.085,-0.075
3.788,-0.360,-0.070
3.790,-0.385,-0.060
3.792,-0.300,-0.045
3.794,-0.100,-0.030
3.796,-0.270,-0.015
3.798,-0.010,-0.005
3.800,0.030,0.000
3.802,-0.050,-0.005
3.804,-0.060,-0.010
3.806,-0.060,-0.025
3.808,-0.270,-0.035
3.810,-0.180,-0.050
3.812,-0.365,-0.060
3.814,-0.370,-0.065
3.816,-0.205,-0.065
3.818,-0.175,-0.065
3.820,-0.055,-0.065
3.822,0.050,-0.060
3.824,-0.030,-0.055
3.826,-0.170,-0.050
3.828,-0.320,-0.045
3.830,-0.340,-0.040
3.832,-0.320,-0.035
3.834,-0.185,-0.030
3.836,-0.110,-0.020
3.838,-0.055,-0.015
3.840,-0.015,-0.015
3.842,0.005,-0.015
3.844,-0.085,-0.020
3.846,-0.215,-0.025
3.848,-0.235,-0.035
3.850,-0.290,-0.045
3.852,-0.305,-0.055
3.854,-0.320,-0.065
3.856,-0.165,-0.075
3.858,-0.020,-0.080
3.860,-0.125,-0.080
3.862,-0.100,-0.080
3.864,-0.080,-0.080
3.866,-0.190,-0.080
3.868,-0.305,-0.080
3.870,-0.350,-0.080
3.872,-0.335,-0.080
3.874,-0.260,-0.080
3.876,-0.170,-0.075
3.878,-0.025,-0.075
3.880,-0.025,-0.070
3.882,-0.010,-0.060
3.884,-0.225,-0.050
3.886,-0.165,-0.045
3.888,-0.230,-0.035
3.890,-0.335,-0.030
3.892,-0.240,-0.030
3.894,-0.225,-0.035
3.896,-0.065,-0.040
3.898,-0.105,-0.045
3.900,-0.050,-0.050
3.902,-0.060,-0.055
3.904,-0.130,-0.055
3.906,-0.175,-0.050
3.908,-0.290,-0.040
3.910,-0.340,-0.035
3.912,-0.270,-0.025
3.914,-0.170,-0.020
3.916,-0.085,-0.020
3.918,-0.050,-0.020
3.920,0.020,-0.025
3.922,0.050,-0.030
3.924,-0.125,-0.030
3.926,-0.235,-0.030
3.928,-0.320,-0.025
3.930,-0.250,-0.015
3.932,-0.260,-0.005
3.934,-0.105,0.005
3.936,-0.025,0.010
3.938,-0.045,0.010
3.940,0.015,0.005
3.942,-0.015,-0.005
3.944,-0.100,-0.020
3.946,-0.205,-0.040
3.948,-0.310,-0.055
3.950,-0.385,-0.065
3.952,-0.360,-0.070
3.954,-0.235,-0.070
3.956,-0.075,-0.065
3.958,-0.125,-0.055
3.960,0.115,-0.045
3.962,0.005,-0.040
3.964,-0.120,-0.035
3.966,-0.275,-0.035
3.968,-0.340,-0.040
3.970,-0.345,-0.050
3.972,-0.295,-0.055
3.974,-0.155,-0.065
3.976,-0.085,-0.075
3.978,-0.135,-0.080
3.980,-0.040,-0.080
3.982,-0.040,-0.080
3.984,-0.130,-0.080
3.986,-0.255,-0.075
3.988,-0.365,-0.075
3.990,-0.260,-0.075
3.992,-0.330,-0.075
3.994,-0.465,-0.080
3.996,-0.130,-0.080
3.998,0.070,-0.075
4.000,-0.030,-0.075
4.002,0.020,-0.065
4.004,-0.090,-0.060
4.006,-0.290,-0.055
4.008,-0.330,-0.045
4.010,-0.370,-0.045
4.012,-0.320,-0.040
4.014,-0.155,-0.040
4.016,0.060,-0.040
4.018,0.045,-0.035
4.020,-0.020,-0.035
4.022,-0.090,-0.020
4.024,-0.155,-0.005
4.026,-0.310,0.030
4.028,-0.130,0.070
4.030,-0.095,0.130
4.032,0.025,0.195
4.034,0.200,0.275
4.036,0.345,0.355
4.038,0.425,0.425
4.040,0.575,0.480
4.042,0.625,0.515
4.044,0.545,0.515
4.046,0.225,0.480
4.048,0.130,0.405
4.050,-0.060,0.305
4.052,-0.090,0.190
4.054,-0.085,0.060
4.056,-0.080,-0.060
4.058,-0.080,-0.160
4.060,-0.260,-0.240
4.062,-0.375,-0.290
4.064,-0.465,-0.320
4.066,-0.420,-0.325
4.068,-0.595,-0.320
4.070,-0.575,-0.310
4.072,-0.605,-0.295
4.074,-0.390,-0.285
4.076,-0.250,-0.275
4.078,-0.205,-0.260
4.080,-0.265,-0.240
4.082,-0.200,-0.215
4.084,-0.230,-0.185
4.086,-0.430,-0.150
4.088,-0.355,-0.115
4.090,-0.285,-0.080
4.092,-0.280,-0.060
4.094,-0.155,-0.045
4.096,-0.125,-0.040
4.098,0.075,-0.045
4.100,-0.080,-0.050
4.102,0.020,-0.055
4.104,-0.180,-0.055
4.106,-0.260,-0.050
4.108,-0.305,-0.040
4.110,-0.310,-0.030
4.112,-0.230,-0.020
4.114,-0.095,-0.015
4.116,-0.100,-0.015
4.118,0.120,-0.020
4.120,0.110,-0.030
4.122,-0.145,-0.040
4.124,-0.190,-0.040
4.126,-0.290,-0.040
4.128,-0.305,-0.025
4.130,-0.325,-0.005
4.132,-0.045,0.015
4.134,-0.030,0.040
4.136,0.045,0.060
4.138,0.090,0.070
4.140,0.025,0.065
4.142,-0.015,0.055
4.144,-0.120,0.040
4.146,-0.145,0.015
4.148,-0.230,-0.005
4.150,-0.205,-0.025
4.152,-0.250,-0.035
4.154,-0.125,-0.035
4.156,-0.045,-0.030
4.158,0.035,-0.020
4.160,0.005,-0.005
4.162,-0.055,0.005
4.164,-0.115,0.015
4.166,-0.140,0.025
4.168,-0.135,0.025
4.170,-0.180,0.025
4.172,-0.225,0.020
4.174,-0.105,0.015
4.176,0.005,0.015
4.178,-0.045,0.020
4.180,0.110,0.025
4.182,0.105,0.035
4.184,-0.070,0.045
4.186,-0.205,0.050
4.188,-0.285,0.060
4.190,-0.185,0.065
4.192,-0.060,0.065
4.194,0.015,0.065
4.196,0.045,0.065
4.198,0.040,0.065
4.200,0.105,0.070
4.202,0.010,0.075
4.204,-0.085,0.080
4.206,-0.055,0.090
4.208,-0.150,0.095
4.210,-0.180,0.105
4.212,-0.060,0.105
4.214,-0.035,0.110
4.216,0.140,0.110
4.218,0.175,0.110
4.220,0.120,0.110
4.222,0.165,0.115
4.224,-0.125,0.125
4.226,-0.075,0.135
4.228,-0.145,0.145
4.230,-0.190,0.155
4.232,0.065,0.160
4.234,0.325,0.165
4.236,0.080,0.160
4.238,0.180,0.160
4.240,0.115,0.155
4.242,0.145,0.155
4.244,-0.055,0.155
4.246,-0.060,0.155
4.248,-0.040,0.160
4.250,0.010,0.170
4.252,0.050,0.175
4.254,0.025,0.185
4.256,0.130,0.195
4.258,0.265,0.210
4.260,0.345,0.220
4.262,0.205,0.230
4.264,0.130,0.240
4.266,-0.025,0.250
4.268,-0.015,0.250
4.270,-0.010,0.250
4.272,0.030,0.240
4.274,0.205,0.230
4.276,0.245,0.215
4.278,0.245,0.195
4.280,0.160,0.180
4.282,0.165,0.170
4.284,-0.070,0.160
4.286,-0.060,0.155
4.288,-0.140,0.150
4.290,-0.010,0.145
4.292,-0.050,0.135
4.294,0.135,0.115
4.296,0.095,0.095
4.298,0.135,0.065
4.300,-0.055,0.040
4.302,-0.080,0.015
4.304,-0.155,0.000
4.306,-0.260,-0.010
4.308,-0.250,-0.010
4.310,-0.265,-0.010
4.312,-0.070,-0.005
4.314,-0.025,0.000
4.316,-0.010,0.000
4.318,0.075,-0.010
4.320,-0.055,-0.020
4.322,-0.140,-0.035
4.324,-0.335,-0.050
4.326,-0.315,-0.065
4.328,-0.240,-0.075
4.330,-0.215,-0.075
4.332,-0.190,-0.075
4.334,-0.120,-0.065
4.336,-0.015,-0.060
4.338,-0.125,-0.055
4.340,-0.005,-0.045
4.342,-0.105,-0.040
4.344,-0.185,-0.040
4.346,-0.350,-0.035
4.348,-0.275,-0.035
4.350,-0.270,-0.035
4.352,-0.145,-0.040
4.354,-0.065,-0.040
4.356,-0.005,-0.045
4.358,-0.005,-0.050
4.360,-0.085,-0.055
4.362,-0.215,-0.060
4.364,-0.235,-0.060
4.366,-0.255,-0.055
4.368,-0.395,-0.050
4.370,-0.170,-0.050
4.372,-0.105,-0.045
4.374,-0.035,-0.045
4.376,-0.045,-0.050
4.378,-0.025,-0.055
4.380,-0.015,-0.065
4.382,-0.185,-0.070
4.384,-0.375,-0.075
4.386,-0.290,-0.080
4.388,-0.270,-0.075
4.390,-0.335,-0.065
4.392,-0.170,-0.055
4.394,0.025,-0.050
4.396,0.105,-0.040
4.398,0.090,-0.035
4.400,-0.150,-0.035
4.402,-0.190,-0.040
4.404,-0.350,-0.040
4.406,-0.340,-0.045
4.408,-0.240,-0.050
4.410,-0.065,-0.055
4.412,-0.085,-0.055
4.414,-0.110,-0.055
4.416,-0.160,-0.060
4.418,0.000,-0.065
4.420,-0.080,-0.065
4.422,-0.135,-0.065
4.424,-0.350,-0.060
4.426,-0.275,-0.055
4.428,-0.285,-0.045
4.430,-0.260,-0.030
4.432,-0.050,-0.020
4.434,-0.015,-0.010
4.436,0.140,-0.005
4.438,0.050,-0.010
4.440,-0.145,-0.015
4.442,-0.240,-0.025
4.444,-0.250,-0.040
4.446,-0.300,-0.050
4.448,-0.245,-0.055
4.450,-0.205,-0.050
4.452,-0.130,-0.045
4.454,-0.035,-0.035
4.456,0.070,-0.030
4.458,0.020,-0.020
4.460,-0.095,-0.020
4.462,-0.195,-0.020
4.464,-0.240,-0.030
4.466,-0.290,-0.040
4.468,-0.360,-0.045
4.470,-0.240,-0.050
4.472,0.010,-0.050
4.474,0.060,-0.045
4.476,-0.065,-0.035
4.478,0.020,-0.025
4.480,-0.080,-0.020
4.482,-0.185,-0.015
4.484,-0.340,-0.020
4.486,-0.230,-0.025
4.488,-0.280,-0.040
4.490,-0.230,-0.050
4.492,-0.085,-0.065
4.494,-0.085,-0.070
4.496,0.095,-0.075
4.498,0.060,-0.075
4.500,-0.205,-0.075
4.502,-0.285,-0.070
4.504,-0.315,-0.065
4.506,-0.310,-0.060
4.508,-0.220,-0.055
4.510,-0.215,-0.055
4.512,0.020,-0.055
4.514,-0.040,-0.055
4.516,0.025,-0.050
4.518,-0.110,-0.050
4.520,-0.210,-0.045
4.522,-0.155,-0.035
4.524,-0.260,-0.025
4.526,-0.245,-0.020
4.528,-0.240,-0.010
4.530,-0.160,-0.005
4.532,0.085,-0.005
4.534,0.045,-0.005
4.536,-0.015,-0.010
4.538,-0.115,-0.015
4.540,-0.070,-0.025
4.542,-0.245,-0.035
4.544,-0.305,-0.045
4.546,-0.260,-0.055
4.548,-0.175,-0.060
4.550,-0.155,-0.060
4.552,-0.100,-0.060
4.554,-0.055,-0.060
4.556,0.000,-0.055
4.558,-0.085,-0.050
4.560,-0.125,-0.050
4.562,-0.260,-0.045
4.564,-0.245,-0.040
4.566,-0.270,-0.040
4.568,-0.235,-0.035
4.570,-0.180,-0.030
4.572,-0.045,-0.025
4.574,0.100,-0.025
4.576,0.045,-0.025
4.578,-0.085,-0.030
4.580,-0.165,-0.045
4.582,-0.300,-0.060
4.584,-0.300,-0.080
4.586,-0.360,-0.095
4.588,-0.255,-0.105
4.590,-0.095,-0.100
4.592,-0.020,-0.090
4.594,-0.075,-0.065
4.596,-0.020,-0.030
4.598,-0.110,0.000
4.600,-0.250,0.025
4.602,-0.170,0.040
4.604,-0.095,0.030
4.606,-0.085,0.010
4.608,-0.055,-0.020
4.610,-0.100,-0.055
4.612,-0.085,-0.080
4.614,-0.190,-0.085
4.616,-0.325,-0.080
4.618,-0.240,-0.055
4.620,-0.110,-0.020
4.622,0.020,0.020
4.624,-0.100,0.045
4.626,-0.040,0.055
4.628,0.075,0.045
4.630,0.070,0.025
4.632,-0.130,-0.010
4.634,-0.205,-0.040
4.636,-0.290,-0.060
4.638,-0.265,-0.065
4.640,-0.180,-0.060
4.642,-0.105,-0.040
4.644,-0.065,-0.020
4.646,0.045,-0.005
4.648,0.085,0.000
4.650,-0.060,-0.005
4.652,-0.140,-0.025
4.654,-0.290,-0.045
4.656,-0.285,-0.060
4.658,-0.295,-0.070
4.660,-0.180,-0.070
4.662,-0.165,-0.060
4.664,-0.070,-0.045
4.666,0.045,-0.025
4.668,0.020,-0.015
4.670,-0.050,-0.015
4.672,-0.170,-0.020
4.674,-0.215,-0.035
4.676,-0.360,-0.055
4.678,-0.210,-0.070
4.680,-0.390,-0.085
4.682,-0.130,-0.085
4.684,0.005,-0.080
4.686,0.055,-0.070
4.688,-0.050,-0.060
4.690,-0.055,-0.055
4.692,-0.205,-0.050
4.694,-0.330,-0.050
4.696,-0.275,-0.050
4.698,-0.240,-0.055
4.700,-0.280,-0.055
4.702,-0.090,-0.050
4.704,0.025,-0.045
4.706,0.055,-0.040
4.708,0.045,-0.040
4.710,-0.075,-0.035
4.712,-0.260,-0.040
4.714,-0.350,-0.045
4.716,-0.330,-0.050
4.718,-0.190,-0.055
4.720,-0.110,-0.055
4.722,-0.155,-0.055
4.724,-0.070,-0.045
4.726,0.145,-0.025
4.728,0.140,-0.005
4.730,-0.165,0.025
4.732,-0.140,0.060
4.734,-0.065,0.110
4.736,-0.060,0.165
4.738,-0.040,0.230
4.740,0.155,0.300
4.742,0.375,0.375
4.744,0.515,0.440
4.746,0.640,0.495
4.748,0.670,0.520
4.750,0.485,0.520
4.752,0.275,0.480
4.754,0.155,0.410
4.756,0.025,0.305
4.758,-0.025,0.185
4.760,-0.195,0.055
4.762,-0.040,-0.070
4.764,-0.105,-0.175
4.766,-0.195,-0.260
4.768,-0.365,-0.315
4.770,-0.485,-0.340
4.772,-0.530,-0.345
4.774,-0.545,-0.335
4.776,-0.520,-0.310
4.778,-0.435,-0.285
4.780,-0.400,-0.260
4.782,-0.315,-0.235
4.784,-0.125,-0.215
4.786,-0.175,-0.195
4.788,-0.200,-0.175
4.790,-0.175,-0.150
4.792,-0.285,-0.125
4.794,-0.260,-0.100
4.796,-0.315,-0.075
4.798,-0.300,-0.060
4.800,-0.245,-0.045
4.802,-0.055,-0.035
4.804,-0.020,-0.035
4.806,0.035,-0.035
4.808,0.015,-0.030
4.810,-0.010,-0.030
4.812,-0.145,-0.025
4.814,-0.340,-0.020
4.816,-0.340,-0.015
4.818,-0.205,-0.005
4.820,-0.030,-0.005
4.822,-0.010,-0.005
4.824,-0.040,-0.005
4.826,0.135,-0.010
4.828,0.060,-0.015
4.830,-0.220,-0.020
4.832,-0.290,-0.020
4.834,-0.205,-0.015
4.836,-0.180,-0.010
4.838,-0.095,0.000
4.840,-0.090,0.010
4.842,-0.005,0.020
4.844,0.010,0.020
4.846,0.080,0.025
4.848,0.045,0.025
4.850,-0.055,0.020
4.852,-0.150,0.020
4.854,-0.200,0.020
4.856,-0.250,0.020
4.858,-0.295,0.020
4.860,-0.030,0.015
4.862,0.050,0.010
4.864,0.040,0.005
4.866,0.110,0.000
4.868,-0.060,-0.010
4.870,-0.125,-0.010
4.872,-0.175,-0.010
4.874,-0.205,-0.005
4.876,-0.190,0.005
4.878,-0.125,0.015
4.880,-0.095,0.030
4.882,0.010,0.040
4.884,0.180,0.050
4.886,0.140,0.055
4.888,-0.055,0.055
4.890,-0.070,0.050
4.892,-0.095,0.045
4.894,-0.240,0.040
4.896,-0.250,0.040
4.898,-0.025,0.045
4.900,0.015,0.055
4.902,0.090,0.065
4.904,-0.015,0.075
4.906,0.150,0.085
4.908,0.115,0.095
4.910,0.055,0.105
4.912,-0.120,0.110
4.914,-0.130,0.110
4.916,-0.170,0.110
4.918,-0.030,0.105
4.920,0.095,0.100
4.922,0.090,0.100
4.924,0.150,0.100
4.926,0.160,0.105
4.928,0.150,0.110
4.930,-0.070,0.120
4.932,-0.050,0.135
4.934,-0.085,0.150
4.936,0.005,0.165
4.938,0.160,0.180
4.940,0.045,0.190
4.942,0.175,0.195
4.944,0.180,0.200
4.946,0.315,0.195
4.948,0.140,0.195
4.950,0.035,0.190
4.952,-0.015,0.190
4.954,-0.025,0.195
4.956,0.040,0.200
4.958,0.090,0.215
4.960,0.190,0.225
4.962,0.280,0.240
4.964,0.245,0.250
4.966,0.275,0.255
4.968,0.210,0.255
4.970,0.090,0.250
4.972,0.060,0.245
4.974,0.025,0.235
4.976,-0.065,0.230
4.978,0.035,0.225
4.980,0.345,0.220
4.982,0.275,0.220
4.984,0.240,0.220
4.986,0.065,0.215
4.988,0.245,0.210
4.990,0.040,0.195
4.992,-0.065,0.180
4.994,-0.080,0.155
4.996,-0.050,0.130
4.998,0.050,0.100
5.000,-0.020,0.075
5.002,0.075,0.055
5.004,0.115,0.040
5.006,0.100,0.035
5.008,-0.020,0.030
5.010,-0.170,0.030
5.012,-0.195,0.030
5.014,-0.240,0.025
5.016,-0.260,0.020
5.018,-0.065,0.010
5.020,0.005,0.000
5.022,-0.045,-0.015
5.024,0.060,-0.020
5.026,0.095,-0.030
5.028,-0.085,-0.030
5.030,-0.250,-0.025
5.032,-0.315,-0.020
5.034,-0.265,-0.015
5.036,-0.145,-0.015
5.038,-0.120,-0.015
5.040,0.045,-0.015
5.042,-0.015,-0.025
5.044,-0.020,-0.030
5.046,-0.045,-0.040
5.048,-0.120,-0.045
5.050,-0.190,-0.050
5.052,-0.275,-0.055
5.054,-0.215,-0.055
5.056,-0.255,-0.055
5.058,-0.235,-0.055
5.060,-0.080,-0.060
5.062,-0.100,-0.060
5.064,0.000,-0.060
5.066,0.030,-0.060
5.068,-0.115,-0.060
5.070,-0.250,-0.055
5.072,-0.260,-0.050
5.074,-0.250,-0.050
5.076,-0.215,-0.050
5.078,-0.225,-0.050
5.080,-0.010,-0.060
5.082,-0.085,-0.065
5.084,-0.015,-0.070
5.086,-0.015,-0.075
5.088,-0.155,-0.070
5.090,-0.280,-0.060
5.092,-0.250,-0.045
5.094,-0.210,-0.030
5.096,-0.250,-0.020
5.098,-0.170,-0.015
5.100,0.100,-0.020
5.102,-0.025,-0.035
5.104,-0.005,-0.055
5.106,-0.085,-0.075
5.108,-0.155,-0.095
5.110,-0.235,-0.100
5.112,-0.335,-0.100
5.114,-0.355,-0.085
5.116,-0.295,-0.065
5.118,-0.085,-0.040
5.120,-0.020,-0.015
5.122,0.035,0.000
5.124,0.030,0.000
5.126,0.010,-0.005
5.128,-0.030,-0.020
5.130,-0.240,-0.035
5.132,-0.320,-0.050
5.134,-0.275,-0.060
5.136,-0.220,-0.065
5.138,-0.235,-0.060
5.140,-0.075,-0.050
5.142,0.015,-0.040
5.144,0.185,-0.025
5.146,-0.020,-0.020
5.148,-0.095,-0.015
5.150,-0.270,-0.015
5.152,-0.245,-0.015
5.154,-0.230,-0.020
5.156,-0.210,-0.020
5.158,-0.160,-0.025
5.160,-0.030,-0.025
5.162,0.020,-0.025
5.164,-0.035,-0.025
5.166,-0.005,-0.025
5.168,0.065,-0.030
5.170,-0.290,-0.035
5.172,-0.310,-0.040
5.174,-0.260,-0.040
5.176,-0.195,-0.040
5.178,-0.115,-0.035
5.180,0.015,-0.035
5.182,0.040,-0.030
5.184,-0.050,-0.025
5.186,-0.080,-0.025
5.188,-0.035,-0.025
5.190,-0.175,-0.030
5.192,-0.400,-0.030
5.194,-0.230,-0.030
5.196,-0.160,-0.025
5.198,-0.080,-0.020
5.200,-0.005,-0.015
5.202,-0.010,-0.010
5.204,0.085,-0.010
5.206,-0.020,-0.015
5.208,-0.190,-0.020
5.210,-0.220,-0.025
5.212,-0.225,-0.035
5.214,-0.225,-0.040
5.216,-0.350,-0.045
5.218,-0.080,-0.040
5.220,0.035,-0.035
5.222,-0.025,-0.030
5.224,0.070,-0.025
5.226,0.000,-0.020
5.228,-0.140,-0.020
5.230,-0.300,-0.020
5.232,-0.350,-0.020
5.234,-0.290,-0.025
5.236,-0.220,-0.030
5.238,-0.010,-0.035
5.240,0.080,-0.040
5.242,0.015,-0.040
5.244,-0.075,-0.040
5.246,-0.085,-0.045
5.248,-0.275,-0.045
5.250,-0.205,-0.045
5.252,-0.200,-0.050
5.254,-0.305,-0.050
5.256,-0.285,-0.045
5.258,-0.040,-0.040
5.260,0.035,-0.030
5.262,0.055,-0.020
5.264,-0.015,-0.005
5.266,-0.030,0.000
5.268,-0.150,0.005
5.270,-0.220,0.005
5.272,-0.215,-0.005
5.274,-0.180,-0.020
5.276,-0.235,-0.035
5.278,-0.175,-0.055
5.280,0.010,-0.065
5.282,0.075,-0.070
5.284,-0.190,-0.070
5.286,-0.025,-0.060
5.288,-0.230,-0.045
5.290,-0.220,-0.030
5.292,-0.235,-0.015
5.294,-0.250,-0.005
5.296,-0.040,0.000
5.298,-0.050,-0.005
5.300,-0.070,-0.020
5.302,0.005,-0.035
5.304,0.010,-0.055
5.306,-0.135,-0.065
5.308,-0.210,-0.070
5.310,-0.260,-0.070
5.312,-0.235,-0.060
5.314,-0.285,-0.045
5.316,-0.220,-0.025
5.318,-0.005,-0.010
5.320,0.145,0.000
5.322,0.070,0.000
5.324,-0.045,-0.010
5.326,-0.155,-0.020
5.328,-0.240,-0.040
5.330,-0.325,-0.055
5.332,-0.395,-0.060
5.334,-0.230,-0.065
5.336,-0.080,-0.055
5.338,0.060,-0.040
5.340,0.005,-0.020
5.342,0.035,0.000
5.344,0.050,0.020
5.346,-0.095,0.035
5.348,-0.130,0.040
5.350,-0.235,0.035
5.352,-0.130,0.020
5.354,-0.240,0.005
5.356,-0.150,-0.015
5.358,-0.070,-0.035
5.360,-0.005,-0.050
5.362,0.085,-0.060
5.364,-0.125,-0.065
5.366,-0.105,-0.065
5.368,-0.285,-0.060
5.370,-0.260,-0.055
5.372,-0.185,-0.045
5.374,-0.365,-0.040
5.376,-0.120,-0.030
5.378,-0.030,-0.025
5.380,0.045,-0.020
5.382,0.040,-0.020
5.384,-0.020,-0.015
5.386,-0.140,-0.015
5.388,-0.260,-0.020
5.390,-0.230,-0.025
5.392,-0.315,-0.030
5.394,-0.180,-0.040
5.396,-0.115,-0.045
5.398,-0.050,-0.055
5.400,-0.085,-0.060
5.402,-0.045,-0.060
5.404,-0.020,-0.060
5.406,-0.100,-0.060
5.408,-0.290,-0.055
5.410,-0.175,-0.045
5.412,-0.330,-0.040
5.414,-0.265,-0.035
5.416,-0.050,-0.030
5.418,-0.015,-0.030
5.420,-0.025,-0.030
5.422,-0.035,-0.035
5.424,-0.090,-0.045
5.426,-0.205,-0.055
5.428,-0.255,-0.065
5.430,-0.240,-0.075
5.432,-0.260,-0.085
5.434,-0.280,-0.090
5.436,-0.200,-0.085
5.438,-0.115,-0.075
5.440,0.035,-0.055
5.442,0.060,-0.020
5.444,-0.015,0.025
5.446,-0.060,0.075
5.448,-0.055,0.140
5.450,-0.030,0.205
5.452,0.090,0.275
5.454,0.215,0.340
5.456,0.375,0.395
5.458,0.480,0.435
5.460,0.525,0.465
5.462,0.605,0.465
5.464,0.430,0.445
5.466,0.310,0.400
5.468,0.010,0.325
5.470,-0.085,0.235
5.472,-0.120,0.130
5.474,-0.080,0.015
5.476,-0.225,-0.090
5.478,-0.160,-0.190
5.480,-0.235,-0.270
5.482,-0.350,-0.320
5.484,-0.375,-0.350
5.486,-0.555,-0.360
5.488,-0.520,-0.345
5.490,-0.575,-0.320
5.492,-0.570,-0.285
5.494,-0.510,-0.255
5.496,-0.175,-0.225
5.498,-0.180,-0.200
5.500,-0.110,-0.185
5.502,-0.135,-0.170
5.504,-0.215,-0.155
5.506,-0.300,-0.145
5.508,-0.315,-0.130
5.510,-0.305,-0.115
5.512,-0.280,-0.100
5.514,-0.270,-0.090
5.516,-0.085,-0.075
5.518,-0.130,-0.065
5.520,-0.015,-0.060
5.522,0.025,-0.050
5.524,-0.040,-0.040
5.526,-0.185,-0.030
5.528,-0.350,-0.020
5.530,-0.265,-0.005
5.532,-0.155,0.005
5.534,-0.105,0.015
5.536,0.010,0.020
5.538,0.115,0.025
5.540,0.055,0.025
5.542,0.020,0.020
5.544,-0.110,0.010
5.546,-0.240,0.005
5.548,-0.185,0.000
5.550,-0.240,-0.005
5.552,-0.185,-0.005
5.554,-0.160,0.000
5.556,-0.010,0.005
5.558,0.045,0.015
5.560,0.090,0.020
5.562,0.040,0.025
5.564,0.005,0.030
5.566,-0.190,0.025
5.568,-0.155,0.020
5.570,-0.285,0.015
5.572,-0.220,0.010
5.574,-0.115,0.005
5.576,0.000,0.005
5.578,-0.035,0.010
5.580,0.200,0.020
5.582,0.015,0.035
5.584,-0.015,0.045
5.586,-0.140,0.055
5.588,-0.140,0.060
5.590,-0.195,0.060
5.592,-0.200,0.055
5.594,-0.090,0.045
5.596,0.050,0.030
5.598,0.040,0.020
5.600,0.030,0.010
5.602,0.055,0.010
5.604,0.015,0.015
5.606,-0.190,0.025
5.608,-0.150,0.040
5.610,-0.240,0.055
5.612,-0.185,0.070
5.614,-0.100,0.080
5.616,0.135,0.085
5.618,0.140,0.085
5.620,0.140,0.080
5.622,0.085,0.070
5.624,-0.100,0.065
5.626,-0.075,0.065
5.628,-0.100,0.070
5.630,-0.250,0.075
5.632,-0.175,0.090
5.634,-0.020,0.105
5.636,0.335,0.125
5.638,0.130,0.140
5.640,0.210,0.155
5.642,0.215,0.165
5.644,0.070,0.170
5.646,-0.070,0.170
5.648,-0.145,0.165
5.650,-0.025,0.165
5.652,-0.040,0.165
5.654,0.000,0.165
5.656,0.200,0.170
5.658,0.230,0.175
5.660,0.275,0.185
5.662,0.195,0.195
5.664,0.165,0.205
5.666,-0.010,0.210
5.668,-0.160,0.215
5.670,-0.060,0.215
5.672,0.040,0.210
5.674,0.210,0.205
5.676,0.240,0.200
5.678,0.220,0.200
5.680,0.270,0.200
5.682,0.230,0.210
5.684,0.065,0.215
5.686,-0.030,0.225
5.688,-0.025,0.230
5.690,0.060,0.235
5.692,0.070,0.230
5.694,0.200,0.225
5.696,0.230,0.210
5.698,0.160,0.195
5.700,0.210,0.180
5.702,0.095,0.165
5.704,0.085,0.155
5.706,-0.075,0.145
5.708,-0.075,0.135
5.710,-0.115,0.125
5.712,-0.090,0.115
5.714,-0.055,0.100
5.716,0.135,0.080
5.718,0.145,0.060
5.720,0.030,0.035
5.722,-0.100,0.015
5.724,-0.200,0.000
5.726,-0.120,-0.015
5.728,-0.155,-0.025
5.730,-0.375,-0.030
5.732,-0.180,-0.030
5.734,-0.060,-0.030
5.736,0.015,-0.030
5.738,-0.080,-0.035
5.740,-0.020,-0.040
5.742,-0.070,-0.050
5.744,-0.065,-0.060
5.746,-0.245,-0.070
5.748,-0.420,-0.080
5.750,-0.405,-0.085
5.752,-0.235,-0.090
5.754,-0.100,-0.085
5.756,0.020,-0.080
5.758,-0.020,-0.070
5.760,-0.050,-0.065
5.762,-0.060,-0.055
5.764,-0.210,-0.050
5.766,-0.260,-0.045
5.768,-0.295,-0.045
5.770,-0.325,-0.050
5.772,-0.240,-0.055
5.774,-0.015,-0.060
5.776,-0.030,-0.070
5.778,0.030,-0.075
5.780,-0.120,-0.080
5.782,-0.205,-0.080
5.784,-0.130,-0.080
5.786,-0.320,-0.080
5.788,-0.285,-0.075
5.790,-0.345,-0.075
5.792,-0.320,-0.070
5.794,-0.135,-0.070
5.796,0.085,-0.070
5.798,-0.020,-0.070
5.800,-0.085,-0.070
5.802,-0.155,-0.065
5.804,-0.170,-0.060
5.806,-0.215,-0.055
5.808,-0.320,-0.050
5.810,-0.270,-0.050
5.812,-0.275,-0.045
5.814,-0.055,-0.045
5.816,0.030,-0.050
5.818,0.000,-0.055
5.820,-0.125,-0.060
5.822,-0.050,-0.070
5.824,-0.255,-0.075
5.826,-0.395,-0.075
5.828,-0.300,-0.070
5.830,-0.280,-0.060
5.832,-0.220,-0.050
5.834,-0.040,-0.035
5.836,-0.025,-0.025
5.838,-0.010,-0.015
5.840,0.040,-0.015
5.842,-0.085,-0.020
5.844,-0.245,-0.030
5.846,-0.185,-0.040
5.848,-0.310,-0.055
5.850,-0.340,-0.065
5.852,-0.260,-0.070
5.854,-0.105,-0.070
5.856,0.020,-0.060
5.858,-0.020,-0.050
5.860,0.070,-0.035
5.862,-0.080,-0.020
5.864,-0.220,-0.010
5.866,-0.275,-0.010
5.868,-0.315,-0.015
5.870,-0.255,-0.025
5.872,-0.205,-0.040
5.874,-0.085,-0.055
5.876,0.170,-0.065
5.878,-0.015,-0.070
5.880,-0.220,-0.070
5.882,-0.110,-0.065
5.884,-0.250,-0.060
5.886,-0.305,-0.055
5.888,-0.350,-0.050
5.890,-0.290,-0.055
5.892,-0.110,-0.060
5.894,-0.030,-0.065
5.896,-0.045,-0.070
5.898,-0.010,-0.075
5.900,-0.155,-0.075
5.902,-0.205,-0.070
5.904,-0.220,-0.060
5.906,-0.205,-0.050
5.908,-0.230,-0.040
5.910,-0.315,-0.040
5.912,-0.185,-0.040
5.914,-0.135,-0.050
5.916,-0.020,-0.055
5.918,0.045,-0.065
5.920,-0.005,-0.065
5.922,-0.190,-0.065
5.924,-0.300,-0.055
5.926,-0.295,-0.045
5.928,-0.220,-0.030
5.930,-0.165,-0.020
5.932,-0.180,-0.020
5.934,-0.040,-0.025
5.936,-0.050,-0.035
5.938,0.070,-0.055
5.940,0.045,-0.070
5.942,-0.285,-0.085
5.944,-0.370,-0.090
5.946,-0.315,-0.090
5.948,-0.280,-0.085
5.950,-0.295,-0.070
5.952,-0.095,-0.055
5.954,-0.070,-0.045
5.956,0.010,-0.030
5.958,-0.090,-0.025
5.960,-0.010,-0.025
5.962,-0.090,-0.030
5.964,-0.170,-0.035
5.966,-0.380,-0.040
5.968,-0.335,-0.050
5.970,-0.240,-0.055
5.972,-0.025,-0.060
5.974,-0.030,-0.065
5.976,-0.050,-0.065
5.978,-0.165,-0.065
5.980,-0.170,-0.065
5.982,-0.180,-0.065
5.984,-0.170,-0.060
5.986,-0.250,-0.060
5.988,-0.330,-0.055
5.990,-0.260,-0.045
5.992,-0.090,-0.040
5.994,-0.025,-0.035
5.996,0.060,-0.030
5.998,-0.055,-0.030
6.000,-0.200,-0.030
6.002,-0.145,-0.035
6.004,-0.280,-0.040
6.006,-0.180,-0.050
6.008,-0.320,-0.060
6.010,-0.145,-0.070
6.012,-0.225,-0.080
6.014,-0.110,-0.085
6.016,-0.130,-0.085
6.018,-0.065,-0.085
6.020,-0.070,-0.075
6.022,-0.145,-0.070
6.024,-0.290,-0.055
6.026,-0.360,-0.050
6.028,-0.360,-0.040
6.030,-0.215,-0.035
6.032,-0.015,-0.040
6.034,-0.080,-0.040
6.036,0.070,-0.045
6.038,-0.035,-0.050
6.040,-0.155,-0.050
6.042,-0.205,-0.050
6.044,-0.205,-0.045
6.046,-0.320,-0.040
6.048,-0.355,-0.035
6.050,-0.165,-0.030
6.052,-0.100,-0.030
6.054,0.000,-0.040
6.056,-0.020,-0.050
6.058,-0.050,-0.060
6.060,-0.130,-0.070
6.062,-0.275,-0.080
6.064,-0.360,-0.085
6.066,-0.335,-0.080
6.068,-0.250,-0.075
6.070,-0.220,-0.060
6.072,-0.030,-0.045
6.074,-0.045,-0.035
6.076,-0.095,-0.025
6.078,0.040,-0.025
6.080,-0.115,-0.025
6.082,-0.210,-0.030
6.084,-0.235,-0.035
6.086,-0.335,-0.040
6.088,-0.320,-0.045
6.090,-0.170,-0.045
6.092,-0.095,-0.040
6.094,0.025,-0.035
6.096,-0.035,-0.030
6.098,-0.025,-0.020
6.100,0.070,-0.020
6.102,-0.330,-0.015
6.104,-0.240,-0.020
6.106,-0.325,-0.020
6.108,-0.100,-0.025
6.110,-0.250,-0.025
6.112,-0.115,-0.030
6.114,-0.020,-0.030
6.116,0.075,-0.025
6.118,-0.010,-0.025
6.120,-0.075,-0.030
6.122,-0.205,-0.030
6.124,-0.255,-0.040
6.126,-0.355,-0.045
6.128,-0.320,-0.055
6.130,-0.205,-0.060
6.132,-0.075,-0.060
6.134,-0.010,-0.055
6.136,-0.015,-0.045
6.138,-0.005,-0.035
6.140,-0.060,-0.030
6.142,-0.275,-0.025
6.144,-0.270,-0.030
6.146,-0.340,-0.040
6.148,-0.225,-0.055
6.150,-0.185,-0.070
6.152,-0.195,-0.085
6.154,-0.080,-0.095
6.156,-0.065,-0.095
6.158,-0.135,-0.085
6.160,-0.140,-0.070
6.162,-0.240,-0.050
6.164,-0.345,-0.040
6.166,-0.200,-0.030
6.168,-0.210,-0.025
6.170,-0.235,-0.030
6.172,-0.095,-0.040
6.174,-0.035,-0.050
6.176,-0.025,-0.055
6.178,-0.080,-0.055
6.180,-0.205,-0.055
6.182,-0.260,-0.045
6.184,-0.235,-0.035
6.186,-0.225,-0.025
6.188,-0.215,-0.025
6.190,-0.135,-0.025
6.192,-0.100,-0.030
6.194,-0.080,-0.035
6.196,-0.065,-0.035
6.198,-0.125,-0.025
6.200,-0.055,0.000
6.202,-0.135,0.045
6.204,-0.160,0.110
6.206,-0.020,0.185
6.208,0.085,0.270
6.210,0.290,0.350
6.212,0.430,0.425
6.214,0.550,0.485
6.216,0.535,0.515
6.218,0.535,0.525
6.220,0.455,0.500
6.222,0.215,0.450
6.224,0.090,0.375
6.226,-0.030,0.280
6.228,-0.015,0.175
6.230,-0.015,0.060
6.232,-0.070,-0.055
6.234,-0.140,-0.155
6.236,-0.305,-0.245
6.238,-0.460,-0.310
6.240,-0.490,-0.350
6.242,-0.630,-0.365
6.244,-0.540,-0.360
6.246,-0.630,-0.340
6.248,-0.420,-0.305
6.250,-0.385,-0.270
6.252,-0.230,-0.240
6.254,-0.200,-0.210
6.256,-0.255,-0.190
6.258,-0.235,-0.170
6.260,-0.345,-0.155
6.262,-0.350,-0.135
6.264,-0.280,-0.115
6.266,-0.180,-0.095
6.268,-0.245,-0.070
6.270,-0.145,-0.045
6.272,-0.200,-0.025
6.274,0.035,-0.010
6.276,0.005,-0.005
6.278,-0.080,0.000
6.280,-0.135,-0.005
6.282,-0.225,-0.010
6.284,-0.245,-0.015
6.286,-0.305,-0.015
6.288,-0.160,-0.015
6.290,-0.155,-0.005
6.292,0.010,0.005
6.294,0.035,0.015
6.296,0.095,0.025
6.298,-0.035,0.035
6.300,-0.155,0.035
6.302,-0.185,0.030
6.304,-0.295,0.020
6.306,-0.220,0.010
6.308,-0.180,-0.005
6.310,0.070,-0.020
6.312,-0.120,-0.025
6.314,-0.085,-0.030
6.316,0.010,-0.025
6.318,-0.025,-0.015
6.320,-0.135,0.000
6.322,-0.205,0.020
6.324,-0.215,0.035
6.326,-0.315,0.050
6.328,-0.035,0.050
6.330,0.060,0.050
6.332,0.075,0.040
6.334,0.015,0.020
6.336,-0.105,0.005
6.338,-0.115,-0.005
6.340,-0.165,-0.015
6.342,-0.135,-0.010
6.344,-0.275,0.000
6.346,-0.315,0.015
6.348,-0.025,0.030
6.350,0.000,0.045
6.352,-0.040,0.055
6.354,0.075,0.060
6.356,0.000,0.060
6.358,-0.040,0.055
6.360,-0.100,0.055
6.362,-0.180,0.055
6.364,-0.160,0.065
6.366,-0.170,0.075
6.368,-0.130,0.085
6.370,0.045,0.100
6.372,0.140,0.105
6.374,0.075,0.105
6.376,0.245,0.100
6.378,0.060,0.090
6.380,-0.240,0.080
6.382,-0.250,0.075
6.384,-0.180,0.070
6.386,-0.100,0.080
6.388,0.040,0.095
6.390,0.140,0.110
6.392,0.105,0.130
6.394,0.165,0.145
6.396,0.070,0.155
6.398,0.080,0.160
6.400,-0.055,0.155
6.402,-0.090,0.150
6.404,-0.150,0.140
6.406,-0.065,0.140
6.408,0.040,0.145
6.410,0.190,0.155
6.412,0.240,0.170
6.414,0.185,0.185
6.416,0.175,0.200
6.418,0.045,0.205
6.420,-0.065,0.205
6.422,-0.050,0.200
6.424,0.040,0.185
6.426,-0.135,0.175
6.428,0.025,0.165
6.430,0.275,0.165
6.432,0.175,0.170
6.434,0.190,0.180
6.436,0.195,0.195
6.438,0.120,0.210
6.440,-0.035,0.225
6.442,-0.035,0.235
6.444,-0.070,0.235
6.446,0.060,0.230
6.448,0.090,0.220
6.450,0.210,0.210
6.452,0.275,0.195
6.454,0.220,0.190
6.456,0.160,0.180
6.458,-0.025,0.175
6.460,0.040,0.170
6.462,-0.140,0.165
6.464,-0.190,0.155
6.466,-0.130,0.145
6.468,0.030,0.130
6.470,0.125,0.110
6.472,0.170,0.095
6.474,0.080,0.080
6.476,0.025,0.070
6.478,-0.060,0.065
6.480,-0.165,0.055
6.482,-0.250,0.050
6.484,-0.275,0.045
6.486,-0.175,0.030
6.488,-0.030,0.015
6.490,-0.020,-0.005
6.492,0.035,-0.020
6.494,-0.100,-0.040
6.496,-0.160,-0.055
6.498,-0.110,-0.060
6.500,-0.245,-0.060
6.502,-0.380,-0.055
6.504,-0.310,-0.050
6.506,-0.305,-0.040
6.508,-0.155,-0.030
6.510,0.050,-0.025
6.512,0.045,-0.025
6.514,-0.045,-0.030
6.516,-0.115,-0.040
6.518,-0.220,-0.050
6.520,-0.315,-0.060
6.522,-0.260,-0.070
6.524,-0.310,-0.075
6.526,-0.325,-0.075
6.528,-0.180,-0.075
6.530,-0.040,-0.070
6.532,-0.035,-0.065
6.534,-0.145,-0.055
6.536,-0.065,-0.050
6.538,-0.165,-0.040
6.540,-0.310,-0.040
6.542,-0.285,-0.040
6.544,-0.365,-0.040
6.546,-0.175,-0.045
6.548,-0.135,-0.050
6.550,-0.040,-0.055
6.552,-0.050,-0.060
6.554,-0.035,-0.060
6.556,-0.140,-0.055
6.558,-0.265,-0.055
6.560,-0.285,-0.050
6.562,-0.300,-0.050
6.564,-0.245,-0.050
6.566,-0.255,-0.055
6.568,-0.115,-0.060
6.570,-0.020,-0.065
6.572,-0.070,-0.065
6.574,-0.085,-0.065
6.576,-0.105,-0.060
6.578,-0.135,-0.050
6.580,-0.415,-0.040
6.582,-0.185,-0.035
6.584,-0.380,-0.030
6.586,-0.195,-0.030
6.588,-0.065,-0.035
6.590,0.000,-0.040
6.592,-0.025,-0.050
6.594,-0.010,-0.060
6.596,-0.255,-0.060
6.598,-0.335,-0.060
6.600,-0.230,-0.050
6.602,-0.195,-0.045
6.604,-0.260,-0.035
6.606,-0.130,-0.025
6.608,-0.215,-0.020
6.610,-0.075,-0.020
6.612,0.105,-0.025
6.614,-0.025,-0.030
6.616,-0.090,-0.040
6.618,-0.295,-0.040
6.620,-0.290,-0.040
6.622,-0.295,-0.040
6.624,-0.240,-0.035
6.626,-0.185,-0.035
6.628,-0.055,-0.035
6.630,-0.065,-0.035
6.632,0.000,-0.045
6.634,-0.115,-0.050
6.636,-0.145,-0.055
6.638,-0.270,-0.060
6.640,-0.260,-0.060
6.642,-0.335,-0.050
6.644,-0.340,-0.045
6.646,-0.160,-0.035
6.648,-0.055,-0.025
6.650,-0.005,-0.020
6.652,0.005,-0.015
6.654,-0.095,-0.020
6.656,-0.120,-0.025
6.658,-0.165,-0.035
6.660,-0.240,-0.045
6.662,-0.490,-0.055
6.664,-0.295,-0.060
6.666,-0.140,-0.065
6.668,-0.025,-0.065
6.670,-0.115,-0.065
6.672,-0.065,-0.065
6.674,-0.040,-0.060
6.676,-0.065,-0.055
6.678,-0.290,-0.050
6.680,-0.360,-0.040
6.682,-0.295,-0.030
6.684,-0.260,-0.020
6.686,-0.110,-0.010
6.688,-0.075,-0.005
6.690,-0.005,-0.005
6.692,0.080,-0.005
6.694,-0.020,-0.010
6.696,-0.110,-0.020
6.698,-0.305,-0.035
6.700,-0.365,-0.040
6.702,-0.285,-0.050
6.704,-0.235,-0.050
6.706,-0.265,-0.050
6.708,-0.085,-0.045
6.710,-0.040,-0.040
6.712,0.035,-0.035
6.714,-0.050,-0.035
6.716,-0.090,-0.035
6.718,-0.285,-0.040
6.720,-0.330,-0.050
6.722,-0.255,-0.060
6.724,-0.405,-0.070
6.726,-0.225,-0.075
6.728,-0.075,-0.075
6.730,-0.045,-0.070
6.732,0.050,-0.060
6.734,-0.105,-0.050
6.736,-0.190,-0.030
6.738,-0.225,-0.015
6.740,-0.215,-0.005
6.742,-0.285,-0.005
6.744,-0.320,-0.005
6.746,-0.105,-0.015
6.748,-0.025,-0.030
6.750,-0.030,-0.045
6.752,-0.020,-0.060
6.754,-0.195,-0.070
6.756,-0.220,-0.070
6.758,-0.255,-0.065
6.760,-0.220,-0.055
6.762,-0.280,-0.045
6.764,-0.315,-0.035
6.766,-0.155,-0.030
6.768,-0.055,-0.030
6.770,-0.105,-0.035
6.772,0.000,-0.040
6.774,0.080,-0.045
6.776,-0.250,-0.045
6.778,-0.320,-0.045
6.780,-0.285,-0.040
6.782,-0.225,-0.030
6.784,-0.305,-0.025
6.786,-0.275,-0.020
6.788,0.110,-0.020
6.790,0.045,-0.030
6.792,-0.115,-0.040
6.794,-0.150,-0.055
6.796,-0.230,-0.065
6.798,-0.345,-0.070
6.800,-0.350,-0.065
6.802,-0.265,-0.055
6.804,-0.230,-0.040
6.806,-0.070,-0.025
6.808,0.000,-0.015
6.810,0.030,-0.015
6.812,-0.110,-0.015
6.814,-0.065,-0.025
6.816,-0.240,-0.035
6.818,-0.275,-0.040
6.820,-0.230,-0.040
6.822,-0.335,-0.035
6.824,-0.215,-0.020
6.826,-0.085,-0.005
6.828,0.090,0.015
6.830,0.095,0.025
6.832,-0.015,0.030
6.834,-0.125,0.030
6.836,-0.100,0.020
6.838,-0.360,0.005
6.840,-0.240,-0.010
6.842,-0.210,-0.020
6.844,-0.240,-0.030
6.846,-0.105,-0.030
6.848,-0.055,-0.030
6.850,0.065,-0.030
6.852,-0.050,-0.030
6.854,-0.175,-0.030
6.856,-0.220,-0.030
6.858,-0.225,-0.035
6.860,-0.340,-0.040
6.862,-0.340,-0.040
6.864,-0.185,-0.040
6.866,-0.125,-0.040
6.868,0.020,-0.035
6.870,-0.015,-0.030
6.872,-0.020,-0.025
6.874,-0.080,-0.025
6.876,-0.255,-0.030
6.878,-0.260,-0.035
6.880,-0.390,-0.045
6.882,-0.225,-0.050
6.884,-0.225,-0.060
6.886,-0.130,-0.065
6.888,-0.060,-0.070
6.890,-0.070,-0.070
6.892,-0.055,-0.070
6.894,-0.135,-0.070
6.896,-0.320,-0.070
6.898,-0.330,-0.065
6.900,-0.310,-0.065
6.902,-0.405,-0.065
6.904,-0.205,-0.060
6.906,0.100,-0.060
6.908,-0.115,-0.050
6.910,-0.040,-0.045
6.912,-0.060,-0.035
6.914,-0.045,-0.025
6.916,-0.295,-0.020
6.918,-0.240,-0.015
6.920,-0.320,-0.015
6.922,-0.255,-0.010
6.924,-0.170,-0.005
6.926,0.035,0.010
6.928,0.030,0.040
6.930,0.095,0.085
6.932,0.195,0.145
6.934,0.070,0.220
6.936,0.115,0.305
6.938,0.040,0.390
6.940,0.095,0.460
6.942,0.420,0.515
6.944,0.505,0.540
6.946,0.500,0.530
6.948,0.580,0.485
6.950,0.505,0.410
6.952,0.195,0.310
6.954,-0.070,0.200
6.956,-0.105,0.080
6.958,-0.255,-0.030
6.960,-0.415,-0.125
6.962,-0.445,-0.205
6.964,-0.460,-0.265
6.966,-0.465,-0.305
6.968,-0.270,-0.325
6.970,-0.285,-0.335
6.972,-0.405,-0.335
6.974,-0.485,-0.320
6.976,-0.510,-0.300
6.978,-0.590,-0.275
6.980,-0.450,-0.240
6.982,-0.440,-0.205
6.984,-0.285,-0.170
6.986,-0.135,-0.140
6.988,-0.085,-0.110
6.990,-0.145,-0.085
6.992,-0.130,-0.070
6.994,-0.080,-0.060
6.996,-0.240,-0.055
6.998,-0.385,-0.050
7.000,-0.335,-0.045
7.002,-0.260,-0.040
7.004,-0.135,-0.030
7.006,0.000,-0.020
7.008,0.025,-0.010
7.010,0.055,-0.005
7.012,-0.020,0.000
7.014,-0.185,0.000
7.016,-0.335,-0.005
7.018,-0.325,-0.015
7.020,-0.210,-0.020
7.022,-0.235,-0.020
7.024,-0.150,-0.015
7.026,-0.015,-0.010
7.028,0.080,0.005
7.030,-0.030,0.020
7.032,0.075,0.040
7.034,-0.120,0.050
7.036,-0.150,0.055
7.038,-0.235,0.055
7.040,-0.210,0.045
7.042,-0.260,0.030
7.044,-0.090,0.010
7.046,0.015,-0.005
7.048,-0.055,-0.020
7.050,-0.040,-0.030
7.052,0.050,-0.030
7.054,-0.050,-0.025
7.056,-0.315,-0.015
7.058,-0.370,0.000
7.060,-0.280,0.015
7.062,-0.205,0.025
7.064,0.075,0.035
7.066,0.065,0.045
7.068,0.025,0.050
7.070,0.065,0.050
7.072,0.075,0.055
7.074,-0.160,0.055
7.076,-0.240,0.050
7.078,-0.225,0.050
7.080,-0.130,0.050
7.082,-0.130,0.050
7.084,-0.015,0.045
7.086,0.030,0.045
7.088,0.065,0.045
7.090,-0.040,0.045
7.092,-0.005,0.045
7.094,-0.150,0.050
7.096,-0.165,0.060
7.098,-0.135,0.065
7.100,-0.115,0.075
7.102,-0.185,0.085
7.104,-0.055,0.090
7.106,0.185,0.095
7.108,0.105,0.095
7.110,0.050,0.095
7.112,0.040,0.095
7.114,-0.095,0.095
7.116,-0.190,0.095
7.118,-0.185,0.095
7.120,-0.100,0.105
7.122,-0.060,0.115
7.124,0.095,0.125
7.126,0.130,0.140
7.128,0.080,0.150
7.130,0.150,0.160
7.132,0.165,0.165
7.134,0.005,0.170
7.136,-0.140,0.170
7.138,-0.140,0.170
7.140,-0.035,0.175
7.142,0.070,0.175
7.144,0.120,0.185
7.146,0.195,0.190
7.148,0.240,0.200
7.150,0.220,0.210
7.152,0.170,0.215
7.154,0.100,0.220
7.156,-0.090,0.220
7.158,-0.120,0.220
7.160,-0.060,0.220
7.162,0.040,0.220
7.164,0.260,0.220
7.166,0.315,0.225
7.168,0.260,0.235
7.170,0.125,0.245
7.172,0.125,0.250
7.174,0.075,0.255
7.176,0.010,0.250
7.178,-0.085,0.240
7.180,0.035,0.220
7.182,0.075,0.190
7.184,0.180,0.165
7.186,0.065,0.135
7.188,0.110,0.110
7.190,0.085,0.095
7.192,0.045,0.085
7.194,-0.145,0.080
7.196,-0.245,0.080
7.198,-0.175,0.075
7.200,-0.085,0.070
7.202,-0.165,0.065
7.204,0.035,0.050
7.206,0.025,0.030
7.208,0.060,0.010
7.210,-0.030,-0.010
7.212,-0.045,-0.030
7.214,-0.360,-0.040
7.216,-0.325,-0.050
7.218,-0.370,-0.055
7.220,-0.280,-0.055
7.222,-0.145,-0.055
7.224,-0.100,-0.050
7.226,0.000,-0.050
7.228,0.050,-0.045
7.230,0.030,-0.040
7.232,-0.290,-0.035
7.234,-0.275,-0.030
7.236,-0.290,-0.030
7.238,-0.250,-0.030
7.240,-0.225,-0.035
7.242,-0.120,-0.040
7.244,-0.125,-0.050
7.246,-0.095,-0.060
7.248,-0.065,-0.070
7.250,-0.130,-0.075
7.252,-0.170,-0.075
7.254,-0.280,-0.070
7.256,-0.375,-0.065
7.258,-0.370,-0.060
7.260,-0.215,-0.055
7.262,-0.105,-0.050
7.264,0.005,-0.050
7.266,-0.035,-0.055
7.268,-0.100,-0.065
7.270,-0.205,-0.070
7.272,-0.220,-0.075
7.274,-0.325,-0.075
7.276,-0.385,-0.070
7.278,-0.325,-0.060
7.280,-0.165,-0.055
7.282,-0.110,-0.045
7.284,-0.080,-0.035
7.286,0.035,-0.030
7.288,-0.105,-0.030
7.290,-0.085,-0.030
7.292,-0.225,-0.030
7.294,-0.195,-0.035
7.296,-0.275,-0.040
7.298,-0.360,-0.045
7.300,-0.310,-0.045
7.302,-0.125,-0.050
7.304,-0.075,-0.050
7.306,-0.040,-0.050
7.308,-0.085,-0.050
7.310,-0.085,-0.050
7.312,-0.205,-0.045
7.314,-0.250,-0.045
7.316,-0.260,-0.040
7.318,-0.245,-0.035
7.320,-0.305,-0.035
7.322,-0.100,-0.035
7.324,-0.060,-0.040
7.326,-0.020,-0.050
7.328,-0.075,-0.055
7.330,-0.130,-0.060
7.332,-0.230,-0.065
7.334,-0.275,-0.065
7.336,-0.370,-0.060
7.338,-0.315,-0.055
7.340,-0.180,-0.050
7.342,-0.060,-0.045
7.344,-0.035,-0.040
7.346,-0.090,-0.035
7.348,-0.090,-0.035
7.350,-0.060,-0.040
7.352,-0.205,-0.040
7.354,-0.260,-0.045
7.356,-0.350,-0.045
7.358,-0.315,-0.040
7.360,-0.140,-0.035
7.362,-0.035,-0.025
7.364,-0.080,-0.020
7.366,0.095,-0.015
7.368,-0.110,-0.015
7.370,-0.095,-0.020
7.372,-0.240,-0.030
7.374,-0.290,-0.040
7.376,-0.290,-0.055
7.378,-0.290,-0.070
7.380,-0.265,-0.075
7.382,-0.070,-0.080
7.384,-0.155,-0.075
7.386,-0.080,-0.065
7.388,-0.095,-0.055
7.390,-0.080,-0.040
7.392,-0.160,-0.030
7.394,-0.205,-0.025
7.396,-0.310,-0.020
7.398,-0.330,-0.025
7.400,-0.230,-0.035
7.402,-0.090,-0.045
7.404,0.010,-0.050
7.406,-0.055,-0.055
7.408,-0.035,-0.055
7.410,-0.125,-0.055
7.412,-0.360,-0.045
7.414,-0.240,-0.035
7.416,-0.245,-0.025
7.418,-0.235,-0.015
7.420,-0.270,-0.015
7.422,-0.015,-0.015
7.424,-0.030,-0.020
7.426,-0.090,-0.030
7.428,0.000,-0.035
7.430,-0.080,-0.040
7.432,-0.295,-0.045
7.434,-0.320,-0.045
7.436,-0.365,-0.045
7.438,-0.145,-0.045
7.440,-0.305,-0.045
7.442,-0.090,-0.045
7.444,-0.045,-0.050
7.446,0.005,-0.050
7.448,-0.035,-0.055
7.450,-0.160,-0.055
7.452,-0.335,-0.055
7.454,-0.395,-0.055
7.456,-0.315,-0.050
7.458,-0.195,-0.050
7.460,-0.130,-0.045
7.462,-0.005,-0.045
7.464,-0.085,-0.045
7.466,-0.040,-0.040
7.468,-0.125,-0.040
7.470,-0.140,-0.040
7.472,-0.270,-0.040
7.474,-0.330,-0.040
7.476,-0.195,-0.040
7.478,-0.215,-0.040
7.480,-0.365,-0.045
7.482,0.005,-0.050
7.484,0.035,-0.055
7.486,-0.115,-0.060
7.488,-0.145,-0.065
7.490,-0.155,-0.060
7.492,-0.345,-0.060
7.494,-0.240,-0.050
7.496,-0.225,-0.040
7.498,-0.235,-0.030
7.500,-0.250,-0.025
7.502,0.015,-0.015
7.504,-0.050,-0.015
7.506,0.005,-0.020
7.508,-0.050,-0.020
7.510,-0.200,-0.025
7.512,-0.295,-0.030
7.514,-0.280,-0.035
7.516,-0.310,-0.035
7.518,-0.185,-0.040
7.520,-0.150,-0.040
7.522,-0.070,-0.040
7.524,-0.050,-0.045
7.526,0.030,-0.050
7.528,-0.115,-0.055
7.530,-0.365,-0.065
7.532,-0.290,-0.065
7.534,-0.255,-0.065
7.536,-0.300,-0.065
7.538,-0.250,-0.060
7.540,-0.160,-0.050
7.542,-0.060,-0.040
7.544,-0.025,-0.030
7.546,-0.025,-0.025
7.548,-0.010,-0.015
7.550,-0.195,-0.010
7.552,-0.300,-0.005
7.554,-0.230,-0.005
7.556,-0.210,-0.010
7.558,-0.135,-0.015
7.560,-0.130,-0.020
7.562,-0.125,-0.025
7.564,-0.050,-0.035
7.566,0.030,-0.045
7.568,-0.105,-0.050
7.570,-0.295,-0.050
7.572,-0.295,-0.050
7.574,-0.250,-0.045
7.576,-0.230,-0.035
7.578,-0.150,-0.020
7.580,-0.060,-0.005
7.582,0.015,0.010
7.584,-0.070,0.020
7.586,0.080,0.025
7.588,-0.045,0.025
7.590,-0.185,0.015
7.592,-0.305,0.000
7.594,-0.235,-0.015
7.596,-0.265,-0.035
7.598,-0.265,-0.045
7.600,-0.130,-0.050
7.602,-0.105,-0.050
7.604,0.015,-0.050
7.606,-0.010,-0.040
7.608,-0.055,-0.035
7.610,-0.180,-0.035
7.612,-0.255,-0.035
7.614,-0.395,-0.040
7.616,-0.300,-0.050
7.618,-0.190,-0.060
7.620,-0.195,-0.065
7.622,-0.070,-0.070
7.624,-0.065,-0.065
7.626,0.000,-0.060
7.628,-0.090,-0.050
7.630,-0.235,-0.035
7.632,-0.340,-0.030
7.634,-0.330,-0.020
7.636,-0.270,-0.020
7.638,-0.140,-0.025
7.640,-0.055,-0.030
7.642,-0.010,-0.035
7.644,-0.065,-0.040
7.646,-0.055,-0.045
7.648,-0.180,-0.050
7.650,-0.210,-0.050
7.652,-0.250,-0.055
7.654,-0.360,-0.060
7.656,-0.385,-0.065
7.658,-0.240,-0.075
7.660,-0.005,-0.080
7.662,-0.115,-0.080
7.664,-0.060,-0.075
7.666,-0.065,-0.065
7.668,-0.145,-0.045
7.670,-0.115,-0.020
7.672,-0.270,0.010
7.674,-0.275,0.050
7.676,-0.095,0.095
7.678,-0.135,0.150
7.680,0.195,0.210
7.682,0.325,0.275
7.684,0.430,0.345
7.686,0.415,0.410
7.688,0.400,0.470
7.690,0.365,0.510
7.692,0.455,0.530
7.694,0.245,0.510
7.696,0.155,0.460
7.698,0.175,0.375
7.700,0.140,0.265
7.702,0.075,0.135
7.704,0.030,0.000
7.706,-0.065,-0.120
7.708,-0.320,-0.225
7.710,-0.595,-0.305
7.712,-0.595,-0.350
7.714,-0.685,-0.370
7.716,-0.620,-0.365
7.718,-0.545,-0.345
7.720,-0.255,-0.320
7.722,-0.320,-0.295
7.724,-0.250,-0.270
7.726,-0.235,-0.245
7.728,-0.355,-0.225
7.730,-0.350,-0.205
7.732,-0.335,-0.180
7.734,-0.390,-0.155
7.736,-0.485,-0.125
7.738,-0.455,-0.095
7.740,-0.155,-0.070
7.742,0.170,-0.045
7.744,0.030,-0.025
7.746,0.010,-0.010
7.748,-0.110,-0.005
7.750,-0.200,-0.005
7.752,-0.270,-0.005
7.754,-0.330,-0.015
7.756,-0.330,-0.020
7.758,-0.180,-0.025
7.760,0.005,-0.030
7.762,-0.025,-0.030
7.764,0.035,-0.030
7.766,0.035,-0.025
7.768,-0.170,-0.015
7.770,-0.235,-0.005
7.772,-0.255,0.005
7.774,-0.195,0.015
7.776,-0.160,0.025
7.778,-0.060,0.025
7.780,-0.090,0.020
7.782,-0.025,0.010
7.784,0.030,0.000
7.786,-0.015,-0.010
7.788,-0.165,-0.020
7.790,-0.195,-0.025
7.792,-0.275,-0.025
7.794,-0.285,-0.020
7.796,-0.325,-0.010
7.798,-0.145,0.000
7.800,0.050,0.010
7.802,0.130,0.020
7.804,0.070,0.025
7.806,-0.005,0.030
7.808,-0.185,0.030
7.810,-0.200,0.030
7.812,-0.175,0.025
7.814,-0.350,0.025
7.816,-0.180,0.020
7.818,-0.115,0.015
7.820,0.060,0.010
7.822,0.190,0.005
7.824,-0.035,0.000
7.826,-0.090,0.000
7.828,-0.160,0.005
7.830,-0.230,0.010
7.832,-0.175,0.020
7.834,-0.225,0.035
7.836,-0.130,0.050
7.838,-0.075,0.060
7.840,-0.005,0.065
7.842,0.120,0.070
7.844,0.020,0.065
7.846,0.080,0.060
7.848,-0.090,0.050
7.850,-0.175,0.045
7.852,-0.235,0.040
7.854,-0.215,0.040
7.856,-0.185,0.045
7.858,-0.010,0.060
7.860,0.040,0.080
7.862,0.085,0.100
7.864,0.150,0.125
7.866,0.070,0.145
7.868,0.020,0.160
7.870,-0.005,0.165
7.872,-0.085,0.170
7.874,-0.020,0.165
7.876,-0.070,0.160
7.878,0.040,0.150
7.880,0.160,0.145
7.882,0.135,0.140
7.884,0.120,0.140
7.886,0.100,0.150
7.888,-0.095,0.160
7.890,-0.010,0.175
7.892,-0.020,0.190
7.894,-0.025,0.205
7.896,0.090,0.215
7.898,0.190,0.215
7.900,0.170,0.215
7.902,0.185,0.210
7.904,0.095,0.205
7.906,0.080,0.200
7.908,0.050,0.200
7.910,0.055,0.200
7.912,0.065,0.210
7.914,0.025,0.220
7.916,0.055,0.230
7.918,0.085,0.235
7.920,0.130,0.235
7.922,0.260,0.230
7.924,0.165,0.220
7.926,0.135,0.200
7.928,0.075,0.185
7.930,-0.085,0.170
7.932,-0.140,0.155
7.934,0.000,0.145
7.936,-0.140,0.140
7.938,0.095,0.135
7.940,0.095,0.125
7.942,0.165,0.115
7.944,0.110,0.105
7.946,-0.005,0.085
7.948,-0.155,0.070
7.950,-0.155,0.050
7.952,-0.250,0.035
7.954,-0.260,0.025
7.956,-0.215,0.020
7.958,0.010,0.015
7.960,0.035,0.010
7.962,-0.005,0.005
7.964,0.035,0.000
7.966,-0.115,-0.010
7.968,-0.215,-0.015
7.970,-0.260,-0.025
7.972,-0.380,-0.035
7.974,-0.275,-0.040
7.976,-0.150,-0.045
7.978,0.030,-0.050
7.980,-0.025,-0.055
7.982,-0.090,-0.060
7.984,-0.150,-0.065
7.986,-0.265,-0.075
7.988,-0.265,-0.080
7.990,-0.365,-0.090
7.992,-0.310,-0.090
7.994,-0.305,-0.090
7.996,-0.215,-0.085
7.998,-0.055,-0.075
8.000,-0.010,-0.065
8.002,-0.005,-0.055
8.004,-0.060,-0.050
8.006,-0.095,-0.050
8.008,-0.265,-0.055
8.010,-0.420,-0.065
8.012,-0.370,-0.080
8.014,-0.370,-0.090
8.016,-0.195,-0.100
8.018,-0.135,-0.105
8.020,-0.015,-0.105
8.022,0.000,-0.095
8.024,-0.145,-0.080
8.026,-0.130,-0.065
8.028,-0.325,-0.050
8.030,-0.320,-0.035
8.032,-0.340,-0.025
8.034,-0.285,-0.020
8.036,-0.065,-0.015
8.038,0.025,-0.015
8.040,0.065,-0.015
8.042,-0.025,-0.020
8.044,-0.110,-0.020
8.046,-0.200,-0.025
8.048,-0.245,-0.035
8.050,-0.305,-0.045
8.052,-0.320,-0.055
8.054,-0.270,-0.070
8.056,-0.215,-0.080
8.058,-0.160,-0.095
8.060,-0.045,-0.100
8.062,-0.020,-0.105
8.064,-0.205,-0.105
8.066,-0.280,-0.095
8.068,-0.280,-0.090
8.070,-0.205,-0.080
8.072,-0.345,-0.075
8.074,-0.265,-0.070
8.076,-0.120,-0.075
8.078,-0.035,-0.080
8.080,-0.220,-0.085
8.082,-0.145,-0.085
8.084,-0.070,-0.080
8.086,-0.190,-0.070
8.088,-0.195,-0.055
8.090,-0.220,-0.040
8.092,-0.280,-0.025
8.094,-0.165,-0.015
8.096,-0.225,-0.015
8.098,-0.075,-0.020
8.100,-0.065,-0.035
8.102,-0.015,-0.055
8.104,-0.095,-0.070
8.106,-0.160,-0.080
8.108,-0.200,-0.085
8.110,-0.365,-0.075
8.112,-0.375,-0.060
8.114,-0.200,-0.040
8.116,-0.125,-0.020
8.118,-0.085,-0.010
8.120,0.065,-0.005
8.122,0.040,-0.005
8.124,-0.085,-0.015
8.126,-0.145,-0.030
8.128,-0.290,-0.040
8.130,-0.320,-0.045
8.132,-0.300,-0.045
8.134,-0.170,-0.040
8.136,-0.060,-0.030
8.138,-0.025,-0.020
8.140,0.000,-0.020
8.142,0.000,-0.020
8.144,-0.110,-0.035
8.146,-0.270,-0.050
8.148,-0.245,-0.070
8.150,-0.270,-0.090
8.152,-0.430,-0.105
8.154,-0.325,-0.110
8.156,-0.175,-0.110
8.158,-0.025,-0.100
8.160,-0.055,-0.085
8.162,-0.035,-0.065
8.164,-0.110,-0.050
8.166,-0.250,-0.035
8.168,-0.260,-0.030
8.170,-0.315,-0.030
8.172,-0.395,-0.035
8.174,-0.185,-0.045
8.176,-0.035,-0.055
8.178,-0.025,-0.060
8.180,-0.030,-0.060
8.182,-0.050,-0.060
8.184,-0.135,-0.055
8.186,-0.160,-0.050
8.188,-0.285,-0.045
8.190,-0.435,-0.040
8.192,-0.285,-0.040
8.194,-0.225,-0.040
8.196,-0.070,-0.045
8.198,-0.010,-0.050
8.200,-0.010,-0.055
8.202,-0.005,-0.055
8.204,-0.170,-0.055
8.206,-0.330,-0.050
8.208,-0.260,-0.045
8.210,-0.265,-0.040
8.212,-0.270,-0.035
8.214,-0.220,-0.035
8.216,-0.080,-0.040
8.218,-0.060,-0.045
8.220,-0.020,-0.055
8.222,0.035,-0.065
8.224,-0.170,-0.070
8.226,-0.245,-0.075
8.228,-0.265,-0.070
8.230,-0.430,-0.060
8.232,-0.280,-0.045
8.234,-0.165,-0.030
8.236,-0.025,-0.020
8.238,0.045,-0.015
8.240,0.020,-0.015
8.242,-0.070,-0.025
8.244,-0.110,-0.045
8.246,-0.320,-0.060
8.248,-0.395,-0.075
8.250,-0.275,-0.085
8.252,-0.315,-0.090
8.254,-0.215,-0.085
8.256,-0.165,-0.075
8.258,-0.075,-0.060
8.260,0.065,-0.045
8.262,0.010,-0.035
8.264,-0.135,-0.025
8.266,-0.255,-0.020
8.268,-0.270,-0.025
8.270,-0.350,-0.030
8.272,-0.350,-0.040
8.274,-0.160,-0.045
8.276,0.005,-0.055
8.278,0.010,-0.060
8.280,-0.060,-0.065
8.282,-0.140,-0.070
8.284,-0.145,-0.065
8.286,-0.205,-0.065
8.288,-0.375,-0.065
8.290,-0.325,-0.060
8.292,-0.365,-0.060
8.294,-0.100,-0.060
8.296,-0.085,-0.060
8.298,-0.075,-0.060
8.300,-0.070,-0.060
8.302,0.010,-0.065
8.304,-0.130,-0.060
8.306,-0.225,-0.060
8.308,-0.285,-0.060
8.310,-0.460,-0.055
8.312,-0.270,-0.050
8.314,-0.140,-0.045
8.316,-0.010,-0.040
8.318,0.015,-0.040
8.320,0.035,-0.035
8.322,0.010,-0.035
8.324,-0.195,-0.030
8.326,-0.285,-0.025
8.328,-0.215,-0.020
8.330,-0.310,-0.010
8.332,-0.300,0.000
8.334,-0.075,0.010
8.336,0.050,0.015
8.338,0.115,0.020
8.340,0.060,0.015
8.342,-0.035,0.010
8.344,-0.200,-0.005
8.346,-0.300,-0.025
8.348,-0.335,-0.045
8.350,-0.310,-0.060
8.352,-0.240,-0.070
8.354,-0.095,-0.070
8.356,-0.010,-0.065
8.358,-0.055,-0.055
8.360,-0.110,-0.045
8.362,-0.215,-0.030
8.364,-0.095,-0.025
8.366,-0.205,-0.020
8.368,-0.300,-0.025
8.370,-0.345,-0.035
8.372,-0.200,-0.050
8.374,-0.060,-0.060
8.376,-0.095,-0.070
8.378,0.015,-0.075
8.380,-0.100,-0.075
8.382,-0.125,-0.065
8.384,-0.215,-0.060
8.386,-0.230,-0.050
8.388,-0.345,-0.045
8.390,-0.280,-0.045
8.392,-0.160,-0.045
8.394,-0.145,-0.055
8.396,-0.050,-0.060
8.398,0.015,-0.070
8.400,0.010,-0.070
8.402,-0.145,-0.060
8.404,-0.240,-0.050
8.406,-0.320,-0.040
8.408,-0.245,-0.030
8.410,-0.245,-0.020
8.412,-0.195,-0.015
8.414,-0.035,-0.015
8.416,-0.030,-0.020
8.418,-0.080,-0.020
8.420,0.030,-0.010
8.422,-0.030,0.015
8.424,-0.090,0.050
8.426,-0.110,0.100
8.428,-0.100,0.170
8.430,0.045,0.240
8.432,0.210,0.315
8.434,0.355,0.390
8.436,0.460,0.445
8.438,0.555,0.490
8.440,0.575,0.505
8.442,0.540,0.500
8.444,0.265,0.465
8.446,0.150,0.405
8.448,0.040,0.325
8.450,-0.010,0.225
8.452,-0.080,0.115
8.454,-0.095,0.000
8.456,-0.130,-0.110
8.458,-0.155,-0.205
8.460,-0.285,-0.280
8.462,-0.480,-0.330
8.464,-0.585,-0.350
8.466,-0.565,-0.350
8.468,-0.670,-0.330
8.470,-0.500,-0.300
8.472,-0.395,-0.265
8.474,-0.145,-0.230
8.476,-0.195,-0.200
8.478,-0.130,-0.170
8.480,-0.150,-0.150
8.482,-0.175,-0.135
8.484,-0.375,-0.120
8.486,-0.315,-0.105
8.488,-0.295,-0.085
8.490,-0.230,-0.070
8.492,-0.275,-0.055
8.494,-0.015,-0.040
8.496,-0.075,-0.035
8.498,0.080,-0.030
8.500,-0.075,-0.035
8.502,-0.105,-0.035
8.504,-0.235,-0.035
8.506,-0.280,-0.030
8.508,-0.235,-0.020
8.510,-0.245,-0.010
8.512,-0.110,0.005
8.514,0.015,0.015
8.516,0.050,0.025
8.518,0.055,0.030
8.520,-0.020,0.030
8.522,-0.035,0.030
8.524,-0.220,0.025
8.526,-0.315,0.020
8.528,-0.170,0.015
8.530,-0.125,0.015
8.532,-0.155,0.015
8.534,0.010,0.020
8.536,0.015,0.020
8.538,0.080,0.020
8.540,0.015,0.020
8.542,-0.135,0.015
8.544,-0.210,0.015
8.546,-0.200,0.010
8.548,-0.150,0.015
8.550,-0.235,0.015
8.552,-0.055,0.025
8.554,0.025,0.035
8.556,0.055,0.045
8.558,0.130,0.055
8.560,0.020,0.065
8.562,-0.080,0.070
8.564,-0.275,0.070
8.566,-0.120,0.070
8.568,-0.005,0.065
8.570,-0.170,0.060
8.572,-0.145,0.050
8.574,0.045,0.040
8.576,0.070,0.030
8.578,0.065,0.025
8.580,0.025,0.020
8.582,-0.105,0.025
8.584,-0.165,0.030
8.586,-0.175,0.045
8.588,-0.290,0.055
8.590,-0.045,0.070
8.592,-0.035,0.085
8.594,0.145,0.100
8.596,0.105,0.105
8.598,0.155,0.110
8.600,0.135,0.110
8.602,-0.055,0.110
8.604,-0.055,0.105
8.606,-0.190,0.100
8.608,-0.190,0.100
8.610,-0.055,0.100
8.612,0.080,0.100
8.614,0.190,0.110
8.616,0.160,0.115
8.618,0.095,0.125
8.620,-0.075,0.135
8.622,0.060,0.145
8.624,-0.065,0.155
8.626,-0.045,0.165
8.628,0.025,0.170
8.630,-0.010,0.175
8.632,0.105,0.180
8.634,0.205,0.180
8.636,0.210,0.180
8.638,0.220,0.185
8.640,0.145,0.185
8.642,0.070,0.190
8.644,-0.055,0.200
8.646,-0.030,0.210
8.648,0.040,0.220
8.650,0.100,0.230
8.652,0.070,0.240
8.654,0.260,0.250
8.656,0.230,0.255
8.658,0.325,0.255
8.660,0.265,0.250
8.662,0.210,0.245
8.664,-0.055,0.235
8.666,-0.065,0.225
8.668,-0.080,0.220
8.670,0.045,0.210
8.672,0.095,0.205
8.674,0.335,0.200
8.676,0.370,0.190
8.678,0.185,0.180
8.680,-0.010,0.170
8.682,-0.035,0.155
8.684,-0.140,0.140
8.686,-0.070,0.125
8.688,-0.055,0.110
8.690,-0.085,0.100
8.692,-0.020,0.090
8.694,0.065,0.080
8.696,0.155,0.075
8.698,0.140,0.065
8.700,-0.040,0.060
8.702,-0.130,0.055
8.704,-0.105,0.045
8.706,-0.250,0.035
8.708,-0.180,0.025
8.710,-0.105,0.010
8.712,-0.060,0.000
8.714,0.005,-0.015
8.716,-0.005,-0.025
8.718,-0.070,-0.035
8.720,-0.100,-0.040
8.722,-0.200,-0.040
8.724,-0.260,-0.040
8.726,-0.290,-0.030
8.728,-0.240,-0.025
8.730,-0.105,-0.015
8.732,-0.035,-0.005
8.734,-0.010,-0.005
8.736,-0.045,-0.005
8.738,0.015,-0.010
8.740,0.040,-0.020
8.742,-0.225,-0.035
8.744,-0.420,-0.045
8.746,-0.345,-0.060
8.748,-0.145,-0.065
8.750,-0.175,-0.070
8.752,-0.055,-0.070
8.754,-0.095,-0.065
8.756,-0.025,-0.055
8.758,0.005,-0.050
8.760,-0.190,-0.045
8.762,-0.290,-0.045
8.764,-0.215,-0.045
8.766,-0.305,-0.050
8.768,-0.285,-0.055
8.770,-0.170,-0.060
8.772,0.000,-0.065
8.774,-0.075,-0.065
8.776,-0.030,-0.060
8.778,-0.030,-0.050
8.780,-0.110,-0.040
8.782,-0.290,-0.030
8.784,-0.220,-0.020
8.786,-0.295,-0.015
8.788,-0.285,-0.015
8.790,-0.065,-0.020
8.792,0.030,-0.030
8.794,-0.145,-0.040
8.796,0.035,-0.050
8.798,-0.035,-0.055
8.800,-0.140,-0.060
8.802,-0.340,-0.060
8.804,-0.395,-0.060
8.806,-0.190,-0.055
8.808,-0.200,-0.050
8.810,-0.180,-0.045
8.812,-0.080,-0.040
8.814,0.000,-0.040
8.816,0.120,-0.035
8.818,-0.035,-0.030
8.820,-0.195,-0.020
8.822,-0.250,-0.010
8.824,-0.205,0.000
8.826,-0.225,0.005
8.828,-0.205,0.010
8.830,-0.080,0.010
8.832,0.065,0.010
8.834,0.010,0.000
8.836,0.015,-0.015
8.838,0.000,-0.025
8.840,-0.140,-0.035
8.842,-0.315,-0.045
8.844,-0.305,-0.050
8.846,-0.300,-0.050
8.848,-0.165,-0.045
8.850,-0.160,-0.045
8.852,0.050,-0.035
8.854,-0.040,-0.030
8.856,0.060,-0.025
8.858,-0.025,-0.020
8.860,-0.250,-0.020
8.862,-0.215,-0.015
8.864,-0.290,-0.015
8.866,-0.220,-0.015
8.868,-0.185,-0.015
8.870,-0.115,-0.015
8.872,0.065,-0.020
8.874,-0.005,-0.020
8.876,0.025,-0.025
8.878,-0.085,-0.025
8.880,-0.145,-0.030
8.882,-0.260,-0.030
8.884,-0.265,-0.035
8.886,-0.200,-0.040
8.888,-0.255,-0.045
8.890,-0.185,-0.050
8.892,-0.005,-0.055
8.894,-0.070,-0.055
8.896,-0.045,-0.050
8.898,0.070,-0.045
8.900,-0.130,-0.035
8.902,-0.350,-0.030
8.904,-0.255,-0.020
8.906,-0.245,-0.020
8.908,-0.130,-0.020
8.910,-0.135,-0.030
8.912,-0.045,-0.040
8.914,0.115,-0.050
8.916,-0.040,-0.060
8.918,-0.105,-0.060
8.920,-0.185,-0.060
8.922,-0.250,-0.050
8.924,-0.245,-0.040
8.926,-0.295,-0.030
8.928,-0.250,-0.025
8.930,-0.075,-0.025
8.932,0.010,-0.030
8.934,0.055,-0.045
8.936,-0.140,-0.055
8.938,-0.150,-0.070
8.940,-0.160,-0.070
8.942,-0.110,-0.070
8.944,-0.380,-0.055
8.946,-0.320,-0.040
8.948,-0.130,-0.020
8.950,0.030,-0.010
8.952,-0.005,0.000
8.954,-0.030,-0.005
8.956,-0.025,-0.015
8.958,-0.055,-0.030
8.960,-0.125,-0.050
8.962,-0.245,-0.065
8.964,-0.435,-0.070
8.966,-0.275,-0.070
8.968,-0.255,-0.065
8.970,-0.040,-0.055
8.972,-0.090,-0.050
8.974,0.030,-0.045
8.976,-0.015,-0.045
8.978,-0.020,-0.050
8.980,-0.230,-0.060
8.982,-0.330,-0.070
8.984,-0.330,-0.075
8.986,-0.210,-0.080
8.988,-0.330,-0.075
8.990,-0.135,-0.070
8.992,0.055,-0.055
8.994,0.025,-0.045
8.996,-0.090,-0.030
8.998,0.000,-0.020
9.000,-0.140,-0.015
9.002,-0.305,-0.015
9.004,-0.280,-0.025
9.006,-0.240,-0.030
9.008,-0.220,-0.045
9.010,0.000,-0.055
9.012,-0.060,-0.060
9.014,0.040,-0.065
9.016,-0.085,-0.065
9.018,-0.100,-0.065
9.020,-0.280,-0.055
9.022,-0.290,-0.045
9.024,-0.230,-0.035
9.026,-0.200,-0.025
9.028,-0.145,-0.020
9.030,-0.100,-0.020
9.032,-0.045,-0.020
9.034,-0.030,-0.030
9.036,0.000,-0.040
9.038,-0.110,-0.055
9.040,-0.240,-0.065
9.042,-0.265,-0.065
9.044,-0.245,-0.065
9.046,-0.290,-0.055
9.048,-0.195,-0.040
9.050,-0.010,-0.020
9.052,0.105,-0.005
9.054,0.025,0.005
9.056,-0.070,0.005
9.058,-0.005,0.000
9.060,-0.190,-0.010
9.062,-0.315,-0.020
9.064,-0.270,-0.035
9.066,-0.250,-0.045
9.068,-0.100,-0.050
9.070,-0.060,-0.055
9.072,-0.035,-0.050
9.074,-0.005,-0.045
9.076,-0.095,-0.045
9.078,-0.130,-0.045
9.080,-0.225,-0.050
9.082,-0.305,-0.055
9.084,-0.270,-0.065
9.086,-0.200,-0.075
9.088,-0.185,-0.075
9.090,-0.090,-0.075
9.092,-0.035,-0.065
9.094,-0.035,-0.055
9.096,0.030,-0.035
9.098,-0.070,-0.025
9.100,-0.230,-0.015
9.102,-0.265,-0.015
9.104,-0.285,-0.020
9.106,-0.285,-0.035
9.108,-0.150,-0.050
9.110,0.065,-0.070
9.112,-0.045,-0.080
9.114,-0.095,-0.085
9.116,-0.090,-0.080
9.118,-0.160,-0.070
9.120,-0.290,-0.060
9.122,-0.245,-0.050
9.124,-0.170,-0.040
9.126,-0.245,-0.040
9.128,-0.125,-0.050
9.130,-0.115,-0.060
9.132,-0.105,-0.070
9.134,-0.025,-0.085
9.136,-0.065,-0.085
9.138,-0.110,-0.085
9.140,-0.275,-0.075
9.142,-0.265,-0.055
9.144,-0.280,-0.035
9.146,-0.110,-0.010
9.148,-0.145,0.015
9.150,0.050,0.035
9.152,0.010,0.060
9.154,0.185,0.085
9.156,0.105,0.115
9.158,0.110,0.155
9.160,-0.070,0.200
9.162,0.015,0.250
9.164,0.085,0.300
9.166,0.215,0.345
9.168,0.385,0.375
9.170,0.510,0.380
9.172,0.475,0.365
9.174,0.285,0.325
9.176,0.095,0.260
9.178,0.000,0.175
9.180,-0.090,0.080
9.182,-0.165,-0.015
9.184,-0.395,-0.110
9.186,-0.490,-0.190
9.188,-0.285,-0.255
9.190,-0.245,-0.305
9.192,-0.310,-0.335
9.194,-0.360,-0.350
9.196,-0.325,-0.350
9.198,-0.575,-0.335
9.200,-0.565,-0.315
9.202,-0.485,-0.290
9.204,-0.460,-0.255
9.206,-0.350,-0.225
9.208,-0.155,-0.190
9.210,-0.155,-0.155
9.212,-0.170,-0.125
9.214,-0.105,-0.105
9.216,0.030,-0.085
9.218,-0.225,-0.070
9.220,-0.340,-0.055
9.222,-0.295,-0.050
9.224,-0.225,-0.040
9.226,-0.170,-0.035
9.228,-0.015,-0.025
9.230,-0.070,-0.010
9.232,0.020,0.000
9.234,0.205,0.015
9.236,-0.020,0.025
9.238,-0.185,0.035
9.240,-0.225,0.040
9.242,-0.090,0.045
9.244,-0.240,0.045
9.246,-0.175,0.040
9.248,0.050,0.030
9.250,0.090,0.020
9.252,0.085,0.010
9.254,-0.030,0.000
9.256,-0.115,-0.010
9.258,-0.130,-0.015
9.260,-0.170,-0.015
9.262,-0.265,-0.015
9.264,-0.280,-0.005
9.266,-0.110,0.005
9.268,0.045,0.015
9.270,0.075,0.025
9.272,0.005,0.035
9.274,-0.035,0.035
9.276,0.090,0.035
9.278,-0.065,0.030
9.280,-0.070,0.025
9.282,-0.440,0.020
9.284,-0.165,0.015
9.286,-0.065,0.015
9.288,-0.010,0.020
9.290,0.090,0.035
9.292,0.080,0.050
9.294,0.095,0.070
9.296,-0.005,0.085
9.298,-0.010,0.100
9.300,-0.195,0.110
9.302,-0.080,0.110
9.304,-0.110,0.100
9.306,0.010,0.090
9.308,0.060,0.075
9.310,0.115,0.055
9.312,0.095,0.040
9.314,-0.005,0.025
9.316,-0.045,0.025
9.318,-0.275,0.025
9.320,-0.220,0.040
9.322,-0.095,0.060
9.324,-0.055,0.085
9.326,0.065,0.110
9.328,0.160,0.130
9.330,0.145,0.150
9.332,0.255,0.160
9.334,0.105,0.160
9.336,0.015,0.150
9.338,-0.070,0.135
9.340,-0.205,0.120
9.342,-0.100,0.110
9.344,-0.035,0.100
9.346,0.035,0.100
9.348,0.140,0.110
9.350,0.130,0.125
9.352,0.125,0.145
9.354,0.225,0.170
9.356,0.100,0.190
9.358,0.015,0.205
9.360,0.015,0.215
9.362,0.040,0.210
9.364,0.105,0.205
9.366,-0.025,0.190
9.368,0.145,0.180
9.370,0.175,0.175
9.372,0.275,0.175
9.374,0.245,0.185
9.376,0.180,0.200
9.378,-0.090,0.225
9.380,-0.005,0.250
9.382,0.180,0.265
9.384,0.080,0.280
9.386,0.140,0.285
9.388,0.265,0.285
9.390,0.365,0.275
9.392,0.320,0.260
9.394,0.285,0.250
9.396,0.135,0.240
9.398,-0.100,0.240
9.400,0.090,0.240
9.402,0.025,0.240
9.404,-0.010,0.240
9.406,0.225,0.235
9.408,0.200,0.225
9.410,0.255,0.205
9.412,0.225,0.175
9.414,0.075,0.145
9.416,-0.040,0.120
9.418,-0.140,0.095
9.420,-0.165,0.075
9.422,-0.060,0.065
9.424,-0.100,0.060
9.426,-0.055,0.055
9.428,0.065,0.055
9.430,0.100,0.045
9.432,0.020,0.035
9.434,0.080,0.015
9.436,-0.095,-0.010
9.438,-0.290,-0.030
9.440,-0.260,-0.045
9.442,-0.355,-0.055
9.444,-0.295,-0.055
9.446,-0.080,-0.050
9.448,0.045,-0.040
9.450,0.145,-0.030
9.452,0.030,-0.020
9.454,-0.015,-0.015
9.456,-0.175,-0.015
9.458,-0.335,-0.020
9.460,-0.315,-0.030
9.462,-0.250,-0.040
9.464,-0.190,-0.050
9.466,-0.050,-0.050
9.468,-0.020,-0.050
9.470,-0.085,-0.045
9.472,0.115,-0.035
9.474,-0.095,-0.030
9.476,-0.170,-0.020
9.478,-0.165,-0.020
9.480,-0.320,-0.020
9.482,-0.250,-0.025
9.484,-0.245,-0.030
9.486,-0.040,-0.030
9.488,0.030,-0.035
9.490,0.075,-0.030
9.492,-0.015,-0.025
9.494,-0.110,-0.020
9.496,-0.125,-0.015
9.498,-0.275,-0.015
9.500,-0.305,-0.020
9.502,-0.280,-0.030
9.504,-0.255,-0.040
9.506,-0.055,-0.055
9.508,0.040,-0.065
9.510,0.000,-0.070
9.512,-0.085,-0.070
9.514,-0.140,-0.065
9.516,-0.295,-0.060
9.518,-0.175,-0.050
9.520,-0.305,-0.040
9.522,-0.265,-0.040
9.524,-0.190,-0.045
9.526,-0.015,-0.055
9.528,-0.020,-0.070
9.530,-0.075,-0.085
9.532,-0.100,-0.095
9.534,-0.210,-0.095
9.536,-0.215,-0.090
9.538,-0.265,-0.075
9.540,-0.240,-0.055
9.542,-0.240,-0.035
9.544,-0.185,-0.020
9.546,-0.075,-0.010
9.548,0.060,-0.010
9.550,-0.010,-0.020
9.552,0.045,-0.035
9.554,0.055,-0.055
9.556,-0.345,-0.070
9.558,-0.315,-0.080
9.560,-0.385,-0.085
9.562,-0.335,-0.080
9.564,-0.180,-0.070
9.566,0.015,-0.055
9.568,0.035,-0.040
9.570,0.030,-0.025
9.572,0.015,-0.015
9.574,-0.150,-0.015
9.576,-0.260,-0.015
9.578,-0.310,-0.020
9.580,-0.170,-0.030
9.582,-0.185,-0.035
9.584,-0.155,-0.040
9.586,-0.055,-0.045
9.588,-0.060,-0.045
9.590,0.000,-0.045
9.592,0.000,-0.045
9.594,-0.120,-0.045
9.596,-0.225,-0.045
9.598,-0.310,-0.045
9.600,-0.330,-0.045
9.602,-0.260,-0.045
9.604,-0.075,-0.045
9.606,-0.030,-0.045
9.608,0.045,-0.040
9.610,0.075,-0.040
9.612,0.000,-0.040
9.614,-0.240,-0.040
9.616,-0.410,-0.045
9.618,-0.255,-0.050
9.620,-0.260,-0.060
9.622,-0.185,-0.065
9.624,-0.235,-0.075
9.626,-0.035,-0.080
9.628,0.045,-0.080
9.630,-0.050,-0.070
9.632,-0.090,-0.060
9.634,-0.080,-0.050
9.636,-0.300,-0.035
9.638,-0.250,-0.025
9.640,-0.265,-0.020
9.642,-0.260,-0.020
9.644,-0.105,-0.025
9.646,-0.010,-0.040
9.648,-0.025,-0.055
9.650,-0.070,-0.070
9.652,-0.080,-0.085
9.654,-0.125,-0.090
9.656,-0.275,-0.095
9.658,-0.280,-0.095
9.660,-0.400,-0.090
9.662,-0.370,-0.085
9.664,-0.275,-0.075
9.666,0.115,-0.070
9.668,-0.020,-0.065
9.670,0.030,-0.060
9.672,-0.115,-0.055
9.674,-0.115,-0.050
9.676,-0.220,-0.045
9.678,-0.260,-0.045
9.680,-0.280,-0.040
9.682,-0.160,-0.040
9.684,-0.195,-0.045
9.686,-0.080,-0.050
9.688,0.035,-0.055
9.690,0.085,-0.055
9.692,-0.110,-0.055
9.694,-0.190,-0.055
9.696,-0.230,-0.050
9.698,-0.285,-0.045
9.700,-0.210,-0.040
9.702,-0.165,-0.035
9.704,-0.130,-0.035
9.706,-0.085,-0.035
9.708,0.015,-0.035
9.710,-0.050,-0.040
9.712,-0.075,-0.040
9.714,-0.175,-0.040
9.716,-0.130,-0.040
9.718,-0.265,-0.040
9.720,-0.410,-0.040
9.722,-0.120,-0.040
9.724,-0.120,-0.040
9.726,-0.075,-0.045
9.728,-0.030,-0.050
9.730,-0.085,-0.050
9.732,-0.145,-0.055
9.734,-0.240,-0.050
9.736,-0.195,-0.045
9.738,-0.150,-0.035
9.740,-0.215,-0.020
9.742,-0.165,-0.010
9.744,-0.075,0.000
9.746,0.005,0.005
9.748,0.115,0.000
9.750,-0.005,-0.005
9.752,-0.095,-0.020
9.754,-0.235,-0.030
9.756,-0.255,-0.045
9.758,-0.270,-0.055
9.760,-0.250,-0.060
9.762,-0.255,-0.065
9.764,-0.080,-0.070
9.766,-0.070,-0.070
9.768,-0.075,-0.070
9.770,-0.045,-0.070
9.772,-0.075,-0.070
9.774,-0.240,-0.065
9.776,-0.280,-0.060
9.778,-0.305,-0.055
9.780,-0.265,-0.045
9.782,-0.130,-0.040
9.784,-0.045,-0.035
9.786,-0.010,-0.030
9.788,-0.075,-0.030
9.790,0.010,-0.035
9.792,0.000,-0.040
9.794,-0.260,-0.050
9.796,-0.335,-0.055
9.798,-0.335,-0.055
9.800,-0.235,-0.060
9.802,-0.200,-0.060
9.804,-0.045,-0.060
9.806,-0.005,-0.060
9.808,-0.035,-0.065
9.810,-0.065,-0.070
9.812,-0.130,-0.080
9.814,-0.360,-0.085
9.816,-0.350,-0.090
9.818,-0.260,-0.085
9.820,-0.150,-0.080
9.822,-0.210,-0.070
9.824,-0.070,-0.055
9.826,-0.040,-0.040
9.828,-0.095,-0.030
9.830,-0.040,-0.020
9.832,-0.105,-0.015
9.834,-0.230,-0.010
9.836,-0.190,-0.005
9.838,-0.195,0.010
9.840,-0.150,0.035
9.842,-0.070,0.065
9.844,-0.015,0.110
9.846,0.215,0.165
9.848,0.320,0.225
9.850,0.305,0.280
9.852,0.210,0.330
9.854,0.155,0.365
9.856,0.265,0.380
9.858,0.215,0.370
9.860,0.250,0.335
9.862,0.105,0.270
9.864,0.030,0.190
9.866,0.105,0.085
9.868,0.055,-0.020
9.870,-0.195,-0.130
9.872,-0.320,-0.225
9.874,-0.480,-0.305
9.876,-0.690,-0.360
9.878,-0.610,-0.390
9.880,-0.640,-0.390
9.882,-0.530,-0.370
9.884,-0.325,-0.340
9.886,-0.305,-0.300
9.888,-0.110,-0.260
9.890,-0.190,-0.225
9.892,-0.350,-0.200
9.894,-0.480,-0.185
9.896,-0.465,-0.180
9.898,-0.355,-0.170
9.900,-0.375,-0.165
9.902,-0.245,-0.150
9.904,0.015,-0.135
9.906,-0.125,-0.110
9.908,-0.105,-0.085
9.910,-0.035,-0.060
9.912,-0.145,-0.040
9.914,-0.215,-0.025
9.916,-0.325,-0.015
9.918,-0.255,-0.010
9.920,-0.165,-0.010
9.922,-0.065,-0.010
9.924,0.030,-0.010
9.926,0.035,-0.010
9.928,-0.005,-0.010
9.930,-0.135,-0.010
9.932,-0.120,-0.010
9.934,-0.215,-0.015
9.936,-0.270,-0.025
9.938,-0.325,-0.030
9.940,-0.260,-0.035
9.942,-0.165,-0.040
9.944,0.005,-0.040
9.946,0.010,-0.035
9.948,0.005,-0.025
9.950,0.030,-0.010
9.952,-0.100,0.005
9.954,-0.260,0.015
9.956,-0.265,0.020
9.958,-0.230,0.020
9.960,-0.155,0.020
9.962,-0.005,0.010
9.964,0.010,0.005
9.966,-0.015,0.000
9.968,-0.020,-0.005
9.970,-0.010,-0.010
9.972,-0.115,-0.010
9.974,-0.195,-0.005
9.976,-0.235,-0.005
9.978,-0.205,-0.005
9.980,-0.230,-0.005
9.982,-0.125,-0.005
9.984,0.030,-0.005
9.986,0.075,-0.005
9.988,0.010,0.000
9.990,-0.020,0.010
9.992,-0.080,0.020
9.994,-0.195,0.035
9.996,-0.205,0.050
9.998,-0.160,0.060
