'Elapsed time','ECG I','ECG I filtered'
'seconds','mV','mV'
0.000,0.000,0.005
0.002,-0.035,-0.035
0.004,-0.055,-0.060
0.006,-0.170,-0.075
0.008,-0.120,-0.075
0.010,-0.095,-0.060
0.012,-0.025,-0.040
0.014,0.040,-0.020
0.016,0.105,-0.005
0.018,0.070,0.005
0.020,0.050,0.000
0.022,-0.005,-0.010
0.024,-0.100,-0.025
0.026,-0.200,-0.040
0.028,-0.185,-0.045
0.030,-0.130,-0.045
0.032,0.025,-0.035
0.034,0.060,-0.015
0.036,0.170,0.005
0.038,0.115,0.020
0.040,0.045,0.030
0.042,0.050,0.030
0.044,-0.105,0.025
0.046,-0.115,0.010
0.048,-0.135,-0.010
0.050,-0.020,-0.025
0.052,-0.025,-0.030
0.054,0.050,-0.035
0.056,0.085,-0.030
0.058,0.105,-0.025
0.060,0.120,-0.015
0.062,-0.030,-0.010
0.064,-0.140,-0.010
0.066,-0.155,-0.010
0.068,-0.155,-0.015
0.070,-0.095,-0.020
0.072,0.030,-0.030
0.074,0.075,-0.030
0.076,0.140,-0.030
0.078,0.070,-0.025
0.080,0.045,-0.020
0.082,-0.050,-0.015
0.084,-0.065,-0.010
0.086,-0.175,-0.010
0.088,-0.170,-0.015
0.090,-0.065,-0.025
0.092,-0.045,-0.030
0.094,0.070,-0.040
0.096,0.115,-0.045
0.098,0.135,-0.045
0.100,-0.035,-0.045
0.102,-0.050,-0.040
0.104,-0.120,-0.030
0.106,-0.130,-0.025
0.108,-0.115,-0.020
0.110,-0.030,-0.010
0.112,-0.015,-0.005
0.114,0.080,-0.005
0.116,0.120,0.000
0.118,0.100,0.000
0.120,-0.015,0.000
0.122,0.025,0.000
0.124,-0.080,-0.005
0.126,-0.105,-0.005
0.128,-0.110,-0.010
0.130,-0.090,-0.015
0.132,-0.015,-0.020
0.134,0.110,-0.020
0.136,0.085,-0.020
0.138,0.125,-0.015
0.140,0.110,-0.010
0.142,-0.050,-0.010
0.144,-0.130,-0.010
0.146,-0.145,-0.010
0.148,-0.135,-0.020
0.150,-0.020,-0.030
0.152,-0.090,-0.045
0.154,0.075,-0.055
0.156,0.120,-0.060
0.158,0.045,-0.060
0.160,0.005,-0.055
0.162,-0.030,-0.045
0.164,-0.120,-0.030
0.166,-0.130,-0.015
0.168,-0.140,-0.005
0.170,-0.055,0.000
0.172,0.015,0.000
0.174,0.090,-0.005
0.176,0.085,-0.020
0.178,0.070,-0.035
0.180,0.000,-0.050
0.182,-0.040,-0.060
0.184,-0.170,-0.070
0.186,-0.185,-0.065
0.188,-0.195,-0.060
0.190,-0.075,-0.050
0.192,-0.040,-0.040
0.194,0.105,-0.030
0.196,0.120,-0.025
0.198,0.095,-0.020
0.200,0.050,-0.020
0.202,0.000,-0.025
0.204,-0.200,-0.025
0.206,-0.125,-0.030
0.208,-0.075,-0.030
0.210,-0.055,-0.025
0.212,-0.020,-0.025
0.214,0.110,-0.020
0.216,0.115,-0.020
0.218,0.070,-0.015
0.220,-0.020,-0.020
0.222,-0.040,-0.020
0.224,-0.135,-0.025
0.226,-0.185,-0.030
0.228,-0.085,-0.030
0.230,-0.010,-0.030
0.232,0.105,-0.030
0.234,0.135,-0.030
0.236,0.070,-0.025
0.238,0.020,-0.025
0.240,-0.020,-0.025
0.242,-0.020,-0.025
0.244,-0.140,-0.025
0.246,-0.100,-0.030
0.248,-0.110,-0.035
0.250,-0.005,-0.040
0.252,0.045,-0.040
0.254,0.100,-0.045
0.256,0.030,-0.045
0.258,0.030,-0.045
0.260,-0.085,-0.040
0.262,-0.050,-0.040
0.264,-0.110,-0.035
0.266,-0.095,-0.025
0.268,-0.040,-0.020
0.270,0.075,-0.010
0.272,0.055,0.000
0.274,0.095,0.010
0.276,0.165,0.020
0.278,0.090,0.025
0.280,0.015,0.025
0.282,0.020,0.025
0.284,-0.090,0.020
0.286,-0.145,0.010
0.288,-0.035,0.005
0.290,0.050,0.000
0.292,0.135,-0.005
0.294,0.180,-0.005
0.296,0.180,0.000
0.298,0.080,0.000
0.300,-0.015,0.005
0.302,-0.055,0.005
0.304,-0.075,0.000
0.306,-0.140,-0.005
0.308,-0.090,-0.010
0.310,-0.010,-0.020
0.312,0.115,-0.025
0.314,0.095,-0.035
0.316,0.115,-0.040
0.318,0.010,-0.040
0.320,-0.010,-0.045
0.322,-0.085,-0.045
0.324,-0.145,-0.050
0.326,-0.130,-0.055
0.328,-0.085,-0.060
0.330,-0.060,-0.065
0.332,0.015,-0.065
0.334,0.115,-0.060
0.336,0.145,-0.050
0.338,-0.010,-0.045
0.340,-0.005,-0.035
0.342,-0.070,-0.030
0.344,-0.140,-0.030
0.346,-0.100,-0.040
0.348,-0.120,-0.055
0.350,0.005,-0.070
0.352,0.005,-0.080
0.354,0.010,-0.075
0.356,0.035,-0.050
0.358,-0.015,-0.010
0.360,0.135,0.060
0.362,0.100,0.145
0.364,0.115,0.240
0.366,0.300,0.345
0.368,0.520,0.440
0.370,0.620,0.530
0.372,0.765,0.600
0.374,0.855,0.650
0.376,0.780,0.680
0.378,0.685,0.680
0.380,0.625,0.665
0.382,0.550,0.625
0.384,0.490,0.565
0.386,0.475,0.490
0.388,0.405,0.400
0.390,0.390,0.305
0.392,0.280,0.205
0.394,0.140,0.115
0.396,0.055,0.030
0.398,-0.035,-0.030
0.400,-0.005,-0.075
0.402,-0.165,-0.095
0.404,-0.165,-0.100
0.406,-0.165,-0.095
0.408,-0.055,-0.080
0.410,0.010,-0.065
0.412,0.020,-0.050
0.414,0.100,-0.045
0.416,0.130,-0.040
0.418,0.035,-0.045
0.420,-0.085,-0.050
0.422,-0.125,-0.055
0.424,-0.180,-0.060
0.426,-0.160,-0.060
0.428,-0.015,-0.055
0.430,0.040,-0.050
0.432,0.100,-0.045
0.434,0.160,-0.040
0.436,0.025,-0.035
0.438,0.010,-0.035
0.440,-0.065,-0.035
0.442,-0.145,-0.040
0.444,-0.085,-0.045
0.446,-0.130,-0.050
0.448,-0.050,-0.055
0.450,0.000,-0.055
0.452,0.140,-0.060
0.454,0.065,-0.060
0.456,0.070,-0.060
0.458,0.030,-0.060
0.460,-0.035,-0.055
0.462,-0.185,-0.055
0.464,-0.110,-0.055
0.466,-0.095,-0.050
0.468,0.025,-0.050
0.470,-0.035,-0.055
0.472,0.095,-0.055
0.474,0.085,-0.055
0.476,0.080,-0.055
0.478,0.025,-0.055
0.480,-0.035,-0.045
0.482,-0.130,-0.040
0.484,-0.105,-0.025
0.486,-0.115,-0.015
0.488,0.095,-0.005
0.490,0.090,0.005
0.492,0.090,0.005
0.494,0.125,0.005
0.496,0.085,0.000
0.498,0.040,-0.010
0.500,0.020,-0.020
0.502,-0.060,-0.025
0.504,-0.140,-0.030
0.506,-0.095,-0.035
0.508,-0.005,-0.035
0.510,0.035,-0.030
0.512,0.125,-0.025
0.514,0.165,-0.020
0.516,0.075,-0.015
0.518,0.055,-0.010
0.520,0.050,-0.005
0.522,-0.070,0.005
0.524,-0.060,0.010
0.526,-0.015,0.020
0.528,0.025,0.025
0.530,0.070,0.030
0.532,0.110,0.030
0.534,0.255,0.035
0.536,0.160,0.030
0.538,0.060,0.025
0.540,-0.020,0.020
0.542,-0.085,0.015
0.544,-0.080,0.010
0.546,-0.010,0.005
0.548,0.100,0.010
0.550,0.105,0.010
0.552,0.180,0.020
0.554,0.270,0.030
0.556,0.090,0.040
0.558,0.085,0.055
0.560,0.080,0.070
0.562,-0.005,0.080
0.564,-0.020,0.095
0.566,0.025,0.105
0.568,0.240,0.115
0.570,0.260,0.120
0.572,0.345,0.130
0.574,0.240,0.135
0.576,0.230,0.145
0.578,0.225,0.155
0.580,0.155,0.170
0.582,0.095,0.180
0.584,0.110,0.190
0.586,0.170,0.200
0.588,0.220,0.205
0.590,0.360,0.210
0.592,0.450,0.210
0.594,0.400,0.210
0.596,0.265,0.205
0.598,0.220,0.205
0.600,0.190,0.200
0.602,0.110,0.200
0.604,0.095,0.200
0.606,0.185,0.200
0.608,0.235,0.195
0.610,0.360,0.195
0.612,0.335,0.195
0.614,0.325,0.190
0.616,0.370,0.180
0.618,0.215,0.175
0.620,0.055,0.165
0.622,0.085,0.155
0.624,0.055,0.140
0.626,0.100,0.130
0.628,0.145,0.115
0.630,0.215,0.100
0.632,0.220,0.085
0.634,0.295,0.070
0.636,0.130,0.055
0.638,0.050,0.045
0.640,0.050,0.035
0.642,-0.060,0.030
0.644,-0.025,0.020
0.646,0.040,0.015
0.648,0.065,0.010
0.650,0.100,0.005
0.652,0.170,0.000
0.654,0.150,-0.010
0.656,0.055,-0.015
0.658,0.020,-0.020
0.660,-0.065,-0.025
0.662,-0.110,-0.025
0.664,-0.045,-0.030
0.666,0.000,-0.035
0.668,-0.070,-0.040
0.670,0.095,-0.050
0.672,0.160,-0.060
0.674,0.090,-0.065
0.676,0.025,-0.075
0.678,-0.035,-0.080
0.680,-0.140,-0.085
0.682,-0.155,-0.085
0.684,-0.145,-0.080
0.686,-0.050,-0.075
0.688,0.080,-0.070
0.690,0.110,-0.065
0.692,0.145,-0.060
0.694,0.050,-0.060
0.696,0.025,-0.060
0.698,-0.005,-0.060
0.700,-0.180,-0.065
0.702,-0.060,-0.065
0.704,-0.120,-0.070
0.706,-0.075,-0.070
0.708,-0.030,-0.075
0.710,0.090,-0.075
0.712,0.115,-0.075
0.714,0.010,-0.075
0.716,0.010,-0.075
0.718,-0.005,-0.070
0.720,-0.055,-0.070
0.722,-0.080,-0.070
0.724,-0.075,-0.065
0.726,-0.105,-0.070
0.728,0.000,-0.070
0.730,0.140,-0.075
0.732,0.040,-0.080
0.734,0.070,-0.080
0.736,0.035,-0.085
0.738,0.050,-0.085
0.740,-0.140,-0.080
0.742,-0.185,-0.075
0.744,-0.110,-0.070
0.746,-0.015,-0.065
0.748,0.020,-0.065
0.750,0.110,-0.065
0.752,0.085,-0.065
0.754,0.040,-0.070
0.756,0.040,-0.075
0.758,-0.045,-0.075
0.760,-0.110,-0.075
0.762,-0.125,-0.070
0.764,-0.080,-0.060
0.766,-0.035,-0.055
0.768,0.075,-0.045
0.770,0.205,-0.040
0.772,0.090,-0.040
0.774,0.110,-0.045
0.776,0.015,-0.050
0.778,-0.005,-0.060
0.780,-0.125,-0.065
0.782,-0.095,-0.070
0.784,-0.085,-0.070
0.786,-0.085,-0.070
0.788,0.025,-0.060
0.790,0.095,-0.050
0.792,0.140,-0.045
0.794,0.215,-0.035
0.796,0.160,-0.035
0.798,-0.030,-0.035
0.800,-0.115,-0.040
0.802,-0.130,-0.045
0.804,-0.085,-0.050
0.806,0.050,-0.055
0.808,-0.025,-0.055
0.810,0.175,-0.055
0.812,0.135,-0.055
0.814,0.085,-0.055
0.816,0.050,-0.055
0.818,0.030,-0.055
0.820,-0.160,-0.055
0.822,-0.115,-0.055
0.824,-0.060,-0.060
0.826,-0.005,-0.060
0.828,0.080,-0.065
0.830,0.145,-0.060
0.832,0.100,-0.060
0.834,0.085,-0.055
0.836,0.095,-0.050
0.838,-0.025,-0.050
0.840,-0.070,-0.050
0.842,-0.125,-0.050
0.844,-0.115,-0.055
0.846,-0.040,-0.060
0.848,0.020,-0.060
0.850,0.150,-0.065
0.852,0.205,-0.060
0.854,0.125,-0.055
0.856,0.085,-0.050
0.858,-0.025,-0.040
0.860,-0.145,-0.035
0.862,-0.160,-0.035
0.864,0.005,-0.035
0.866,-0.010,-0.040
0.868,0.070,-0.045
0.870,0.180,-0.055
0.872,0.165,-0.060
0.874,0.065,-0.060
0.876,0.020,-0.060
0.878,-0.005,-0.055
0.880,-0.130,-0.055
0.882,-0.110,-0.055
0.884,-0.095,-0.060
0.886,0.105,-0.065
0.888,0.020,-0.075
0.890,0.080,-0.085
0.892,0.105,-0.095
0.894,0.030,-0.100
0.896,-0.015,-0.095
0.898,-0.055,-0.085
0.900,-0.140,-0.070
0.902,-0.085,-0.055
0.904,0.040,-0.040
0.906,0.040,-0.035
0.908,0.025,-0.030
0.910,0.215,-0.040
0.912,0.125,-0.050
0.914,0.065,-0.060
0.916,-0.005,-0.065
0.918,-0.180,-0.070
0.920,-0.115,-0.065
0.922,-0.005,-0.055
0.924,0.020,-0.045
0.926,0.095,-0.035
0.928,0.110,-0.030
0.930,0.135,-0.030
0.932,0.105,-0.040
0.934,0.020,-0.055
0.936,-0.025,-0.075
0.938,-0.050,-0.090
0.940,-0.130,-0.095
0.942,-0.095,-0.100
0.944,-0.005,-0.090
0.946,0.000,-0.075
0.948,0.135,-0.060
0.950,0.175,-0.040
0.952,0.110,-0.030
0.954,0.095,-0.025
0.956,0.035,-0.025
0.958,-0.070,-0.030
0.960,-0.140,-0.040
0.962,-0.040,-0.040
0.964,0.035,-0.040
0.966,0.120,-0.030
0.968,0.225,-0.020
0.970,0.195,-0.010
0.972,0.200,0.000
0.974,0.110,0.005
0.976,0.070,0.005
0.978,-0.085,-0.005
0.980,-0.115,-0.015
0.982,-0.060,-0.030
0.984,0.030,-0.045
0.986,0.045,-0.050
0.988,0.210,-0.055
0.990,0.160,-0.050
0.992,0.130,-0.050
0.994,0.095,-0.045
0.996,-0.005,-0.045
0.998,-0.100,-0.050
1.000,-0.120,-0.060
1.002,-0.080,-0.075
1.004,0.025,-0.085
1.006,0.015,-0.095
1.008,0.115,-0.105
1.010,0.130,-0.100
1.012,0.075,-0.095
1.014,0.025,-0.080
1.016,0.030,-0.065
1.018,-0.100,-0.050
1.020,-0.060,-0.040
1.022,-0.085,-0.040
1.024,-0.010,-0.045
1.026,0.015,-0.055
1.028,0.215,-0.070
1.030,0.120,-0.085
1.032,0.045,-0.100
1.034,-0.030,-0.110
1.036,-0.015,-0.110
1.038,-0.085,-0.105
1.040,-0.140,-0.095
1.042,-0.175,-0.065
1.044,0.050,-0.030
1.046,0.105,0.020
1.048,0.285,0.085
1.050,0.230,0.160
1.052,0.460,0.245
1.054,0.520,0.330
1.056,0.600,0.415
1.058,0.610,0.490
1.060,0.550,0.550
1.062,0.530,0.595
1.064,0.605,0.610
1.066,0.570,0.600
1.068,0.815,0.565
1.070,0.785,0.505
1.072,0.690,0.425
1.074,0.500,0.335
1.076,0.330,0.235
1.078,0.070,0.135
1.080,-0.065,0.040
1.082,-0.185,-0.035
1.084,-0.095,-0.095
1.086,0.025,-0.130
1.088,0.065,-0.150
1.090,0.100,-0.150
1.092,0.065,-0.135
1.094,-0.050,-0.115
1.096,-0.020,-0.095
1.098,-0.090,-0.080
1.100,-0.155,-0.065
1.102,0.005,-0.060
1.104,0.010,-0.065
1.106,0.020,-0.070
1.108,0.115,-0.080
1.110,0.145,-0.085
1.112,0.090,-0.085
1.114,0.040,-0.085
1.116,0.035,-0.080
1.118,-0.145,-0.070
1.120,-0.110,-0.065
1.122,0.025,-0.060
1.124,0.010,-0.055
1.126,0.075,-0.060
1.128,0.175,-0.070
1.130,0.090,-0.075
1.132,0.035,-0.085
1.134,-0.030,-0.090
1.136,0.015,-0.095
1.138,-0.155,-0.095
1.140,-0.125,-0.090
1.142,0.010,-0.085
1.144,0.040,-0.075
1.146,0.115,-0.070
1.148,0.125,-0.060
1.150,0.180,-0.055
1.152,0.035,-0.055
1.154,0.010,-0.050
1.156,0.015,-0.050
1.158,-0.015,-0.055
1.160,-0.055,-0.055
1.162,-0.075,-0.060
1.164,0.040,-0.060
1.166,0.085,-0.065
1.168,0.130,-0.065
1.170,0.120,-0.065
1.172,0.130,-0.065
1.174,0.045,-0.060
1.176,-0.025,-0.055
1.178,-0.070,-0.050
1.180,-0.080,-0.045
1.182,0.005,-0.040
1.184,0.075,-0.045
1.186,0.140,-0.050
1.188,0.205,-0.060
1.190,0.095,-0.070
1.192,0.090,-0.075
1.194,0.050,-0.075
1.196,-0.075,-0.075
1.198,-0.075,-0.065
1.200,-0.045,-0.055
1.202,0.015,-0.040
1.204,0.080,-0.030
1.206,0.145,-0.020
1.208,0.245,-0.015
1.210,0.220,-0.015
1.212,0.110,-0.020
1.214,0.065,-0.025
1.216,0.015,-0.025
1.218,-0.085,-0.030
1.220,-0.050,-0.025
1.222,0.060,-0.020
1.224,0.100,-0.010
1.226,0.270,0.005
1.228,0.235,0.015
1.230,0.240,0.025
1.232,0.135,0.030
1.234,0.095,0.030
1.236,0.015,0.035
1.238,-0.015,0.035
1.240,0.080,0.035
1.242,0.145,0.040
1.244,0.145,0.045
1.246,0.300,0.055
1.248,0.260,0.070
1.250,0.290,0.085
1.252,0.205,0.105
1.254,0.220,0.125
1.256,0.225,0.140
1.258,0.135,0.155
1.260,0.090,0.170
1.262,0.240,0.180
1.264,0.350,0.185
1.266,0.460,0.190
1.268,0.445,0.200
1.270,0.395,0.205
1.272,0.285,0.210
1.274,0.300,0.215
1.276,0.165,0.220
1.278,0.240,0.225
1.280,0.230,0.225
1.282,0.285,0.225
1.284,0.345,0.220
1.286,0.400,0.210
1.288,0.470,0.205
1.290,0.380,0.195
1.292,0.270,0.185
1.294,0.230,0.180
1.296,0.200,0.175
1.298,0.245,0.175
1.300,0.230,0.180
1.302,0.290,0.180
1.304,0.240,0.180
1.306,0.375,0.180
1.308,0.355,0.170
1.310,0.415,0.155
1.312,0.280,0.140
1.314,0.185,0.120
1.316,0.035,0.100
1.318,0.070,0.080
1.320,0.080,0.070
1.322,0.135,0.060
1.324,0.215,0.050
1.326,0.295,0.045
1.328,0.265,0.040
1.330,0.200,0.035
1.332,0.105,0.025
1.334,0.090,0.015
1.336,0.060,0.000
1.338,-0.010,-0.010
1.340,-0.045,-0.025
1.342,0.035,-0.035
1.344,0.140,-0.040
1.346,0.175,-0.045
1.348,0.160,-0.050
1.350,0.110,-0.050
1.352,0.030,-0.050
1.354,0.040,-0.055
1.356,-0.090,-0.055
1.358,-0.075,-0.055
1.360,0.000,-0.055
1.362,0.095,-0.055
1.364,0.110,-0.055
1.366,0.235,-0.055
1.368,0.165,-0.050
1.370,0.125,-0.050
1.372,0.025,-0.050
1.374,-0.010,-0.050
1.376,-0.125,-0.055
1.378,-0.070,-0.065
1.380,-0.005,-0.075
1.382,0.050,-0.080
1.384,0.090,-0.085
1.386,0.130,-0.090
1.388,0.145,-0.090
1.390,0.105,-0.085
1.392,0.040,-0.080
1.394,0.015,-0.075
1.396,-0.090,-0.070
1.398,-0.040,-0.065
1.400,0.010,-0.055
1.402,0.060,-0.055
1.404,0.045,-0.050
1.406,0.175,-0.050
1.408,0.165,-0.050
1.410,0.145,-0.050
1.412,0.055,-0.055
1.414,-0.030,-0.060
1.416,-0.100,-0.070
1.418,-0.015,-0.075
1.420,-0.055,-0.080
1.422,-0.035,-0.085
1.424,0.085,-0.085
1.426,0.155,-0.085
1.428,0.155,-0.080
1.430,0.110,-0.075
1.432,-0.015,-0.070
1.434,-0.005,-0.060
1.436,-0.030,-0.055
1.438,-0.075,-0.045
1.440,0.045,-0.040
1.442,0.105,-0.030
1.444,0.135,-0.025
1.446,0.200,-0.025
1.448,0.195,-0.020
1.450,0.145,-0.025
1.452,0.050,-0.030
1.454,0.020,-0.040
1.456,-0.075,-0.055
1.458,-0.005,-0.070
1.460,-0.060,-0.080
1.462,0.035,-0.085
1.464,0.110,-0.085
1.466,0.175,-0.080
1.468,0.155,-0.065
1.470,0.055,-0.050
1.472,0.100,-0.040
1.474,0.005,-0.025
1.476,-0.010,-0.020
1.478,-0.035,-0.015
1.480,0.035,-0.020
1.482,0.125,-0.025
1.484,0.110,-0.030
1.486,0.205,-0.035
1.488,0.245,-0.035
1.490,0.125,-0.035
1.492,0.070,-0.030
1.494,0.010,-0.025
1.496,0.025,-0.020
1.498,0.050,-0.020
1.500,-0.030,-0.020
1.502,0.095,-0.025
1.504,0.220,-0.035
1.506,0.175,-0.040
1.508,0.205,-0.045
1.510,0.090,-0.040
1.512,0.020,-0.035
1.514,0.005,-0.030
1.516,0.045,-0.020
1.518,0.020,-0.010
1.520,0.050,-0.010
1.522,0.110,-0.010
1.524,0.145,-0.015
1.526,0.225,-0.025
1.528,0.235,-0.030
1.530,0.060,-0.040
1.532,0.105,-0.040
1.534,-0.025,-0.040
1.536,-0.055,-0.035
1.538,0.005,-0.030
1.540,0.030,-0.025
1.542,0.190,-0.020
1.544,0.145,-0.020
1.546,0.150,-0.020
1.548,0.170,-0.025
1.550,0.165,-0.035
1.552,0.075,-0.040
1.554,-0.055,-0.045
1.556,-0.005,-0.045
1.558,-0.045,-0.040
1.560,-0.020,-0.040
1.562,0.085,-0.035
1.564,0.220,-0.030
1.566,0.205,-0.030
1.568,0.190,-0.025
1.570,0.110,-0.030
1.572,0.050,-0.030
1.574,-0.060,-0.030
1.576,-0.025,-0.030
1.578,0.065,-0.035
1.580,0.025,-0.035
1.582,0.130,-0.035
1.584,0.165,-0.035
1.586,0.150,-0.035
1.588,0.220,-0.035
1.590,0.045,-0.035
1.592,0.055,-0.035
1.594,-0.050,-0.030
1.596,0.005,-0.025
1.598,0.030,-0.020
1.600,0.055,-0.015
1.602,0.120,-0.010
1.604,0.235,-0.010
1.606,0.270,-0.015
1.608,0.170,-0.025
1.610,0.085,-0.035
1.612,0.005,-0.045
1.614,-0.105,-0.050
1.616,-0.070,-0.055
1.618,-0.015,-0.055
1.620,0.035,-0.050
1.622,0.100,-0.040
1.624,0.255,-0.030
1.626,0.230,-0.025
1.628,0.160,-0.025
1.630,0.050,-0.030
1.632,0.040,-0.035
1.634,-0.085,-0.045
1.636,-0.055,-0.050
1.638,-0.040,-0.055
1.640,0.075,-0.055
1.642,0.070,-0.050
1.644,0.280,-0.035
1.646,0.285,-0.025
1.648,0.180,-0.010
1.650,0.060,0.000
1.652,0.025,0.010
1.654,-0.065,0.010
1.656,0.030,0.010
1.658,0.080,0.010
1.660,0.185,0.010
1.662,0.160,0.010
1.664,0.270,0.015
1.666,0.255,0.025
1.668,0.165,0.035
1.670,0.155,0.040
1.672,0.135,0.045
1.674,0.040,0.040
1.676,0.040,0.035
1.678,0.010,0.015
1.680,0.065,-0.005
1.682,0.185,-0.025
1.684,0.150,-0.050
1.686,0.175,-0.065
1.688,0.165,-0.075
1.690,0.055,-0.080
1.692,-0.010,-0.075
1.694,-0.045,-0.070
1.696,-0.080,-0.060
1.698,-0.030,-0.055
1.700,0.050,-0.055
1.702,0.095,-0.055
1.704,0.180,-0.060
1.706,0.175,-0.070
1.708,0.095,-0.075
1.710,0.075,-0.075
1.712,0.005,-0.075
1.714,-0.090,-0.070
1.716,-0.045,-0.065
1.718,-0.020,-0.055
1.720,0.060,-0.055
1.722,0.065,-0.055
1.724,0.105,-0.065
1.726,0.200,-0.075
1.728,0.145,-0.080
1.730,0.045,-0.080
1.732,-0.075,-0.070
1.734,-0.085,-0.040
1.736,-0.005,0.010
1.738,0.150,0.080
1.740,0.240,0.170
1.742,0.460,0.265
1.744,0.710,0.365
1.746,0.765,0.460
1.748,0.750,0.545
1.750,0.805,0.605
1.752,0.745,0.650
1.754,0.620,0.665
1.756,0.575,0.655
1.758,0.640,0.625
1.760,0.680,0.570
1.762,0.680,0.495
1.764,0.780,0.410
1.766,0.615,0.315
1.768,0.395,0.215
1.770,0.185,0.120
1.772,-0.045,0.035
1.774,-0.150,-0.030
1.776,-0.120,-0.080
1.778,-0.045,-0.110
1.780,0.030,-0.120
1.782,0.090,-0.115
1.784,0.180,-0.105
1.786,0.150,-0.090
1.788,0.065,-0.075
1.790,0.030,-0.070
1.792,-0.075,-0.065
1.794,-0.080,-0.070
1.796,-0.045,-0.070
1.798,0.040,-0.075
1.800,0.040,-0.070
1.802,0.105,-0.065
1.804,0.220,-0.055
1.806,0.180,-0.045
1.808,0.155,-0.035
1.810,0.030,-0.030
1.812,-0.050,-0.030
1.814,-0.070,-0.040
1.816,-0.050,-0.050
1.818,0.090,-0.065
1.820,0.025,-0.075
1.822,0.120,-0.075
1.824,0.235,-0.075
1.826,0.120,-0.065
1.828,0.130,-0.055
1.830,0.000,-0.045
1.832,0.020,-0.040
1.834,-0.005,-0.040
1.836,-0.080,-0.050
1.838,-0.030,-0.060
1.840,0.025,-0.075
1.842,0.120,-0.090
1.844,0.190,-0.095
1.846,0.125,-0.095
1.848,0.110,-0.085
1.850,0.050,-0.070
1.852,-0.090,-0.055
1.854,0.010,-0.035
1.856,-0.065,-0.025
1.858,0.045,-0.020
1.860,0.100,-0.020
1.862,0.190,-0.025
1.864,0.230,-0.035
1.866,0.175,-0.045
1.868,0.090,-0.050
1.870,0.020,-0.050
1.872,-0.035,-0.050
1.874,-0.015,-0.045
1.876,-0.055,-0.040
1.878,0.045,-0.035
1.880,0.120,-0.030
1.882,0.240,-0.025
1.884,0.215,-0.025
1.886,0.200,-0.020
1.888,0.075,-0.020
1.890,0.045,-0.020
1.892,-0.010,-0.020
1.894,0.000,-0.015
1.896,-0.045,-0.015
1.898,0.090,-0.015
1.900,0.175,-0.015
1.902,0.355,-0.015
1.904,0.170,-0.010
1.906,0.160,-0.010
1.908,0.155,-0.005
1.910,0.125,0.000
1.912,-0.055,0.005
1.914,-0.020,0.010
1.916,0.065,0.010
1.918,0.100,0.005
1.920,0.205,0.000
1.922,0.355,-0.005
1.924,0.145,-0.010
1.926,0.130,-0.010
1.928,0.125,-0.005
1.930,0.105,0.005
1.932,0.015,0.020
1.934,0.065,0.040
1.936,0.095,0.055
1.938,0.235,0.075
1.940,0.230,0.085
1.942,0.270,0.090
1.944,0.320,0.090
1.946,0.275,0.090
1.948,0.230,0.090
1.950,0.180,0.095
1.952,0.085,0.100
1.954,0.160,0.110
1.956,0.145,0.125
1.958,0.245,0.140
1.960,0.265,0.155
1.962,0.395,0.170
1.964,0.500,0.180
1.966,0.365,0.180
1.968,0.285,0.180
1.970,0.195,0.180
1.972,0.110,0.175
1.974,0.205,0.175
1.976,0.230,0.175
1.978,0.280,0.180
1.980,0.310,0.185
1.982,0.345,0.190
1.984,0.420,0.190
1.986,0.455,0.190
1.988,0.325,0.190
1.990,0.340,0.185
1.992,0.150,0.175
1.994,0.155,0.160
1.996,0.145,0.145
1.998,0.200,0.130
2.000,0.225,0.110
2.002,0.345,0.095
2.004,0.320,0.075
2.006,0.350,0.065
2.008,0.145,0.050
2.010,0.020,0.045
2.012,0.025,0.035
2.014,0.060,0.030
2.016,0.175,0.030
2.018,0.070,0.025
2.020,0.195,0.015
2.022,0.220,0.010
2.024,0.260,-0.005
2.026,0.140,-0.015
2.028,0.030,-0.030
2.030,0.040,-0.040
2.032,-0.070,-0.050
2.034,-0.035,-0.055
2.036,0.030,-0.055
2.038,0.020,-0.050
2.040,0.165,-0.045
2.042,0.180,-0.035
2.044,0.230,-0.025
2.046,0.125,-0.020
2.048,0.100,-0.015
2.050,0.025,-0.015
2.052,-0.020,-0.025
2.054,-0.080,-0.035
2.056,0.005,-0.045
2.058,0.005,-0.060
2.060,0.140,-0.070
2.062,0.295,-0.075
2.064,0.145,-0.080
2.066,-0.040,-0.080
2.068,0.050,-0.075
2.070,0.020,-0.070
2.072,-0.080,-0.065
2.074,-0.070,-0.060
2.076,-0.005,-0.055
2.078,0.105,-0.055
2.080,0.150,-0.055
2.082,0.250,-0.050
2.084,0.155,-0.050
2.086,0.065,-0.050
2.088,0.030,-0.045
2.090,-0.075,-0.045
2.092,0.030,-0.040
2.094,-0.060,-0.045
2.096,-0.010,-0.045
2.098,0.100,-0.055
2.100,0.125,-0.065
2.102,0.165,-0.075
2.104,0.205,-0.080
2.106,0.070,-0.085
2.108,0.010,-0.085
2.110,-0.050,-0.085
2.112,-0.085,-0.075
2.114,-0.050,-0.060
2.116,0.035,-0.050
2.118,0.105,-0.035
2.120,0.240,-0.030
2.122,0.190,-0.025
2.124,0.175,-0.025
2.126,0.110,-0.030
2.128,0.060,-0.035
2.130,-0.105,-0.045
2.132,0.055,-0.055
2.134,-0.065,-0.060
2.136,-0.005,-0.065
2.138,0.090,-0.070
2.140,0.130,-0.070
2.142,0.130,-0.070
2.144,0.160,-0.070
2.146,0.095,-0.070
2.148,-0.015,-0.075
2.150,-0.140,-0.075
2.152,-0.130,-0.080
2.154,-0.040,-0.085
2.156,0.105,-0.085
2.158,0.070,-0.085
2.160,0.180,-0.085
2.162,0.130,-0.080
2.164,0.100,-0.075
2.166,0.055,-0.070
2.168,0.085,-0.060
2.170,-0.070,-0.050
2.172,-0.105,-0.040
2.174,-0.010,-0.035
2.176,0.055,-0.030
2.178,0.110,-0.030
2.180,0.275,-0.030
2.182,0.125,-0.035
2.184,0.225,-0.040
2.186,0.100,-0.045
2.188,0.005,-0.055
2.190,-0.130,-0.065
2.192,-0.100,-0.070
2.194,-0.080,-0.075
2.196,0.005,-0.080
2.198,0.115,-0.080
2.200,0.250,-0.075
2.202,0.200,-0.070
2.204,0.105,-0.065
2.206,0.075,-0.055
2.208,0.045,-0.050
2.210,-0.130,-0.045
2.212,-0.055,-0.040
2.214,-0.010,-0.040
2.216,0.050,-0.040
2.218,0.050,-0.045
2.220,0.245,-0.050
2.222,0.210,-0.055
2.224,0.140,-0.055
2.226,0.050,-0.060
2.228,-0.005,-0.060
2.230,-0.090,-0.060
2.232,-0.140,-0.065
2.234,-0.035,-0.070
2.236,0.070,-0.075
2.238,0.080,-0.080
2.240,0.240,-0.085
2.242,0.110,-0.090
2.244,0.140,-0.090
2.246,0.060,-0.085
2.248,-0.010,-0.075
2.250,-0.060,-0.065
2.252,-0.095,-0.050
2.254,-0.005,-0.040
2.256,0.055,-0.035
2.258,0.115,-0.030
2.260,0.225,-0.035
2.262,0.245,-0.045
2.264,0.080,-0.055
2.266,0.075,-0.065
2.268,-0.015,-0.070
2.270,-0.110,-0.075
2.272,-0.105,-0.075
2.274,-0.055,-0.065
2.276,0.155,-0.060
2.278,0.145,-0.050
2.280,0.180,-0.040
2.282,0.195,-0.040
2.284,0.110,-0.035
2.286,0.025,-0.040
2.288,0.050,-0.045
2.290,-0.035,-0.055
2.292,-0.140,-0.065
2.294,-0.010,-0.070
2.296,0.025,-0.075
2.298,0.120,-0.080
2.300,0.185,-0.080
2.302,0.155,-0.080
2.304,0.140,-0.080
2.306,0.045,-0.075
2.308,-0.040,-0.070
2.310,-0.060,-0.060
2.312,-0.045,-0.045
2.314,0.040,-0.035
2.316,0.080,-0.020
2.318,0.145,-0.005
2.320,0.285,0.005
2.322,0.230,0.010
2.324,0.220,0.010
2.326,0.175,0.005
2.328,0.115,-0.005
2.330,-0.085,-0.015
2.332,-0.070,-0.025
2.334,0.025,-0.035
2.336,0.145,-0.040
2.338,0.160,-0.045
2.340,0.200,-0.045
2.342,0.165,-0.045
2.344,0.125,-0.050
2.346,0.025,-0.050
2.348,-0.030,-0.055
2.350,0.005,-0.060
2.352,-0.090,-0.065
2.354,0.000,-0.070
2.356,0.055,-0.070
2.358,0.165,-0.065
2.360,0.215,-0.055
2.362,0.165,-0.050
2.364,0.120,-0.045
2.366,0.045,-0.040
2.368,0.010,-0.045
2.370,-0.085,-0.050
2.372,-0.095,-0.060
2.374,0.015,-0.075
2.376,0.090,-0.085
2.378,0.065,-0.090
2.380,0.160,-0.095
2.382,0.190,-0.090
2.384,0.150,-0.085
2.386,-0.050,-0.080
2.388,-0.130,-0.075
2.390,-0.065,-0.075
2.392,-0.015,-0.080
2.394,0.050,-0.085
2.396,0.020,-0.085
2.398,0.165,-0.085
2.400,0.230,-0.065
2.402,0.160,-0.035
2.404,0.025,0.015
2.406,0.140,0.085
2.408,0.185,0.170
2.410,0.280,0.265
2.412,0.415,0.365
2.414,0.675,0.455
2.416,0.805,0.540
2.418,0.885,0.610
2.420,0.940,0.655
2.422,0.840,0.680
2.424,0.775,0.680
2.426,0.725,0.650
2.428,0.575,0.600
2.430,0.600,0.530
2.432,0.600,0.440
2.434,0.515,0.340
2.436,0.365,0.240
2.438,0.265,0.135
2.440,0.180,0.045
2.442,0.030,-0.030
2.444,-0.050,-0.090
2.446,0.075,-0.130
2.448,-0.120,-0.150
2.450,-0.085,-0.150
2.452,-0.095,-0.145
2.454,-0.035,-0.125
2.456,0.050,-0.105
2.458,0.155,-0.085
2.460,0.175,-0.070
2.462,0.120,-0.055
2.464,0.130,-0.050
2.466,0.085,-0.045
2.468,-0.055,-0.045
2.470,-0.075,-0.050
2.472,-0.050,-0.050
2.474,0.035,-0.055
2.476,0.120,-0.060
2.478,0.135,-0.065
2.480,0.220,-0.065
2.482,0.145,-0.065
2.484,0.020,-0.070
2.486,0.010,-0.065
2.488,-0.045,-0.065
2.490,-0.055,-0.065
2.492,-0.035,-0.060
2.494,0.045,-0.060
2.496,0.155,-0.055
2.498,0.250,-0.050
2.500,0.185,-0.050
2.502,0.155,-0.045
2.504,0.030,-0.045
2.506,0.080,-0.040
2.508,0.025,-0.045
2.510,-0.080,-0.050
2.512,-0.050,-0.050
2.514,0.025,-0.055
2.516,0.115,-0.060
2.518,0.195,-0.060
2.520,0.205,-0.060
2.522,0.170,-0.055
2.524,0.090,-0.050
2.526,0.025,-0.040
2.528,0.005,-0.035
2.530,-0.030,-0.035
2.532,0.010,-0.035
2.534,0.020,-0.040
2.536,0.135,-0.045
2.538,0.280,-0.050
2.540,0.180,-0.055
2.542,0.155,-0.055
2.544,0.060,-0.050
2.546,0.055,-0.040
2.548,0.005,-0.030
2.550,-0.015,-0.020
2.552,-0.040,-0.015
2.554,0.130,-0.010
2.556,0.130,-0.015
2.558,0.230,-0.020
2.560,0.305,-0.030
2.562,0.195,-0.040
2.564,0.065,-0.045
2.566,-0.020,-0.045
2.568,-0.050,-0.040
2.570,0.010,-0.030
2.572,0.095,-0.020
2.574,0.070,-0.010
2.576,0.195,0.000
2.578,0.305,0.005
2.580,0.235,0.005
2.582,0.195,0.005
2.584,0.195,0.005
2.586,0.065,0.005
2.588,-0.010,0.005
2.590,-0.030,0.010
2.592,0.055,0.015
2.594,0.205,0.025
2.596,0.210,0.040
2.598,0.385,0.055
2.600,0.310,0.070
2.602,0.235,0.080
2.604,0.245,0.095
2.606,0.145,0.105
2.608,0.120,0.115
2.610,0.100,0.120
2.612,0.140,0.130
2.614,0.245,0.135
2.616,0.470,0.135
2.618,0.395,0.135
2.620,0.360,0.135
2.622,0.375,0.135
2.624,0.195,0.135
2.626,0.170,0.140
2.628,0.160,0.145
2.630,0.200,0.150
2.632,0.270,0.160
2.634,0.290,0.170
2.636,0.390,0.175
2.638,0.530,0.185
2.640,0.420,0.185
2.642,0.335,0.185
2.644,0.255,0.180
2.646,0.205,0.170
2.648,0.220,0.160
2.650,0.255,0.155
2.652,0.195,0.145
2.654,0.290,0.140
2.656,0.385,0.140
2.658,0.420,0.135
2.660,0.370,0.135
2.662,0.325,0.135
2.664,0.295,0.135
2.666,0.120,0.125
2.668,0.115,0.120
2.670,0.060,0.110
2.672,0.245,0.100
2.674,0.240,0.090
2.676,0.390,0.080
2.678,0.305,0.070
2.680,0.310,0.060
2.682,0.200,0.050
2.684,0.150,0.040
2.686,0.005,0.025
2.688,0.030,0.010
2.690,0.065,-0.005
2.692,0.125,-0.025
2.694,0.050,-0.035
2.696,0.205,-0.045
2.698,0.175,-0.050
2.700,0.185,-0.050
2.702,0.160,-0.045
2.704,0.105,-0.040
2.706,0.000,-0.035
2.708,-0.050,-0.030
2.710,-0.045,-0.025
2.712,0.080,-0.030
2.714,0.125,-0.035
2.716,0.190,-0.045
2.718,0.230,-0.055
2.720,0.150,-0.060
2.722,0.035,-0.060
2.724,0.070,-0.060
2.726,0.000,-0.055
2.728,-0.055,-0.050
2.730,0.020,-0.045
2.732,0.100,-0.045
2.734,0.080,-0.045
2.736,0.220,-0.050
2.738,0.165,-0.060
2.740,0.155,-0.065
2.742,0.095,-0.070
2.744,0.050,-0.075
2.746,-0.030,-0.075
2.748,-0.020,-0.075
2.750,-0.060,-0.070
2.752,0.015,-0.070
2.754,0.075,-0.070
2.756,0.225,-0.070
2.758,0.155,-0.075
2.760,0.130,-0.080
2.762,0.085,-0.085
2.764,-0.005,-0.090
2.766,-0.030,-0.090
2.768,-0.045,-0.085
2.770,-0.075,-0.080
2.772,0.060,-0.070
2.774,0.160,-0.060
2.776,0.285,-0.055
2.778,0.195,-0.050
2.780,0.070,-0.050
2.782,0.045,-0.055
2.784,0.130,-0.065
2.786,0.005,-0.070
2.788,-0.125,-0.080
2.790,-0.035,-0.085
2.792,0.060,-0.080
2.794,0.070,-0.075
2.796,0.225,-0.065
2.798,0.220,-0.055
2.800,0.175,-0.040
2.802,0.050,-0.030
2.804,0.065,-0.030
2.806,-0.020,-0.030
2.808,-0.040,-0.035
2.810,0.045,-0.045
2.812,0.145,-0.055
2.814,0.120,-0.065
2.816,0.135,-0.075
2.818,0.205,-0.075
2.820,0.140,-0.070
2.822,0.095,-0.065
2.824,0.015,-0.055
2.826,-0.035,-0.045
2.828,-0.015,-0.035
2.830,0.090,-0.035
2.832,0.105,-0.035
2.834,0.150,-0.040
2.836,0.225,-0.045
2.838,0.235,-0.050
2.840,0.140,-0.050
2.842,0.090,-0.050
2.844,0.050,-0.050
2.846,-0.060,-0.045
2.848,0.035,-0.045
2.850,0.030,-0.040
2.852,0.080,-0.040
2.854,0.100,-0.040
2.856,0.160,-0.040
2.858,0.280,-0.040
2.860,0.280,-0.045
2.862,0.100,-0.040
2.864,0.025,-0.040
2.866,-0.100,-0.040
2.868,-0.005,-0.035
2.870,0.005,-0.040
2.872,0.125,-0.045
2.874,0.175,-0.050
2.876,0.175,-0.055
2.878,0.200,-0.065
2.880,0.150,-0.065
2.882,0.100,-0.070
2.884,-0.010,-0.065
2.886,-0.030,-0.060
2.888,0.020,-0.055
2.890,0.010,-0.050
2.892,0.115,-0.050
2.894,0.130,-0.055
2.896,0.195,-0.060
2.898,0.155,-0.065
2.900,0.170,-0.070
2.902,0.120,-0.070
2.904,0.090,-0.065
2.906,-0.055,-0.060
2.908,-0.090,-0.045
2.910,0.045,-0.035
2.912,0.200,-0.020
2.914,0.170,-0.015
2.916,0.195,-0.015
2.918,0.170,-0.015
2.920,0.230,-0.025
2.922,0.130,-0.035
2.924,0.045,-0.045
2.926,0.010,-0.050
2.928,0.000,-0.055
2.930,0.010,-0.055
2.932,0.030,-0.050
2.934,0.190,-0.050
2.936,0.220,-0.045
2.938,0.170,-0.045
2.940,0.125,-0.045
2.942,0.070,-0.050
2.944,0.065,-0.050
2.946,-0.050,-0.055
2.948,0.000,-0.055
2.950,0.085,-0.050
2.952,0.120,-0.050
2.954,0.220,-0.045
2.956,0.240,-0.040
2.958,0.180,-0.035
2.960,0.095,-0.035
2.962,0.105,-0.030
2.964,0.020,-0.025
2.966,-0.010,-0.020
2.968,0.005,-0.015
2.970,0.140,-0.010
2.972,0.120,-0.005
2.974,0.285,0.000
2.976,0.290,0.005
2.978,0.220,0.005
2.980,0.175,0.005
2.982,0.145,0.000
2.984,0.045,-0.005
2.986,0.085,-0.005
2.988,0.015,-0.010
2.990,0.070,-0.015
2.992,0.180,-0.015
2.994,0.280,-0.020
2.996,0.215,-0.025
2.998,0.215,-0.030
3.000,0.155,-0.035
3.002,0.140,-0.040
3.004,-0.045,-0.050
3.006,-0.025,-0.055
3.008,-0.035,-0.060
3.010,0.020,-0.060
3.012,0.075,-0.065
3.014,0.190,-0.070
3.016,0.215,-0.070
3.018,0.210,-0.070
3.020,0.070,-0.070
3.022,0.050,-0.070
3.024,0.080,-0.070
3.026,-0.025,-0.065
3.028,-0.020,-0.060
3.030,0.055,-0.060
3.032,0.105,-0.060
3.034,0.195,-0.065
3.036,0.155,-0.075
3.038,0.115,-0.095
3.040,0.105,-0.110
3.042,0.035,-0.130
3.044,-0.150,-0.135
3.046,-0.110,-0.130
3.048,-0.050,-0.105
3.050,0.100,-0.055
3.052,0.185,0.015
3.054,0.380,0.110
3.056,0.480,0.220
3.058,0.570,0.335
3.060,0.660,0.450
3.062,0.750,0.555
3.064,0.810,0.640
3.066,0.790,0.700
3.068,0.795,0.730
3.070,0.810,0.730
3.072,0.800,0.705
3.074,0.860,0.650
3.076,0.900,0.575
3.078,0.865,0.480
3.080,0.615,0.375
3.082,0.405,0.265
3.084,0.135,0.160
3.086,-0.035,0.065
3.088,-0.075,-0.020
3.090,0.050,-0.080
3.092,0.015,-0.125
3.094,0.155,-0.145
3.096,0.135,-0.150
3.098,0.215,-0.140
3.100,0.050,-0.120
3.102,-0.055,-0.100
3.104,-0.045,-0.080
3.106,-0.040,-0.065
3.108,-0.020,-0.055
3.110,0.110,-0.055
3.112,0.140,-0.060
3.114,0.235,-0.065
3.116,0.210,-0.070
3.118,0.125,-0.075
3.120,0.060,-0.080
3.122,0.095,-0.080
3.124,-0.020,-0.080
3.126,-0.075,-0.085
3.128,-0.045,-0.085
3.130,0.040,-0.090
3.132,0.105,-0.095
3.134,0.185,-0.095
3.136,0.190,-0.095
3.138,0.150,-0.090
3.140,0.035,-0.080
3.142,0.055,-0.070
3.144,-0.015,-0.060
3.146,-0.075,-0.050
3.148,0.055,-0.045
3.150,0.075,-0.040
3.152,0.125,-0.040
3.154,0.255,-0.045
3.156,0.265,-0.045
3.158,0.220,-0.045
3.160,0.120,-0.045
3.162,-0.025,-0.040
3.164,-0.080,-0.035
3.166,0.030,-0.025
3.168,0.045,-0.020
3.170,0.120,-0.020
3.172,0.285,-0.020
3.174,0.265,-0.025
3.176,0.345,-0.035
3.178,0.100,-0.040
3.180,0.065,-0.045
3.182,0.045,-0.050
3.184,-0.035,-0.050
3.186,-0.060,-0.050
3.188,0.080,-0.045
3.190,0.155,-0.045
3.192,0.140,-0.040
3.194,0.240,-0.040
3.196,0.230,-0.040
3.198,0.115,-0.040
3.200,0.185,-0.035
3.202,0.060,-0.025
3.204,-0.045,-0.020
3.206,-0.005,-0.010
3.208,0.170,0.000
3.210,0.175,0.005
3.212,0.225,0.010
3.214,0.245,0.010
3.216,0.240,0.005
3.218,0.190,0.000
3.220,0.165,-0.005
3.222,0.030,-0.010
3.224,0.045,-0.010
3.226,0.050,-0.010
3.228,0.055,-0.005
3.230,0.205,0.005
3.232,0.280,0.010
3.234,0.295,0.020
3.236,0.260,0.025
3.238,0.215,0.025
3.240,0.210,0.030
3.242,0.065,0.030
3.244,0.095,0.030
3.246,0.105,0.030
3.248,0.210,0.035
3.250,0.200,0.045
3.252,0.250,0.060
3.254,0.360,0.075
3.256,0.405,0.090
3.258,0.370,0.110
3.260,0.220,0.130
3.262,0.215,0.145
3.264,0.235,0.155
3.266,0.200,0.160
3.268,0.270,0.165
3.270,0.350,0.165
3.272,0.410,0.160
3.274,0.415,0.160
3.276,0.445,0.160
3.278,0.330,0.165
3.280,0.330,0.175
3.282,0.200,0.190
3.284,0.245,0.205
3.286,0.310,0.215
3.288,0.415,0.225
3.290,0.425,0.225
3.292,0.430,0.220
3.294,0.510,0.205
3.296,0.390,0.185
3.298,0.350,0.165
3.300,0.355,0.145
3.302,0.125,0.130
3.304,0.180,0.120
3.306,0.135,0.115
3.308,0.240,0.120
3.310,0.390,0.125
3.312,0.420,0.125
3.314,0.335,0.125
3.316,0.370,0.120
3.318,0.255,0.110
3.320,0.230,0.095
3.322,0.130,0.080
3.324,0.150,0.070
3.326,0.090,0.055
3.328,0.180,0.045
3.330,0.225,0.035
3.332,0.345,0.025
3.334,0.325,0.015
3.336,0.180,0.005
3.338,0.095,-0.005
3.340,0.060,-0.020
3.342,0.010,-0.035
3.344,-0.015,-0.040
3.346,0.015,-0.045
3.348,0.175,-0.050
3.350,0.120,-0.050
3.352,0.235,-0.045
3.354,0.230,-0.040
3.356,0.215,-0.040
3.358,0.065,-0.045
3.360,0.065,-0.050
3.362,-0.015,-0.060
3.364,0.010,-0.070
3.366,-0.030,-0.075
3.368,0.075,-0.080
3.370,0.125,-0.080
3.372,0.210,-0.080
3.374,0.220,-0.075
3.376,0.150,-0.070
3.378,0.030,-0.065
3.380,0.055,-0.065
3.382,-0.005,-0.060
3.384,-0.035,-0.060
3.386,-0.045,-0.060
3.388,0.115,-0.055
3.390,0.165,-0.055
3.392,0.240,-0.055
3.394,0.170,-0.055
3.396,0.245,-0.060
3.398,0.090,-0.065
3.400,0.055,-0.070
3.402,-0.090,-0.075
3.404,-0.055,-0.085
3.406,0.005,-0.090
3.408,0.075,-0.095
3.410,0.150,-0.095
3.412,0.225,-0.090
3.414,0.135,-0.080
3.416,0.140,-0.070
3.418,0.155,-0.065
3.420,0.010,-0.060
3.422,0.005,-0.055
3.424,-0.025,-0.055
3.426,0.065,-0.060
3.428,0.055,-0.065
3.430,0.135,-0.065
3.432,0.225,-0.065
3.434,0.195,-0.060
3.436,0.155,-0.050
3.438,0.060,-0.035
3.440,0.160,-0.025
3.442,0.045,-0.020
3.444,-0.040,-0.020
3.446,0.025,-0.025
3.448,0.100,-0.040
3.450,0.125,-0.055
3.452,0.250,-0.065
3.454,0.295,-0.075
3.456,0.090,-0.080
3.458,0.065,-0.075
3.460,0.075,-0.065
3.462,0.025,-0.050
3.464,0.015,-0.035
3.466,0.040,-0.025
3.468,0.100,-0.020
3.470,0.175,-0.020
3.472,0.225,-0.025
3.474,0.270,-0.040
3.476,0.200,-0.050
3.478,0.120,-0.060
3.480,-0.050,-0.065
3.482,-0.070,-0.065
3.484,-0.005,-0.065
3.486,0.070,-0.060
3.488,0.110,-0.055
3.490,0.145,-0.050
3.492,0.270,-0.050
3.494,0.195,-0.050
3.496,0.165,-0.055
3.498,0.115,-0.055
3.500,-0.040,-0.060
3.502,-0.005,-0.055
3.504,0.030,-0.055
3.506,0.020,-0.055
3.508,0.145,-0.050
3.510,0.205,-0.050
3.512,0.225,-0.050
3.514,0.235,-0.050
3.516,0.120,-0.045
3.518,0.080,-0.040
3.520,0.020,-0.035
3.522,-0.070,-0.030
3.524,0.060,-0.025
3.526,0.170,-0.020
3.528,0.145,-0.020
3.530,0.195,-0.030
3.532,0.180,-0.040
3.534,0.200,-0.055
3.536,0.140,-0.070
3.538,-0.010,-0.085
3.540,-0.055,-0.095
3.542,0.050,-0.095
3.544,-0.110,-0.090
3.546,0.015,-0.085
3.548,0.150,-0.070
3.550,0.235,-0.060
3.552,0.190,-0.055
3.554,0.250,-0.055
3.556,0.115,-0.060
3.558,0.070,-0.065
3.560,-0.075,-0.075
3.562,-0.070,-0.075
3.564,-0.085,-0.080
3.566,0.080,-0.075
3.568,0.115,-0.065
3.570,0.265,-0.055
3.572,0.285,-0.040
3.574,0.220,-0.030
3.576,0.160,-0.025
3.578,0.045,-0.025
3.580,-0.025,-0.025
3.582,-0.015,-0.030
3.584,0.020,-0.040
3.586,0.140,-0.045
3.588,0.165,-0.055
3.590,0.180,-0.060
3.592,0.170,-0.065
3.594,0.185,-0.065
3.596,0.045,-0.065
3.598,0.060,-0.055
3.600,0.000,-0.045
3.602,0.010,-0.035
3.604,0.030,-0.020
3.606,0.090,-0.005
3.608,0.155,0.010
3.610,0.370,0.015
3.612,0.245,0.020
3.614,0.270,0.020
3.616,0.170,0.010
3.618,0.100,0.000
3.620,-0.040,-0.010
3.622,0.045,-0.020
3.624,0.090,-0.020
3.626,0.095,-0.020
3.628,0.190,-0.020
3.630,0.275,-0.015
3.632,0.230,-0.010
3.634,0.210,-0.015
3.636,0.130,-0.025
3.638,0.135,-0.040
3.640,-0.065,-0.060
3.642,-0.055,-0.080
3.644,-0.045,-0.095
3.646,0.065,-0.100
3.648,0.030,-0.095
3.650,0.170,-0.085
3.652,0.265,-0.065
3.654,0.195,-0.045
3.656,0.075,-0.030
3.658,0.105,-0.020
3.660,-0.005,-0.025
3.662,-0.040,-0.030
3.664,0.025,-0.045
3.666,0.170,-0.065
3.668,0.060,-0.080
3.670,0.160,-0.090
3.672,0.220,-0.095
3.674,0.135,-0.100
3.676,0.010,-0.105
3.678,-0.005,-0.110
3.680,-0.115,-0.120
3.682,-0.120,-0.125
3.684,-0.035,-0.130
3.686,-0.005,-0.125
3.688,0.035,-0.100
3.690,0.225,-0.055
3.692,0.320,0.020
3.694,0.345,0.120
3.696,0.325,0.235
3.698,0.400,0.355
3.700,0.600,0.475
3.702,0.730,0.580
3.704,0.830,0.660
3.706,0.900,0.710
3.708,0.835,0.730
3.710,0.985,0.715
3.712,0.840,0.680
3.714,0.775,0.615
3.716,0.785,0.540
3.718,0.655,0.445
3.720,0.460,0.345
3.722,0.215,0.245
3.724,0.115,0.140
3.726,0.125,0.050
3.728,0.055,-0.030
3.730,0.095,-0.095
3.732,0.090,-0.135
3.734,0.060,-0.155
3.736,0.050,-0.150
3.738,0.020,-0.135
3.740,-0.075,-0.115
3.742,-0.070,-0.090
3.744,-0.005,-0.070
3.746,0.140,-0.060
3.748,0.115,-0.060
3.750,0.195,-0.065
3.752,0.205,-0.080
3.754,0.095,-0.090
3.756,0.035,-0.095
3.758,0.005,-0.095
3.760,-0.020,-0.090
3.762,-0.065,-0.080
3.764,0.065,-0.065
3.766,0.075,-0.050
3.768,0.085,-0.045
3.770,0.260,-0.050
3.772,0.180,-0.055
3.774,0.055,-0.070
3.776,0.060,-0.085
3.778,-0.045,-0.095
3.780,0.010,-0.105
3.782,-0.060,-0.105
3.784,-0.015,-0.100
3.786,0.095,-0.090
3.788,0.145,-0.075
3.790,0.195,-0.065
3.792,0.165,-0.055
3.794,0.115,-0.045
3.796,0.140,-0.045
3.798,-0.020,-0.050
3.800,-0.105,-0.050
3.802,0.015,-0.055
3.804,0.110,-0.055
3.806,0.080,-0.055
3.808,0.175,-0.055
3.810,0.285,-0.050
3.812,0.170,-0.050
3.814,0.035,-0.050
3.816,0.075,-0.055
3.818,0.030,-0.055
3.820,0.020,-0.060
3.822,-0.005,-0.060
3.824,-0.005,-0.060
3.826,0.055,-0.055
3.828,0.155,-0.050
3.830,0.255,-0.040
3.832,0.210,-0.035
3.834,0.115,-0.035
3.836,0.145,-0.035
3.838,-0.010,-0.040
3.840,0.000,-0.045
3.842,-0.055,-0.050
3.844,0.030,-0.055
3.846,0.115,-0.055
3.848,0.235,-0.050
3.850,0.235,-0.040
3.852,0.190,-0.030
3.854,0.130,-0.015
3.856,0.130,-0.005
3.858,0.025,0.000
3.860,-0.010,0.005
3.862,0.020,0.005
3.864,0.185,0.000
3.866,0.160,-0.005
3.868,0.245,-0.005
3.870,0.295,0.000
3.872,0.275,0.005
3.874,0.115,0.015
3.876,0.175,0.025
3.878,0.050,0.035
3.880,0.050,0.040
3.882,0.060,0.045
3.884,0.120,0.045
3.886,0.130,0.045
3.888,0.325,0.045
3.890,0.375,0.045
3.892,0.280,0.055
3.894,0.305,0.070
3.896,0.175,0.085
3.898,0.100,0.105
3.900,0.080,0.120
3.902,0.245,0.130
3.904,0.285,0.135
3.906,0.255,0.140
3.908,0.390,0.140
3.910,0.355,0.140
3.912,0.360,0.140
3.914,0.315,0.145
3.916,0.385,0.155
3.918,0.160,0.170
3.920,0.220,0.185
3.922,0.275,0.195
3.924,0.325,0.200
3.926,0.315,0.195
3.928,0.430,0.190
3.930,0.425,0.175
3.932,0.415,0.160
3.934,0.300,0.145
3.936,0.250,0.135
3.938,0.110,0.130
3.940,0.140,0.130
3.942,0.210,0.135
3.944,0.345,0.135
3.946,0.295,0.135
3.948,0.375,0.130
3.950,0.370,0.120
3.952,0.260,0.105
3.954,0.185,0.090
3.956,0.190,0.075
3.958,0.070,0.065
3.960,0.085,0.060
3.962,0.145,0.055
3.964,0.165,0.055
3.966,0.215,0.050
3.968,0.380,0.045
3.970,0.265,0.040
3.972,0.240,0.025
3.974,0.080,0.010
3.976,0.050,-0.010
3.978,0.015,-0.030
3.980,-0.055,-0.045
3.982,-0.045,-0.055
3.984,0.150,-0.060
3.986,0.070,-0.060
3.988,0.160,-0.055
3.990,0.265,-0.050
3.992,0.230,-0.040
3.994,0.000,-0.035
3.996,0.060,-0.030
3.998,0.035,-0.030
4.000,0.005,-0.035
4.002,-0.050,-0.045
4.004,0.045,-0.060
4.006,0.155,-0.070
4.008,0.160,-0.085
4.010,0.185,-0.100
4.012,0.125,-0.105
4.014,-0.040,-0.110
4.016,-0.045,-0.110
4.018,-0.080,-0.105
4.020,-0.065,-0.095
4.022,-0.005,-0.085
4.024,0.055,-0.080
4.026,0.110,-0.075
4.028,0.185,-0.075
4.030,0.160,-0.080
4.032,0.140,-0.085
4.034,0.015,-0.090
4.036,-0.040,-0.095
4.038,-0.125,-0.100
4.040,-0.125,-0.095
4.042,-0.025,-0.095
4.044,0.095,-0.085
4.046,0.185,-0.080
4.048,0.240,-0.075
4.050,0.220,-0.070
4.052,0.050,-0.065
4.054,0.000,-0.065
4.056,-0.020,-0.070
4.058,-0.065,-0.070
4.060,-0.055,-0.075
4.062,0.030,-0.075
4.064,0.135,-0.075
4.066,0.150,-0.075
4.068,0.165,-0.075
4.070,0.155,-0.075
4.072,0.100,-0.075
4.074,0.045,-0.080
4.076,-0.055,-0.080
4.078,-0.080,-0.080
4.080,-0.040,-0.080
4.082,0.090,-0.075
4.084,0.085,-0.070
4.086,0.090,-0.070
4.088,0.170,-0.065
4.090,0.215,-0.065
4.092,0.070,-0.065
4.094,0.030,-0.065
4.096,-0.045,-0.065
4.098,0.060,-0.065
4.100,-0.090,-0.065
4.102,-0.010,-0.060
4.104,0.115,-0.055
4.106,0.220,-0.050
4.108,0.215,-0.045
4.110,0.140,-0.040
4.112,0.145,-0.040
4.114,0.090,-0.040
4.116,-0.025,-0.045
4.118,-0.085,-0.050
4.120,-0.040,-0.055
4.122,0.070,-0.060
4.124,0.115,-0.060
4.126,0.175,-0.060
4.128,0.180,-0.055
4.130,0.170,-0.050
4.132,0.130,-0.045
4.134,0.135,-0.040
4.136,-0.030,-0.040
4.138,-0.055,-0.040
4.140,0.050,-0.045
4.142,0.015,-0.050
4.144,0.045,-0.055
4.146,0.170,-0.055
4.148,0.220,-0.055
4.150,0.170,-0.050
4.152,0.145,-0.045
4.154,0.060,-0.040
4.156,-0.020,-0.035
4.158,-0.015,-0.035
4.160,-0.045,-0.035
4.162,0.010,-0.045
4.164,0.135,-0.055
4.166,0.135,-0.065
4.168,0.175,-0.075
4.170,0.150,-0.080
4.172,0.100,-0.085
4.174,0.065,-0.085
4.176,-0.075,-0.080
4.178,-0.065,-0.070
4.180,-0.035,-0.060
4.182,0.075,-0.050
4.184,0.110,-0.045
4.186,0.165,-0.035
4.188,0.170,-0.035
4.190,0.320,-0.030
4.192,0.095,-0.030
4.194,0.035,-0.030
4.196,-0.045,-0.030
4.198,0.005,-0.030
4.200,-0.015,-0.030
4.202,0.135,-0.035
4.204,0.100,-0.035
4.206,0.180,-0.040
4.208,0.175,-0.045
4.210,0.180,-0.050
4.212,0.140,-0.050
4.214,0.065,-0.050
4.216,-0.070,-0.045
4.218,-0.120,-0.040
4.220,0.020,-0.035
4.222,0.115,-0.030
4.224,0.130,-0.025
4.226,0.240,-0.020
4.228,0.210,-0.020
4.230,0.185,-0.020
4.232,0.135,-0.025
4.234,0.050,-0.025
4.236,-0.030,-0.025
4.238,-0.040,-0.025
4.240,0.050,-0.020
4.242,0.055,-0.015
4.244,0.135,-0.010
4.246,0.265,-0.005
4.248,0.260,-0.005
4.250,0.200,-0.010
4.252,0.140,-0.015
4.254,0.055,-0.020
4.256,-0.095,-0.030
4.258,-0.065,-0.035
4.260,0.020,-0.040
4.262,0.175,-0.045
4.264,0.135,-0.045
4.266,0.140,-0.040
4.268,0.235,-0.040
4.270,0.165,-0.035
4.272,0.080,-0.030
4.274,-0.015,-0.030
4.276,-0.110,-0.030
4.278,0.005,-0.030
4.280,0.025,-0.030
4.282,0.090,-0.030
4.284,0.155,-0.035
4.286,0.195,-0.040
4.288,0.155,-0.045
4.290,0.205,-0.050
4.292,0.040,-0.060
4.294,-0.040,-0.070
4.296,-0.125,-0.075
4.298,-0.075,-0.085
4.300,-0.055,-0.095
4.302,0.070,-0.100
4.304,0.095,-0.105
4.306,0.155,-0.110
4.308,0.150,-0.110
4.310,0.085,-0.115
4.312,0.015,-0.115
4.314,-0.050,-0.105
4.316,-0.135,-0.095
4.318,-0.065,-0.065
4.320,0.060,-0.025
4.322,0.155,0.040
4.324,0.230,0.120
4.326,0.440,0.210
4.328,0.605,0.315
4.330,0.705,0.420
4.332,0.745,0.515
4.334,0.725,0.595
4.336,0.600,0.645
4.338,0.640,0.665
4.340,0.675,0.650
4.342,0.780,0.605
4.344,0.765,0.530
4.346,0.675,0.430
4.348,0.600,0.325
4.350,0.410,0.215
4.352,0.225,0.115
4.354,-0.025,0.020
4.356,-0.170,-0.055
4.358,-0.175,-0.110
4.360,-0.140,-0.150
4.362,0.020,-0.170
4.364,0.025,-0.180
4.366,0.125,-0.175
4.368,0.130,-0.165
4.370,0.070,-0.145
4.372,-0.020,-0.125
4.374,-0.110,-0.110
4.376,-0.080,-0.090
4.378,-0.110,-0.080
4.380,0.020,-0.075
4.382,0.060,-0.080
4.384,0.075,-0.085
4.386,0.190,-0.090
4.388,0.165,-0.095
4.390,0.070,-0.100
4.392,0.005,-0.095
4.394,-0.090,-0.090
4.396,-0.050,-0.080
4.398,-0.010,-0.065
4.400,-0.015,-0.050
4.402,0.005,-0.040
4.404,0.245,-0.035
4.406,0.265,-0.035
4.408,0.170,-0.035
4.410,0.145,-0.040
4.412,0.060,-0.050
4.414,-0.130,-0.055
4.416,-0.035,-0.060
4.418,-0.035,-0.060
4.420,0.000,-0.060
4.422,0.130,-0.055
4.424,0.155,-0.050
4.426,0.160,-0.045
4.428,0.150,-0.040
4.430,0.095,-0.035
4.432,0.130,-0.030
4.434,-0.020,-0.030
4.436,-0.010,-0.025
4.438,-0.025,-0.025
4.440,0.095,-0.030
4.442,0.090,-0.035
4.444,0.225,-0.040
4.446,0.185,-0.050
4.448,0.190,-0.055
4.450,0.065,-0.060
4.452,0.065,-0.055
4.454,-0.095,-0.050
4.456,-0.055,-0.040
4.458,0.035,-0.030
4.460,0.150,-0.015
4.462,0.160,-0.005
4.464,0.275,-0.005
4.466,0.255,-0.005
4.468,0.145,-0.010
4.470,0.080,-0.020
4.472,0.030,-0.030
4.474,-0.025,-0.040
4.476,0.045,-0.045
4.478,-0.030,-0.045
4.480,0.120,-0.040
4.482,0.100,-0.030
4.484,0.185,-0.015
4.486,0.255,-0.005
4.488,0.220,0.005
4.490,0.185,0.015
4.492,0.135,0.020
4.494,0.025,0.020
4.496,0.035,0.025
4.498,0.040,0.025
4.500,0.130,0.030
4.502,0.220,0.030
4.504,0.335,0.035
4.506,0.375,0.040
4.508,0.215,0.040
4.510,0.105,0.045
4.512,0.120,0.055
4.514,0.035,0.060
4.516,0.095,0.075
4.518,0.190,0.090
4.520,0.270,0.110
4.522,0.275,0.130
4.524,0.395,0.145
4.526,0.470,0.160
4.528,0.395,0.170
4.530,0.265,0.170
4.532,0.225,0.170
4.534,0.110,0.165
4.536,0.175,0.155
4.538,0.270,0.155
4.540,0.250,0.155
4.542,0.325,0.160
4.544,0.420,0.165
4.546,0.455,0.175
4.548,0.425,0.185
4.550,0.345,0.195
4.552,0.300,0.205
4.554,0.210,0.205
4.556,0.220,0.210
4.558,0.265,0.210
4.560,0.370,0.210
4.562,0.380,0.210
4.564,0.460,0.205
4.566,0.475,0.200
4.568,0.400,0.195
4.570,0.250,0.190
4.572,0.250,0.180
4.574,0.205,0.170
4.576,0.185,0.165
4.578,0.205,0.160
4.580,0.320,0.165
4.582,0.370,0.170
4.584,0.395,0.175
4.586,0.360,0.170
4.588,0.295,0.155
4.590,0.145,0.125
4.592,0.190,0.085
4.594,0.135,0.030
4.596,0.010,-0.025
4.598,0.120,-0.080
4.600,0.030,-0.115
4.602,-0.055,-0.135
4.604,-0.055,-0.130
4.606,-0.005,-0.110
4.608,0.065,-0.075
4.610,0.175,-0.040
4.612,0.185,-0.010
4.614,0.195,0.005
4.616,0.170,0.000
4.618,0.050,-0.015
4.620,0.035,-0.040
4.622,-0.050,-0.070
4.624,-0.035,-0.085
4.626,0.010,-0.095
4.628,0.060,-0.090
4.630,0.160,-0.075
4.632,0.235,-0.055
4.634,0.150,-0.040
4.636,0.070,-0.030
4.638,0.050,-0.030
4.640,0.035,-0.040
4.642,-0.045,-0.050
4.644,-0.050,-0.065
4.646,0.070,-0.080
4.648,0.050,-0.085
4.650,0.130,-0.085
4.652,0.175,-0.080
4.654,0.155,-0.075
4.656,0.105,-0.070
4.658,0.090,-0.070
4.660,-0.080,-0.075
4.662,-0.010,-0.075
4.664,-0.090,-0.080
4.666,-0.030,-0.080
4.668,0.100,-0.075
4.670,0.210,-0.070
4.672,0.205,-0.060
4.674,0.205,-0.055
4.676,0.050,-0.050
4.678,0.090,-0.050
4.680,-0.060,-0.055
4.682,-0.005,-0.060
4.684,-0.050,-0.070
4.686,0.040,-0.075
4.688,0.065,-0.075
4.690,0.145,-0.075
4.692,0.205,-0.070
4.694,0.165,-0.070
4.696,0.070,-0.065
4.698,0.050,-0.070
4.700,0.015,-0.075
4.702,-0.110,-0.080
4.704,-0.045,-0.085
4.706,0.020,-0.085
4.708,0.110,-0.080
4.710,0.255,-0.065
4.712,0.185,-0.050
4.714,0.110,-0.035
4.716,0.150,-0.025
4.718,0.075,-0.015
4.720,-0.015,-0.015
4.722,-0.035,-0.020
4.724,-0.020,-0.030
4.726,0.055,-0.035
4.728,0.085,-0.045
4.730,0.235,-0.045
4.732,0.210,-0.040
4.734,0.255,-0.030
4.736,0.115,-0.020
4.738,0.080,-0.015
4.740,0.010,-0.015
4.742,-0.025,-0.025
4.744,0.015,-0.035
4.746,0.045,-0.050
4.748,0.000,-0.070
4.750,0.170,-0.080
4.752,0.210,-0.090
4.754,0.210,-0.090
4.756,0.165,-0.080
4.758,0.085,-0.070
4.760,-0.135,-0.055
4.762,-0.030,-0.040
4.764,0.020,-0.025
4.766,0.070,-0.020
4.768,0.145,-0.015
4.770,0.300,-0.015
4.772,0.215,-0.015
4.774,0.170,-0.020
4.776,0.175,-0.025
4.778,0.075,-0.030
4.780,0.005,-0.035
4.782,0.010,-0.040
4.784,-0.055,-0.040
4.786,0.055,-0.040
4.788,0.100,-0.040
4.790,0.245,-0.040
4.792,0.280,-0.040
4.794,0.165,-0.040
4.796,0.155,-0.040
4.798,0.075,-0.040
4.800,-0.025,-0.040
4.802,-0.080,-0.045
4.804,0.005,-0.045
4.806,0.070,-0.045
4.808,0.090,-0.040
4.810,0.240,-0.035
4.812,0.270,-0.030
4.814,0.245,-0.020
4.816,0.100,-0.005
4.818,0.135,0.005
4.820,0.010,0.010
4.822,-0.070,0.010
4.824,0.100,0.010
4.826,0.180,0.000
4.828,0.150,-0.010
4.830,0.220,-0.015
4.832,0.245,-0.025
4.834,0.150,-0.025
4.836,0.160,-0.020
4.838,0.110,-0.015
4.840,0.050,-0.010
4.842,0.050,0.000
4.844,0.040,0.000
4.846,0.085,0.000
4.848,0.165,-0.010
4.850,0.245,-0.020
4.852,0.220,-0.035
4.854,0.215,-0.045
4.856,0.065,-0.050
4.858,0.010,-0.050
4.860,0.030,-0.040
4.862,0.035,-0.030
4.864,0.100,-0.015
4.866,0.100,-0.005
4.868,0.130,0.005
4.870,0.300,0.005
4.872,0.270,0.000
4.874,0.110,-0.010
4.876,0.045,-0.025
4.878,0.110,-0.045
4.880,-0.050,-0.065
4.882,-0.085,-0.080
4.884,0.015,-0.090
4.886,0.105,-0.095
4.888,0.085,-0.095
4.890,0.145,-0.090
4.892,0.220,-0.080
4.894,0.105,-0.075
4.896,0.060,-0.065
4.898,-0.020,-0.065
4.900,-0.045,-0.065
4.902,-0.080,-0.070
4.904,0.070,-0.080
4.906,0.070,-0.090
4.908,0.085,-0.095
4.910,0.195,-0.090
4.912,0.110,-0.070
4.914,0.110,-0.030
4.916,0.200,0.030
4.918,0.085,0.105
4.920,0.190,0.195
4.922,0.380,0.300
4.924,0.570,0.400
4.926,0.765,0.490
4.928,0.865,0.565
4.930,0.910,0.620
4.932,0.825,0.650
4.934,0.770,0.650
4.936,0.685,0.625
4.938,0.645,0.570
4.940,0.635,0.500
4.942,0.500,0.405
4.944,0.450,0.305
4.946,0.370,0.200
4.948,0.290,0.100
4.950,0.090,0.010
4.952,0.055,-0.065
4.954,0.040,-0.120
4.956,0.000,-0.150
4.958,-0.100,-0.160
4.960,-0.095,-0.150
4.962,-0.085,-0.130
4.964,0.060,-0.110
4.966,0.010,-0.085
4.968,0.115,-0.070
4.970,0.240,-0.065
4.972,0.210,-0.070
4.974,0.055,-0.080
4.976,0.050,-0.090
4.978,-0.085,-0.100
4.980,-0.130,-0.110
4.982,-0.070,-0.110
4.984,0.030,-0.105
4.986,0.060,-0.100
4.988,0.205,-0.090
4.990,0.170,-0.085
4.992,0.140,-0.080
4.994,0.110,-0.080
4.996,0.090,-0.080
4.998,-0.080,-0.075
5.000,-0.035,-0.070
5.002,0.010,-0.060
5.004,0.065,-0.045
5.006,0.155,-0.035
5.008,0.280,-0.025
5.010,0.265,-0.020
5.012,0.195,-0.025
5.014,0.095,-0.035
5.016,0.025,-0.055
5.018,-0.075,-0.070
5.020,-0.045,-0.085
5.022,-0.030,-0.095
5.024,-0.020,-0.100
5.026,0.035,-0.090
5.028,0.180,-0.080
5.030,0.250,-0.065
5.032,0.210,-0.050
5.034,0.115,-0.040
5.036,0.095,-0.035
5.038,-0.065,-0.030
5.040,-0.020,-0.035
5.042,0.020,-0.035
5.044,0.070,-0.035
5.046,0.080,-0.030
5.048,0.245,-0.025
5.050,0.250,-0.020
5.052,0.260,-0.015
5.054,0.260,-0.010
5.056,0.015,-0.005
5.058,0.040,-0.010
5.060,0.005,-0.015
5.062,0.005,-0.020
5.064,0.080,-0.030
5.066,0.140,-0.035
5.068,0.200,-0.040
5.070,0.185,-0.035
5.072,0.145,-0.035
5.074,0.200,-0.025
5.076,0.185,-0.020
5.078,0.035,-0.010
5.080,0.015,-0.005
5.082,0.000,0.000
5.084,0.105,0.000
5.086,0.130,0.000
5.088,0.280,0.000
5.090,0.285,0.005
5.092,0.240,0.005
5.094,0.120,0.005
5.096,0.115,0.010
5.098,0.065,0.015
5.100,0.025,0.020
5.102,0.010,0.025
5.104,0.160,0.030
5.106,0.225,0.035
5.108,0.375,0.045
5.110,0.290,0.055
5.112,0.245,0.060
5.114,0.235,0.075
5.116,0.200,0.085
5.118,0.120,0.100
5.120,0.145,0.110
5.122,0.210,0.120
5.124,0.330,0.130
5.126,0.320,0.140
5.128,0.385,0.145
5.130,0.480,0.150
5.132,0.315,0.155
5.134,0.245,0.160
5.136,0.265,0.165
5.138,0.230,0.170
5.140,0.210,0.175
5.142,0.200,0.185
5.144,0.375,0.185
5.146,0.500,0.190
5.148,0.400,0.190
5.150,0.390,0.185
5.152,0.385,0.185
5.154,0.310,0.180
5.156,0.250,0.175
5.158,0.240,0.175
5.160,0.195,0.170
5.162,0.295,0.170
5.164,0.350,0.165
5.166,0.325,0.160
5.168,0.410,0.155
5.170,0.345,0.145
5.172,0.335,0.135
5.174,0.255,0.120
5.176,0.170,0.110
5.178,0.130,0.095
5.180,0.085,0.085
5.182,0.235,0.075
5.184,0.155,0.070
5.186,0.245,0.065
5.188,0.360,0.060
5.190,0.335,0.055
5.192,0.260,0.050
5.194,0.160,0.045
5.196,0.105,0.035
5.198,0.040,0.025
5.200,-0.045,0.015
5.202,0.055,0.000
5.204,0.215,-0.010
5.206,0.250,-0.020
5.208,0.200,-0.030
5.210,0.245,-0.040
5.212,0.205,-0.045
5.214,0.045,-0.055
5.216,-0.035,-0.055
5.218,-0.040,-0.060
5.220,0.010,-0.065
5.222,0.020,-0.065
5.224,0.105,-0.070
5.226,0.155,-0.075
5.228,0.185,-0.075
5.230,0.175,-0.075
5.232,0.135,-0.080
5.234,0.015,-0.080
5.236,-0.045,-0.075
5.238,-0.030,-0.075
5.240,0.010,-0.075
5.242,0.085,-0.075
5.244,0.070,-0.075
5.246,0.170,-0.075
5.248,0.195,-0.080
5.250,0.210,-0.085
5.252,0.075,-0.085
5.254,0.030,-0.085
5.256,-0.105,-0.085
5.258,-0.045,-0.080
5.260,-0.025,-0.080
5.262,0.020,-0.075
5.264,0.070,-0.070
5.266,0.185,-0.070
5.268,0.180,-0.075
5.270,0.100,-0.080
5.272,0.135,-0.080
5.274,0.085,-0.085
5.276,-0.050,-0.090
5.278,-0.040,-0.085
5.280,-0.055,-0.085
5.282,0.025,-0.080
5.284,0.085,-0.080
5.286,0.195,-0.080
5.288,0.175,-0.080
5.290,0.135,-0.085
5.292,0.090,-0.085
5.294,0.115,-0.090
5.296,-0.120,-0.090
5.298,-0.080,-0.090
5.300,-0.035,-0.080
5.302,0.100,-0.070
5.304,0.160,-0.055
5.306,0.205,-0.040
5.308,0.175,-0.030
5.310,0.255,-0.025
5.312,0.135,-0.030
5.314,0.015,-0.040
5.316,-0.060,-0.050
5.318,-0.080,-0.065
5.320,-0.010,-0.080
5.322,0.045,-0.085
5.324,0.125,-0.085
5.326,0.195,-0.080
5.328,0.240,-0.070
5.330,0.145,-0.055
5.332,0.130,-0.045
5.334,0.135,-0.030
5.336,-0.055,-0.025
5.338,-0.010,-0.025
5.340,0.070,-0.030
5.342,0.085,-0.035
5.344,0.040,-0.045
5.346,0.190,-0.050
5.348,0.295,-0.055
5.350,0.190,-0.055
5.352,0.130,-0.055
5.354,0.090,-0.055
5.356,-0.050,-0.050
5.358,-0.045,-0.050
5.360,-0.040,-0.050
5.362,0.050,-0.055
5.364,0.125,-0.060
5.366,0.250,-0.065
5.368,0.165,-0.070
5.370,0.155,-0.075
5.372,0.090,-0.075
5.374,0.050,-0.075
5.376,-0.025,-0.070
5.378,-0.100,-0.060
5.380,-0.075,-0.055
5.382,0.105,-0.050
5.384,0.160,-0.045
5.386,0.260,-0.045
5.388,0.185,-0.045
5.390,0.205,-0.050
5.392,0.110,-0.050
5.394,0.050,-0.055
5.396,-0.015,-0.050
5.398,-0.005,-0.050
5.400,-0.005,-0.045
5.402,0.040,-0.035
5.404,0.165,-0.030
5.406,0.185,-0.025
5.408,0.240,-0.025
5.410,0.215,-0.025
5.412,0.195,-0.025
5.414,0.045,-0.025
5.416,0.045,-0.030
5.418,-0.040,-0.035
5.420,-0.020,-0.040
5.422,0.080,-0.045
5.424,0.115,-0.055
5.426,0.245,-0.060
5.428,0.180,-0.065
5.430,0.100,-0.070
5.432,0.080,-0.070
5.434,0.050,-0.070
5.436,0.020,-0.060
5.438,0.035,-0.055
5.440,-0.025,-0.045
5.442,0.065,-0.035
5.444,0.105,-0.030
5.446,0.280,-0.025
5.448,0.230,-0.025
5.450,0.150,-0.025
5.452,0.125,-0.025
5.454,0.040,-0.030
5.456,0.015,-0.030
5.458,-0.015,-0.025
5.460,0.040,-0.020
5.462,0.170,-0.015
5.464,0.235,-0.010
5.466,0.235,-0.005
5.468,0.310,0.000
5.470,0.150,-0.005
5.472,0.110,-0.015
5.474,0.015,-0.025
5.476,-0.055,-0.035
5.478,-0.055,-0.045
5.480,-0.035,-0.050
5.482,0.135,-0.055
5.484,0.225,-0.055
5.486,0.225,-0.055
5.488,0.170,-0.050
5.490,0.140,-0.050
5.492,0.060,-0.055
5.494,-0.030,-0.060
5.496,-0.110,-0.065
5.498,-0.090,-0.075
5.500,0.045,-0.085
5.502,0.075,-0.090
5.504,0.145,-0.095
5.506,0.185,-0.095
5.508,0.135,-0.095
5.510,0.075,-0.095
5.512,0.055,-0.095
5.514,-0.065,-0.100
5.516,-0.095,-0.110
5.518,-0.125,-0.115
5.520,-0.045,-0.120
5.522,0.010,-0.115
5.524,0.205,-0.090
5.526,0.175,-0.050
5.528,0.200,0.010
5.530,0.270,0.090
5.532,0.285,0.185
5.534,0.285,0.285
5.536,0.465,0.390
5.538,0.650,0.480
5.540,0.745,0.560
5.542,0.790,0.620
5.544,0.860,0.660
5.546,0.880,0.670
5.548,0.820,0.660
5.550,0.790,0.625
5.552,0.695,0.575
5.554,0.610,0.500
5.556,0.485,0.410
5.558,0.370,0.310
5.560,0.280,0.200
5.562,0.140,0.095
5.564,0.175,-0.005
5.566,0.010,-0.080
5.568,0.050,-0.140
5.570,0.055,-0.170
5.572,0.040,-0.175
5.574,-0.070,-0.155
5.576,-0.120,-0.125
5.578,-0.045,-0.090
5.580,0.050,-0.065
5.582,0.050,-0.045
5.584,0.175,-0.045
5.586,0.225,-0.055
5.588,0.180,-0.075
5.590,-0.010,-0.095
5.592,0.000,-0.115
5.594,-0.085,-0.120
5.596,-0.090,-0.115
5.598,-0.045,-0.095
5.600,0.075,-0.070
5.602,0.160,-0.040
5.604,0.205,-0.020
5.606,0.200,-0.005
5.608,0.160,-0.005
5.610,0.100,-0.010
5.612,0.055,-0.025
5.614,-0.030,-0.045
5.616,-0.055,-0.060
5.618,0.010,-0.070
5.620,0.125,-0.070
5.622,0.075,-0.065
5.624,0.190,-0.055
5.626,0.155,-0.045
5.628,0.145,-0.035
5.630,0.135,-0.030
5.632,0.125,-0.030
5.634,-0.100,-0.030
5.636,0.050,-0.035
5.638,0.010,-0.040
5.640,0.130,-0.045
5.642,0.035,-0.045
5.644,0.165,-0.045
5.646,0.215,-0.040
5.648,0.185,-0.035
5.650,0.090,-0.030
5.652,0.065,-0.030
5.654,-0.020,-0.030
5.656,-0.055,-0.035
5.658,-0.035,-0.040
5.660,0.055,-0.045
5.662,0.100,-0.050
5.664,0.215,-0.050
5.666,0.200,-0.045
5.668,0.195,-0.030
5.670,0.145,-0.020
5.672,0.080,0.000
5.674,0.000,0.015
5.676,0.015,0.025
5.678,0.095,0.030
5.680,0.090,0.025
5.682,0.140,0.015
5.684,0.365,0.005
5.686,0.170,-0.010
5.688,0.185,-0.020
5.690,0.145,-0.030
5.692,0.110,-0.030
5.694,-0.070,-0.025
5.696,-0.050,-0.015
5.698,0.080,-0.005
5.700,0.175,0.005
5.702,0.165,0.015
5.704,0.220,0.015
5.706,0.260,0.010
5.708,0.305,0.010
5.710,0.100,0.005
5.712,0.080,0.005
5.714,-0.035,0.010
5.716,0.055,0.020
5.718,0.060,0.035
5.720,0.140,0.050
5.722,0.200,0.065
5.724,0.355,0.075
5.726,0.285,0.080
5.728,0.330,0.080
5.730,0.215,0.080
5.732,0.155,0.075
5.734,0.065,0.075
5.736,0.075,0.080
5.738,0.125,0.085
5.740,0.220,0.095
5.742,0.310,0.110
5.744,0.355,0.120
5.746,0.355,0.130
5.748,0.350,0.140
5.750,0.310,0.145
5.752,0.200,0.150
5.754,0.080,0.155
5.756,0.150,0.155
5.758,0.220,0.160
5.760,0.250,0.160
5.762,0.410,0.160
5.764,0.430,0.155
5.766,0.385,0.150
5.768,0.245,0.145
5.770,0.225,0.140
5.772,0.190,0.135
5.774,0.080,0.130
5.776,0.165,0.125
5.778,0.235,0.125
5.780,0.285,0.125
5.782,0.335,0.120
5.784,0.330,0.120
5.786,0.315,0.115
5.788,0.235,0.105
5.790,0.210,0.095
5.792,0.070,0.085
5.794,0.080,0.075
5.796,0.090,0.065
5.798,0.120,0.055
5.800,0.185,0.050
5.802,0.310,0.040
5.804,0.250,0.035
5.806,0.200,0.025
5.808,0.100,0.015
5.810,0.080,0.005
5.812,0.035,-0.005
5.814,-0.025,-0.015
5.816,-0.075,-0.025
5.818,0.100,-0.035
5.820,0.080,-0.040
5.822,0.190,-0.045
5.824,0.170,-0.045
5.826,0.115,-0.045
5.828,0.105,-0.050
5.830,0.025,-0.050
5.832,-0.070,-0.055
5.834,-0.060,-0.060
5.836,-0.085,-0.070
5.838,0.085,-0.075
5.840,0.005,-0.075
5.842,0.145,-0.080
5.844,0.145,-0.075
5.846,0.175,-0.070
5.848,0.030,-0.065
5.850,0.015,-0.060
5.852,-0.050,-0.060
5.854,-0.105,-0.060
5.856,-0.040,-0.060
5.858,0.065,-0.065
5.860,0.050,-0.075
5.862,0.120,-0.080
5.864,0.165,-0.085
5.866,0.175,-0.085
5.868,0.090,-0.080
5.870,0.000,-0.070
5.872,-0.065,-0.060
5.874,-0.105,-0.045
5.876,-0.025,-0.040
5.878,0.020,-0.035
5.880,0.060,-0.040
5.882,0.250,-0.050
5.884,0.145,-0.065
5.886,0.080,-0.080
5.888,0.045,-0.095
5.890,-0.025,-0.105
5.892,-0.105,-0.105
5.894,-0.090,-0.100
5.896,-0.075,-0.090
5.898,0.040,-0.075
5.900,0.070,-0.060
5.902,0.145,-0.045
5.904,0.155,-0.040
5.906,0.150,-0.035
5.908,0.195,-0.040
5.910,0.060,-0.050
5.912,-0.155,-0.060
5.914,-0.120,-0.070
5.916,-0.055,-0.080
5.918,0.025,-0.085
5.920,0.120,-0.080
5.922,0.150,-0.075
5.924,0.205,-0.070
5.926,0.040,-0.065
5.928,0.045,-0.060
5.930,-0.015,-0.060
5.932,-0.020,-0.060
5.934,-0.005,-0.065
5.936,-0.065,-0.075
5.938,0.055,-0.080
5.940,0.000,-0.085
5.942,0.100,-0.085
5.944,0.150,-0.085
5.946,0.110,-0.080
5.948,0.015,-0.070
5.950,-0.035,-0.065
5.952,-0.100,-0.055
5.954,0.010,-0.050
5.956,-0.040,-0.050
5.958,0.035,-0.050
5.960,0.130,-0.050
5.962,0.235,-0.055
5.964,0.135,-0.055
5.966,0.090,-0.055
5.968,0.040,-0.055
5.970,0.035,-0.055
5.972,-0.045,-0.050
5.974,-0.095,-0.045
5.976,-0.010,-0.040
5.978,-0.010,-0.040
5.980,0.065,-0.045
5.982,0.195,-0.045
5.984,0.160,-0.050
5.986,0.185,-0.050
5.988,0.045,-0.050
5.990,0.000,-0.055
5.992,-0.065,-0.050
5.994,-0.125,-0.050
5.996,-0.045,-0.050
5.998,0.045,-0.050
6.000,0.105,-0.050
6.002,0.145,-0.055
6.004,0.170,-0.055
6.006,0.125,-0.060
6.008,0.005,-0.060
6.010,-0.005,-0.060
6.012,-0.100,-0.065
6.014,-0.075,-0.065
6.016,-0.075,-0.065
6.018,0.035,-0.065
6.020,0.070,-0.070
6.022,0.140,-0.070
6.024,0.210,-0.070
6.026,0.115,-0.065
6.028,0.005,-0.060
6.030,-0.040,-0.055
6.032,-0.060,-0.045
6.034,-0.045,-0.040
6.036,-0.015,-0.035
6.038,0.025,-0.035
6.040,0.165,-0.035
6.042,0.135,-0.040
6.044,0.165,-0.050
6.046,0.135,-0.055
6.048,-0.010,-0.060
6.050,-0.035,-0.060
6.052,-0.050,-0.060
6.054,-0.135,-0.055
6.056,0.000,-0.050
6.058,0.060,-0.045
6.060,0.085,-0.040
6.062,0.180,-0.035
6.064,0.185,-0.040
6.066,0.170,-0.040
6.068,-0.045,-0.045
6.070,-0.025,-0.050
6.072,-0.055,-0.050
6.074,-0.085,-0.055
6.076,-0.005,-0.050
6.078,0.120,-0.050
6.080,0.115,-0.045
6.082,0.185,-0.040
6.084,0.090,-0.040
6.086,0.045,-0.035
6.088,0.065,-0.035
6.090,-0.025,-0.035
6.092,-0.070,-0.030
6.094,-0.080,-0.025
6.096,0.025,-0.020
6.098,0.080,-0.015
6.100,0.180,-0.010
6.102,0.260,-0.005
6.104,0.190,-0.005
6.106,0.090,0.000
6.108,0.105,0.000
6.110,-0.025,-0.005
6.112,-0.115,-0.005
6.114,-0.040,-0.010
6.116,0.065,-0.015
6.118,0.085,-0.020
6.120,0.200,-0.030
6.122,0.155,-0.035
6.124,0.205,-0.045
6.126,0.065,-0.050
6.128,0.025,-0.055
6.130,-0.120,-0.060
6.132,-0.195,-0.065
6.134,-0.070,-0.065
6.136,0.020,-0.070
6.138,0.035,-0.075
6.140,0.160,-0.080
6.142,0.080,-0.085
6.144,0.110,-0.085
6.146,0.065,-0.085
6.148,0.030,-0.080
6.150,-0.085,-0.070
6.152,-0.090,-0.055
6.154,-0.035,-0.045
6.156,-0.065,-0.040
6.158,-0.025,-0.040
6.160,0.165,-0.050
6.162,0.195,-0.070
6.164,0.100,-0.090
6.166,-0.020,-0.115
6.168,-0.060,-0.125
6.170,-0.215,-0.120
6.172,-0.110,-0.095
6.174,-0.040,-0.050
6.176,0.055,0.020
6.178,0.110,0.110
6.180,0.385,0.210
6.182,0.585,0.310
6.184,0.635,0.405
6.186,0.695,0.480
6.188,0.750,0.540
6.190,0.515,0.580
6.192,0.475,0.595
6.194,0.540,0.590
6.196,0.625,0.570
6.198,0.625,0.535
6.200,0.675,0.490
6.202,0.710,0.430
6.204,0.610,0.360
6.206,0.440,0.285
6.208,0.220,0.205
6.210,-0.005,0.125
6.212,-0.075,0.050
6.214,-0.150,-0.015
6.216,0.015,-0.070
6.218,0.005,-0.105
6.220,0.110,-0.120
6.222,0.100,-0.115
6.224,0.110,-0.105
6.226,0.025,-0.085
6.228,0.020,-0.060
6.230,-0.145,-0.045
6.232,-0.135,-0.035
6.234,0.010,-0.035
6.236,-0.035,-0.045
6.238,0.030,-0.055
6.240,0.235,-0.065
6.242,0.100,-0.075
6.244,0.055,-0.080
6.246,0.030,-0.080
6.248,-0.010,-0.075
6.250,-0.125,-0.070
6.252,-0.100,-0.070
6.254,-0.090,-0.070
6.256,-0.015,-0.070
6.258,0.045,-0.070
6.260,0.115,-0.075
6.262,0.095,-0.075
6.264,0.150,-0.070
6.266,0.025,-0.065
6.268,-0.020,-0.055
6.270,-0.110,-0.045
6.272,-0.075,-0.040
6.274,0.000,-0.035
6.276,0.010,-0.040
6.278,0.070,-0.045
6.280,0.170,-0.050
6.282,0.115,-0.055
6.284,0.020,-0.060
6.286,0.040,-0.060
6.288,-0.060,-0.050
6.290,-0.015,-0.045
6.292,-0.005,-0.035
6.294,-0.035,-0.025
6.296,0.035,-0.020
6.298,0.075,-0.025
6.300,0.165,-0.030
6.302,0.145,-0.040
6.304,0.155,-0.050
6.306,-0.015,-0.055
6.308,-0.070,-0.060
6.310,-0.075,-0.055
6.312,-0.060,-0.050
6.314,0.020,-0.035
6.316,0.070,-0.025
6.318,0.090,-0.015
6.320,0.195,-0.010
6.322,0.130,-0.010
6.324,0.060,-0.015
6.326,0.055,-0.020
6.328,0.020,-0.025
6.330,-0.060,-0.030
6.332,-0.055,-0.030
6.334,-0.030,-0.030
6.336,0.070,-0.030
6.338,0.120,-0.025
6.340,0.145,-0.020
6.342,0.120,-0.015
6.344,0.125,-0.015
6.346,0.095,-0.010
6.348,-0.015,-0.010
6.350,-0.075,-0.005
6.352,-0.020,0.000
6.354,0.055,0.010
6.356,0.095,0.015
6.358,0.205,0.020
6.360,0.235,0.025
6.362,0.250,0.030
6.364,0.095,0.025
6.366,0.070,0.025
6.368,0.020,0.025
6.370,0.045,0.025
6.372,0.025,0.025
6.374,0.060,0.030
6.376,0.125,0.040
6.378,0.180,0.055
6.380,0.290,0.070
6.382,0.280,0.085
6.384,0.185,0.095
6.386,0.160,0.105
6.388,0.105,0.110
6.390,0.040,0.110
6.392,0.095,0.110
6.394,0.160,0.105
6.396,0.275,0.110
6.398,0.255,0.110
6.400,0.340,0.120
6.402,0.320,0.130
6.404,0.185,0.145
6.406,0.225,0.160
6.408,0.120,0.170
6.410,0.080,0.175
6.412,0.180,0.175
6.414,0.230,0.170
6.416,0.270,0.155
6.418,0.345,0.140
6.420,0.260,0.125
6.422,0.275,0.110
6.424,0.210,0.105
6.426,0.160,0.100
6.428,0.030,0.105
6.430,0.080,0.110
6.432,0.070,0.115
6.434,0.180,0.120
6.436,0.255,0.120
6.438,0.270,0.115
6.440,0.360,0.110
6.442,0.295,0.095
6.444,0.100,0.085
6.446,0.110,0.070
6.448,-0.005,0.060
6.450,-0.075,0.045
6.452,0.045,0.030
6.454,0.050,0.020
6.456,0.095,0.005
6.458,0.220,-0.005
6.460,0.295,-0.015
6.462,0.090,-0.020
6.464,-0.020,-0.020
6.466,0.020,-0.015
6.468,-0.055,-0.005
6.470,-0.100,0.000
6.472,0.020,0.000
6.474,0.085,0.000
6.476,0.015,-0.010
6.478,0.225,-0.025
6.480,0.205,-0.045
6.482,-0.045,-0.065
6.484,-0.005,-0.080
6.486,0.070,-0.090
6.488,-0.160,-0.095
6.490,-0.170,-0.090
6.492,-0.055,-0.080
6.494,-0.035,-0.065
6.496,-0.010,-0.055
6.498,0.145,-0.050
6.500,0.115,-0.050
6.502,0.090,-0.060
6.504,0.025,-0.070
6.506,0.005,-0.080
6.508,-0.165,-0.085
6.510,-0.125,-0.090
6.512,-0.095,-0.085
6.514,-0.025,-0.075
6.516,0.025,-0.065
6.518,0.185,-0.055
6.520,0.150,-0.050
6.522,0.110,-0.045
6.524,0.045,-0.045
6.526,-0.015,-0.050
6.528,-0.055,-0.055
6.530,-0.140,-0.060
6.532,-0.055,-0.065
6.534,0.030,-0.065
6.536,0.020,-0.065
6.538,0.155,-0.060
6.540,0.080,-0.055
6.542,0.085,-0.050
6.544,0.080,-0.050
6.546,-0.025,-0.050
6.548,-0.140,-0.055
6.550,-0.075,-0.060
6.552,-0.010,-0.060
6.554,-0.035,-0.060
6.556,0.030,-0.055
6.558,0.170,-0.050
6.560,0.130,-0.045
6.562,0.140,-0.035
6.564,0.085,-0.030
6.566,-0.030,-0.030
6.568,-0.105,-0.035
6.570,-0.095,-0.040
6.572,-0.015,-0.050
6.574,-0.010,-0.060
6.576,0.020,-0.065
6.578,0.135,-0.070
6.580,0.105,-0.070
6.582,0.095,-0.065
6.584,-0.005,-0.055
6.586,-0.075,-0.045
6.588,-0.130,-0.035
6.590,-0.005,-0.025
6.592,-0.015,-0.020
6.594,0.035,-0.020
6.596,0.095,-0.025
6.598,0.070,-0.030
6.600,0.145,-0.040
6.602,0.120,-0.050
6.604,0.010,-0.055
6.606,-0.065,-0.055
6.608,-0.110,-0.050
6.610,-0.055,-0.045
6.612,-0.020,-0.040
6.614,0.025,-0.030
6.616,0.110,-0.025
6.618,0.170,-0.025
6.620,0.145,-0.025
6.622,0.065,-0.030
6.624,0.055,-0.040
6.626,-0.070,-0.045
6.628,-0.080,-0.050
6.630,-0.045,-0.055
6.632,0.015,-0.055
6.634,-0.005,-0.055
6.636,0.100,-0.050
6.638,0.105,-0.045
6.640,0.135,-0.040
6.642,0.075,-0.040
6.644,-0.005,-0.040
6.646,-0.070,-0.040
6.648,-0.115,-0.040
6.650,-0.070,-0.045
6.652,-0.045,-0.050
6.654,0.075,-0.050
6.656,0.165,-0.045
6.658,0.110,-0.045
6.660,0.175,-0.040
6.662,0.065,-0.035
6.664,0.040,-0.030
6.666,-0.065,-0.030
6.668,-0.095,-0.030
6.670,-0.100,-0.030
6.672,0.000,-0.035
6.674,0.065,-0.040
6.676,0.095,-0.045
6.678,0.140,-0.045
6.680,0.220,-0.045
6.682,0.060,-0.045
6.684,-0.055,-0.040
6.686,-0.060,-0.035
6.688,-0.050,-0.030
6.690,-0.060,-0.025
6.692,-0.025,-0.025
6.694,0.020,-0.020
6.696,0.150,-0.020
6.698,0.165,-0.020
6.700,0.205,-0.020
6.702,0.110,-0.020
6.704,0.020,-0.020
6.706,-0.080,-0.025
6.708,-0.095,-0.030
6.710,-0.095,-0.040
6.712,-0.040,-0.045
6.714,-0.005,-0.055
6.716,0.110,-0.060
6.718,0.140,-0.060
6.720,0.135,-0.060
6.722,0.055,-0.055
6.724,0.050,-0.045
6.726,-0.155,-0.035
6.728,-0.055,-0.025
6.730,-0.070,-0.020
6.732,0.060,-0.020
6.734,0.060,-0.025
6.736,0.185,-0.035
6.738,0.135,-0.045
6.740,0.095,-0.055
6.742,0.025,-0.060
6.744,-0.025,-0.065
6.746,-0.150,-0.065
6.748,-0.105,-0.065
6.750,-0.075,-0.060
6.752,0.005,-0.050
6.754,0.075,-0.045
6.756,0.155,-0.045
6.758,0.120,-0.040
6.760,0.110,-0.040
6.762,0.145,-0.040
6.764,0.075,-0.035
6.766,-0.140,-0.035
6.768,-0.050,-0.035
6.770,-0.110,-0.030
6.772,0.005,-0.030
6.774,0.060,-0.030
6.776,0.165,-0.030
6.778,0.200,-0.035
6.780,0.135,-0.040
6.782,-0.020,-0.040
6.784,0.055,-0.045
6.786,-0.140,-0.040
6.788,-0.115,-0.040
6.790,-0.015,-0.035
6.792,0.030,-0.035
6.794,0.125,-0.030
6.796,0.150,-0.030
6.798,0.140,-0.035
6.800,0.110,-0.035
6.802,0.060,-0.035
6.804,0.025,-0.035
6.806,-0.010,-0.030
6.808,-0.090,-0.025
6.810,-0.085,-0.015
6.812,0.085,0.000
6.814,0.095,0.010
6.816,0.195,0.015
6.818,0.275,0.020
6.820,0.205,0.020
6.822,0.080,0.015
6.824,0.010,0.010
6.826,-0.105,0.005
6.828,-0.040,-0.005
6.830,-0.010,-0.005
6.832,0.020,-0.005
6.834,0.085,-0.005
6.836,0.205,-0.005
6.838,0.235,0.000
6.840,0.170,0.000
6.842,0.110,0.000
6.844,-0.005,0.000
6.846,-0.070,-0.005
6.848,-0.130,-0.010
6.850,0.015,-0.015
6.852,0.035,-0.020
6.854,0.165,-0.030
6.856,0.150,-0.035
6.858,0.140,-0.045
6.860,0.030,-0.050
6.862,0.020,-0.055
6.864,-0.065,-0.055
6.866,-0.070,-0.055
6.868,-0.080,-0.050
6.870,0.000,-0.045
6.872,0.090,-0.045
6.874,0.055,-0.045
6.876,0.105,-0.050
6.878,0.075,-0.060
6.880,0.145,-0.070
6.882,0.005,-0.085
6.884,-0.060,-0.095
6.886,-0.185,-0.090
6.888,-0.135,-0.075
6.890,-0.030,-0.040
6.892,0.120,0.020
6.894,0.255,0.095
6.896,0.325,0.190
6.898,0.520,0.290
6.900,0.535,0.390
6.902,0.670,0.480
6.904,0.675,0.555
6.906,0.585,0.615
6.908,0.570,0.650
6.910,0.630,0.660
6.912,0.645,0.650
6.914,0.745,0.620
6.916,0.825,0.575
6.918,0.840,0.510
6.920,0.630,0.435
6.922,0.455,0.350
6.924,0.300,0.260
6.926,-0.010,0.165
6.928,-0.100,0.075
6.930,-0.130,0.000
6.932,-0.060,-0.060
6.934,0.095,-0.105
6.936,0.125,-0.125
6.938,0.100,-0.125
6.940,0.075,-0.110
6.942,0.070,-0.090
6.944,-0.020,-0.060
6.946,-0.140,-0.040
6.948,-0.140,-0.025
6.950,-0.010,-0.020
6.952,-0.025,-0.025
6.954,0.140,-0.040
6.956,0.210,-0.055
6.958,0.205,-0.070
6.960,0.030,-0.080
6.962,-0.040,-0.080
6.964,-0.060,-0.075
6.966,-0.120,-0.070
6.968,-0.070,-0.060
6.970,-0.055,-0.050
6.972,-0.005,-0.045
6.974,0.140,-0.040
6.976,0.180,-0.040
6.978,0.135,-0.045
6.980,0.055,-0.045
6.982,0.020,-0.045
6.984,-0.055,-0.040
6.986,-0.090,-0.040
6.988,-0.035,-0.035
6.990,0.035,-0.030
6.992,0.085,-0.030
6.994,0.210,-0.030
6.996,0.140,-0.035
6.998,0.060,-0.040
7.000,0.050,-0.045
7.002,0.050,-0.050
7.004,-0.085,-0.050
7.006,-0.120,-0.050
7.008,-0.090,-0.045
7.010,0.100,-0.040
7.012,0.080,-0.035
7.014,0.150,-0.030
7.016,0.150,-0.030
7.018,0.165,-0.030
7.020,0.065,-0.035
7.022,0.005,-0.035
7.024,-0.120,-0.035
7.026,-0.050,-0.030
7.028,-0.030,-0.020
7.030,0.070,-0.010
7.032,0.090,0.000
7.034,0.240,0.010
7.036,0.210,0.015
7.038,0.140,0.015
7.040,0.170,0.015
7.042,0.060,0.010
7.044,-0.165,0.000
7.046,-0.020,-0.005
7.048,0.000,-0.015
7.050,0.035,-0.020
7.052,0.090,-0.020
7.054,0.155,-0.020
7.056,0.150,-0.020
7.058,0.195,-0.015
7.060,0.100,-0.010
7.062,0.085,-0.005
7.064,-0.120,0.000
7.066,-0.015,0.005
7.068,0.010,0.005
7.070,0.050,0.010
7.072,0.155,0.015
7.074,0.145,0.020
7.076,0.245,0.030
7.078,0.220,0.040
7.080,0.150,0.055
7.082,0.105,0.065
7.084,0.060,0.080
7.086,0.030,0.095
7.088,0.170,0.100
7.090,0.150,0.105
7.092,0.245,0.105
7.094,0.325,0.105
7.096,0.255,0.100
7.098,0.225,0.095
7.100,0.190,0.095
7.102,0.225,0.100
7.104,0.020,0.105
7.106,0.060,0.120
7.108,0.185,0.135
7.110,0.280,0.150
7.112,0.300,0.165
7.114,0.335,0.175
7.116,0.380,0.185
7.118,0.390,0.190
7.120,0.260,0.190
7.122,0.265,0.190
7.124,0.190,0.190
7.126,0.075,0.195
7.128,0.195,0.195
7.130,0.240,0.195
7.132,0.290,0.200
7.134,0.440,0.195
7.136,0.395,0.195
7.138,0.350,0.190
7.140,0.255,0.185
7.142,0.225,0.175
7.144,0.125,0.170
7.146,0.085,0.165
7.148,0.140,0.160
7.150,0.260,0.160
7.152,0.330,0.155
7.154,0.325,0.150
7.156,0.390,0.145
7.158,0.255,0.140
7.160,0.210,0.130
7.162,0.200,0.115
7.164,0.060,0.100
7.166,0.020,0.085
7.168,0.065,0.070
7.170,0.180,0.055
7.172,0.160,0.045
7.174,0.205,0.040
7.176,0.195,0.035
7.178,0.205,0.030
7.180,0.070,0.025
7.182,0.115,0.025
7.184,-0.010,0.020
7.186,-0.025,0.015
7.188,-0.015,0.010
7.190,0.055,0.000
7.192,0.110,-0.005
7.194,0.125,-0.010
7.196,0.230,-0.015
7.198,0.195,-0.020
7.200,0.055,-0.025
7.202,-0.085,-0.025
7.204,-0.050,-0.030
7.206,-0.040,-0.030
7.208,0.010,-0.030
7.210,0.045,-0.030
7.212,0.120,-0.035
7.214,0.240,-0.040
7.216,0.125,-0.045
7.218,0.105,-0.045
7.220,0.060,-0.045
7.222,-0.075,-0.045
7.224,-0.075,-0.040
7.226,-0.095,-0.035
7.228,0.025,-0.025
7.230,0.065,-0.020
7.232,0.175,-0.020
7.234,0.170,-0.025
7.236,0.125,-0.040
7.238,0.060,-0.055
7.240,0.010,-0.070
7.242,-0.040,-0.085
7.244,-0.160,-0.095
7.246,-0.140,-0.100
7.248,-0.035,-0.095
7.250,0.035,-0.080
7.252,0.165,-0.065
7.254,0.155,-0.045
7.256,0.160,-0.030
7.258,0.095,-0.020
7.260,0.075,-0.015
7.262,-0.060,-0.020
7.264,-0.115,-0.030
7.266,-0.105,-0.045
7.268,-0.045,-0.060
7.270,0.055,-0.070
7.272,0.140,-0.080
7.274,0.205,-0.080
7.276,0.140,-0.075
7.278,-0.045,-0.070
7.280,0.020,-0.060
7.282,-0.040,-0.055
7.284,-0.115,-0.050
7.286,-0.085,-0.045
7.288,0.025,-0.040
7.290,0.055,-0.040
7.292,0.200,-0.035
7.294,0.180,-0.030
7.296,0.165,-0.025
7.298,0.195,-0.025
7.300,-0.015,-0.020
7.302,-0.105,-0.025
7.304,-0.090,-0.030
7.306,-0.090,-0.040
7.308,0.010,-0.050
7.310,0.060,-0.060
7.312,0.180,-0.065
7.314,0.135,-0.065
7.316,0.155,-0.060
7.318,0.045,-0.055
7.320,0.000,-0.045
7.322,-0.120,-0.040
7.324,-0.055,-0.040
7.326,-0.070,-0.045
7.328,0.010,-0.045
7.330,0.055,-0.050
7.332,0.165,-0.055
7.334,0.155,-0.055
7.336,0.160,-0.045
7.338,0.120,-0.035
7.340,0.000,-0.020
7.342,-0.095,-0.010
7.344,-0.030,-0.005
7.346,-0.015,-0.005
7.348,-0.010,-0.015
7.350,0.050,-0.030
7.352,0.195,-0.045
7.354,0.180,-0.060
7.356,0.115,-0.070
7.358,-0.035,-0.075
7.360,-0.030,-0.070
7.362,-0.080,-0.065
7.364,-0.115,-0.050
7.366,-0.005,-0.040
7.368,0.050,-0.030
7.370,0.030,-0.025
7.372,0.205,-0.030
7.374,0.185,-0.035
7.376,0.100,-0.035
7.378,0.025,-0.040
7.380,0.015,-0.040
7.382,-0.095,-0.035
7.384,-0.135,-0.030
7.386,0.060,-0.025
7.388,0.075,-0.020
7.390,0.055,-0.020
7.392,0.185,-0.025
7.394,0.175,-0.025
7.396,0.135,-0.030
7.398,-0.005,-0.035
7.400,0.010,-0.035
7.402,-0.105,-0.035
7.404,0.005,-0.035
7.406,-0.005,-0.035
7.408,-0.050,-0.040
7.410,0.105,-0.045
7.412,0.130,-0.055
7.414,0.195,-0.070
7.416,0.055,-0.080
7.418,0.000,-0.085
7.420,-0.020,-0.085
7.422,-0.070,-0.075
7.424,-0.125,-0.065
7.426,-0.065,-0.050
7.428,0.085,-0.035
7.430,0.125,-0.025
7.432,0.195,-0.025
7.434,0.135,-0.025
7.436,0.100,-0.035
7.438,0.055,-0.050
7.440,-0.030,-0.060
7.442,-0.170,-0.070
7.444,-0.100,-0.070
7.446,0.000,-0.070
7.448,0.085,-0.065
7.450,0.030,-0.060
7.452,0.165,-0.055
7.454,0.145,-0.055
7.456,0.100,-0.055
7.458,0.000,-0.060
7.460,-0.085,-0.065
7.462,-0.100,-0.070
7.464,-0.085,-0.070
7.466,-0.060,-0.065
7.468,0.070,-0.060
7.470,0.035,-0.050
7.472,0.200,-0.045
7.474,0.210,-0.040
7.476,0.155,-0.040
7.478,0.015,-0.045
7.480,-0.135,-0.055
7.482,-0.150,-0.065
7.484,-0.105,-0.075
7.486,0.000,-0.085
7.488,0.000,-0.090
7.490,0.105,-0.090
7.492,0.160,-0.085
7.494,0.195,-0.080
7.496,0.035,-0.070
7.498,-0.015,-0.060
7.500,-0.050,-0.050
7.502,-0.070,-0.045
7.504,-0.040,-0.045
7.506,-0.030,-0.045
7.508,0.015,-0.045
7.510,0.080,-0.050
7.512,0.145,-0.055
7.514,0.155,-0.055
7.516,0.185,-0.060
7.518,0.025,-0.055
7.520,-0.095,-0.055
7.522,-0.130,-0.050
7.524,-0.095,-0.045
7.526,-0.025,-0.040
7.528,0.165,-0.035
7.530,0.130,-0.035
7.532,0.145,-0.035
7.534,0.175,-0.035
7.536,0.120,-0.035
7.538,0.015,-0.040
7.540,-0.030,-0.045
7.542,-0.145,-0.045
7.544,-0.090,-0.045
7.546,0.025,-0.040
7.548,0.085,-0.030
7.550,0.185,-0.020
7.552,0.205,-0.005
7.554,0.200,0.010
7.556,0.080,0.020
7.558,0.160,0.030
7.560,-0.005,0.035
7.562,-0.010,0.030
7.564,0.085,0.025
7.566,-0.005,0.010
7.568,0.055,-0.010
7.570,0.145,-0.030
7.572,0.185,-0.050
7.574,0.190,-0.065
7.576,0.030,-0.080
7.578,0.000,-0.080
7.580,-0.135,-0.080
7.582,-0.170,-0.075
7.584,-0.080,-0.065
7.586,-0.015,-0.060
7.588,0.065,-0.055
7.590,0.130,-0.055
7.592,0.150,-0.060
7.594,0.130,-0.065
7.596,0.040,-0.075
7.598,-0.050,-0.085
7.600,-0.185,-0.090
7.602,-0.160,-0.090
7.604,-0.085,-0.085
7.606,0.015,-0.080
7.608,0.070,-0.070
7.610,0.120,-0.070
7.612,0.155,-0.070
7.614,0.055,-0.075
7.616,0.030,-0.085
7.618,-0.035,-0.100
7.620,-0.175,-0.110
7.622,-0.130,-0.110
7.624,-0.140,-0.095
7.626,0.000,-0.065
7.628,0.005,-0.015
7.630,0.270,0.055
7.632,0.335,0.135
7.634,0.415,0.220
7.636,0.400,0.310
7.638,0.560,0.400
7.640,0.525,0.475
7.642,0.505,0.540
7.644,0.645,0.590
7.646,0.685,0.615
7.648,0.625,0.625
7.650,0.720,0.610
7.652,0.850,0.575
7.654,0.730,0.515
7.656,0.565,0.430
7.658,0.490,0.335
7.660,0.170,0.225
7.662,0.015,0.120
7.664,-0.120,0.020
7.666,-0.130,-0.065
7.668,-0.080,-0.125
7.670,0.045,-0.160
7.672,0.030,-0.170
7.674,0.090,-0.160
7.676,-0.010,-0.135
7.678,-0.045,-0.105
7.680,-0.085,-0.075
7.682,-0.120,-0.055
7.684,-0.105,-0.040
7.686,0.040,-0.035
7.688,0.055,-0.035
7.690,0.185,-0.040
7.692,0.250,-0.050
7.694,0.095,-0.055
7.696,-0.045,-0.060
7.698,-0.025,-0.065
7.700,-0.080,-0.070
7.702,-0.120,-0.075
7.704,-0.120,-0.080
7.706,0.025,-0.090
7.708,-0.025,-0.095
7.710,0.035,-0.100
7.712,0.095,-0.100
7.714,0.110,-0.095
7.716,0.085,-0.090
7.718,0.050,-0.080
7.720,-0.150,-0.070
7.722,-0.110,-0.060
7.724,-0.090,-0.060
7.726,0.030,-0.060
7.728,0.015,-0.065
7.730,0.110,-0.075
7.732,0.115,-0.085
7.734,0.040,-0.090
7.736,-0.070,-0.090
7.738,-0.030,-0.080
7.740,-0.035,-0.070
7.742,-0.085,-0.055
7.744,-0.055,-0.040
7.746,0.070,-0.035
7.748,0.055,-0.030
7.750,0.155,-0.035
7.752,0.185,-0.045
7.754,0.070,-0.055
7.756,0.025,-0.065
7.758,-0.025,-0.070
7.760,-0.110,-0.070
7.762,-0.105,-0.065
7.764,-0.045,-0.050
7.766,0.060,-0.040
7.768,0.055,-0.030
7.770,0.180,-0.020
7.772,0.180,-0.020
7.774,0.110,-0.025
7.776,0.065,-0.030
7.778,-0.050,-0.040
7.780,-0.140,-0.045
7.782,-0.110,-0.045
7.784,-0.015,-0.045
7.786,0.075,-0.035
7.788,0.135,-0.025
7.790,0.215,-0.020
7.792,0.210,-0.010
7.794,0.125,-0.005
7.796,0.000,-0.005
7.798,-0.060,-0.005
7.800,-0.050,-0.005
7.802,-0.040,-0.010
7.804,0.070,-0.010
7.806,0.065,-0.010
7.808,0.105,-0.005
7.810,0.115,0.000
7.812,0.230,0.005
7.814,0.110,0.015
7.816,0.100,0.020
7.818,0.065,0.025
7.820,-0.045,0.030
7.822,-0.040,0.035
7.824,0.140,0.045
7.826,0.080,0.050
7.828,0.185,0.060
7.830,0.300,0.070
7.832,0.250,0.080
7.834,0.175,0.090
7.836,0.190,0.100
7.838,0.075,0.110
7.840,0.080,0.120
7.842,0.085,0.130
7.844,0.190,0.135
7.846,0.220,0.145
7.848,0.290,0.150
7.850,0.345,0.155
7.852,0.335,0.160
7.854,0.280,0.165
7.856,0.245,0.170
7.858,0.115,0.175
7.860,0.155,0.180
7.862,0.115,0.185
7.864,0.225,0.190
7.866,0.325,0.190
7.868,0.350,0.190
7.870,0.345,0.190
7.872,0.355,0.185
7.874,0.250,0.180
7.876,0.290,0.170
7.878,0.095,0.165
7.880,0.085,0.155
7.882,0.150,0.150
7.884,0.230,0.145
7.886,0.215,0.140
7.888,0.285,0.135
7.890,0.375,0.135
7.892,0.330,0.130
7.894,0.135,0.120
7.896,0.115,0.110
7.898,0.060,0.100
7.900,0.055,0.085
7.902,0.110,0.070
7.904,0.045,0.055
7.906,0.120,0.040
7.908,0.220,0.025
7.910,0.205,0.015
7.912,0.135,0.005
7.914,0.080,0.000
7.916,0.020,-0.010
7.918,-0.055,-0.015
7.920,-0.030,-0.015
7.922,-0.065,-0.020
7.924,-0.030,-0.020
7.926,0.115,-0.020
7.928,0.155,-0.020
7.930,0.150,-0.020
7.932,0.135,-0.025
7.934,0.030,-0.025
7.936,0.005,-0.030
7.938,-0.110,-0.040
7.940,-0.115,-0.050
7.942,-0.060,-0.060
7.944,0.055,-0.070
7.946,-0.010,-0.075
7.948,0.105,-0.080
7.950,0.110,-0.085
7.952,0.105,-0.080
7.954,-0.045,-0.080
7.956,-0.030,-0.075
7.958,-0.105,-0.070
7.960,-0.120,-0.065
7.962,-0.125,-0.065
7.964,-0.060,-0.065
7.966,0.045,-0.070
7.968,0.140,-0.080
7.970,0.130,-0.085
7.972,0.010,-0.095
7.974,0.010,-0.100
7.976,-0.055,-0.100
7.978,-0.205,-0.100
7.980,-0.160,-0.095
7.982,-0.080,-0.090
7.984,-0.030,-0.085
7.986,-0.015,-0.080
7.988,0.140,-0.075
7.990,0.090,-0.070
7.992,0.020,-0.070
7.994,0.015,-0.065
7.996,0.005,-0.065
7.998,-0.155,-0.060
8.000,-0.055,-0.060
8.002,-0.055,-0.055
8.004,-0.050,-0.055
8.006,0.030,-0.055
8.008,0.150,-0.060
8.010,0.155,-0.065
8.012,-0.015,-0.075
8.014,-0.085,-0.080
8.016,-0.045,-0.085
8.018,-0.120,-0.085
8.020,-0.150,-0.080
8.022,-0.075,-0.070
8.024,0.000,-0.055
8.026,0.130,-0.040
8.028,0.150,-0.030
8.030,0.130,-0.025
8.032,0.080,-0.020
8.034,0.085,-0.030
8.036,0.005,-0.040
8.038,-0.170,-0.055
8.040,-0.155,-0.070
8.042,-0.080,-0.080
8.044,-0.035,-0.080
8.046,0.065,-0.080
8.048,0.180,-0.070
8.050,0.145,-0.060
8.052,0.000,-0.055
8.054,-0.010,-0.045
8.056,-0.040,-0.045
8.058,-0.130,-0.045
8.060,-0.090,-0.045
8.062,0.010,-0.050
8.064,0.005,-0.050
8.066,0.120,-0.045
8.068,0.160,-0.040
8.070,0.175,-0.030
8.072,0.075,-0.015
8.074,-0.020,-0.010
8.076,0.020,-0.005
8.078,-0.125,-0.010
8.080,-0.115,-0.015
8.082,0.035,-0.030
8.084,0.000,-0.040
8.086,0.120,-0.050
8.088,0.135,-0.050
8.090,0.130,-0.050
8.092,0.080,-0.040
8.094,0.070,-0.025
8.096,-0.040,-0.015
8.098,-0.115,-0.010
8.100,-0.100,-0.010
8.102,0.000,-0.020
8.104,0.005,-0.030
8.106,0.135,-0.045
8.108,0.215,-0.060
8.110,0.090,-0.065
8.112,0.015,-0.065
8.114,-0.055,-0.060
8.116,-0.035,-0.045
8.118,-0.095,-0.035
8.120,-0.170,-0.025
8.122,0.000,-0.020
8.124,0.030,-0.025
8.126,0.150,-0.030
8.128,0.155,-0.040
8.130,0.130,-0.050
8.132,0.065,-0.060
8.134,-0.015,-0.060
8.136,-0.095,-0.055
8.138,-0.070,-0.050
8.140,-0.125,-0.045
8.142,-0.060,-0.035
8.144,0.055,-0.035
8.146,0.175,-0.035
8.148,0.150,-0.040
8.150,0.085,-0.050
8.152,0.075,-0.055
8.154,-0.005,-0.060
8.156,-0.190,-0.060
8.158,-0.140,-0.055
8.160,-0.030,-0.045
8.162,0.055,-0.035
8.164,0.015,-0.030
8.166,0.125,-0.020
8.168,0.145,-0.020
8.170,0.135,-0.020
8.172,0.120,-0.020
8.174,0.090,-0.025
8.176,-0.130,-0.030
8.178,-0.110,-0.030
8.180,-0.100,-0.030
8.182,0.030,-0.030
8.184,-0.035,-0.035
8.186,0.135,-0.035
8.188,0.150,-0.035
8.190,0.120,-0.040
8.192,0.070,-0.050
8.194,-0.045,-0.055
8.196,-0.105,-0.055
8.198,-0.130,-0.060
8.200,-0.085,-0.055
8.202,0.010,-0.050
8.204,0.025,-0.045
8.206,0.155,-0.035
8.208,0.210,-0.030
8.210,0.100,-0.025
8.212,-0.020,-0.020
8.214,-0.035,-0.020
8.216,-0.055,-0.020
8.218,-0.080,-0.020
8.220,-0.055,-0.020
8.222,0.060,-0.015
8.224,0.080,-0.010
8.226,0.115,-0.005
8.228,0.100,0.000
8.230,0.140,0.010
8.232,0.145,0.020
8.234,0.060,0.025
8.236,-0.080,0.030
8.238,0.010,0.035
8.240,0.005,0.030
8.242,0.135,0.025
8.244,0.070,0.020
8.246,0.090,0.010
8.248,0.130,-0.005
8.250,0.160,-0.015
8.252,0.070,-0.025
8.254,0.010,-0.035
8.256,-0.140,-0.040
8.258,-0.200,-0.040
8.260,-0.055,-0.040
8.262,0.025,-0.040
8.264,0.020,-0.035
8.266,0.195,-0.035
8.268,0.185,-0.035
8.270,0.035,-0.035
8.272,-0.050,-0.040
8.274,-0.020,-0.040
8.276,-0.090,-0.040
8.278,-0.160,-0.040
8.280,-0.045,-0.040
8.282,-0.015,-0.035
8.284,0.055,-0.035
8.286,0.165,-0.035
8.288,0.155,-0.040
8.290,0.030,-0.050
8.292,-0.030,-0.065
8.294,-0.020,-0.080
8.296,-0.185,-0.100
8.298,-0.210,-0.110
8.300,-0.130,-0.115
8.302,-0.050,-0.100
8.304,0.005,-0.070
8.306,0.165,-0.020
8.308,0.120,0.050
8.310,0.240,0.135
8.312,0.310,0.225
8.314,0.350,0.325
8.316,0.400,0.415
8.318,0.520,0.500
8.320,0.650,0.565
8.322,0.705,0.615
8.324,0.695,0.635
8.326,0.675,0.635
8.328,0.685,0.605
8.330,0.665,0.555
8.332,0.620,0.480
8.334,0.485,0.390
8.336,0.245,0.290
8.338,0.105,0.185
8.340,0.020,0.085
8.342,-0.070,0.000
8.344,-0.030,-0.065
8.346,-0.045,-0.110
8.348,0.040,-0.135
8.350,-0.025,-0.135
8.352,-0.035,-0.120
8.354,-0.080,-0.100
8.356,-0.125,-0.080
8.358,-0.110,-0.060
8.360,-0.060,-0.050
8.362,0.000,-0.055
8.364,0.075,-0.065
8.366,0.120,-0.075
8.368,0.025,-0.090
8.370,0.035,-0.095
8.372,-0.030,-0.100
8.374,-0.090,-0.090
8.376,-0.115,-0.080
8.378,-0.115,-0.060
8.380,-0.050,-0.045
8.382,0.030,-0.035
8.384,0.150,-0.030
8.386,0.160,-0.035
8.388,0.160,-0.045
8.390,-0.035,-0.055
8.392,-0.135,-0.070
8.394,-0.100,-0.080
8.396,-0.160,-0.090
8.398,-0.125,-0.090
8.400,-0.095,-0.085
8.402,-0.045,-0.075
8.404,0.105,-0.060
8.406,0.170,-0.050
8.408,0.140,-0.040
8.410,0.025,-0.035
8.412,-0.035,-0.030
8.414,-0.080,-0.025
8.416,-0.075,-0.025
8.418,-0.145,-0.025
8.420,0.105,-0.025
8.422,0.040,-0.030
8.424,0.185,-0.030
8.426,0.065,-0.030
8.428,0.070,-0.030
8.430,0.055,-0.030
8.432,-0.010,-0.030
8.434,-0.120,-0.025
8.436,-0.035,-0.020
8.438,-0.060,-0.015
8.440,-0.005,-0.010
8.442,0.050,-0.010
8.444,0.150,-0.010
8.446,0.155,-0.010
8.448,0.195,-0.015
8.450,0.010,-0.020
8.452,-0.030,-0.025
8.454,-0.080,-0.025
8.456,-0.145,-0.025
8.458,-0.060,-0.025
8.460,-0.015,-0.025
8.462,0.055,-0.025
8.464,0.175,-0.020
8.466,0.150,-0.020
8.468,0.155,-0.020
8.470,0.015,-0.020
8.472,0.015,-0.015
8.474,-0.095,-0.005
8.476,-0.090,0.005
8.478,0.010,0.015
8.480,0.075,0.030
8.482,0.120,0.040
8.484,0.165,0.045
8.486,0.175,0.050
8.488,0.260,0.050
8.490,0.095,0.050
8.492,0.040,0.045
8.494,-0.025,0.040
8.496,-0.010,0.040
8.498,-0.010,0.045
8.500,0.045,0.055
8.502,0.100,0.065
8.504,0.345,0.080
8.506,0.260,0.095
8.508,0.190,0.110
8.510,0.180,0.120
8.512,0.155,0.135
8.514,0.085,0.145
8.516,0.055,0.155
8.518,0.160,0.165
8.520,0.205,0.175
8.522,0.210,0.175
8.524,0.320,0.180
8.526,0.330,0.175
8.528,0.380,0.175
8.530,0.225,0.170
8.532,0.155,0.170
8.534,0.110,0.170
8.536,0.030,0.175
8.538,0.130,0.185
8.540,0.270,0.200
8.542,0.310,0.210
8.544,0.395,0.220
8.546,0.465,0.225
8.548,0.450,0.225
8.550,0.215,0.220
8.552,0.180,0.210
8.554,0.095,0.195
8.556,0.110,0.185
8.558,0.145,0.175
8.560,0.260,0.170
8.562,0.225,0.170
8.564,0.340,0.170
8.566,0.435,0.165
8.568,0.275,0.160
8.570,0.170,0.155
8.572,0.175,0.145
8.574,-0.025,0.130
8.576,0.005,0.115
8.578,0.045,0.100
8.580,0.160,0.090
8.582,0.225,0.075
8.584,0.230,0.070
8.586,0.235,0.060
8.588,0.195,0.050
8.590,0.080,0.040
8.592,-0.005,0.025
8.594,-0.065,0.010
8.596,-0.200,-0.005
8.598,-0.130,-0.025
8.600,0.120,-0.040
8.602,0.060,-0.050
8.604,0.120,-0.055
8.606,0.110,-0.060
8.608,0.065,-0.055
8.610,0.005,-0.050
8.612,-0.085,-0.040
8.614,-0.105,-0.035
8.616,-0.140,-0.030
8.618,-0.045,-0.025
8.620,0.055,-0.030
8.622,0.095,-0.035
8.624,0.120,-0.040
8.626,0.135,-0.045
8.628,0.090,-0.050
8.630,-0.035,-0.055
8.632,-0.150,-0.055
8.634,-0.125,-0.055
8.636,-0.095,-0.055
8.638,-0.090,-0.060
8.640,-0.025,-0.060
8.642,0.070,-0.065
8.644,0.070,-0.070
8.646,0.070,-0.075
8.648,0.075,-0.080
8.650,0.015,-0.080
8.652,-0.035,-0.080
8.654,-0.195,-0.075
8.656,-0.205,-0.075
8.658,-0.075,-0.070
8.660,0.035,-0.070
8.662,0.040,-0.070
8.664,0.145,-0.080
8.666,0.030,-0.085
8.668,-0.040,-0.095
8.670,-0.080,-0.100
8.672,-0.140,-0.105
8.674,-0.125,-0.105
8.676,-0.095,-0.095
8.678,-0.025,-0.085
8.680,-0.050,-0.075
8.682,0.040,-0.065
8.684,0.120,-0.055
8.686,0.085,-0.050
8.688,-0.010,-0.055
8.690,-0.010,-0.055
8.692,-0.130,-0.065
8.694,-0.160,-0.070
8.696,-0.065,-0.070
8.698,-0.085,-0.070
8.700,0.005,-0.065
8.702,0.055,-0.055
8.704,0.095,-0.040
8.706,0.175,-0.030
8.708,0.145,-0.020
8.710,0.000,-0.015
8.712,-0.075,-0.010
8.714,-0.105,-0.015
8.716,-0.120,-0.025
8.718,-0.015,-0.035
8.720,-0.010,-0.050
8.722,0.080,-0.060
8.724,0.150,-0.065
8.726,0.130,-0.070
8.728,-0.010,-0.070
8.730,-0.065,-0.070
8.732,-0.130,-0.070
8.734,-0.120,-0.070
8.736,-0.130,-0.065
8.738,-0.050,-0.065
8.740,0.030,-0.065
8.742,0.120,-0.065
8.744,0.115,-0.065
8.746,0.045,-0.060
8.748,-0.015,-0.055
8.750,0.010,-0.050
8.752,-0.125,-0.045
8.754,-0.100,-0.040
8.756,-0.015,-0.035
8.758,-0.015,-0.035
8.760,-0.055,-0.040
8.762,0.115,-0.045
8.764,0.100,-0.055
8.766,0.095,-0.065
8.768,0.035,-0.070
8.770,-0.035,-0.070
8.772,-0.180,-0.070
8.774,-0.135,-0.060
8.776,-0.070,-0.050
8.778,-0.050,-0.035
8.780,0.080,-0.020
8.782,0.210,-0.010
8.784,0.150,-0.005
8.786,0.150,-0.005
8.788,0.115,-0.010
8.790,-0.060,-0.020
8.792,-0.155,-0.035
8.794,-0.065,-0.050
8.796,-0.150,-0.060
8.798,-0.090,-0.075
8.800,-0.020,-0.080
8.802,0.055,-0.085
8.804,0.120,-0.090
8.806,0.125,-0.085
8.808,-0.010,-0.080
8.810,-0.020,-0.075
8.812,-0.175,-0.070
8.814,-0.155,-0.060
8.816,-0.090,-0.055
8.818,-0.010,-0.055
8.820,0.025,-0.055
8.822,0.110,-0.060
8.824,0.060,-0.065
8.826,0.115,-0.070
8.828,0.000,-0.080
8.830,-0.090,-0.085
8.832,-0.155,-0.085
8.834,-0.170,-0.080
8.836,-0.115,-0.075
8.838,-0.005,-0.065
8.840,0.075,-0.055
8.842,0.070,-0.045
8.844,0.165,-0.040
8.846,0.095,-0.035
8.848,-0.035,-0.040
8.850,-0.050,-0.045
8.852,-0.155,-0.055
8.854,-0.125,-0.065
8.856,-0.085,-0.075
8.858,0.020,-0.080
8.860,0.005,-0.085
8.862,0.050,-0.080
8.864,0.095,-0.080
8.866,0.040,-0.070
8.868,0.000,-0.065
8.870,0.020,-0.060
8.872,-0.155,-0.060
8.874,-0.185,-0.055
8.876,-0.135,-0.060
8.878,0.040,-0.060
8.880,0.045,-0.065
8.882,0.130,-0.065
8.884,0.115,-0.065
8.886,0.005,-0.070
8.888,-0.030,-0.070
8.890,-0.025,-0.070
8.892,-0.150,-0.075
8.894,-0.200,-0.075
8.896,-0.135,-0.080
8.898,0.015,-0.085
8.900,0.025,-0.085
8.902,0.105,-0.085
8.904,0.135,-0.080
8.906,0.030,-0.075
8.908,-0.010,-0.065
8.910,-0.075,-0.055
8.912,-0.140,-0.050
8.914,-0.090,-0.045
8.916,-0.090,-0.045
8.918,-0.025,-0.045
8.920,0.090,-0.050
8.922,0.110,-0.055
8.924,0.085,-0.060
8.926,0.005,-0.060
8.928,0.005,-0.060
8.930,-0.085,-0.060
8.932,-0.095,-0.055
8.934,-0.135,-0.055
8.936,-0.030,-0.050
8.938,-0.050,-0.045
8.940,0.085,-0.040
8.942,0.180,-0.040
8.944,0.120,-0.035
8.946,0.095,-0.030
8.948,0.020,-0.020
8.950,-0.020,-0.010
8.952,-0.135,0.000
8.954,-0.045,0.005
8.956,0.000,0.015
8.958,0.065,0.015
8.960,0.155,0.010
8.962,0.175,0.000
8.964,0.145,-0.015
8.966,0.015,-0.030
8.968,-0.015,-0.045
8.970,-0.055,-0.060
8.972,-0.145,-0.070
8.974,-0.120,-0.070
8.976,-0.045,-0.070
8.978,0.040,-0.065
8.980,0.130,-0.055
8.982,0.145,-0.045
8.984,0.050,-0.040
8.986,-0.030,-0.040
8.988,-0.035,-0.045
8.990,-0.105,-0.055
8.992,-0.130,-0.070
8.994,-0.135,-0.080
8.996,-0.105,-0.085
8.998,0.010,-0.090
9.000,0.090,-0.085
9.002,0.115,-0.070
9.004,0.080,-0.060
9.006,0.000,-0.050
9.008,-0.115,-0.045
9.010,-0.060,-0.055
9.012,-0.170,-0.070
9.014,-0.230,-0.090
9.016,0.045,-0.115
9.018,-0.080,-0.130
9.020,0.035,-0.135
9.022,0.105,-0.115
9.024,-0.010,-0.070
9.026,0.070,0.000
9.028,0.110,0.090
9.030,0.095,0.190
9.032,0.155,0.295
9.034,0.410,0.390
9.036,0.655,0.480
9.038,0.725,0.550
9.040,0.825,0.600
9.042,0.745,0.630
9.044,0.740,0.640
9.046,0.620,0.635
9.048,0.650,0.610
9.050,0.500,0.570
9.052,0.500,0.505
9.054,0.455,0.425
9.056,0.465,0.335
9.058,0.340,0.235
9.060,0.190,0.135
9.062,0.055,0.045
9.064,0.000,-0.030
9.066,-0.035,-0.085
9.068,-0.090,-0.115
9.070,-0.065,-0.125
9.072,-0.125,-0.115
9.074,-0.150,-0.100
9.076,-0.050,-0.085
9.078,0.015,-0.070
9.080,0.065,-0.065
9.082,0.125,-0.065
9.084,0.080,-0.075
9.086,-0.045,-0.080
9.088,-0.065,-0.090
9.090,-0.220,-0.095
9.092,-0.120,-0.090
9.094,-0.070,-0.085
9.096,-0.030,-0.075
9.098,-0.015,-0.065
9.100,0.155,-0.060
9.102,0.085,-0.060
9.104,0.005,-0.060
9.106,-0.035,-0.070
9.108,0.020,-0.075
9.110,-0.170,-0.080
9.112,-0.125,-0.085
9.114,-0.105,-0.085
9.116,-0.030,-0.080
9.118,0.040,-0.075
9.120,0.100,-0.070
9.122,0.125,-0.060
9.124,0.140,-0.055
9.126,-0.010,-0.050
9.128,-0.045,-0.045
9.130,-0.150,-0.040
9.132,-0.055,-0.035
9.134,-0.075,-0.030
9.136,0.005,-0.025
9.138,0.020,-0.020
9.140,0.195,-0.020
9.142,0.210,-0.025
9.144,0.025,-0.030
9.146,0.050,-0.040
9.148,0.045,-0.050
9.150,-0.190,-0.060
9.152,-0.150,-0.065
9.154,-0.075,-0.070
9.156,0.000,-0.065
9.158,0.065,-0.060
9.160,0.080,-0.050
9.162,0.110,-0.040
9.164,0.120,-0.030
9.166,0.100,-0.025
9.168,-0.025,-0.020
9.170,-0.125,-0.020
9.172,-0.085,-0.025
9.174,-0.035,-0.035
9.176,-0.020,-0.040
9.178,0.090,-0.045
9.180,0.180,-0.050
9.182,0.070,-0.050
9.184,0.095,-0.045
9.186,0.040,-0.040
9.188,-0.050,-0.035
9.190,-0.155,-0.025
9.192,-0.055,-0.020
9.194,-0.030,-0.015
9.196,0.045,-0.010
9.198,0.090,-0.005
9.200,0.135,0.000
9.202,0.120,0.005
9.204,0.160,0.010
9.206,0.125,0.020
9.208,0.075,0.025
9.210,-0.015,0.030
9.212,-0.040,0.035
9.214,-0.035,0.040
9.216,0.055,0.040
9.218,0.170,0.040
9.220,0.215,0.040
9.222,0.190,0.045
9.224,0.150,0.050
9.226,0.125,0.060
9.228,0.035,0.070
9.230,0.080,0.085
9.232,0.060,0.095
9.234,0.060,0.105
9.236,0.130,0.115
9.238,0.245,0.115
9.240,0.305,0.115
9.242,0.250,0.110
9.244,0.230,0.110
9.246,0.235,0.105
9.248,0.075,0.110
9.250,0.005,0.115
9.252,0.080,0.125
9.254,0.120,0.140
9.256,0.230,0.150
9.258,0.355,0.160
9.260,0.345,0.170
9.262,0.360,0.175
9.264,0.355,0.180
9.266,0.145,0.175
9.268,0.140,0.175
9.270,0.130,0.170
9.272,0.125,0.165
9.274,0.215,0.165
9.276,0.320,0.160
9.278,0.275,0.160
9.280,0.310,0.160
9.282,0.325,0.160
9.284,0.225,0.160
9.286,0.145,0.155
9.288,0.175,0.145
9.290,0.085,0.135
9.292,0.040,0.125
9.294,0.125,0.110
9.296,0.140,0.095
9.298,0.240,0.080
9.300,0.285,0.070
9.302,0.200,0.055
9.304,0.100,0.045
9.306,0.010,0.035
9.308,-0.005,0.025
9.310,0.005,0.010
9.312,-0.035,0.000
9.314,-0.045,-0.010
9.316,0.040,-0.025
9.318,0.175,-0.030
9.320,0.225,-0.040
9.322,0.085,-0.040
9.324,0.010,-0.040
9.326,0.055,-0.035
9.328,-0.120,-0.030
9.330,-0.035,-0.025
9.332,-0.095,-0.020
9.334,-0.025,-0.020
9.336,0.035,-0.025
9.338,0.150,-0.030
9.340,0.190,-0.040
9.342,0.095,-0.045
9.344,-0.030,-0.050
9.346,0.015,-0.050
9.348,-0.150,-0.050
9.350,-0.075,-0.050
9.352,-0.105,-0.050
9.354,-0.005,-0.045
9.356,-0.030,-0.045
9.358,0.200,-0.050
9.360,0.155,-0.055
9.362,0.050,-0.055
9.364,0.025,-0.060
9.366,-0.030,-0.065
9.368,-0.080,-0.070
9.370,-0.125,-0.070
9.372,-0.205,-0.075
9.374,0.005,-0.075
9.376,-0.030,-0.075
9.378,0.125,-0.075
9.380,0.125,-0.075
9.382,0.060,-0.070
9.384,0.030,-0.065
9.386,-0.040,-0.065
9.388,-0.150,-0.060
9.390,-0.100,-0.060
9.392,-0.080,-0.065
9.394,-0.015,-0.070
9.396,0.030,-0.075
9.398,0.085,-0.080
9.400,0.110,-0.085
9.402,0.000,-0.085
9.404,-0.050,-0.085
9.406,-0.050,-0.075
9.408,-0.125,-0.065
9.410,-0.025,-0.055
9.412,-0.055,-0.040
9.414,-0.015,-0.030
9.416,0.065,-0.020
9.418,0.185,-0.020
9.420,0.180,-0.020
9.422,0.060,-0.030
9.424,-0.025,-0.035
9.426,-0.035,-0.045
9.428,-0.095,-0.055
9.430,-0.125,-0.055
9.432,-0.035,-0.055
9.434,0.045,-0.050
9.436,0.085,-0.040
9.438,0.080,-0.035
9.440,0.125,-0.025
9.442,0.090,-0.020
9.444,-0.005,-0.020
9.446,0.100,-0.025
9.448,-0.070,-0.030
9.450,-0.135,-0.045
9.452,-0.130,-0.060
9.454,-0.075,-0.075
9.456,0.030,-0.090
9.458,0.110,-0.095
9.460,0.140,-0.100
9.462,0.045,-0.095
9.464,0.030,-0.085
9.466,-0.125,-0.070
9.468,-0.110,-0.055
9.470,-0.100,-0.045
9.472,0.005,-0.035
9.474,0.010,-0.035
9.476,0.045,-0.035
9.478,0.120,-0.040
9.480,0.155,-0.045
9.482,0.150,-0.050
9.484,0.030,-0.050
9.486,-0.010,-0.045
9.488,-0.115,-0.040
9.490,-0.145,-0.030
9.492,-0.010,-0.025
9.494,0.050,-0.020
9.496,0.105,-0.015
9.498,0.110,-0.020
9.500,0.105,-0.025
9.502,0.085,-0.035
9.504,-0.025,-0.045
9.506,-0.015,-0.050
9.508,-0.075,-0.050
9.510,-0.065,-0.045
9.512,0.030,-0.045
9.514,-0.020,-0.040
9.516,0.025,-0.040
9.518,0.120,-0.040
9.520,0.115,-0.045
9.522,0.115,-0.055
9.524,-0.030,-0.065
9.526,-0.040,-0.070
9.528,-0.120,-0.070
9.530,-0.100,-0.070
9.532,-0.060,-0.060
9.534,-0.010,-0.055
9.536,0.135,-0.045
9.538,0.175,-0.040
9.540,0.090,-0.035
9.542,0.110,-0.040
9.544,-0.005,-0.045
9.546,-0.085,-0.055
9.548,-0.100,-0.060
9.550,-0.125,-0.065
9.552,-0.050,-0.070
9.554,-0.015,-0.065
9.556,0.075,-0.060
9.558,0.110,-0.055
9.560,0.190,-0.050
9.562,0.070,-0.050
9.564,-0.050,-0.050
9.566,-0.055,-0.050
9.568,-0.070,-0.050
9.570,-0.115,-0.050
9.572,-0.025,-0.050
9.574,0.035,-0.045
9.576,0.090,-0.045
9.578,0.110,-0.040
9.580,0.215,-0.035
9.582,0.100,-0.035
9.584,-0.040,-0.040
9.586,-0.095,-0.045
9.588,-0.110,-0.055
9.590,-0.065,-0.060
9.592,0.045,-0.065
9.594,-0.015,-0.065
9.596,0.110,-0.060
9.598,0.165,-0.050
9.600,0.125,-0.045
9.602,0.075,-0.035
9.604,0.025,-0.025
9.606,-0.085,-0.020
9.608,-0.135,-0.020
9.610,-0.055,-0.025
9.612,0.060,-0.030
9.614,0.135,-0.040
9.616,0.100,-0.050
9.618,0.075,-0.055
9.620,0.045,-0.060
9.622,0.065,-0.065
9.624,-0.005,-0.060
9.626,-0.145,-0.060
9.628,-0.095,-0.060
9.630,-0.110,-0.055
9.632,0.075,-0.055
9.634,0.025,-0.050
9.636,0.160,-0.050
9.638,0.100,-0.050
9.640,0.040,-0.050
9.642,0.040,-0.055
9.644,0.045,-0.055
9.646,-0.110,-0.055
9.648,-0.135,-0.055
9.650,-0.040,-0.055
9.652,0.035,-0.055
9.654,0.015,-0.055
9.656,0.135,-0.055
9.658,0.150,-0.055
9.660,0.130,-0.055
9.662,0.060,-0.050
9.664,0.000,-0.050
9.666,-0.145,-0.045
9.668,-0.070,-0.040
9.670,-0.065,-0.035
9.672,0.025,-0.025
9.674,0.030,-0.020
9.676,0.185,-0.015
9.678,0.200,-0.015
9.680,0.240,-0.015
9.682,0.040,-0.020
9.684,-0.005,-0.025
9.686,-0.140,-0.030
9.688,-0.090,-0.030
9.690,0.015,-0.025
9.692,0.035,-0.015
9.694,0.110,-0.005
9.696,0.235,0.010
9.698,0.205,0.025
9.700,0.175,0.035
9.702,0.170,0.040
9.704,0.140,0.040
9.706,-0.035,0.030
9.708,-0.030,0.015
9.710,0.055,0.000
9.712,-0.015,-0.020
9.714,-0.050,-0.040
9.716,0.150,-0.050
9.718,0.240,-0.060
9.720,0.095,-0.060
9.722,0.005,-0.060
9.724,-0.055,-0.050
9.726,-0.120,-0.045
9.728,-0.075,-0.040
9.730,0.000,-0.040
9.732,0.075,-0.040
9.734,0.050,-0.040
9.736,0.165,-0.040
9.738,0.140,-0.040
9.740,0.090,-0.040
9.742,0.010,-0.035
9.744,0.015,-0.030
9.746,-0.130,-0.025
9.748,-0.075,-0.025
9.750,0.015,-0.035
9.752,0.010,-0.045
9.754,0.060,-0.060
9.756,0.210,-0.080
9.758,0.115,-0.090
9.760,-0.015,-0.095
9.762,-0.060,-0.085
9.764,-0.070,-0.055
9.766,-0.125,0.000
9.768,-0.015,0.075
9.770,0.170,0.165
9.772,0.425,0.265
9.774,0.540,0.370
9.776,0.840,0.465
9.778,0.815,0.555
9.780,0.820,0.620
9.782,0.660,0.670
9.784,0.640,0.690
9.786,0.585,0.690
9.788,0.570,0.665
9.790,0.625,0.620
9.792,0.680,0.555
9.794,0.710,0.470
9.796,0.635,0.375
9.798,0.515,0.275
9.800,0.205,0.170
9.802,0.070,0.080
9.804,-0.150,0.000
9.806,-0.195,-0.060
9.808,-0.140,-0.095
9.810,-0.085,-0.110
9.812,0.060,-0.105
9.814,0.170,-0.090
9.816,0.150,-0.065
9.818,0.090,-0.040
9.820,0.100,-0.020
9.822,0.075,-0.010
9.824,-0.035,-0.005
9.826,-0.105,-0.010
9.828,-0.065,-0.025
9.830,-0.050,-0.040
9.832,0.045,-0.055
9.834,0.105,-0.065
9.836,0.175,-0.070
9.838,0.105,-0.075
9.840,0.070,-0.075
9.842,0.025,-0.070
9.844,-0.110,-0.060
9.846,-0.125,-0.055
9.848,-0.070,-0.045
9.850,0.005,-0.040
9.852,0.060,-0.035
9.854,0.210,-0.030
9.856,0.170,-0.030
9.858,0.125,-0.030
9.860,0.070,-0.030
9.862,0.075,-0.030
9.864,-0.095,-0.030
9.866,-0.065,-0.030
9.868,-0.035,-0.030
9.870,0.015,-0.030
9.872,0.100,-0.030
9.874,0.150,-0.030
9.876,0.175,-0.025
9.878,0.135,-0.025
9.880,0.055,-0.020
9.882,0.055,-0.020
9.884,-0.050,-0.020
9.886,-0.130,-0.020
9.888,-0.065,-0.020
9.890,0.090,-0.020
9.892,0.120,-0.020
9.894,0.250,-0.025
9.896,0.160,-0.025
9.898,0.105,-0.030
9.900,0.030,-0.030
9.902,-0.005,-0.035
9.904,-0.040,-0.035
9.906,-0.080,-0.035
9.908,0.040,-0.030
9.910,0.005,-0.030
9.912,0.070,-0.025
9.914,0.220,-0.025
9.916,0.235,-0.025
9.918,0.085,-0.025
9.920,0.095,-0.025
9.922,0.060,-0.025
9.924,-0.115,-0.025
9.926,-0.075,-0.020
9.928,-0.005,-0.010
9.930,0.120,0.000
9.932,0.140,0.010
9.934,0.240,0.025
9.936,0.230,0.030
9.938,0.220,0.035
9.940,0.105,0.035
9.942,0.040,0.030
9.944,0.050,0.025
9.946,-0.045,0.020
9.948,-0.005,0.020
9.950,0.085,0.020
9.952,0.175,0.030
9.954,0.290,0.040
9.956,0.265,0.055
9.958,0.220,0.065
9.960,0.215,0.080
9.962,0.170,0.085
9.964,0.005,0.085
9.966,0.040,0.085
9.968,0.070,0.080
9.970,0.105,0.080
9.972,0.260,0.080
9.974,0.240,0.085
9.976,0.310,0.095
9.978,0.325,0.110
9.980,0.205,0.130
9.982,0.200,0.150
9.984,0.200,0.165
9.986,0.130,0.180
9.988,0.150,0.190
9.990,0.345,0.190
9.992,0.300,0.190
9.994,0.375,0.190
9.996,0.430,0.185
9.998,0.320,0.180
