'Elapsed time','ECG I','ECG I filtered'
'seconds','mV','mV'
0.000,0.020,0.135
0.002,-0.040,0.060
0.004,-0.145,0.010
0.006,-0.245,-0.030
0.008,-0.165,-0.045
0.010,-0.260,-0.045
0.012,-0.190,-0.030
0.014,-0.035,-0.010
0.016,-0.025,0.010
0.018,-0.005,0.020
0.020,-0.005,0.025
0.022,-0.075,0.015
0.024,-0.180,0.000
0.026,-0.265,-0.015
0.028,-0.280,-0.025
0.030,-0.230,-0.030
0.032,-0.150,-0.025
0.034,-0.040,-0.010
0.036,0.045,0.005
0.038,0.115,0.020
0.040,-0.005,0.030
0.042,-0.100,0.030
0.044,-0.225,0.030
0.046,-0.250,0.025
0.048,-0.255,0.015
0.050,-0.220,0.005
0.052,-0.125,0.000
0.054,0.020,0.000
0.056,0.040,0.000
0.058,0.055,0.005
0.060,-0.020,0.010
0.062,-0.070,0.010
0.064,-0.235,0.015
0.066,-0.265,0.015
0.068,-0.245,0.010
0.070,-0.205,0.010
0.072,-0.130,0.005
0.074,0.005,0.005
0.076,-0.010,0.000
0.078,0.045,0.000
0.080,0.025,-0.005
0.082,-0.095,-0.005
0.084,-0.240,-0.005
0.086,-0.295,-0.005
0.088,-0.310,-0.005
0.090,-0.285,-0.005
0.092,-0.095,-0.005
0.094,0.015,-0.005
0.096,0.025,-0.005
0.098,0.010,-0.005
0.100,-0.045,-0.005
0.102,-0.100,-0.010
0.104,-0.270,-0.010
0.106,-0.275,-0.010
0.108,-0.255,-0.010
0.110,-0.245,-0.010
0.112,-0.120,-0.010
0.114,0.010,-0.005
0.116,0.040,-0.005
0.118,0.050,-0.010
0.120,-0.060,-0.010
0.122,-0.135,-0.020
0.124,-0.290,-0.025
0.126,-0.325,-0.030
0.128,-0.305,-0.035
0.130,-0.200,-0.040
0.132,-0.145,-0.035
0.134,0.000,-0.030
0.136,0.045,-0.015
0.138,0.030,-0.005
0.140,-0.010,0.005
0.142,-0.120,0.015
0.144,-0.240,0.015
0.146,-0.350,0.015
0.148,-0.280,0.005
0.150,-0.215,-0.005
0.152,-0.135,-0.020
0.154,-0.010,-0.035
0.156,-0.020,-0.045
0.158,0.005,-0.045
0.160,-0.045,-0.045
0.162,-0.145,-0.040
0.164,-0.290,-0.030
0.166,-0.295,-0.020
0.168,-0.295,-0.015
0.170,-0.245,-0.010
0.172,-0.120,-0.010
0.174,0.010,-0.010
0.176,0.020,-0.020
0.178,-0.015,-0.025
0.180,-0.075,-0.030
0.182,-0.120,-0.035
0.184,-0.270,-0.035
0.186,-0.320,-0.030
0.188,-0.335,-0.020
0.190,-0.225,-0.015
0.192,-0.140,-0.010
0.194,-0.020,-0.010
0.196,0.025,-0.010
0.198,0.025,-0.015
0.200,-0.095,-0.020
0.202,-0.210,-0.025
0.204,-0.275,-0.030
0.206,-0.325,-0.025
0.208,-0.305,-0.025
0.210,-0.190,-0.020
0.212,-0.085,-0.015
0.214,-0.035,-0.010
0.216,-0.005,-0.010
0.218,-0.045,-0.015
0.220,-0.070,-0.020
0.222,-0.205,-0.025
0.224,-0.250,-0.030
0.226,-0.330,-0.035
0.228,-0.345,-0.040
0.230,-0.250,-0.040
0.232,-0.090,-0.035
0.234,-0.010,-0.030
0.236,0.035,-0.025
0.238,-0.020,-0.015
0.240,-0.065,-0.015
0.242,-0.215,-0.010
0.244,-0.300,-0.010
0.246,-0.355,-0.010
0.248,-0.290,-0.015
0.250,-0.200,-0.015
0.252,-0.100,-0.020
0.254,-0.050,-0.025
0.256,0.020,-0.025
0.258,-0.015,-0.030
0.260,-0.075,-0.030
0.262,-0.220,-0.030
0.264,-0.310,-0.030
0.266,-0.350,-0.025
0.268,-0.285,-0.025
0.270,-0.245,-0.025
0.272,-0.075,-0.025
0.274,-0.015,-0.025
0.276,0.035,-0.030
0.278,-0.035,-0.030
0.280,-0.075,-0.035
0.282,-0.280,-0.035
0.284,-0.345,-0.030
0.286,-0.270,-0.030
0.288,-0.300,-0.020
0.290,-0.230,-0.015
0.292,-0.050,-0.010
0.294,-0.020,-0.005
0.296,0.010,0.000
0.298,-0.040,0.000
0.300,-0.105,-0.005
0.302,-0.210,-0.010
0.304,-0.305,-0.010
0.306,-0.295,-0.015
0.308,-0.240,-0.015
0.310,-0.180,-0.015
0.312,-0.050,-0.010
0.314,-0.030,-0.005
0.316,0.005,-0.005
0.318,-0.035,0.000
0.320,-0.100,0.000
0.322,-0.240,-0.005
0.324,-0.265,-0.010
0.326,-0.245,-0.015
0.328,-0.285,-0.025
0.330,-0.200,-0.030
0.332,-0.090,-0.035
0.334,-0.020,-0.035
0.336,-0.030,-0.035
0.338,-0.055,-0.035
0.340,-0.110,-0.030
0.342,-0.250,-0.030
0.344,-0.315,-0.025
0.346,-0.320,-0.025
0.348,-0.270,-0.025
0.350,-0.210,-0.025
0.352,-0.100,-0.030
0.354,-0.060,-0.035
0.356,-0.005,-0.040
0.358,-0.010,-0.040
0.360,-0.120,-0.045
0.362,-0.305,-0.050
0.364,-0.415,-0.050
0.366,-0.400,-0.050
0.368,-0.290,-0.050
0.370,-0.205,-0.045
0.372,-0.005,-0.045
0.374,-0.050,-0.040
0.376,-0.055,-0.035
0.378,-0.060,-0.030
0.380,-0.185,-0.030
0.382,-0.285,-0.025
0.384,-0.310,-0.020
0.386,-0.325,-0.020
0.388,-0.300,-0.020
0.390,-0.210,-0.020
0.392,-0.065,-0.025
0.394,-0.020,-0.035
0.396,0.005,-0.040
0.398,-0.085,-0.045
0.400,-0.195,-0.050
0.402,-0.295,-0.050
0.404,-0.345,-0.045
0.406,-0.365,-0.040
0.408,-0.300,-0.035
0.410,-0.140,-0.030
0.412,-0.040,-0.030
0.414,-0.055,-0.030
0.416,-0.010,-0.025
0.418,-0.110,-0.020
0.420,-0.225,-0.005
0.422,-0.225,0.020
0.424,-0.225,0.060
0.426,-0.190,0.115
0.428,-0.025,0.180
0.430,0.165,0.255
0.432,0.325,0.325
0.434,0.410,0.385
0.436,0.495,0.430
0.438,0.440,0.450
0.440,0.305,0.440
0.442,0.100,0.405
0.444,-0.010,0.340
0.446,-0.085,0.260
0.448,-0.120,0.165
0.450,-0.050,0.070
0.452,-0.065,-0.020
0.454,-0.120,-0.100
0.456,-0.165,-0.165
0.458,-0.325,-0.210
0.460,-0.445,-0.240
0.462,-0.585,-0.260
0.464,-0.575,-0.265
0.466,-0.590,-0.260
0.468,-0.535,-0.255
0.470,-0.350,-0.240
0.472,-0.240,-0.225
0.474,-0.220,-0.210
0.476,-0.230,-0.190
0.478,-0.165,-0.170
0.480,-0.325,-0.145
0.482,-0.405,-0.125
0.484,-0.405,-0.100
0.486,-0.370,-0.085
0.488,-0.285,-0.070
0.490,-0.185,-0.055
0.492,-0.055,-0.045
0.494,-0.065,-0.040
0.496,-0.030,-0.035
0.498,-0.085,-0.030
0.500,-0.230,-0.025
0.502,-0.295,-0.025
0.504,-0.350,-0.020
0.506,-0.350,-0.020
0.508,-0.250,-0.020
0.510,-0.135,-0.020
0.512,-0.055,-0.025
0.514,-0.055,-0.025
0.516,-0.015,-0.025
0.518,-0.080,-0.020
0.520,-0.225,-0.015
0.522,-0.275,-0.005
0.524,-0.295,0.005
0.526,-0.300,0.010
0.528,-0.255,0.010
0.530,-0.125,0.010
0.532,-0.045,0.005
0.534,-0.025,0.000
0.536,-0.010,-0.005
0.538,-0.105,-0.010
0.540,-0.190,-0.010
0.542,-0.300,-0.010
0.544,-0.305,0.000
0.546,-0.315,0.010
0.548,-0.290,0.020
0.550,-0.040,0.030
0.552,-0.015,0.030
0.554,-0.010,0.030
0.556,0.005,0.025
0.558,-0.095,0.020
0.560,-0.190,0.015
0.562,-0.275,0.015
0.564,-0.300,0.010
0.566,-0.310,0.015
0.568,-0.235,0.015
0.570,-0.095,0.020
0.572,-0.025,0.020
0.574,0.045,0.025
0.576,0.050,0.025
0.578,0.015,0.025
0.580,-0.255,0.030
0.582,-0.270,0.035
0.584,-0.295,0.045
0.586,-0.260,0.050
0.588,-0.145,0.060
0.590,0.025,0.065
0.592,0.020,0.065
0.594,0.055,0.065
0.596,0.045,0.055
0.598,-0.085,0.050
0.600,-0.175,0.045
0.602,-0.245,0.045
0.604,-0.255,0.050
0.606,-0.235,0.060
0.608,-0.135,0.075
0.610,0.035,0.085
0.612,0.045,0.100
0.614,0.050,0.105
0.616,0.045,0.105
0.618,0.045,0.105
0.620,-0.170,0.105
0.622,-0.230,0.100
0.624,-0.190,0.105
0.626,-0.170,0.110
0.628,-0.080,0.125
0.630,0.040,0.145
0.632,0.085,0.165
0.634,0.210,0.185
0.636,0.145,0.200
0.638,0.065,0.210
0.640,-0.070,0.215
0.642,-0.150,0.215
0.644,-0.170,0.210
0.646,-0.120,0.205
0.648,-0.045,0.195
0.650,0.115,0.195
0.652,0.190,0.190
0.654,0.230,0.195
0.656,0.160,0.200
0.658,0.070,0.205
0.660,-0.115,0.210
0.662,-0.120,0.215
0.664,-0.120,0.220
0.666,-0.040,0.220
0.668,0.010,0.220
0.670,0.170,0.215
0.672,0.185,0.210
0.674,0.165,0.200
0.676,0.070,0.190
0.678,-0.005,0.180
0.680,-0.120,0.165
0.682,-0.165,0.155
0.684,-0.180,0.140
0.686,-0.170,0.130
0.688,-0.075,0.120
0.690,0.060,0.105
0.692,0.045,0.095
0.694,0.080,0.085
0.696,-0.025,0.070
0.698,-0.065,0.060
0.700,-0.280,0.045
0.702,-0.330,0.035
0.704,-0.310,0.030
0.706,-0.245,0.020
0.708,-0.160,0.020
0.710,-0.075,0.015
0.712,-0.030,0.010
0.714,-0.035,0.005
0.716,-0.115,0.000
0.718,-0.195,-0.005
0.720,-0.340,-0.015
0.722,-0.350,-0.020
0.724,-0.350,-0.030
0.726,-0.325,-0.040
0.728,-0.210,-0.045
0.730,-0.090,-0.055
0.732,-0.125,-0.055
0.734,-0.125,-0.060
0.736,-0.095,-0.055
0.738,-0.230,-0.055
0.740,-0.415,-0.050
0.742,-0.400,-0.050
0.744,-0.395,-0.045
0.746,-0.315,-0.045
0.748,-0.220,-0.050
0.750,-0.135,-0.050
0.752,-0.115,-0.055
0.754,-0.115,-0.060
0.756,-0.155,-0.065
0.758,-0.235,-0.065
0.760,-0.405,-0.065
0.762,-0.400,-0.060
0.764,-0.380,-0.055
0.766,-0.365,-0.050
0.768,-0.200,-0.040
0.770,-0.065,-0.035
0.772,-0.035,-0.035
0.774,-0.110,-0.030
0.776,-0.175,-0.035
0.778,-0.280,-0.040
0.780,-0.340,-0.045
0.782,-0.400,-0.050
0.784,-0.385,-0.055
0.786,-0.350,-0.060
0.788,-0.195,-0.060
0.790,-0.095,-0.060
0.792,-0.085,-0.055
0.794,-0.130,-0.050
0.796,-0.195,-0.040
0.798,-0.255,-0.030
0.800,-0.360,-0.025
0.802,-0.330,-0.020
0.804,-0.335,-0.020
0.806,-0.300,-0.025
0.808,-0.205,-0.030
0.810,-0.130,-0.040
0.812,-0.080,-0.050
0.814,-0.150,-0.060
0.816,-0.220,-0.070
0.818,-0.295,-0.075
0.820,-0.385,-0.075
0.822,-0.420,-0.070
0.824,-0.385,-0.065
0.826,-0.365,-0.055
0.828,-0.140,-0.050
0.830,-0.125,-0.045
0.832,-0.095,-0.040
0.834,-0.085,-0.045
0.836,-0.205,-0.050
0.838,-0.275,-0.055
0.840,-0.345,-0.060
0.842,-0.435,-0.060
0.844,-0.395,-0.055
0.846,-0.305,-0.050
0.848,-0.170,-0.045
0.850,-0.115,-0.035
0.852,-0.070,-0.030
0.854,-0.065,-0.030
0.856,-0.160,-0.030
0.858,-0.320,-0.035
0.860,-0.420,-0.040
0.862,-0.400,-0.045
0.864,-0.385,-0.050
0.866,-0.385,-0.050
0.868,-0.180,-0.045
0.870,-0.130,-0.040
0.872,0.010,-0.030
0.874,-0.060,-0.020
0.876,-0.160,-0.015
0.878,-0.360,-0.005
0.880,-0.355,-0.005
0.882,-0.375,-0.005
0.884,-0.350,-0.010
0.886,-0.240,-0.020
0.888,-0.170,-0.025
0.890,-0.105,-0.035
0.892,-0.040,-0.040
0.894,-0.130,-0.045
0.896,-0.265,-0.045
0.898,-0.355,-0.045
0.900,-0.395,-0.045
0.902,-0.410,-0.045
0.904,-0.325,-0.045
0.906,-0.290,-0.045
0.908,-0.145,-0.045
0.910,-0.120,-0.045
0.912,-0.100,-0.040
0.914,-0.125,-0.040
0.916,-0.215,-0.040
0.918,-0.355,-0.035
0.920,-0.365,-0.030
0.922,-0.390,-0.030
0.924,-0.380,-0.025
0.926,-0.345,-0.025
0.928,-0.140,-0.025
0.930,-0.075,-0.025
0.932,-0.075,-0.030
0.934,-0.110,-0.030
0.936,-0.210,-0.035
0.938,-0.340,-0.035
0.940,-0.410,-0.040
0.942,-0.445,-0.040
0.944,-0.435,-0.040
0.946,-0.240,-0.045
0.948,-0.075,-0.045
0.950,-0.160,-0.050
0.952,-0.145,-0.055
0.954,-0.130,-0.060
0.956,-0.260,-0.060
0.958,-0.350,-0.060
0.960,-0.400,-0.060
0.962,-0.470,-0.060
0.964,-0.360,-0.055
0.966,-0.290,-0.055
0.968,-0.150,-0.050
0.970,-0.155,-0.050
0.972,-0.075,-0.045
0.974,-0.175,-0.045
0.976,-0.225,-0.040
0.978,-0.365,-0.040
0.980,-0.395,-0.035
0.982,-0.365,-0.035
0.984,-0.270,-0.035
0.986,-0.330,-0.040
0.988,-0.140,-0.040
0.990,-0.135,-0.045
0.992,-0.125,-0.045
0.994,-0.140,-0.050
0.996,-0.270,-0.045
0.998,-0.370,-0.045
1.000,-0.385,-0.040
1.002,-0.390,-0.035
1.004,-0.345,-0.035
1.006,-0.280,-0.035
1.008,-0.155,-0.035
1.010,-0.145,-0.040
1.012,-0.100,-0.045
1.014,-0.120,-0.050
1.016,-0.235,-0.050
1.018,-0.435,-0.055
1.020,-0.410,-0.050
1.022,-0.430,-0.050
1.024,-0.355,-0.045
1.026,-0.250,-0.040
1.028,-0.150,-0.040
1.030,-0.115,-0.035
1.032,-0.095,-0.035
1.034,-0.180,-0.040
1.036,-0.280,-0.040
1.038,-0.380,-0.040
1.040,-0.450,-0.040
1.042,-0.410,-0.040
1.044,-0.385,-0.040
1.046,-0.235,-0.040
1.048,-0.145,-0.045
1.050,-0.110,-0.045
1.052,-0.115,-0.050
1.054,-0.220,-0.055
1.056,-0.300,-0.055
1.058,-0.400,-0.060
1.060,-0.435,-0.060
1.062,-0.465,-0.060
1.064,-0.365,-0.055
1.066,-0.210,-0.055
1.068,-0.110,-0.050
1.070,-0.075,-0.050
1.072,-0.100,-0.050
1.074,-0.180,-0.055
1.076,-0.330,-0.055
1.078,-0.420,-0.050
1.080,-0.450,-0.050
1.082,-0.455,-0.045
1.084,-0.295,-0.035
1.086,-0.195,-0.030
1.088,-0.130,-0.025
1.090,-0.130,-0.020
1.092,-0.070,-0.020
1.094,-0.175,-0.020
1.096,-0.310,-0.025
1.098,-0.410,-0.030
1.100,-0.450,-0.040
1.102,-0.390,-0.045
1.104,-0.330,-0.045
1.106,-0.180,-0.050
1.108,-0.120,-0.050
1.110,-0.145,-0.045
1.112,-0.155,-0.040
1.114,-0.200,-0.040
1.116,-0.285,-0.035
1.118,-0.370,-0.035
1.120,-0.410,-0.030
1.122,-0.435,-0.030
1.124,-0.340,-0.030
1.126,-0.165,-0.030
1.128,-0.135,-0.025
1.130,-0.110,-0.025
1.132,-0.140,-0.020
1.134,-0.165,-0.020
1.136,-0.295,-0.015
1.138,-0.385,-0.015
1.140,-0.420,-0.015
1.142,-0.360,-0.015
1.144,-0.280,-0.015
1.146,-0.175,-0.015
1.148,-0.090,-0.015
1.150,-0.045,-0.015
1.152,-0.050,-0.015
1.154,-0.185,-0.015
1.156,-0.355,-0.015
1.158,-0.385,-0.020
1.160,-0.470,-0.025
1.162,-0.400,-0.030
1.164,-0.320,-0.035
1.166,-0.215,-0.040
1.168,-0.105,-0.045
1.170,-0.100,-0.045
1.172,-0.145,-0.045
1.174,-0.200,-0.045
1.176,-0.355,-0.040
1.178,-0.415,-0.040
1.180,-0.400,-0.035
1.182,-0.400,-0.040
1.184,-0.390,-0.040
1.186,-0.195,-0.045
1.188,-0.080,-0.055
1.190,-0.080,-0.060
1.192,-0.180,-0.060
1.194,-0.265,-0.060
1.196,-0.355,-0.055
1.198,-0.405,-0.050
1.200,-0.435,-0.040
1.202,-0.360,-0.030
1.204,-0.285,-0.025
1.206,-0.190,-0.020
1.208,-0.160,-0.025
1.210,-0.105,-0.030
1.212,-0.135,-0.035
1.214,-0.255,-0.040
1.216,-0.355,-0.045
1.218,-0.430,-0.050
1.220,-0.450,-0.050
1.222,-0.410,-0.045
1.224,-0.295,-0.040
1.226,-0.115,-0.035
1.228,-0.115,-0.035
1.230,-0.130,-0.035
1.232,-0.150,-0.035
1.234,-0.210,-0.035
1.236,-0.360,-0.030
1.238,-0.390,-0.015
1.240,-0.375,0.010
1.242,-0.310,0.045
1.244,-0.145,0.090
1.246,0.035,0.150
1.248,0.200,0.215
1.250,0.255,0.280
1.252,0.250,0.340
1.254,0.180,0.390
1.256,0.115,0.420
1.258,0.125,0.435
1.260,0.095,0.425
1.262,0.010,0.385
1.264,0.025,0.330
1.266,0.100,0.255
1.268,0.040,0.165
1.270,0.010,0.070
1.272,-0.120,-0.020
1.274,-0.330,-0.100
1.276,-0.530,-0.165
1.278,-0.650,-0.215
1.280,-0.690,-0.250
1.282,-0.610,-0.270
1.284,-0.520,-0.275
1.286,-0.380,-0.275
1.288,-0.345,-0.265
1.290,-0.280,-0.250
1.292,-0.370,-0.235
1.294,-0.460,-0.215
1.296,-0.560,-0.195
1.298,-0.555,-0.170
1.300,-0.475,-0.145
1.302,-0.405,-0.120
1.304,-0.290,-0.095
1.306,-0.180,-0.070
1.308,-0.135,-0.050
1.310,-0.070,-0.035
1.312,-0.145,-0.025
1.314,-0.300,-0.020
1.316,-0.405,-0.020
1.318,-0.430,-0.020
1.320,-0.365,-0.025
1.322,-0.325,-0.025
1.324,-0.240,-0.030
1.326,-0.135,-0.025
1.328,-0.120,-0.020
1.330,-0.080,-0.015
1.332,-0.100,-0.005
1.334,-0.225,0.000
1.336,-0.320,0.010
1.338,-0.385,0.015
1.340,-0.375,0.020
1.342,-0.310,0.025
1.344,-0.250,0.020
1.346,-0.065,0.015
1.348,-0.035,0.010
1.350,-0.020,0.005
1.352,-0.130,0.000
1.354,-0.275,0.000
1.356,-0.370,0.000
1.358,-0.385,0.005
1.360,-0.360,0.010
1.362,-0.250,0.015
1.364,-0.125,0.025
1.366,-0.055,0.030
1.368,-0.040,0.030
1.370,-0.070,0.030
1.372,-0.145,0.020
1.374,-0.265,0.015
1.376,-0.310,0.010
1.378,-0.340,0.000
1.380,-0.420,0.000
1.382,-0.265,0.000
1.384,-0.140,0.005
1.386,-0.060,0.010
1.388,-0.045,0.015
1.390,-0.080,0.025
1.392,-0.115,0.030
1.394,-0.240,0.035
1.396,-0.340,0.035
1.398,-0.360,0.035
1.400,-0.305,0.035
1.402,-0.245,0.035
1.404,-0.125,0.035
1.406,-0.050,0.040
1.408,-0.025,0.045
1.410,-0.040,0.050
1.412,-0.125,0.055
1.414,-0.220,0.065
1.416,-0.320,0.070
1.418,-0.250,0.075
1.420,-0.290,0.080
1.422,-0.210,0.080
1.424,-0.085,0.085
1.426,0.010,0.090
1.428,0.065,0.095
1.430,0.025,0.095
1.432,-0.035,0.100
1.434,-0.190,0.105
1.436,-0.250,0.110
1.438,-0.265,0.115
1.440,-0.255,0.120
1.442,-0.140,0.125
1.444,-0.020,0.130
1.446,0.080,0.140
1.448,0.115,0.145
1.450,0.065,0.155
1.452,0.005,0.160
1.454,-0.145,0.165
1.456,-0.205,0.170
1.458,-0.210,0.175
1.460,-0.125,0.180
1.462,-0.140,0.180
1.464,0.080,0.185
1.466,0.170,0.190
1.468,0.210,0.195
1.470,0.090,0.200
1.472,0.005,0.205
1.474,-0.080,0.210
1.476,-0.120,0.215
1.478,-0.180,0.220
1.480,-0.120,0.225
1.482,-0.065,0.220
1.484,0.120,0.220
1.486,0.130,0.210
1.488,0.135,0.205
1.490,0.125,0.195
1.492,0.065,0.185
1.494,-0.145,0.180
1.496,-0.220,0.175
1.498,-0.195,0.170
1.500,-0.160,0.170
1.502,-0.035,0.165
1.504,-0.010,0.165
1.506,0.110,0.155
1.508,0.090,0.145
1.510,0.025,0.135
1.512,-0.095,0.120
1.514,-0.240,0.100
1.516,-0.290,0.080
1.518,-0.340,0.065
1.520,-0.285,0.050
1.522,-0.195,0.040
1.524,-0.070,0.035
1.526,-0.020,0.030
1.528,-0.055,0.030
1.530,-0.060,0.030
1.532,-0.175,0.025
1.534,-0.315,0.025
1.536,-0.385,0.015
1.538,-0.360,0.010
1.540,-0.330,-0.005
1.542,-0.265,-0.015
1.544,-0.110,-0.030
1.546,-0.100,-0.040
1.548,-0.070,-0.045
1.550,-0.150,-0.050
1.552,-0.240,-0.050
1.554,-0.390,-0.050
1.556,-0.420,-0.045
1.558,-0.400,-0.040
1.560,-0.355,-0.035
1.562,-0.265,-0.030
1.564,-0.105,-0.035
1.566,-0.090,-0.035
1.568,-0.115,-0.040
1.570,-0.190,-0.045
1.572,-0.260,-0.050
1.574,-0.385,-0.050
1.576,-0.380,-0.050
1.578,-0.415,-0.050
1.580,-0.330,-0.045
1.582,-0.250,-0.045
1.584,-0.135,-0.045
1.586,-0.075,-0.045
1.588,-0.105,-0.045
1.590,-0.170,-0.050
1.592,-0.230,-0.050
1.594,-0.365,-0.050
1.596,-0.410,-0.050
1.598,-0.400,-0.050
1.600,-0.355,-0.045
1.602,-0.225,-0.040
1.604,-0.105,-0.035
1.606,-0.085,-0.035
1.608,-0.095,-0.035
1.610,-0.190,-0.040
1.612,-0.260,-0.045
1.614,-0.415,-0.050
1.616,-0.420,-0.055
1.618,-0.375,-0.055
1.620,-0.335,-0.050
1.622,-0.170,-0.040
1.624,-0.085,-0.030
1.626,-0.040,-0.020
1.628,-0.070,-0.015
1.630,-0.130,-0.010
1.632,-0.285,-0.010
1.634,-0.385,-0.015
1.636,-0.380,-0.025
1.638,-0.335,-0.035
1.640,-0.350,-0.040
1.642,-0.175,-0.045
1.644,-0.120,-0.050
1.646,-0.075,-0.045
1.648,-0.100,-0.040
1.650,-0.095,-0.035
1.652,-0.260,-0.035
1.654,-0.420,-0.030
1.656,-0.400,-0.030
1.658,-0.370,-0.030
1.660,-0.335,-0.030
1.662,-0.175,-0.035
1.664,-0.075,-0.035
1.666,-0.055,-0.035
1.668,-0.125,-0.035
1.670,-0.170,-0.035
1.672,-0.265,-0.040
1.674,-0.380,-0.040
1.676,-0.395,-0.040
1.678,-0.350,-0.045
1.680,-0.315,-0.045
1.682,-0.190,-0.045
1.684,-0.085,-0.045
1.686,-0.035,-0.040
1.688,-0.065,-0.035
1.690,-0.145,-0.030
1.692,-0.275,-0.025
1.694,-0.340,-0.020
1.696,-0.380,-0.015
1.698,-0.355,-0.010
1.700,-0.300,-0.010
1.702,-0.145,-0.010
1.704,-0.090,-0.010
1.706,-0.030,-0.010
1.708,-0.050,-0.015
1.710,-0.135,-0.015
1.712,-0.260,-0.015
1.714,-0.405,-0.020
1.716,-0.420,-0.025
1.718,-0.350,-0.025
1.720,-0.285,-0.030
1.722,-0.125,-0.035
1.724,-0.040,-0.040
1.726,-0.090,-0.040
1.728,-0.110,-0.040
1.730,-0.165,-0.035
1.732,-0.290,-0.035
1.734,-0.400,-0.030
1.736,-0.390,-0.025
1.738,-0.290,-0.020
1.740,-0.260,-0.015
1.742,-0.155,-0.015
1.744,-0.085,-0.015
1.746,-0.085,-0.020
1.748,-0.045,-0.025
1.750,-0.165,-0.025
1.752,-0.335,-0.030
1.754,-0.360,-0.035
1.756,-0.385,-0.035
1.758,-0.370,-0.035
1.760,-0.270,-0.035
1.762,-0.105,-0.030
1.764,-0.035,-0.025
1.766,-0.075,-0.020
1.768,-0.070,-0.020
1.770,-0.185,-0.020
1.772,-0.330,-0.025
1.774,-0.370,-0.030
1.776,-0.380,-0.040
1.778,-0.325,-0.045
1.780,-0.285,-0.050
1.782,-0.150,-0.055
1.784,-0.055,-0.055
1.786,-0.035,-0.050
1.788,-0.095,-0.040
1.790,-0.185,-0.035
1.792,-0.325,-0.025
1.794,-0.335,-0.020
1.796,-0.330,-0.015
1.798,-0.350,-0.020
1.800,-0.280,-0.025
1.802,-0.115,-0.035
1.804,-0.075,-0.045
1.806,-0.050,-0.055
1.808,-0.085,-0.060
1.810,-0.170,-0.060
1.812,-0.305,-0.060
1.814,-0.390,-0.055
1.816,-0.405,-0.050
1.818,-0.340,-0.045
1.820,-0.235,-0.040
1.822,-0.130,-0.035
1.824,-0.090,-0.030
1.826,-0.010,-0.030
1.828,-0.100,-0.030
1.830,-0.155,-0.030
1.832,-0.320,-0.025
1.834,-0.400,-0.025
1.836,-0.315,-0.020
1.838,-0.335,-0.015
1.840,-0.240,-0.010
1.842,-0.090,-0.010
1.844,-0.025,-0.010
1.846,-0.020,-0.010
1.848,-0.105,-0.015
1.850,-0.205,-0.020
1.852,-0.325,-0.030
1.854,-0.340,-0.035
1.856,-0.415,-0.040
1.858,-0.335,-0.040
1.860,-0.210,-0.040
1.862,-0.025,-0.035
1.864,-0.010,-0.030
1.866,-0.040,-0.020
1.868,-0.120,-0.015
1.870,-0.170,-0.010
1.872,-0.305,-0.010
1.874,-0.370,-0.010
1.876,-0.395,-0.015
1.878,-0.290,-0.020
1.880,-0.195,-0.030
1.882,-0.110,-0.035
1.884,-0.045,-0.040
1.886,-0.015,-0.045
1.888,-0.135,-0.045
1.890,-0.190,-0.040
1.892,-0.385,-0.035
1.894,-0.340,-0.030
1.896,-0.325,-0.030
1.898,-0.285,-0.025
1.900,-0.185,-0.025
1.902,-0.130,-0.025
1.904,-0.055,-0.030
1.906,-0.015,-0.030
1.908,-0.065,-0.030
1.910,-0.205,-0.035
1.912,-0.330,-0.035
1.914,-0.315,-0.035
1.916,-0.320,-0.035
1.918,-0.370,-0.035
1.920,-0.210,-0.035
1.922,-0.070,-0.030
1.924,-0.010,-0.030
1.926,0.015,-0.025
1.928,-0.085,-0.020
1.930,-0.260,-0.015
1.932,-0.290,-0.010
1.934,-0.310,-0.005
1.936,-0.255,-0.005
1.938,-0.295,-0.005
1.940,-0.155,-0.010
1.942,-0.030,-0.015
1.944,0.010,-0.020
1.946,-0.045,-0.020
1.948,-0.115,-0.020
1.950,-0.220,-0.020
1.952,-0.320,-0.015
1.954,-0.305,-0.005
1.956,-0.330,0.000
1.958,-0.220,0.005
1.960,-0.070,0.010
1.962,-0.015,0.015
1.964,0.020,0.015
1.966,-0.045,0.015
1.968,-0.095,0.015
1.970,-0.200,0.015
1.972,-0.300,0.010
1.974,-0.310,0.010
1.976,-0.300,0.005
1.978,-0.225,0.000
1.980,-0.095,-0.005
1.982,-0.020,-0.010
1.984,-0.005,-0.015
1.986,-0.095,-0.020
1.988,-0.135,-0.025
1.990,-0.250,-0.025
1.992,-0.355,-0.030
1.994,-0.340,-0.030
1.996,-0.305,-0.030
1.998,-0.240,-0.030
2.000,-0.135,-0.035
2.002,-0.040,-0.035
2.004,-0.035,-0.035
2.006,-0.020,-0.040
2.008,-0.135,-0.040
2.010,-0.295,-0.040
2.012,-0.355,-0.040
2.014,-0.355,-0.035
2.016,-0.295,-0.030
2.018,-0.215,-0.025
2.020,-0.115,-0.015
2.022,0.005,-0.010
2.024,0.025,-0.005
2.026,-0.060,-0.005
2.028,-0.130,-0.005
2.030,-0.255,-0.005
2.032,-0.330,-0.010
2.034,-0.360,-0.020
2.036,-0.285,-0.025
2.038,-0.245,-0.035
2.040,-0.095,-0.040
2.042,-0.040,-0.045
2.044,0.000,-0.050
2.046,-0.040,-0.050
2.048,-0.130,-0.045
2.050,-0.265,-0.035
2.052,-0.390,-0.025
2.054,-0.350,-0.005
2.056,-0.275,0.015
2.058,-0.210,0.050
2.060,0.065,0.090
2.062,0.160,0.135
2.064,0.265,0.195
2.066,0.285,0.255
2.068,0.250,0.315
2.070,0.060,0.370
2.072,0.085,0.415
2.074,0.200,0.435
2.076,0.255,0.435
2.078,0.245,0.410
2.080,0.290,0.360
2.082,0.225,0.285
2.084,0.215,0.200
2.086,0.090,0.105
2.088,-0.130,0.015
2.090,-0.365,-0.070
2.092,-0.470,-0.135
2.094,-0.555,-0.190
2.096,-0.525,-0.230
2.098,-0.440,-0.255
2.100,-0.330,-0.265
2.102,-0.245,-0.270
2.104,-0.200,-0.265
2.106,-0.310,-0.255
2.108,-0.345,-0.240
2.110,-0.495,-0.220
2.112,-0.495,-0.195
2.114,-0.445,-0.165
2.116,-0.370,-0.135
2.118,-0.295,-0.110
2.120,-0.125,-0.085
2.122,-0.010,-0.070
2.124,-0.025,-0.055
2.126,-0.070,-0.050
2.128,-0.165,-0.045
2.130,-0.335,-0.040
2.132,-0.345,-0.040
2.134,-0.340,-0.035
2.136,-0.270,-0.025
2.138,-0.130,-0.020
2.140,-0.025,-0.010
2.142,0.005,-0.005
2.144,0.055,-0.005
2.146,-0.010,-0.005
2.148,-0.205,-0.010
2.150,-0.270,-0.015
2.152,-0.320,-0.020
2.154,-0.270,-0.025
2.156,-0.280,-0.025
2.158,-0.160,-0.025
2.160,0.000,-0.020
2.162,0.005,-0.015
2.164,0.005,-0.010
2.166,-0.045,0.000
2.168,-0.155,0.005
2.170,-0.220,0.015
2.172,-0.265,0.020
2.174,-0.275,0.020
2.176,-0.240,0.020
2.178,-0.095,0.020
2.180,0.015,0.020
2.182,0.030,0.020
2.184,0.025,0.015
2.186,-0.040,0.010
2.188,-0.170,0.010
2.190,-0.230,0.010
2.192,-0.240,0.010
2.194,-0.275,0.010
2.196,-0.250,0.010
2.198,-0.145,0.015
2.200,0.010,0.020
2.202,0.065,0.025
2.204,0.075,0.030
2.206,0.020,0.035
2.208,-0.135,0.040
2.210,-0.215,0.040
2.212,-0.200,0.045
2.214,-0.240,0.040
2.216,-0.190,0.040
2.218,-0.085,0.035
2.220,0.005,0.035
2.222,0.000,0.035
2.224,0.050,0.035
2.226,0.020,0.035
2.228,-0.100,0.040
2.230,-0.175,0.050
2.232,-0.220,0.060
2.234,-0.230,0.070
2.236,-0.145,0.085
2.238,0.015,0.095
2.240,0.075,0.100
2.242,0.130,0.110
2.244,0.115,0.115
2.246,0.040,0.115
2.248,-0.075,0.120
2.250,-0.175,0.120
2.252,-0.170,0.125
2.254,-0.150,0.125
2.256,-0.095,0.125
2.258,0.040,0.130
2.260,0.145,0.130
2.262,0.165,0.130
2.264,0.170,0.135
2.266,0.055,0.140
2.268,-0.025,0.145
2.270,-0.100,0.150
2.272,-0.125,0.160
2.274,-0.070,0.170
2.276,-0.030,0.180
2.278,0.080,0.190
2.280,0.205,0.195
2.282,0.285,0.200
2.284,0.215,0.205
2.286,0.170,0.205
2.288,-0.005,0.210
2.290,-0.090,0.210
2.292,-0.070,0.215
2.294,-0.050,0.225
2.296,0.050,0.230
2.298,0.165,0.235
2.300,0.205,0.235
2.302,0.320,0.230
2.304,0.230,0.220
2.306,0.185,0.210
2.308,-0.030,0.195
2.310,-0.115,0.185
2.312,-0.140,0.170
2.314,-0.100,0.160
2.316,-0.040,0.155
2.318,0.135,0.150
2.320,0.160,0.145
2.322,0.165,0.140
2.324,0.065,0.130
2.326,0.040,0.120
2.328,-0.140,0.105
2.330,-0.185,0.095
2.332,-0.205,0.085
2.334,-0.190,0.075
2.336,-0.120,0.070
2.338,0.020,0.065
2.340,0.070,0.065
2.342,0.070,0.060
2.344,0.025,0.050
2.346,-0.105,0.040
2.348,-0.225,0.025
2.350,-0.290,0.010
2.352,-0.330,-0.010
2.354,-0.295,-0.025
2.356,-0.210,-0.035
2.358,-0.075,-0.045
2.360,-0.035,-0.045
2.362,-0.020,-0.045
2.364,-0.010,-0.040
2.366,-0.095,-0.040
2.368,-0.250,-0.035
2.370,-0.325,-0.035
2.372,-0.380,-0.035
2.374,-0.300,-0.035
2.376,-0.190,-0.040
2.378,-0.050,-0.045
2.380,-0.025,-0.045
2.382,-0.025,-0.050
2.384,-0.075,-0.050
2.386,-0.145,-0.050
2.388,-0.270,-0.050
2.390,-0.365,-0.045
2.392,-0.395,-0.045
2.394,-0.290,-0.045
2.396,-0.165,-0.045
2.398,-0.110,-0.045
2.400,-0.030,-0.045
2.402,-0.040,-0.045
2.404,-0.070,-0.045
2.406,-0.175,-0.045
2.408,-0.290,-0.045
2.410,-0.325,-0.045
2.412,-0.350,-0.045
2.414,-0.275,-0.050
2.416,-0.220,-0.050
2.418,-0.075,-0.055
2.420,-0.055,-0.055
2.422,-0.050,-0.055
2.424,-0.080,-0.055
2.426,-0.190,-0.055
2.428,-0.305,-0.055
2.430,-0.330,-0.055
2.432,-0.380,-0.055
2.434,-0.320,-0.055
2.436,-0.210,-0.055
2.438,-0.090,-0.060
2.440,-0.020,-0.060
2.442,0.000,-0.065
2.444,-0.070,-0.060
2.446,-0.210,-0.060
2.448,-0.315,-0.055
2.450,-0.375,-0.050
2.452,-0.390,-0.045
2.454,-0.245,-0.040
2.456,-0.170,-0.040
2.458,-0.060,-0.040
2.460,-0.065,-0.045
2.462,-0.020,-0.050
2.464,-0.060,-0.055
2.466,-0.205,-0.055
2.468,-0.335,-0.055
2.470,-0.350,-0.055
2.472,-0.320,-0.050
2.474,-0.305,-0.045
2.476,-0.170,-0.040
2.478,-0.030,-0.035
2.480,0.000,-0.030
2.482,-0.020,-0.030
2.484,-0.105,-0.030
2.486,-0.195,-0.030
2.488,-0.295,-0.030
2.490,-0.320,-0.030
2.492,-0.355,-0.030
2.494,-0.295,-0.030
2.496,-0.130,-0.025
2.498,0.000,-0.025
2.500,0.030,-0.020
2.502,-0.015,-0.020
2.504,-0.115,-0.025
2.506,-0.260,-0.030
2.508,-0.330,-0.040
2.510,-0.350,-0.050
2.512,-0.320,-0.060
2.514,-0.290,-0.065
2.516,-0.170,-0.070
2.518,-0.045,-0.070
2.520,-0.060,-0.065
2.522,-0.065,-0.055
2.524,-0.120,-0.045
2.526,-0.150,-0.035
2.528,-0.265,-0.025
2.530,-0.305,-0.020
2.532,-0.360,-0.015
2.534,-0.305,-0.020
2.536,-0.145,-0.030
2.538,-0.050,-0.040
2.540,-0.020,-0.050
2.542,-0.065,-0.055
2.544,-0.135,-0.065
2.546,-0.255,-0.065
2.548,-0.350,-0.060
2.550,-0.370,-0.055
2.552,-0.320,-0.050
2.554,-0.230,-0.040
2.556,-0.130,-0.035
2.558,-0.065,-0.030
2.560,-0.015,-0.030
2.562,-0.045,-0.030
2.564,-0.135,-0.030
2.566,-0.265,-0.035
2.568,-0.300,-0.035
2.570,-0.365,-0.035
2.572,-0.340,-0.035
2.574,-0.285,-0.035
2.576,-0.100,-0.035
2.578,-0.045,-0.035
2.580,-0.020,-0.030
2.582,-0.065,-0.035
2.584,-0.120,-0.035
2.586,-0.245,-0.035
2.588,-0.315,-0.035
2.590,-0.365,-0.035
2.592,-0.330,-0.030
2.594,-0.230,-0.030
2.596,-0.150,-0.025
2.598,-0.025,-0.025
2.600,-0.005,-0.025
2.602,-0.005,-0.030
2.604,-0.110,-0.035
2.606,-0.195,-0.040
2.608,-0.420,-0.045
2.610,-0.460,-0.045
2.612,-0.335,-0.045
2.614,-0.190,-0.045
2.616,-0.120,-0.040
2.618,-0.005,-0.030
2.620,0.015,-0.025
2.622,-0.045,-0.020
2.624,-0.170,-0.015
2.626,-0.290,-0.020
2.628,-0.405,-0.025
2.630,-0.350,-0.035
2.632,-0.335,-0.045
2.634,-0.235,-0.055
2.636,-0.100,-0.065
2.638,-0.065,-0.070
2.640,-0.035,-0.065
2.642,-0.040,-0.060
2.644,-0.180,-0.055
2.646,-0.355,-0.045
2.648,-0.375,-0.035
2.650,-0.355,-0.030
2.652,-0.300,-0.025
2.654,-0.215,-0.025
2.656,-0.060,-0.030
2.658,-0.045,-0.030
2.660,-0.040,-0.035
2.662,-0.075,-0.035
2.664,-0.140,-0.035
2.666,-0.270,-0.035
2.668,-0.335,-0.035
2.670,-0.385,-0.035
2.672,-0.330,-0.035
2.674,-0.240,-0.035
2.676,-0.075,-0.040
2.678,-0.065,-0.045
2.680,-0.020,-0.050
2.682,-0.060,-0.050
2.684,-0.155,-0.050
2.686,-0.335,-0.050
2.688,-0.375,-0.050
2.690,-0.395,-0.050
2.692,-0.370,-0.045
2.694,-0.210,-0.045
2.696,-0.070,-0.040
2.698,0.005,-0.035
2.700,-0.015,-0.035
2.702,-0.075,-0.030
2.704,-0.205,-0.030
2.706,-0.360,-0.030
2.708,-0.360,-0.030
2.710,-0.375,-0.035
2.712,-0.330,-0.045
2.714,-0.250,-0.055
2.716,-0.125,-0.065
2.718,0.000,-0.070
2.720,-0.060,-0.075
2.722,-0.110,-0.070
2.724,-0.245,-0.065
2.726,-0.385,-0.055
2.728,-0.350,-0.040
2.730,-0.365,-0.030
2.732,-0.315,-0.025
2.734,-0.210,-0.025
2.736,-0.055,-0.025
2.738,-0.040,-0.035
2.740,-0.005,-0.040
2.742,-0.100,-0.045
2.744,-0.215,-0.050
2.746,-0.345,-0.045
2.748,-0.365,-0.040
2.750,-0.375,-0.035
2.752,-0.280,-0.030
2.754,-0.190,-0.025
2.756,-0.075,-0.025
2.758,-0.060,-0.030
2.760,-0.080,-0.035
2.762,-0.130,-0.035
2.764,-0.190,-0.040
2.766,-0.315,-0.040
2.768,-0.325,-0.035
2.770,-0.340,-0.030
2.772,-0.315,-0.025
2.774,-0.195,-0.020
2.776,-0.075,-0.020
2.778,-0.070,-0.020
2.780,-0.055,-0.030
2.782,-0.060,-0.035
2.784,-0.240,-0.040
2.786,-0.355,-0.045
2.788,-0.380,-0.040
2.790,-0.350,-0.035
2.792,-0.270,-0.025
2.794,-0.140,-0.015
2.796,-0.020,-0.005
2.798,0.025,0.005
2.800,-0.040,0.005
2.802,-0.155,0.000
2.804,-0.195,-0.010
2.806,-0.350,-0.020
2.808,-0.380,-0.030
2.810,-0.370,-0.045
2.812,-0.275,-0.055
2.814,-0.220,-0.065
2.816,-0.115,-0.070
2.818,-0.075,-0.070
2.820,-0.050,-0.070
2.822,-0.130,-0.065
2.824,-0.330,-0.065
2.826,-0.415,-0.060
2.828,-0.385,-0.055
2.830,-0.340,-0.050
2.832,-0.280,-0.045
2.834,-0.145,-0.040
2.836,-0.085,-0.035
2.838,-0.050,-0.035
2.840,-0.065,-0.030
2.842,-0.155,-0.030
2.844,-0.245,-0.030
2.846,-0.340,-0.030
2.848,-0.390,-0.035
2.850,-0.410,-0.035
2.852,-0.305,-0.040
2.854,-0.175,-0.040
2.856,-0.085,-0.045
2.858,-0.040,-0.045
2.860,-0.075,-0.040
2.862,-0.170,-0.040
2.864,-0.310,-0.035
2.866,-0.395,-0.035
2.868,-0.395,-0.030
2.870,-0.355,-0.030
2.872,-0.270,-0.030
2.874,-0.110,-0.030
2.876,-0.055,-0.030
2.878,-0.070,-0.030
2.880,-0.085,-0.030
2.882,-0.150,-0.030
2.884,-0.285,-0.025
2.886,-0.375,-0.015
2.888,-0.395,0.000
2.890,-0.280,0.025
2.892,-0.195,0.055
2.894,0.030,0.100
2.896,0.140,0.155
2.898,0.225,0.215
2.900,0.230,0.280
2.902,0.200,0.340
2.904,0.145,0.395
2.906,0.185,0.430
2.908,0.205,0.445
2.910,0.130,0.435
2.912,0.080,0.395
2.914,0.160,0.325
2.916,0.155,0.240
2.918,0.120,0.135
2.920,-0.040,0.030
2.922,-0.235,-0.070
2.924,-0.470,-0.160
2.926,-0.610,-0.230
2.928,-0.640,-0.275
2.930,-0.605,-0.300
2.932,-0.515,-0.310
2.934,-0.350,-0.300
2.936,-0.380,-0.280
2.938,-0.285,-0.255
2.940,-0.270,-0.230
2.942,-0.385,-0.205
2.944,-0.515,-0.185
2.946,-0.500,-0.165
2.948,-0.525,-0.150
2.950,-0.480,-0.135
2.952,-0.320,-0.120
2.954,-0.210,-0.105
2.956,-0.115,-0.085
2.958,-0.065,-0.070
2.960,-0.135,-0.050
2.962,-0.190,-0.030
2.964,-0.315,-0.015
2.966,-0.330,0.000
2.968,-0.320,0.005
2.970,-0.300,0.010
2.972,-0.275,0.005
2.974,-0.190,0.000
2.976,-0.060,-0.005
2.978,-0.035,-0.015
2.980,-0.070,-0.020
2.982,-0.130,-0.020
2.984,-0.350,-0.020
2.986,-0.380,-0.015
2.988,-0.390,-0.010
2.990,-0.320,-0.005
2.992,-0.170,-0.005
2.994,-0.080,-0.005
2.996,-0.070,-0.005
2.998,-0.055,-0.010
3.000,-0.095,-0.010
3.002,-0.220,-0.010
3.004,-0.360,-0.010
3.006,-0.385,-0.005
3.008,-0.335,0.000
3.010,-0.280,0.010
3.012,-0.155,0.015
3.014,-0.080,0.025
3.016,-0.040,0.025
3.018,-0.045,0.025
3.020,-0.070,0.025
3.022,-0.210,0.020
3.024,-0.265,0.020
3.026,-0.340,0.015
3.028,-0.355,0.015
3.030,-0.300,0.015
3.032,-0.185,0.020
3.034,-0.040,0.020
3.036,-0.035,0.020
3.038,0.000,0.015
3.040,-0.130,0.015
3.042,-0.215,0.010
3.044,-0.295,0.005
3.046,-0.335,0.005
3.048,-0.330,0.010
3.050,-0.240,0.020
3.052,-0.135,0.030
3.054,-0.055,0.045
3.056,-0.015,0.060
3.058,0.025,0.070
3.060,-0.065,0.080
3.062,-0.140,0.085
3.064,-0.260,0.090
3.066,-0.275,0.090
3.068,-0.265,0.090
3.070,-0.250,0.090
3.072,-0.080,0.090
3.074,-0.010,0.090
3.076,0.040,0.090
3.078,0.050,0.090
3.080,-0.040,0.090
3.082,-0.145,0.090
3.084,-0.300,0.090
3.086,-0.305,0.095
3.088,-0.260,0.100
3.090,-0.170,0.110
3.092,-0.055,0.120
3.094,0.140,0.135
3.096,0.120,0.145
3.098,0.095,0.155
3.100,0.030,0.165
3.102,-0.080,0.170
3.104,-0.170,0.170
3.106,-0.205,0.170
3.108,-0.220,0.170
3.110,-0.130,0.170
3.112,-0.005,0.175
3.114,0.145,0.180
3.116,0.190,0.190
3.118,0.155,0.205
3.120,0.085,0.220
3.122,-0.065,0.230
3.124,-0.160,0.240
3.126,-0.170,0.245
3.128,-0.140,0.240
3.130,-0.020,0.235
3.132,0.125,0.225
3.134,0.170,0.215
3.136,0.105,0.200
3.138,0.090,0.195
3.140,0.055,0.190
3.142,-0.120,0.185
3.144,-0.180,0.185
3.146,-0.200,0.190
3.148,-0.180,0.190
3.150,-0.115,0.185
3.152,0.035,0.180
3.154,0.110,0.175
3.156,0.080,0.160
3.158,0.050,0.145
3.160,-0.030,0.130
3.162,-0.210,0.115
3.164,-0.290,0.100
3.166,-0.330,0.080
3.168,-0.295,0.070
3.170,-0.205,0.055
3.172,-0.090,0.045
3.174,-0.070,0.035
3.176,-0.010,0.025
3.178,-0.075,0.020
3.180,-0.160,0.015
3.182,-0.315,0.010
3.184,-0.375,0.010
3.186,-0.375,0.005
3.188,-0.370,0.000
3.190,-0.295,-0.005
3.192,-0.180,-0.010
3.194,-0.070,-0.020
3.196,-0.080,-0.025
3.198,-0.115,-0.030
3.200,-0.180,-0.030
3.202,-0.355,-0.030
3.204,-0.400,-0.030
3.206,-0.425,-0.030
3.208,-0.415,-0.025
3.210,-0.360,-0.030
3.212,-0.160,-0.030
3.214,-0.130,-0.035
3.216,-0.120,-0.045
3.218,-0.140,-0.050
3.220,-0.250,-0.060
3.222,-0.405,-0.060
3.224,-0.505,-0.060
3.226,-0.445,-0.060
3.228,-0.430,-0.055
3.230,-0.315,-0.045
3.232,-0.150,-0.040
3.234,-0.105,-0.030
3.236,-0.105,-0.030
3.238,-0.160,-0.025
3.240,-0.245,-0.025
3.242,-0.375,-0.030
3.244,-0.420,-0.030
3.246,-0.435,-0.030
3.248,-0.385,-0.030
3.250,-0.295,-0.035
3.252,-0.160,-0.035
3.254,-0.130,-0.040
3.256,-0.125,-0.045
3.258,-0.215,-0.045
3.260,-0.285,-0.045
3.262,-0.365,-0.045
3.264,-0.400,-0.045
3.266,-0.430,-0.040
3.268,-0.415,-0.035
3.270,-0.280,-0.035
3.272,-0.140,-0.030
3.274,-0.125,-0.030
3.276,-0.140,-0.035
3.278,-0.220,-0.040
3.280,-0.320,-0.045
3.282,-0.395,-0.050
3.284,-0.420,-0.050
3.286,-0.440,-0.055
3.288,-0.400,-0.050
3.290,-0.285,-0.050
3.292,-0.150,-0.045
3.294,-0.100,-0.035
3.296,-0.090,-0.030
3.298,-0.190,-0.025
3.300,-0.280,-0.020
3.302,-0.385,-0.020
3.304,-0.410,-0.020
3.306,-0.385,-0.020
3.308,-0.385,-0.020
3.310,-0.295,-0.025
3.312,-0.195,-0.030
3.314,-0.080,-0.035
3.316,-0.100,-0.040
3.318,-0.140,-0.040
3.320,-0.335,-0.045
3.322,-0.455,-0.045
3.324,-0.450,-0.040
3.326,-0.435,-0.035
3.328,-0.395,-0.030
3.330,-0.235,-0.025
3.332,-0.140,-0.015
3.334,-0.125,-0.010
3.336,-0.095,-0.010
3.338,-0.170,-0.010
3.340,-0.230,-0.015
3.342,-0.385,-0.020
3.344,-0.485,-0.030
3.346,-0.480,-0.040
3.348,-0.375,-0.045
3.350,-0.300,-0.050
3.352,-0.130,-0.050
3.354,-0.115,-0.045
3.356,-0.125,-0.040
3.358,-0.175,-0.035
3.360,-0.290,-0.025
3.362,-0.455,-0.020
3.364,-0.470,-0.015
3.366,-0.380,-0.010
3.368,-0.335,-0.010
3.370,-0.255,-0.010
3.372,-0.110,-0.015
3.374,-0.120,-0.020
3.376,-0.180,-0.025
3.378,-0.180,-0.030
3.380,-0.265,-0.035
3.382,-0.435,-0.035
3.384,-0.475,-0.035
3.386,-0.420,-0.035
3.388,-0.355,-0.030
3.390,-0.225,-0.025
3.392,-0.135,-0.020
3.394,-0.080,-0.010
3.396,-0.100,-0.005
3.398,-0.215,0.000
3.400,-0.335,0.000
3.402,-0.400,0.000
3.404,-0.385,-0.005
3.406,-0.415,-0.010
3.408,-0.360,-0.020
3.410,-0.265,-0.030
3.412,-0.225,-0.040
3.414,-0.120,-0.045
3.416,-0.125,-0.055
3.418,-0.245,-0.055
3.420,-0.350,-0.055
3.422,-0.440,-0.050
3.424,-0.510,-0.045
3.426,-0.445,-0.040
3.428,-0.330,-0.035
3.430,-0.205,-0.035
3.432,-0.145,-0.035
3.434,-0.135,-0.040
3.436,-0.170,-0.045
3.438,-0.260,-0.045
3.440,-0.380,-0.050
3.442,-0.465,-0.050
3.444,-0.485,-0.045
3.446,-0.440,-0.040
3.448,-0.360,-0.030
3.450,-0.175,-0.025
3.452,-0.115,-0.015
3.454,-0.140,-0.015
3.456,-0.150,-0.015
3.458,-0.230,-0.015
3.460,-0.330,-0.020
3.462,-0.430,-0.025
3.464,-0.475,-0.025
3.466,-0.405,-0.025
3.468,-0.375,-0.025
3.470,-0.275,-0.025
3.472,-0.130,-0.020
3.474,-0.095,-0.015
3.476,-0.140,-0.015
3.478,-0.235,-0.015
3.480,-0.380,-0.020
3.482,-0.440,-0.025
3.484,-0.455,-0.030
3.486,-0.425,-0.035
3.488,-0.335,-0.035
3.490,-0.170,-0.040
3.492,-0.130,-0.040
3.494,-0.190,-0.035
3.496,-0.170,-0.035
3.498,-0.260,-0.030
3.500,-0.380,-0.030
3.502,-0.460,-0.035
3.504,-0.470,-0.035
3.506,-0.410,-0.040
3.508,-0.305,-0.040
3.510,-0.185,-0.045
3.512,-0.150,-0.045
3.514,-0.135,-0.045
3.516,-0.170,-0.045
3.518,-0.235,-0.045
3.520,-0.440,-0.040
3.522,-0.495,-0.040
3.524,-0.465,-0.035
3.526,-0.425,-0.035
3.528,-0.335,-0.035
3.530,-0.170,-0.040
3.532,-0.170,-0.040
3.534,-0.150,-0.040
3.536,-0.170,-0.045
3.538,-0.235,-0.045
3.540,-0.385,-0.045
3.542,-0.465,-0.045
3.544,-0.525,-0.040
3.546,-0.450,-0.040
3.548,-0.315,-0.040
3.550,-0.150,-0.040
3.552,-0.140,-0.040
3.554,-0.185,-0.040
3.556,-0.175,-0.040
3.558,-0.250,-0.040
3.560,-0.425,-0.040
3.562,-0.510,-0.040
3.564,-0.490,-0.040
3.566,-0.380,-0.040
3.568,-0.345,-0.040
3.570,-0.215,-0.040
3.572,-0.090,-0.040
3.574,-0.125,-0.040
3.576,-0.185,-0.040
3.578,-0.290,-0.040
3.580,-0.445,-0.040
3.582,-0.475,-0.040
3.584,-0.470,-0.040
3.586,-0.390,-0.040
3.588,-0.280,-0.040
3.590,-0.150,-0.035
3.592,-0.150,-0.035
3.594,-0.115,-0.030
3.596,-0.200,-0.025
3.598,-0.305,-0.015
3.600,-0.435,-0.005
3.602,-0.440,0.000
3.604,-0.435,0.005
3.606,-0.360,0.005
3.608,-0.215,0.005
3.610,-0.120,0.000
3.612,-0.045,-0.005
3.614,-0.155,-0.010
3.616,-0.200,-0.015
3.618,-0.315,-0.020
3.620,-0.435,-0.020
3.622,-0.455,-0.020
3.624,-0.440,-0.020
3.626,-0.385,-0.020
3.628,-0.300,-0.020
3.630,-0.120,-0.025
3.632,-0.150,-0.025
3.634,-0.170,-0.030
3.636,-0.265,-0.035
3.638,-0.340,-0.040
3.640,-0.435,-0.045
3.642,-0.485,-0.050
3.644,-0.480,-0.050
3.646,-0.405,-0.055
3.648,-0.285,-0.060
3.650,-0.150,-0.070
3.652,-0.180,-0.070
3.654,-0.185,-0.075
3.656,-0.270,-0.075
3.658,-0.370,-0.070
3.660,-0.470,-0.065
3.662,-0.450,-0.055
3.664,-0.495,-0.045
3.666,-0.370,-0.035
3.668,-0.275,-0.030
3.670,-0.200,-0.030
3.672,-0.130,-0.030
3.674,-0.180,-0.030
3.676,-0.245,-0.035
3.678,-0.350,-0.040
3.680,-0.420,-0.045
3.682,-0.455,-0.050
3.684,-0.475,-0.050
3.686,-0.395,-0.050
3.688,-0.250,-0.045
3.690,-0.215,-0.045
3.692,-0.155,-0.045
3.694,-0.155,-0.045
3.696,-0.250,-0.045
3.698,-0.425,-0.045
3.700,-0.435,-0.040
3.702,-0.485,-0.035
3.704,-0.445,-0.020
3.706,-0.330,0.000
3.708,-0.205,0.035
3.710,-0.020,0.075
3.712,0.055,0.130
3.714,0.105,0.190
3.716,0.075,0.255
3.718,-0.020,0.320
3.720,-0.060,0.380
3.722,0.020,0.420
3.724,0.085,0.445
3.726,0.155,0.440
3.728,0.200,0.410
3.730,0.155,0.355
3.732,0.135,0.275
3.734,0.050,0.185
3.736,-0.175,0.085
3.738,-0.405,-0.010
3.740,-0.500,-0.095
3.742,-0.620,-0.165
3.744,-0.695,-0.215
3.746,-0.595,-0.250
3.748,-0.445,-0.270
3.750,-0.430,-0.275
3.752,-0.410,-0.275
3.754,-0.440,-0.265
3.756,-0.425,-0.255
3.758,-0.605,-0.240
3.760,-0.620,-0.220
3.762,-0.650,-0.195
3.764,-0.590,-0.175
3.766,-0.445,-0.150
3.768,-0.265,-0.125
3.770,-0.225,-0.100
3.772,-0.220,-0.080
3.774,-0.285,-0.065
3.776,-0.315,-0.050
3.778,-0.415,-0.040
3.780,-0.445,-0.035
3.782,-0.475,-0.030
3.784,-0.430,-0.025
3.786,-0.365,-0.020
3.788,-0.210,-0.015
3.790,-0.150,-0.015
3.792,-0.080,-0.015
3.794,-0.200,-0.015
3.796,-0.265,-0.015
3.798,-0.415,-0.020
3.800,-0.460,-0.020
3.802,-0.430,-0.020
3.804,-0.435,-0.020
3.806,-0.315,-0.015
3.808,-0.160,-0.010
3.810,-0.140,-0.005
3.812,-0.120,0.000
3.814,-0.185,0.005
3.816,-0.250,0.005
3.818,-0.395,0.010
3.820,-0.415,0.010
3.822,-0.440,0.005
3.824,-0.415,0.005
3.826,-0.345,0.010
3.828,-0.165,0.015
3.830,-0.100,0.020
3.832,-0.080,0.025
3.834,-0.140,0.030
3.836,-0.240,0.035
3.838,-0.385,0.040
3.840,-0.410,0.035
3.842,-0.420,0.030
3.844,-0.385,0.025
3.846,-0.330,0.015
3.848,-0.185,0.005
3.850,-0.085,0.000
3.852,-0.125,-0.005
3.854,-0.145,0.000
3.856,-0.220,0.005
3.858,-0.425,0.020
3.860,-0.435,0.030
3.862,-0.350,0.040
3.864,-0.320,0.050
3.866,-0.280,0.055
3.868,-0.180,0.055
3.870,-0.085,0.050
3.872,-0.085,0.040
3.874,-0.135,0.035
3.876,-0.215,0.030
3.878,-0.310,0.030
3.880,-0.420,0.035
3.882,-0.425,0.050
3.884,-0.335,0.060
3.886,-0.190,0.075
3.888,-0.070,0.085
3.890,-0.040,0.095
3.892,-0.010,0.095
3.894,-0.100,0.095
3.896,-0.225,0.090
3.898,-0.330,0.085
3.900,-0.365,0.080
3.902,-0.345,0.080
3.904,-0.260,0.085
3.906,-0.150,0.095
3.908,-0.040,0.110
3.910,0.015,0.125
3.912,0.035,0.135
3.914,-0.060,0.145
3.916,-0.165,0.150
3.918,-0.290,0.150
3.920,-0.330,0.145
3.922,-0.300,0.145
3.924,-0.205,0.145
3.926,-0.070,0.145
3.928,0.015,0.155
3.930,0.025,0.165
3.932,0.025,0.180
3.934,0.000,0.195
3.936,-0.125,0.210
3.938,-0.250,0.215
3.940,-0.225,0.220
3.942,-0.230,0.215
3.944,-0.205,0.210
3.946,-0.050,0.200
3.948,0.085,0.195
3.950,0.090,0.190
3.952,0.075,0.190
3.954,-0.050,0.190
3.956,-0.135,0.195
3.958,-0.220,0.200
3.960,-0.260,0.205
3.962,-0.210,0.205
3.964,-0.165,0.200
3.966,-0.060,0.195
3.968,0.045,0.185
3.970,0.055,0.175
3.972,-0.035,0.160
3.974,-0.090,0.150
3.976,-0.215,0.135
3.978,-0.310,0.125
3.980,-0.375,0.115
3.982,-0.350,0.100
3.984,-0.305,0.085
3.986,-0.180,0.070
3.988,-0.125,0.055
3.990,-0.090,0.045
3.992,-0.055,0.030
3.994,-0.195,0.025
3.996,-0.385,0.020
3.998,-0.410,0.015
4.000,-0.490,0.010
4.002,-0.440,0.005
4.004,-0.355,0.000
4.006,-0.230,-0.010
4.008,-0.160,-0.020
4.010,-0.170,-0.030
4.012,-0.205,-0.040
4.014,-0.290,-0.045
4.016,-0.450,-0.050
4.018,-0.495,-0.055
4.020,-0.490,-0.055
4.022,-0.465,-0.050
4.024,-0.420,-0.050
4.026,-0.290,-0.050
4.028,-0.185,-0.055
4.030,-0.190,-0.055
4.032,-0.210,-0.060
4.034,-0.250,-0.060
4.036,-0.450,-0.060
4.038,-0.545,-0.055
4.040,-0.465,-0.045
4.042,-0.450,-0.040
4.044,-0.395,-0.035
4.046,-0.265,-0.030
4.048,-0.225,-0.030
4.050,-0.195,-0.030
4.052,-0.205,-0.035
4.054,-0.285,-0.045
4.056,-0.385,-0.050
4.058,-0.510,-0.055
4.060,-0.545,-0.055
4.062,-0.450,-0.050
4.064,-0.440,-0.045
4.066,-0.225,-0.040
4.068,-0.210,-0.040
4.070,-0.155,-0.035
4.072,-0.195,-0.035
4.074,-0.310,-0.040
4.076,-0.455,-0.045
4.078,-0.525,-0.050
4.080,-0.495,-0.055
4.082,-0.480,-0.055
4.084,-0.425,-0.055
4.086,-0.250,-0.050
4.088,-0.205,-0.045
4.090,-0.195,-0.040
4.092,-0.175,-0.035
4.094,-0.300,-0.030
4.096,-0.455,-0.030
4.098,-0.515,-0.030
4.100,-0.460,-0.035
4.102,-0.460,-0.035
4.104,-0.355,-0.040
4.106,-0.255,-0.045
4.108,-0.200,-0.045
4.110,-0.185,-0.045
4.112,-0.205,-0.045
4.114,-0.335,-0.045
4.116,-0.485,-0.045
4.118,-0.495,-0.045
4.120,-0.515,-0.045
4.122,-0.455,-0.045
4.124,-0.385,-0.050
4.126,-0.235,-0.050
4.128,-0.190,-0.050
4.130,-0.165,-0.050
4.132,-0.270,-0.050
4.134,-0.315,-0.045
4.136,-0.460,-0.045
4.138,-0.545,-0.040
4.140,-0.535,-0.035
4.142,-0.415,-0.030
4.144,-0.315,-0.025
4.146,-0.175,-0.025
4.148,-0.180,-0.025
4.150,-0.160,-0.025
4.152,-0.200,-0.030
4.154,-0.340,-0.035
4.156,-0.505,-0.040
4.158,-0.500,-0.040
4.160,-0.525,-0.040
4.162,-0.440,-0.035
4.164,-0.365,-0.030
4.166,-0.185,-0.025
4.168,-0.160,-0.025
4.170,-0.165,-0.020
4.172,-0.260,-0.025
4.174,-0.325,-0.030
4.176,-0.490,-0.040
4.178,-0.520,-0.050
4.180,-0.500,-0.055
4.182,-0.410,-0.060
4.184,-0.355,-0.060
4.186,-0.240,-0.050
4.188,-0.160,-0.045
4.190,-0.160,-0.030
4.192,-0.245,-0.020
4.194,-0.335,-0.015
4.196,-0.445,-0.010
4.198,-0.440,-0.010
4.200,-0.515,-0.015
4.202,-0.475,-0.025
4.204,-0.370,-0.035
4.206,-0.215,-0.040
4.208,-0.145,-0.045
4.210,-0.150,-0.045
4.212,-0.255,-0.040
4.214,-0.380,-0.040
4.216,-0.525,-0.035
4.218,-0.545,-0.035
4.220,-0.490,-0.035
4.222,-0.435,-0.040
4.224,-0.345,-0.045
4.226,-0.250,-0.050
4.228,-0.145,-0.055
4.230,-0.190,-0.055
4.232,-0.290,-0.055
4.234,-0.450,-0.050
4.236,-0.515,-0.040
4.238,-0.515,-0.035
4.240,-0.480,-0.030
4.242,-0.375,-0.030
4.244,-0.290,-0.035
4.246,-0.175,-0.040
4.248,-0.215,-0.050
4.250,-0.215,-0.060
4.252,-0.300,-0.065
4.254,-0.435,-0.070
4.256,-0.510,-0.075
4.258,-0.550,-0.070
4.260,-0.555,-0.070
4.262,-0.415,-0.065
4.264,-0.285,-0.060
4.266,-0.225,-0.055
4.268,-0.170,-0.050
4.270,-0.190,-0.045
4.272,-0.270,-0.045
4.274,-0.405,-0.045
4.276,-0.525,-0.045
4.278,-0.555,-0.045
4.280,-0.500,-0.045
4.282,-0.430,-0.050
4.284,-0.270,-0.050
4.286,-0.215,-0.050
4.288,-0.190,-0.045
4.290,-0.205,-0.045
4.292,-0.320,-0.040
4.294,-0.445,-0.040
4.296,-0.490,-0.035
4.298,-0.480,-0.035
4.300,-0.485,-0.040
4.302,-0.430,-0.040
4.304,-0.285,-0.045
4.306,-0.230,-0.045
4.308,-0.185,-0.050
4.310,-0.200,-0.045
4.312,-0.290,-0.040
4.314,-0.425,-0.035
4.316,-0.485,-0.030
4.318,-0.480,-0.025
4.320,-0.485,-0.025
4.322,-0.450,-0.025
4.324,-0.255,-0.035
4.326,-0.210,-0.045
4.328,-0.200,-0.055
4.330,-0.270,-0.065
4.332,-0.350,-0.070
4.334,-0.460,-0.070
4.336,-0.490,-0.065
4.338,-0.500,-0.055
4.340,-0.530,-0.045
4.342,-0.380,-0.035
4.344,-0.195,-0.025
4.346,-0.230,-0.025
4.348,-0.220,-0.025
4.350,-0.160,-0.030
4.352,-0.340,-0.040
4.354,-0.465,-0.045
4.356,-0.505,-0.050
4.358,-0.575,-0.055
4.360,-0.485,-0.055
4.362,-0.400,-0.050
4.364,-0.255,-0.050
4.366,-0.210,-0.045
4.368,-0.155,-0.045
4.370,-0.240,-0.045
4.372,-0.325,-0.050
4.374,-0.510,-0.060
4.376,-0.540,-0.065
4.378,-0.535,-0.065
4.380,-0.470,-0.070
4.382,-0.355,-0.065
4.384,-0.245,-0.060
4.386,-0.215,-0.050
4.388,-0.185,-0.040
4.390,-0.210,-0.035
4.392,-0.300,-0.030
4.394,-0.475,-0.025
4.396,-0.520,-0.025
4.398,-0.490,-0.025
4.400,-0.435,-0.025
4.402,-0.385,-0.030
4.404,-0.225,-0.030
4.406,-0.200,-0.030
4.408,-0.175,-0.030
4.410,-0.240,-0.030
4.412,-0.350,-0.030
4.414,-0.490,-0.030
4.416,-0.510,-0.030
4.418,-0.530,-0.035
4.420,-0.470,-0.035
4.422,-0.420,-0.040
4.424,-0.220,-0.040
4.426,-0.185,-0.040
4.428,-0.190,-0.040
4.430,-0.250,-0.035
4.432,-0.305,-0.035
4.434,-0.480,-0.025
4.436,-0.485,-0.020
4.438,-0.515,-0.020
4.440,-0.480,-0.015
4.442,-0.340,-0.015
4.444,-0.185,-0.015
4.446,-0.105,-0.015
4.448,-0.155,-0.020
4.450,-0.300,-0.020
4.452,-0.325,-0.015
4.454,-0.480,-0.015
4.456,-0.455,-0.005
4.458,-0.505,0.000
4.460,-0.415,0.005
4.462,-0.320,0.010
4.464,-0.150,0.015
4.466,-0.125,0.015
4.468,-0.140,0.010
4.470,-0.265,0.000
4.472,-0.350,-0.010
4.474,-0.460,-0.020
4.476,-0.555,-0.035
4.478,-0.535,-0.045
4.480,-0.440,-0.055
4.482,-0.315,-0.060
4.484,-0.200,-0.060
4.486,-0.200,-0.060
4.488,-0.210,-0.055
4.490,-0.260,-0.050
4.492,-0.410,-0.045
4.494,-0.535,-0.040
4.496,-0.550,-0.040
4.498,-0.520,-0.045
4.500,-0.465,-0.050
4.502,-0.315,-0.055
4.504,-0.220,-0.060
4.506,-0.215,-0.055
4.508,-0.210,-0.055
4.510,-0.250,-0.045
4.512,-0.365,-0.035
4.514,-0.490,-0.025
4.516,-0.530,-0.020
4.518,-0.520,-0.020
4.520,-0.470,-0.030
4.522,-0.315,-0.040
4.524,-0.195,-0.050
4.526,-0.210,-0.060
4.528,-0.200,-0.060
4.530,-0.275,-0.060
4.532,-0.360,-0.050
4.534,-0.460,-0.035
4.536,-0.490,-0.020
4.538,-0.525,-0.005
4.540,-0.475,0.000
4.542,-0.275,0.000
4.544,-0.175,0.000
4.546,-0.210,0.000
4.548,-0.180,0.005
4.550,-0.185,0.030
4.552,-0.245,0.065
4.554,-0.290,0.125
4.556,-0.225,0.195
4.558,-0.180,0.270
4.560,-0.095,0.345
4.562,0.145,0.405
4.564,0.275,0.445
4.566,0.340,0.455
4.568,0.325,0.435
4.570,0.175,0.390
4.572,-0.065,0.325
4.574,-0.295,0.240
4.576,-0.365,0.155
4.578,-0.370,0.070
4.580,-0.430,-0.015
4.582,-0.395,-0.090
4.584,-0.400,-0.155
4.586,-0.465,-0.215
4.588,-0.465,-0.260
4.590,-0.500,-0.295
4.592,-0.695,-0.315
4.594,-0.745,-0.315
4.596,-0.750,-0.295
4.598,-0.705,-0.260
4.600,-0.515,-0.205
4.602,-0.470,-0.145
4.604,-0.400,-0.085
4.606,-0.255,-0.030
4.608,-0.185,0.010
4.610,-0.170,0.030
4.612,-0.175,0.035
4.614,-0.310,0.025
4.616,-0.455,0.005
4.618,-0.475,-0.020
4.620,-0.505,-0.035
4.622,-0.445,-0.040
4.624,-0.385,-0.040
4.626,-0.240,-0.025
4.628,-0.205,-0.005
4.630,-0.130,0.015
4.632,-0.185,0.030
4.634,-0.275,0.040
4.636,-0.415,0.040
4.638,-0.490,0.035
4.640,-0.480,0.025
4.642,-0.440,0.015
4.644,-0.305,0.005
4.646,-0.185,0.005
4.648,-0.150,0.005
4.650,-0.165,0.010
4.652,-0.190,0.015
4.654,-0.315,0.015
4.656,-0.435,0.015
4.658,-0.485,0.010
4.660,-0.510,0.005
4.662,-0.505,-0.005
4.664,-0.330,-0.010
4.666,-0.130,-0.010
4.668,-0.175,-0.005
4.670,-0.140,0.000
4.672,-0.190,0.015
4.674,-0.260,0.025
4.676,-0.410,0.035
4.678,-0.435,0.045
4.680,-0.475,0.045
4.682,-0.410,0.045
4.684,-0.325,0.040
4.686,-0.165,0.030
4.688,-0.130,0.025
4.690,-0.110,0.020
4.692,-0.185,0.020
4.694,-0.285,0.025
4.696,-0.380,0.025
4.698,-0.450,0.030
4.700,-0.465,0.040
4.702,-0.400,0.045
4.704,-0.265,0.050
4.706,-0.130,0.055
4.708,-0.150,0.060
4.710,-0.055,0.070
4.712,-0.095,0.075
4.714,-0.225,0.085
4.716,-0.350,0.095
4.718,-0.420,0.105
4.720,-0.415,0.110
4.722,-0.305,0.115
4.724,-0.190,0.120
4.726,-0.060,0.120
4.728,-0.010,0.120
4.730,-0.035,0.125
4.732,-0.150,0.125
4.734,-0.210,0.130
4.736,-0.365,0.135
4.738,-0.355,0.140
4.740,-0.365,0.150
4.742,-0.300,0.155
4.744,-0.090,0.160
4.746,0.015,0.170
4.748,-0.010,0.175
4.750,0.010,0.185
4.752,-0.030,0.190
4.754,-0.115,0.195
4.756,-0.305,0.200
4.758,-0.265,0.200
4.760,-0.280,0.200
4.762,-0.210,0.200
4.764,-0.085,0.195
4.766,-0.015,0.195
4.768,0.040,0.190
4.770,0.040,0.190
4.772,-0.025,0.195
4.774,-0.145,0.200
4.776,-0.235,0.205
4.778,-0.275,0.210
4.780,-0.305,0.210
4.782,-0.180,0.210
4.784,-0.110,0.210
4.786,0.025,0.205
4.788,0.035,0.200
4.790,-0.005,0.195
4.792,-0.090,0.190
4.794,-0.200,0.185
4.796,-0.255,0.180
4.798,-0.315,0.180
4.800,-0.315,0.175
4.802,-0.240,0.165
4.804,-0.150,0.155
4.806,-0.060,0.135
4.808,-0.060,0.115
4.810,-0.110,0.095
4.812,-0.155,0.075
4.814,-0.315,0.060
4.816,-0.470,0.045
4.818,-0.455,0.035
4.820,-0.420,0.025
4.822,-0.370,0.020
4.824,-0.210,0.015
4.826,-0.215,0.010
4.828,-0.160,0.000
4.830,-0.175,-0.010
4.832,-0.235,-0.020
4.834,-0.420,-0.025
4.836,-0.480,-0.030
4.838,-0.510,-0.030
4.840,-0.525,-0.030
4.842,-0.435,-0.025
4.844,-0.265,-0.025
4.846,-0.215,-0.020
4.848,-0.185,-0.020
4.850,-0.195,-0.025
4.852,-0.300,-0.030
4.854,-0.455,-0.040
4.856,-0.530,-0.045
4.858,-0.525,-0.050
4.860,-0.510,-0.050
4.862,-0.430,-0.050
4.864,-0.295,-0.045
4.866,-0.220,-0.045
4.868,-0.170,-0.040
4.870,-0.210,-0.040
4.872,-0.300,-0.040
4.874,-0.485,-0.045
4.876,-0.555,-0.045
4.878,-0.560,-0.050
4.880,-0.475,-0.050
4.882,-0.385,-0.055
4.884,-0.270,-0.055
4.886,-0.200,-0.050
4.888,-0.180,-0.050
4.890,-0.220,-0.045
4.892,-0.310,-0.040
4.894,-0.470,-0.035
4.896,-0.520,-0.035
4.898,-0.550,-0.030
4.900,-0.495,-0.025
4.902,-0.365,-0.025
4.904,-0.255,-0.025
4.906,-0.195,-0.025
4.908,-0.220,-0.030
4.910,-0.220,-0.035
4.912,-0.285,-0.035
4.914,-0.465,-0.040
4.916,-0.570,-0.040
4.918,-0.550,-0.040
4.920,-0.460,-0.040
4.922,-0.395,-0.035
4.924,-0.220,-0.035
4.926,-0.215,-0.035
4.928,-0.195,-0.035
4.930,-0.255,-0.040
4.932,-0.335,-0.040
4.934,-0.480,-0.040
4.936,-0.515,-0.040
4.938,-0.560,-0.040
4.940,-0.470,-0.035
4.942,-0.395,-0.035
4.944,-0.215,-0.030
4.946,-0.215,-0.030
4.948,-0.175,-0.030
4.950,-0.235,-0.030
4.952,-0.325,-0.035
4.954,-0.510,-0.035
4.956,-0.515,-0.040
4.958,-0.515,-0.045
4.960,-0.470,-0.045
4.962,-0.410,-0.045
4.964,-0.260,-0.045
4.966,-0.225,-0.045
4.968,-0.185,-0.040
4.970,-0.300,-0.040
4.972,-0.315,-0.040
4.974,-0.450,-0.035
4.976,-0.555,-0.035
4.978,-0.530,-0.035
4.980,-0.485,-0.040
4.982,-0.370,-0.040
4.984,-0.240,-0.045
4.986,-0.160,-0.050
4.988,-0.140,-0.050
4.990,-0.315,-0.050
4.992,-0.365,-0.045
4.994,-0.475,-0.040
4.996,-0.465,-0.035
4.998,-0.545,-0.030
5.000,-0.455,-0.025
5.002,-0.335,-0.020
5.004,-0.260,-0.025
5.006,-0.210,-0.030
5.008,-0.185,-0.035
5.010,-0.210,-0.045
5.012,-0.360,-0.050
5.014,-0.535,-0.055
5.016,-0.555,-0.055
5.018,-0.510,-0.050
5.020,-0.445,-0.045
5.022,-0.370,-0.040
5.024,-0.235,-0.035
5.026,-0.200,-0.030
5.028,-0.195,-0.035
5.030,-0.255,-0.040
5.032,-0.345,-0.045
5.034,-0.495,-0.050
5.036,-0.555,-0.055
5.038,-0.590,-0.060
5.040,-0.475,-0.065
5.042,-0.395,-0.065
5.044,-0.225,-0.065
5.046,-0.240,-0.065
5.048,-0.210,-0.060
5.050,-0.245,-0.060
5.052,-0.405,-0.055
5.054,-0.505,-0.055
5.056,-0.570,-0.050
5.058,-0.465,-0.045
5.060,-0.420,-0.040
5.062,-0.340,-0.035
5.064,-0.210,-0.030
5.066,-0.215,-0.030
5.068,-0.195,-0.030
5.070,-0.300,-0.030
5.072,-0.395,-0.035
5.074,-0.505,-0.040
5.076,-0.555,-0.050
5.078,-0.470,-0.050
5.080,-0.455,-0.055
5.082,-0.350,-0.055
5.084,-0.255,-0.050
5.086,-0.205,-0.045
5.088,-0.205,-0.035
5.090,-0.230,-0.030
5.092,-0.340,-0.020
5.094,-0.475,-0.015
5.096,-0.565,-0.015
5.098,-0.485,-0.015
5.100,-0.470,-0.020
5.102,-0.395,-0.030
5.104,-0.170,-0.040
5.106,-0.175,-0.050
5.108,-0.230,-0.060
5.110,-0.275,-0.065
5.112,-0.465,-0.065
5.114,-0.510,-0.060
5.116,-0.505,-0.055
5.118,-0.515,-0.045
5.120,-0.500,-0.040
5.122,-0.340,-0.040
5.124,-0.200,-0.040
5.126,-0.180,-0.040
5.128,-0.240,-0.045
5.130,-0.255,-0.050
5.132,-0.400,-0.050
5.134,-0.540,-0.050
5.136,-0.570,-0.050
5.138,-0.505,-0.045
5.140,-0.395,-0.040
5.142,-0.310,-0.040
5.144,-0.245,-0.040
5.146,-0.220,-0.045
5.148,-0.225,-0.045
5.150,-0.255,-0.050
5.152,-0.460,-0.050
5.154,-0.490,-0.050
5.156,-0.540,-0.045
5.158,-0.485,-0.035
5.160,-0.380,-0.025
5.162,-0.290,-0.020
5.164,-0.225,-0.015
5.166,-0.200,-0.010
5.168,-0.210,-0.015
5.170,-0.300,-0.020
5.172,-0.405,-0.030
5.174,-0.485,-0.035
5.176,-0.545,-0.040
5.178,-0.510,-0.045
5.180,-0.420,-0.045
5.182,-0.270,-0.045
5.184,-0.200,-0.045
5.186,-0.205,-0.040
5.188,-0.195,-0.045
5.190,-0.285,-0.050
5.192,-0.480,-0.055
5.194,-0.580,-0.060
5.196,-0.580,-0.065
5.198,-0.525,-0.065
5.200,-0.345,-0.065
5.202,-0.260,-0.060
5.204,-0.255,-0.050
5.206,-0.170,-0.035
5.208,-0.265,-0.025
5.210,-0.290,-0.020
5.212,-0.440,-0.015
5.214,-0.460,-0.015
5.216,-0.495,-0.020
5.218,-0.495,-0.025
5.220,-0.395,-0.035
5.222,-0.255,-0.040
5.224,-0.205,-0.045
5.226,-0.200,-0.040
5.228,-0.235,-0.035
5.230,-0.275,-0.030
5.232,-0.440,-0.020
5.234,-0.520,-0.015
5.236,-0.510,-0.010
5.238,-0.475,-0.010
5.240,-0.360,-0.015
5.242,-0.185,-0.025
5.244,-0.175,-0.030
5.246,-0.210,-0.040
5.248,-0.255,-0.040
5.250,-0.305,-0.035
5.252,-0.435,-0.025
5.254,-0.485,-0.010
5.256,-0.520,0.005
5.258,-0.430,0.015
5.260,-0.330,0.020
5.262,-0.150,0.020
5.264,-0.135,0.015
5.266,-0.155,0.005
5.268,-0.230,-0.005
5.270,-0.320,-0.020
5.272,-0.470,-0.025
5.274,-0.520,-0.030
5.276,-0.505,-0.030
5.278,-0.445,-0.030
5.280,-0.355,-0.025
5.282,-0.195,-0.025
5.284,-0.210,-0.030
5.286,-0.235,-0.035
5.288,-0.265,-0.045
5.290,-0.335,-0.055
5.292,-0.500,-0.065
5.294,-0.540,-0.070
5.296,-0.520,-0.070
5.298,-0.435,-0.065
5.300,-0.335,-0.060
5.302,-0.240,-0.050
5.304,-0.215,-0.045
5.306,-0.245,-0.040
5.308,-0.295,-0.040
5.310,-0.350,-0.045
5.312,-0.480,-0.050
5.314,-0.480,-0.050
5.316,-0.530,-0.055
5.318,-0.540,-0.050
5.320,-0.320,-0.045
5.322,-0.190,-0.040
5.324,-0.205,-0.030
5.326,-0.165,-0.025
5.328,-0.215,-0.025
5.330,-0.370,-0.025
5.332,-0.490,-0.030
5.334,-0.525,-0.035
5.336,-0.505,-0.040
5.338,-0.455,-0.045
5.340,-0.320,-0.050
5.342,-0.205,-0.050
5.344,-0.210,-0.050
5.346,-0.225,-0.045
5.348,-0.230,-0.040
5.350,-0.375,-0.030
5.352,-0.470,-0.015
5.354,-0.465,0.010
5.356,-0.435,0.040
5.358,-0.305,0.085
5.360,-0.140,0.135
5.362,0.070,0.200
5.364,0.150,0.265
5.366,0.200,0.335
5.368,0.175,0.390
5.370,0.120,0.430
5.372,0.055,0.450
5.374,-0.015,0.440
5.376,-0.110,0.405
5.378,-0.080,0.340
5.380,-0.035,0.250
5.382,-0.010,0.155
5.384,-0.140,0.050
5.386,-0.235,-0.045
5.388,-0.405,-0.125
5.390,-0.605,-0.190
5.392,-0.725,-0.235
5.394,-0.725,-0.260
5.396,-0.725,-0.270
5.398,-0.645,-0.265
5.400,-0.480,-0.255
5.402,-0.445,-0.240
5.404,-0.375,-0.230
5.406,-0.400,-0.215
5.408,-0.455,-0.200
5.410,-0.545,-0.185
5.412,-0.565,-0.170
5.414,-0.630,-0.155
5.416,-0.615,-0.140
5.418,-0.495,-0.125
5.420,-0.300,-0.105
5.422,-0.270,-0.090
5.424,-0.230,-0.080
5.426,-0.245,-0.065
5.428,-0.305,-0.055
5.430,-0.400,-0.045
5.432,-0.505,-0.035
5.434,-0.515,-0.025
5.436,-0.445,-0.015
5.438,-0.370,-0.005
5.440,-0.230,0.000
5.442,-0.180,0.005
5.444,-0.135,0.005
5.446,-0.190,0.005
5.448,-0.270,0.005
5.450,-0.375,0.000
5.452,-0.470,0.000
5.454,-0.485,-0.005
5.456,-0.455,-0.005
5.458,-0.355,-0.010
5.460,-0.225,-0.010
5.462,-0.195,-0.015
5.464,-0.150,-0.015
5.466,-0.170,-0.015
5.468,-0.245,-0.010
5.470,-0.410,-0.010
5.472,-0.455,0.000
5.474,-0.480,0.005
5.476,-0.405,0.010
5.478,-0.385,0.010
5.480,-0.210,0.010
5.482,-0.075,0.010
5.484,-0.175,0.005
5.486,-0.185,0.000
5.488,-0.255,0.000
5.490,-0.390,-0.005
5.492,-0.470,-0.005
5.494,-0.485,-0.005
5.496,-0.365,0.000
5.498,-0.390,0.005
5.500,-0.230,0.010
5.502,-0.145,0.010
5.504,-0.145,0.015
5.506,-0.125,0.020
5.508,-0.225,0.025
5.510,-0.425,0.030
5.512,-0.445,0.035
5.514,-0.425,0.040
5.516,-0.390,0.045
5.518,-0.325,0.050
5.520,-0.120,0.050
5.522,-0.120,0.050
5.524,-0.085,0.050
5.526,-0.165,0.050
5.528,-0.235,0.050
5.530,-0.345,0.055
5.532,-0.390,0.065
5.534,-0.375,0.075
5.536,-0.360,0.090
5.538,-0.235,0.100
5.540,-0.075,0.110
5.542,-0.045,0.115
5.544,-0.055,0.115
5.546,-0.080,0.110
5.548,-0.145,0.105
5.550,-0.315,0.095
5.552,-0.385,0.090
5.554,-0.385,0.090
5.556,-0.305,0.090
5.558,-0.210,0.100
5.560,-0.045,0.110
5.562,0.020,0.125
5.564,-0.030,0.145
5.566,-0.075,0.155
5.568,-0.140,0.170
5.570,-0.245,0.180
5.572,-0.275,0.180
5.574,-0.285,0.185
5.576,-0.230,0.185
5.578,-0.105,0.185
5.580,0.020,0.185
5.582,0.055,0.185
5.584,0.015,0.185
5.586,-0.030,0.190
5.588,-0.110,0.195
5.590,-0.285,0.195
5.592,-0.255,0.200
5.594,-0.260,0.205
5.596,-0.215,0.210
5.598,-0.095,0.210
5.600,0.065,0.215
5.602,0.050,0.215
5.604,0.090,0.215
5.606,0.000,0.220
5.608,-0.100,0.220
5.610,-0.210,0.215
5.612,-0.270,0.210
5.614,-0.320,0.200
5.616,-0.200,0.190
5.618,-0.095,0.175
5.620,0.015,0.160
5.622,-0.040,0.150
5.624,-0.045,0.135
5.626,-0.095,0.120
5.628,-0.225,0.110
5.630,-0.340,0.100
5.632,-0.410,0.085
5.634,-0.395,0.075
5.636,-0.380,0.060
5.638,-0.245,0.045
5.640,-0.135,0.030
5.642,-0.130,0.015
5.644,-0.135,0.005
5.646,-0.220,0.000
5.648,-0.325,0.000
5.650,-0.475,0.000
5.652,-0.475,0.000
5.654,-0.465,0.005
5.656,-0.410,0.000
5.658,-0.310,-0.005
5.660,-0.240,-0.015
5.662,-0.200,-0.030
5.664,-0.190,-0.045
5.666,-0.265,-0.055
5.668,-0.400,-0.065
5.670,-0.505,-0.065
5.672,-0.570,-0.060
5.674,-0.520,-0.055
5.676,-0.390,-0.040
5.678,-0.250,-0.030
5.680,-0.205,-0.020
5.682,-0.190,-0.015
5.684,-0.165,-0.015
5.686,-0.260,-0.020
5.688,-0.405,-0.030
5.690,-0.520,-0.040
5.692,-0.550,-0.045
5.694,-0.525,-0.050
5.696,-0.415,-0.055
5.698,-0.295,-0.055
5.700,-0.220,-0.050
5.702,-0.195,-0.045
5.704,-0.220,-0.040
5.706,-0.270,-0.040
5.708,-0.415,-0.035
5.710,-0.480,-0.035
5.712,-0.470,-0.035
5.714,-0.485,-0.035
5.716,-0.385,-0.040
5.718,-0.280,-0.045
5.720,-0.225,-0.045
5.722,-0.195,-0.050
5.724,-0.235,-0.050
5.726,-0.280,-0.050
5.728,-0.445,-0.050
5.730,-0.520,-0.045
5.732,-0.555,-0.040
5.734,-0.445,-0.035
5.736,-0.300,-0.030
5.738,-0.255,-0.025
5.740,-0.215,-0.025
5.742,-0.185,-0.025
5.744,-0.230,-0.025
5.746,-0.330,-0.030
5.748,-0.445,-0.035
5.750,-0.475,-0.040
5.752,-0.525,-0.050
5.754,-0.510,-0.055
5.756,-0.405,-0.060
5.758,-0.260,-0.060
5.760,-0.175,-0.060
5.762,-0.135,-0.055
5.764,-0.250,-0.055
5.766,-0.325,-0.050
5.768,-0.470,-0.045
5.770,-0.520,-0.045
5.772,-0.515,-0.040
5.774,-0.425,-0.035
5.776,-0.390,-0.035
5.778,-0.285,-0.030
5.780,-0.150,-0.030
5.782,-0.160,-0.030
5.784,-0.225,-0.030
5.786,-0.340,-0.030
5.788,-0.475,-0.030
5.790,-0.515,-0.030
5.792,-0.495,-0.030
5.794,-0.465,-0.030
5.796,-0.360,-0.030
5.798,-0.205,-0.030
5.800,-0.185,-0.025
5.802,-0.125,-0.025
5.804,-0.180,-0.020
5.806,-0.325,-0.020
5.808,-0.465,-0.020
5.810,-0.525,-0.020
5.812,-0.500,-0.020
5.814,-0.430,-0.025
5.816,-0.350,-0.030
5.818,-0.195,-0.035
5.820,-0.205,-0.040
5.822,-0.190,-0.040
5.824,-0.205,-0.040
5.826,-0.340,-0.040
5.828,-0.460,-0.040
5.830,-0.520,-0.040
5.832,-0.515,-0.035
5.834,-0.420,-0.035
5.836,-0.360,-0.030
5.838,-0.225,-0.030
5.840,-0.180,-0.030
5.842,-0.115,-0.030
5.844,-0.240,-0.030
5.846,-0.335,-0.030
5.848,-0.465,-0.030
5.850,-0.520,-0.035
5.852,-0.490,-0.035
5.854,-0.455,-0.035
5.856,-0.335,-0.035
5.858,-0.235,-0.040
5.860,-0.195,-0.040
5.862,-0.150,-0.040
5.864,-0.220,-0.045
5.866,-0.405,-0.045
5.868,-0.450,-0.045
5.870,-0.495,-0.045
5.872,-0.515,-0.045
5.874,-0.440,-0.040
5.876,-0.355,-0.035
5.878,-0.215,-0.030
5.880,-0.170,-0.025
5.882,-0.165,-0.025
5.884,-0.175,-0.020
5.886,-0.330,-0.025
5.888,-0.480,-0.025
5.890,-0.565,-0.030
5.892,-0.515,-0.040
5.894,-0.475,-0.045
5.896,-0.320,-0.045
5.898,-0.185,-0.045
5.900,-0.150,-0.045
5.902,-0.190,-0.040
5.904,-0.285,-0.035
5.906,-0.360,-0.030
5.908,-0.485,-0.020
5.910,-0.505,-0.020
5.912,-0.485,-0.015
5.914,-0.415,-0.015
5.916,-0.335,-0.020
5.918,-0.165,-0.020
5.920,-0.160,-0.025
5.922,-0.175,-0.030
5.924,-0.290,-0.030
5.926,-0.390,-0.035
5.928,-0.465,-0.040
5.930,-0.455,-0.045
5.932,-0.480,-0.045
5.934,-0.455,-0.050
5.936,-0.350,-0.055
5.938,-0.235,-0.055
5.940,-0.205,-0.055
5.942,-0.195,-0.055
5.944,-0.270,-0.050
5.946,-0.400,-0.045
5.948,-0.495,-0.040
5.950,-0.505,-0.035
5.952,-0.480,-0.035
5.954,-0.435,-0.035
5.956,-0.275,-0.040
5.958,-0.150,-0.040
5.960,-0.210,-0.045
5.962,-0.220,-0.050
5.964,-0.340,-0.050
5.966,-0.365,-0.050
5.968,-0.455,-0.045
5.970,-0.515,-0.045
5.972,-0.455,-0.040
5.974,-0.435,-0.040
5.976,-0.305,-0.035
5.978,-0.235,-0.035
5.980,-0.160,-0.035
5.982,-0.195,-0.035
5.984,-0.260,-0.035
5.986,-0.385,-0.035
5.988,-0.480,-0.035
5.990,-0.525,-0.035
5.992,-0.475,-0.040
5.994,-0.420,-0.045
5.996,-0.275,-0.050
5.998,-0.225,-0.055
6.000,-0.235,-0.060
6.002,-0.205,-0.060
6.004,-0.275,-0.065
6.006,-0.430,-0.060
6.008,-0.515,-0.060
6.010,-0.555,-0.050
6.012,-0.465,-0.045
6.014,-0.395,-0.035
6.016,-0.270,-0.030
6.018,-0.165,-0.030
6.020,-0.155,-0.030
6.022,-0.230,-0.030
6.024,-0.270,-0.030
6.026,-0.420,-0.030
6.028,-0.450,-0.030
6.030,-0.525,-0.030
6.032,-0.505,-0.030
6.034,-0.410,-0.030
6.036,-0.235,-0.035
6.038,-0.160,-0.035
6.040,-0.180,-0.035
6.042,-0.200,-0.040
6.044,-0.310,-0.040
6.046,-0.415,-0.040
6.048,-0.525,-0.035
6.050,-0.505,-0.035
6.052,-0.435,-0.030
6.054,-0.360,-0.025
6.056,-0.285,-0.025
6.058,-0.170,-0.025
6.060,-0.125,-0.030
6.062,-0.225,-0.030
6.064,-0.260,-0.035
6.066,-0.435,-0.040
6.068,-0.510,-0.035
6.070,-0.500,-0.030
6.072,-0.465,-0.025
6.074,-0.350,-0.015
6.076,-0.180,-0.010
6.078,-0.160,-0.005
6.080,-0.135,0.000
6.082,-0.190,0.000
6.084,-0.270,-0.005
6.086,-0.415,-0.010
6.088,-0.460,-0.010
6.090,-0.425,-0.010
6.092,-0.465,-0.010
6.094,-0.370,-0.010
6.096,-0.180,-0.005
6.098,-0.145,-0.005
6.100,-0.145,-0.010
6.102,-0.220,-0.015
6.104,-0.315,-0.025
6.106,-0.475,-0.035
6.108,-0.490,-0.045
6.110,-0.530,-0.055
6.112,-0.450,-0.060
6.114,-0.365,-0.060
6.116,-0.255,-0.055
6.118,-0.215,-0.050
6.120,-0.160,-0.045
6.122,-0.255,-0.040
6.124,-0.335,-0.035
6.126,-0.440,-0.035
6.128,-0.530,-0.035
6.130,-0.520,-0.040
6.132,-0.425,-0.040
6.134,-0.335,-0.035
6.136,-0.185,-0.035
6.138,-0.125,-0.030
6.140,-0.165,-0.025
6.142,-0.235,-0.020
6.144,-0.350,-0.020
6.146,-0.485,-0.020
6.148,-0.495,-0.030
6.150,-0.485,-0.035
6.152,-0.480,-0.045
6.154,-0.360,-0.055
6.156,-0.190,-0.055
6.158,-0.185,-0.060
6.160,-0.180,-0.055
6.162,-0.260,-0.050
6.164,-0.340,-0.045
6.166,-0.495,-0.040
6.168,-0.500,-0.035
6.170,-0.490,-0.035
6.172,-0.460,-0.030
6.174,-0.310,-0.025
6.176,-0.185,-0.005
6.178,-0.120,0.025
6.180,-0.015,0.070
6.182,-0.075,0.130
6.184,-0.120,0.195
6.186,-0.140,0.270
6.188,-0.095,0.340
6.190,-0.055,0.400
6.192,0.095,0.440
6.194,0.245,0.460
6.196,0.315,0.450
6.198,0.275,0.415
6.200,0.195,0.355
6.202,0.025,0.280
6.204,-0.170,0.190
6.206,-0.365,0.095
6.208,-0.520,0.005
6.210,-0.555,-0.080
6.212,-0.560,-0.155
6.214,-0.465,-0.210
6.216,-0.490,-0.255
6.218,-0.425,-0.285
6.220,-0.410,-0.295
6.222,-0.495,-0.290
6.224,-0.605,-0.275
6.226,-0.680,-0.250
6.228,-0.675,-0.225
6.230,-0.625,-0.195
6.232,-0.595,-0.170
6.234,-0.410,-0.150
6.236,-0.250,-0.135
6.238,-0.250,-0.125
6.240,-0.250,-0.115
6.242,-0.305,-0.110
6.244,-0.450,-0.095
6.246,-0.535,-0.080
6.248,-0.530,-0.060
6.250,-0.475,-0.040
6.252,-0.400,-0.020
6.254,-0.230,-0.005
6.256,-0.155,0.005
6.258,-0.085,0.010
6.260,-0.175,0.005
6.262,-0.260,0.000
6.264,-0.390,-0.005
6.266,-0.465,-0.015
6.268,-0.470,-0.020
6.270,-0.460,-0.020
6.272,-0.405,-0.015
6.274,-0.210,-0.015
6.276,-0.165,-0.010
6.278,-0.175,-0.005
6.280,-0.175,-0.005
6.282,-0.210,-0.010
6.284,-0.410,-0.010
6.286,-0.465,-0.015
6.288,-0.435,-0.015
6.290,-0.415,-0.010
6.292,-0.350,0.000
6.294,-0.200,0.010
6.296,-0.125,0.020
6.298,-0.115,0.030
6.300,-0.165,0.035
6.302,-0.205,0.030
6.304,-0.365,0.025
6.306,-0.435,0.015
6.308,-0.525,0.010
6.310,-0.390,0.005
6.312,-0.335,0.000
6.314,-0.230,0.005
6.316,-0.160,0.015
6.318,-0.065,0.025
6.320,-0.120,0.040
6.322,-0.220,0.050
6.324,-0.355,0.055
6.326,-0.395,0.055
6.328,-0.455,0.050
6.330,-0.440,0.040
6.332,-0.325,0.030
6.334,-0.110,0.025
6.336,-0.085,0.020
6.338,-0.070,0.020
6.340,-0.150,0.030
6.342,-0.245,0.040
6.344,-0.360,0.055
6.346,-0.350,0.075
6.348,-0.370,0.085
6.350,-0.345,0.095
6.352,-0.285,0.100
6.354,-0.085,0.095
6.356,-0.070,0.090
6.358,-0.080,0.085
6.360,-0.090,0.080
6.362,-0.115,0.075
6.364,-0.290,0.080
6.366,-0.380,0.090
6.368,-0.375,0.105
6.370,-0.315,0.120
6.372,-0.225,0.135
6.374,-0.045,0.150
6.376,0.025,0.155
6.378,0.035,0.155
6.380,-0.020,0.155
6.382,-0.175,0.145
6.384,-0.275,0.140
6.386,-0.305,0.135
6.388,-0.260,0.135
6.390,-0.265,0.145
6.392,-0.150,0.155
6.394,-0.010,0.165
6.396,0.025,0.180
6.398,0.075,0.195
6.400,-0.040,0.200
6.402,-0.060,0.205
6.404,-0.190,0.205
6.406,-0.235,0.205
6.408,-0.255,0.205
6.410,-0.215,0.205
6.412,-0.125,0.205
6.414,0.090,0.210
6.416,0.070,0.215
6.418,0.090,0.220
6.420,0.030,0.220
6.422,-0.090,0.220
6.424,-0.255,0.215
6.426,-0.265,0.205
6.428,-0.210,0.200
6.430,-0.205,0.190
6.432,-0.090,0.185
6.434,0.025,0.185
6.436,0.115,0.185
6.438,0.060,0.190
6.440,-0.010,0.190
6.442,-0.135,0.185
6.444,-0.290,0.180
6.446,-0.270,0.165
6.448,-0.345,0.145
6.450,-0.320,0.125
6.452,-0.165,0.100
6.454,-0.070,0.085
6.456,-0.040,0.070
6.458,-0.075,0.060
6.460,-0.170,0.055
6.462,-0.295,0.055
6.464,-0.410,0.050
6.466,-0.395,0.040
6.468,-0.400,0.030
6.470,-0.405,0.015
6.472,-0.255,0.000
6.474,-0.135,-0.015
6.476,-0.165,-0.030
6.478,-0.145,-0.040
6.480,-0.285,-0.045
6.482,-0.365,-0.045
6.484,-0.470,-0.040
6.486,-0.445,-0.030
6.488,-0.475,-0.025
6.490,-0.455,-0.025
6.492,-0.295,-0.025
6.494,-0.190,-0.030
6.496,-0.170,-0.040
6.498,-0.190,-0.050
6.500,-0.245,-0.055
6.502,-0.335,-0.065
6.504,-0.495,-0.065
6.506,-0.530,-0.065
6.508,-0.485,-0.065
6.510,-0.415,-0.065
6.512,-0.310,-0.060
6.514,-0.210,-0.060
6.516,-0.185,-0.055
6.518,-0.195,-0.055
6.520,-0.235,-0.050
6.522,-0.365,-0.045
6.524,-0.455,-0.045
6.526,-0.535,-0.045
6.528,-0.510,-0.045
6.530,-0.460,-0.050
6.532,-0.270,-0.050
6.534,-0.150,-0.055
6.536,-0.170,-0.060
6.538,-0.180,-0.060
6.540,-0.255,-0.060
6.542,-0.425,-0.055
6.544,-0.480,-0.050
6.546,-0.515,-0.045
6.548,-0.435,-0.035
6.550,-0.410,-0.030
6.552,-0.270,-0.030
6.554,-0.150,-0.035
6.556,-0.095,-0.040
6.558,-0.190,-0.045
6.560,-0.275,-0.050
6.562,-0.390,-0.050
6.564,-0.475,-0.050
6.566,-0.505,-0.050
6.568,-0.445,-0.045
6.570,-0.405,-0.040
6.572,-0.230,-0.035
6.574,-0.205,-0.030
6.576,-0.185,-0.030
6.578,-0.220,-0.035
6.580,-0.270,-0.035
6.582,-0.420,-0.040
6.584,-0.440,-0.045
6.586,-0.475,-0.045
6.588,-0.495,-0.045
6.590,-0.365,-0.040
6.592,-0.255,-0.035
6.594,-0.140,-0.035
6.596,-0.165,-0.030
6.598,-0.170,-0.025
6.600,-0.270,-0.020
6.602,-0.395,-0.020
6.604,-0.440,-0.020
6.606,-0.510,-0.020
6.608,-0.475,-0.020
6.610,-0.395,-0.020
6.612,-0.210,-0.020
6.614,-0.170,-0.025
6.616,-0.095,-0.025
6.618,-0.165,-0.025
6.620,-0.290,-0.030
6.622,-0.435,-0.030
6.624,-0.480,-0.025
6.626,-0.485,-0.025
6.628,-0.420,-0.025
6.630,-0.340,-0.025
6.632,-0.190,-0.025
6.634,-0.140,-0.025
6.636,-0.160,-0.025
6.638,-0.235,-0.030
6.640,-0.300,-0.030
6.642,-0.435,-0.035
6.644,-0.475,-0.040
6.646,-0.515,-0.045
6.648,-0.465,-0.050
6.650,-0.345,-0.055
6.652,-0.205,-0.055
6.654,-0.200,-0.055
6.656,-0.155,-0.055
6.658,-0.190,-0.050
6.660,-0.275,-0.045
6.662,-0.450,-0.040
6.664,-0.505,-0.040
6.666,-0.475,-0.035
6.668,-0.440,-0.035
6.670,-0.300,-0.035
6.672,-0.240,-0.035
6.674,-0.190,-0.040
6.676,-0.165,-0.040
6.678,-0.190,-0.045
6.680,-0.305,-0.045
6.682,-0.460,-0.040
6.684,-0.475,-0.040
6.686,-0.495,-0.035
6.688,-0.415,-0.030
6.690,-0.315,-0.025
6.692,-0.165,-0.025
6.694,-0.095,-0.025
6.696,-0.175,-0.025
6.698,-0.300,-0.030
6.700,-0.300,-0.030
6.702,-0.435,-0.030
6.704,-0.465,-0.030
6.706,-0.475,-0.030
6.708,-0.430,-0.030
6.710,-0.315,-0.030
6.712,-0.170,-0.035
6.714,-0.145,-0.035
6.716,-0.190,-0.035
6.718,-0.210,-0.035
6.720,-0.295,-0.040
6.722,-0.425,-0.040
6.724,-0.520,-0.040
6.726,-0.555,-0.045
6.728,-0.435,-0.045
6.730,-0.340,-0.050
6.732,-0.205,-0.050
6.734,-0.150,-0.050
6.736,-0.130,-0.050
6.738,-0.195,-0.050
6.740,-0.355,-0.045
6.742,-0.520,-0.040
6.744,-0.495,-0.035
6.746,-0.495,-0.035
6.748,-0.415,-0.030
6.750,-0.295,-0.030
6.752,-0.180,-0.030
6.754,-0.145,-0.030
6.756,-0.180,-0.030
6.758,-0.230,-0.030
6.760,-0.330,-0.030
6.762,-0.445,-0.030
6.764,-0.480,-0.035
6.766,-0.455,-0.035
6.768,-0.415,-0.035
6.770,-0.275,-0.040
6.772,-0.190,-0.040
6.774,-0.175,-0.040
6.776,-0.175,-0.040
6.778,-0.215,-0.040
6.780,-0.335,-0.035
6.782,-0.465,-0.030
6.784,-0.490,-0.030
6.786,-0.485,-0.030
6.788,-0.385,-0.035
6.790,-0.280,-0.045
6.792,-0.170,-0.055
6.794,-0.195,-0.065
6.796,-0.190,-0.070
6.798,-0.255,-0.075
6.800,-0.355,-0.070
6.802,-0.430,-0.060
6.804,-0.475,-0.050
6.806,-0.500,-0.040
6.808,-0.405,-0.030
6.810,-0.240,-0.025
6.812,-0.175,-0.030
6.814,-0.160,-0.035
6.816,-0.160,-0.045
6.818,-0.295,-0.055
6.820,-0.380,-0.060
6.822,-0.455,-0.055
6.824,-0.445,-0.050
6.826,-0.460,-0.040
6.828,-0.355,-0.030
6.830,-0.200,-0.025
6.832,-0.210,-0.020
6.834,-0.195,-0.020
6.836,-0.180,-0.030
6.838,-0.225,-0.040
6.840,-0.350,-0.045
6.842,-0.485,-0.055
6.844,-0.530,-0.055
6.846,-0.465,-0.055
6.848,-0.365,-0.050
6.850,-0.230,-0.040
6.852,-0.135,-0.035
6.854,-0.160,-0.035
6.856,-0.135,-0.035
6.858,-0.260,-0.040
6.860,-0.460,-0.045
6.862,-0.475,-0.045
6.864,-0.510,-0.050
6.866,-0.445,-0.045
6.868,-0.365,-0.040
6.870,-0.245,-0.035
6.872,-0.155,-0.030
6.874,-0.110,-0.025
6.876,-0.165,-0.025
6.878,-0.235,-0.025
6.880,-0.380,-0.025
6.882,-0.460,-0.030
6.884,-0.470,-0.030
6.886,-0.440,-0.030
6.888,-0.345,-0.030
6.890,-0.190,-0.025
6.892,-0.170,-0.020
6.894,-0.110,-0.015
6.896,-0.155,-0.010
6.898,-0.260,-0.010
6.900,-0.380,-0.010
6.902,-0.475,-0.015
6.904,-0.475,-0.010
6.906,-0.410,-0.010
6.908,-0.335,-0.005
6.910,-0.150,0.005
6.912,-0.065,0.015
6.914,-0.085,0.020
6.916,-0.115,0.025
6.918,-0.220,0.025
6.920,-0.345,0.015
6.922,-0.440,0.005
6.924,-0.510,-0.010
6.926,-0.450,-0.025
6.928,-0.345,-0.035
6.930,-0.235,-0.045
6.932,-0.140,-0.050
6.934,-0.165,-0.050
6.936,-0.220,-0.045
6.938,-0.255,-0.045
6.940,-0.405,-0.040
6.942,-0.485,-0.040
6.944,-0.475,-0.045
6.946,-0.445,-0.045
6.948,-0.340,-0.050
6.950,-0.210,-0.050
6.952,-0.130,-0.050
6.954,-0.150,-0.045
6.956,-0.160,-0.040
6.958,-0.305,-0.030
6.960,-0.430,-0.025
6.962,-0.425,-0.025
6.964,-0.385,-0.025
6.966,-0.475,-0.030
6.968,-0.370,-0.035
6.970,-0.205,-0.045
6.972,-0.145,-0.050
6.974,-0.180,-0.055
6.976,-0.230,-0.055
6.978,-0.300,-0.055
6.980,-0.425,-0.050
6.982,-0.455,-0.040
6.984,-0.460,-0.035
6.986,-0.415,-0.030
6.988,-0.325,-0.030
6.990,-0.205,-0.035
6.992,-0.165,-0.040
6.994,-0.140,-0.045
6.996,-0.210,-0.050
6.998,-0.255,-0.050
7.000,-0.465,-0.045
7.002,-0.490,-0.035
7.004,-0.450,-0.010
7.006,-0.335,0.025
7.008,-0.175,0.070
7.010,0.005,0.125
7.012,0.105,0.190
7.014,0.155,0.260
7.016,0.165,0.325
7.018,0.150,0.380
7.020,0.055,0.415
7.022,0.070,0.435
7.024,0.095,0.425
7.026,0.010,0.395
7.028,0.000,0.335
7.030,0.120,0.260
7.032,0.055,0.175
7.034,-0.005,0.080
7.036,-0.220,-0.010
7.038,-0.445,-0.090
7.040,-0.555,-0.155
7.042,-0.650,-0.205
7.044,-0.755,-0.245
7.046,-0.675,-0.270
7.048,-0.475,-0.280
7.050,-0.380,-0.280
7.052,-0.385,-0.275
7.054,-0.395,-0.260
7.056,-0.415,-0.245
7.058,-0.470,-0.220
7.060,-0.665,-0.195
7.062,-0.590,-0.170
7.064,-0.530,-0.145
7.066,-0.470,-0.120
7.068,-0.320,-0.100
7.070,-0.215,-0.085
7.072,-0.175,-0.075
7.074,-0.165,-0.065
7.076,-0.220,-0.055
7.078,-0.350,-0.045
7.080,-0.480,-0.040
7.082,-0.460,-0.035
7.084,-0.420,-0.025
7.086,-0.375,-0.025
7.088,-0.250,-0.020
7.090,-0.165,-0.020
7.092,-0.145,-0.020
7.094,-0.150,-0.020
7.096,-0.160,-0.020
7.098,-0.315,-0.020
7.100,-0.440,-0.020
7.102,-0.465,-0.015
7.104,-0.440,-0.010
7.106,-0.315,0.000
7.108,-0.175,0.000
7.110,-0.105,0.005
7.112,-0.095,0.005
7.114,-0.135,0.005
7.116,-0.205,0.005
7.118,-0.390,0.005
7.120,-0.400,0.000
7.122,-0.435,0.000
7.124,-0.420,-0.005
7.126,-0.305,-0.005
7.128,-0.180,-0.010
7.130,-0.150,-0.010
7.132,-0.090,-0.005
7.134,-0.100,0.000
7.136,-0.160,0.005
7.138,-0.365,0.010
7.140,-0.365,0.020
7.142,-0.395,0.025
7.144,-0.390,0.030
7.146,-0.310,0.035
7.148,-0.185,0.030
7.150,-0.110,0.025
7.152,-0.100,0.015
7.154,-0.105,0.010
7.156,-0.150,0.005
7.158,-0.325,0.000
7.160,-0.405,0.000
7.162,-0.410,0.005
7.164,-0.395,0.015
7.166,-0.250,0.025
7.168,-0.130,0.035
7.170,-0.095,0.045
7.172,-0.030,0.050
7.174,-0.095,0.055
7.176,-0.195,0.060
7.178,-0.320,0.060
7.180,-0.350,0.065
7.182,-0.345,0.070
7.184,-0.300,0.070
7.186,-0.225,0.075
7.188,-0.110,0.080
7.190,-0.015,0.080
7.192,0.020,0.085
7.194,-0.030,0.090
7.196,-0.110,0.090
7.198,-0.295,0.095
7.200,-0.340,0.100
7.202,-0.305,0.105
7.204,-0.300,0.110
7.206,-0.220,0.115
7.208,-0.030,0.120
7.210,0.025,0.130
7.212,0.075,0.135
7.214,-0.015,0.145
7.216,-0.075,0.155
7.218,-0.180,0.165
7.220,-0.270,0.175
7.222,-0.275,0.180
7.224,-0.195,0.185
7.226,-0.050,0.190
7.228,0.085,0.185
7.230,0.085,0.185
7.232,0.030,0.180
7.234,0.045,0.180
7.236,-0.015,0.180
7.238,-0.205,0.185
7.240,-0.240,0.195
7.242,-0.275,0.205
7.244,-0.120,0.220
7.246,-0.050,0.225
7.248,0.055,0.230
7.250,0.105,0.230
7.252,0.110,0.220
7.254,0.065,0.210
7.256,-0.010,0.200
7.258,-0.190,0.185
7.260,-0.240,0.175
7.262,-0.230,0.165
7.264,-0.180,0.160
7.266,-0.095,0.160
7.268,0.040,0.160
7.270,0.055,0.155
7.272,0.075,0.150
7.274,-0.085,0.140
7.276,-0.130,0.130
7.278,-0.285,0.115
7.280,-0.345,0.095
7.282,-0.345,0.080
7.284,-0.265,0.060
7.286,-0.235,0.045
7.288,-0.120,0.035
7.290,-0.080,0.025
7.292,-0.065,0.020
7.294,-0.100,0.015
7.296,-0.265,0.015
7.298,-0.390,0.010
7.300,-0.405,0.010
7.302,-0.435,0.010
7.304,-0.395,0.010
7.306,-0.265,0.000
7.308,-0.155,-0.005
7.310,-0.100,-0.015
7.312,-0.140,-0.030
7.314,-0.205,-0.040
7.316,-0.305,-0.050
7.318,-0.485,-0.055
7.320,-0.455,-0.060
7.322,-0.445,-0.060
7.324,-0.375,-0.055
7.326,-0.360,-0.050
7.328,-0.175,-0.045
7.330,-0.135,-0.040
7.332,-0.080,-0.040
7.334,-0.220,-0.035
7.336,-0.320,-0.035
7.338,-0.450,-0.040
7.340,-0.515,-0.040
7.342,-0.505,-0.045
7.344,-0.390,-0.045
7.346,-0.225,-0.045
7.348,-0.165,-0.045
7.350,-0.125,-0.045
7.352,-0.145,-0.045
7.354,-0.225,-0.045
7.356,-0.360,-0.045
7.358,-0.455,-0.045
7.360,-0.490,-0.045
7.362,-0.470,-0.050
7.364,-0.365,-0.050
7.366,-0.255,-0.050
7.368,-0.135,-0.055
7.370,-0.160,-0.050
7.372,-0.155,-0.050
7.374,-0.210,-0.045
7.376,-0.355,-0.040
7.378,-0.470,-0.035
7.380,-0.460,-0.030
7.382,-0.440,-0.025
7.384,-0.395,-0.020
7.386,-0.230,-0.020
7.388,-0.125,-0.025
7.390,-0.095,-0.030
7.392,-0.180,-0.035
7.394,-0.225,-0.040
7.396,-0.380,-0.050
7.398,-0.445,-0.050
7.400,-0.450,-0.055
7.402,-0.470,-0.055
7.404,-0.340,-0.055
7.406,-0.255,-0.050
7.408,-0.175,-0.050
7.410,-0.135,-0.045
7.412,-0.165,-0.045
7.414,-0.245,-0.040
7.416,-0.355,-0.040
7.418,-0.400,-0.040
7.420,-0.445,-0.040
7.422,-0.485,-0.040
7.424,-0.410,-0.035
7.426,-0.195,-0.035
7.428,-0.165,-0.035
7.430,-0.095,-0.030
7.432,-0.110,-0.030
7.434,-0.195,-0.030
7.436,-0.360,-0.035
7.438,-0.450,-0.035
7.440,-0.475,-0.035
7.442,-0.430,-0.035
7.444,-0.365,-0.035
7.446,-0.190,-0.035
7.448,-0.160,-0.040
7.450,-0.115,-0.040
7.452,-0.165,-0.040
7.454,-0.220,-0.040
7.456,-0.385,-0.040
7.458,-0.435,-0.040
7.460,-0.460,-0.040
7.462,-0.415,-0.045
7.464,-0.310,-0.045
7.466,-0.190,-0.045
7.468,-0.155,-0.045
7.470,-0.115,-0.040
7.472,-0.175,-0.040
7.474,-0.275,-0.040
7.476,-0.425,-0.035
7.478,-0.425,-0.035
7.480,-0.460,-0.035
7.482,-0.410,-0.030
7.484,-0.365,-0.030
7.486,-0.195,-0.035
7.488,-0.135,-0.035
7.490,-0.115,-0.035
7.492,-0.205,-0.040
7.494,-0.290,-0.045
7.496,-0.370,-0.050
7.498,-0.455,-0.055
7.500,-0.490,-0.055
7.502,-0.425,-0.055
7.504,-0.310,-0.055
7.506,-0.195,-0.055
7.508,-0.160,-0.050
7.510,-0.125,-0.040
7.512,-0.190,-0.035
7.514,-0.260,-0.030
7.516,-0.375,-0.025
7.518,-0.475,-0.025
7.520,-0.410,-0.025
7.522,-0.410,-0.030
7.524,-0.350,-0.040
7.526,-0.230,-0.045
7.528,-0.115,-0.050
7.530,-0.115,-0.055
7.532,-0.210,-0.055
7.534,-0.230,-0.050
7.536,-0.440,-0.045
7.538,-0.495,-0.040
7.540,-0.440,-0.040
7.542,-0.370,-0.040
7.544,-0.310,-0.040
7.546,-0.170,-0.045
7.548,-0.165,-0.050
7.550,-0.135,-0.055
7.552,-0.170,-0.055
7.554,-0.265,-0.055
7.556,-0.425,-0.055
7.558,-0.465,-0.055
7.560,-0.505,-0.055
7.562,-0.420,-0.050
7.564,-0.305,-0.050
7.566,-0.205,-0.050
7.568,-0.160,-0.055
7.570,-0.125,-0.055
7.572,-0.165,-0.055
7.574,-0.260,-0.055
7.576,-0.425,-0.055
7.578,-0.480,-0.050
7.580,-0.455,-0.045
7.582,-0.365,-0.040
7.584,-0.315,-0.040
7.586,-0.175,-0.040
7.588,-0.145,-0.045
7.590,-0.135,-0.045
7.592,-0.185,-0.050
7.594,-0.295,-0.055
7.596,-0.475,-0.055
7.598,-0.470,-0.055
7.600,-0.440,-0.055
7.602,-0.355,-0.055
7.604,-0.295,-0.050
7.606,-0.190,-0.045
7.608,-0.185,-0.040
7.610,-0.115,-0.035
7.612,-0.150,-0.030
7.614,-0.280,-0.025
7.616,-0.400,-0.025
7.618,-0.485,-0.030
7.620,-0.455,-0.035
7.622,-0.375,-0.040
7.624,-0.275,-0.050
7.626,-0.230,-0.055
7.628,-0.170,-0.065
7.630,-0.150,-0.070
7.632,-0.235,-0.075
7.634,-0.375,-0.075
7.636,-0.445,-0.070
7.638,-0.505,-0.065
7.640,-0.455,-0.055
7.642,-0.360,-0.045
7.644,-0.240,-0.035
7.646,-0.140,-0.030
7.648,-0.125,-0.025
7.650,-0.125,-0.025
7.652,-0.185,-0.030
7.654,-0.320,-0.030
7.656,-0.410,-0.035
7.658,-0.440,-0.035
7.660,-0.465,-0.035
7.662,-0.395,-0.035
7.664,-0.250,-0.035
7.666,-0.125,-0.030
7.668,-0.100,-0.030
7.670,-0.140,-0.030
7.672,-0.205,-0.030
7.674,-0.350,-0.030
7.676,-0.430,-0.030
7.678,-0.425,-0.035
7.680,-0.425,-0.035
7.682,-0.335,-0.035
7.684,-0.225,-0.035
7.686,-0.160,-0.040
7.688,-0.120,-0.040
7.690,-0.135,-0.040
7.692,-0.210,-0.035
7.694,-0.330,-0.035
7.696,-0.405,-0.030
7.698,-0.445,-0.030
7.700,-0.410,-0.025
7.702,-0.315,-0.020
7.704,-0.190,-0.015
7.706,-0.110,-0.010
7.708,-0.065,-0.005
7.710,-0.095,0.000
7.712,-0.165,0.000
7.714,-0.350,0.000
7.716,-0.460,-0.005
7.718,-0.415,-0.010
7.720,-0.365,-0.020
7.722,-0.350,-0.035
7.724,-0.220,-0.045
7.726,-0.175,-0.060
7.728,-0.165,-0.070
7.730,-0.180,-0.075
7.732,-0.315,-0.075
7.734,-0.445,-0.070
7.736,-0.435,-0.065
7.738,-0.515,-0.060
7.740,-0.410,-0.050
7.742,-0.335,-0.045
7.744,-0.170,-0.040
7.746,-0.165,-0.040
7.748,-0.125,-0.040
7.750,-0.150,-0.040
7.752,-0.210,-0.040
7.754,-0.370,-0.040
7.756,-0.420,-0.040
7.758,-0.450,-0.030
7.760,-0.420,-0.025
7.762,-0.365,-0.020
7.764,-0.185,-0.015
7.766,-0.145,-0.015
7.768,-0.115,-0.020
7.770,-0.150,-0.025
7.772,-0.260,-0.030
7.774,-0.390,-0.035
7.776,-0.480,-0.040
7.778,-0.475,-0.045
7.780,-0.390,-0.045
7.782,-0.310,-0.040
7.784,-0.180,-0.035
7.786,-0.140,-0.035
7.788,-0.105,-0.030
7.790,-0.135,-0.030
7.792,-0.205,-0.020
7.794,-0.380,-0.010
7.796,-0.425,0.015
7.798,-0.420,0.045
7.800,-0.245,0.095
7.802,-0.085,0.155
7.804,0.130,0.225
7.806,0.185,0.295
7.808,0.285,0.365
7.810,0.285,0.420
7.812,0.290,0.460
7.814,0.145,0.470
7.816,0.065,0.450
7.818,-0.010,0.400
7.820,-0.085,0.330
7.822,-0.110,0.240
7.824,0.025,0.140
7.826,-0.065,0.040
7.828,-0.135,-0.050
7.830,-0.240,-0.125
7.832,-0.435,-0.180
7.834,-0.685,-0.220
7.836,-0.680,-0.250
7.838,-0.695,-0.265
7.840,-0.655,-0.270
7.842,-0.535,-0.270
7.844,-0.395,-0.270
7.846,-0.370,-0.270
7.848,-0.305,-0.260
7.850,-0.350,-0.245
7.852,-0.425,-0.225
7.854,-0.545,-0.200
7.856,-0.560,-0.170
7.858,-0.555,-0.135
7.860,-0.480,-0.100
7.862,-0.345,-0.070
7.864,-0.150,-0.050
7.866,-0.095,-0.035
7.868,-0.095,-0.025
7.870,-0.145,-0.020
7.872,-0.295,-0.015
7.874,-0.430,-0.015
7.876,-0.445,-0.010
7.878,-0.410,-0.005
7.880,-0.345,0.000
7.882,-0.255,0.005
7.884,-0.120,0.005
7.886,-0.055,0.010
7.888,-0.060,0.005
7.890,-0.205,0.005
7.892,-0.300,0.000
7.894,-0.385,0.000
7.896,-0.370,0.000
7.898,-0.390,0.000
7.900,-0.305,0.010
7.902,-0.175,0.015
7.904,-0.085,0.020
7.906,-0.080,0.025
7.908,-0.125,0.030
7.910,-0.130,0.030
7.912,-0.270,0.025
7.914,-0.365,0.020
7.916,-0.380,0.015
7.918,-0.415,0.010
7.920,-0.375,0.010
7.922,-0.185,0.010
7.924,-0.090,0.010
7.926,-0.090,0.010
7.928,-0.085,0.015
7.930,-0.140,0.010
7.932,-0.215,0.010
7.934,-0.400,0.005
7.936,-0.415,0.005
7.938,-0.380,0.005
7.940,-0.300,0.005
7.942,-0.190,0.010
7.944,-0.115,0.015
7.946,-0.055,0.020
7.948,-0.055,0.030
7.950,-0.115,0.040
7.952,-0.240,0.045
7.954,-0.360,0.050
7.956,-0.380,0.055
7.958,-0.360,0.055
7.960,-0.270,0.060
7.962,-0.105,0.055
7.964,-0.070,0.055
7.966,-0.005,0.055
7.968,-0.035,0.055
7.970,-0.135,0.060
7.972,-0.245,0.060
7.974,-0.325,0.065
7.976,-0.355,0.070
7.978,-0.305,0.075
7.980,-0.185,0.085
7.982,-0.060,0.095
7.984,0.015,0.100
7.986,0.010,0.110
7.988,-0.020,0.115
7.990,-0.065,0.120
7.992,-0.230,0.125
7.994,-0.290,0.130
7.996,-0.245,0.135
7.998,-0.190,0.135
8.000,-0.195,0.135
8.002,-0.025,0.135
8.004,-0.010,0.140
8.006,0.060,0.140
8.008,0.025,0.145
8.010,-0.020,0.150
8.012,-0.160,0.155
8.014,-0.215,0.160
8.016,-0.235,0.170
8.018,-0.185,0.180
8.020,-0.125,0.195
8.022,0.065,0.205
8.024,0.130,0.210
8.026,0.100,0.220
8.028,0.105,0.225
8.030,0.020,0.225
8.032,-0.135,0.225
8.034,-0.170,0.230
8.036,-0.205,0.230
8.038,-0.165,0.230
8.040,-0.090,0.230
8.042,0.070,0.230
8.044,0.175,0.235
8.046,0.170,0.235
8.048,0.145,0.230
8.050,-0.005,0.225
8.052,-0.170,0.215
8.054,-0.215,0.205
8.056,-0.210,0.190
8.058,-0.200,0.175
8.060,-0.115,0.155
8.062,-0.005,0.140
8.064,0.005,0.130
8.066,-0.005,0.120
8.068,-0.045,0.110
8.070,-0.080,0.100
8.072,-0.215,0.095
8.074,-0.315,0.085
8.076,-0.405,0.075
8.078,-0.295,0.060
8.080,-0.195,0.045
8.082,-0.145,0.025
8.084,-0.150,0.005
8.086,-0.100,-0.010
8.088,-0.125,-0.020
8.090,-0.235,-0.025
8.092,-0.340,-0.030
8.094,-0.455,-0.025
8.096,-0.430,-0.020
8.098,-0.370,-0.015
8.100,-0.300,-0.015
8.102,-0.170,-0.015
8.104,-0.150,-0.020
8.106,-0.135,-0.030
8.108,-0.170,-0.040
8.110,-0.250,-0.050
8.112,-0.445,-0.055
8.114,-0.465,-0.055
8.116,-0.425,-0.055
8.118,-0.410,-0.050
8.120,-0.340,-0.040
8.122,-0.200,-0.035
8.124,-0.135,-0.025
8.126,-0.105,-0.020
8.128,-0.155,-0.020
8.130,-0.265,-0.025
8.132,-0.420,-0.030
8.134,-0.445,-0.040
8.136,-0.475,-0.045
8.138,-0.395,-0.055
8.140,-0.290,-0.055
8.142,-0.160,-0.055
8.144,-0.150,-0.055
8.146,-0.130,-0.050
8.148,-0.190,-0.050
8.150,-0.265,-0.050
8.152,-0.420,-0.050
8.154,-0.470,-0.050
8.156,-0.465,-0.055
8.158,-0.390,-0.055
8.160,-0.275,-0.055
8.162,-0.185,-0.055
8.164,-0.130,-0.050
8.166,-0.125,-0.050
8.168,-0.200,-0.045
8.170,-0.325,-0.040
8.172,-0.410,-0.040
8.174,-0.450,-0.040
8.176,-0.460,-0.045
8.178,-0.415,-0.050
8.180,-0.315,-0.055
8.182,-0.185,-0.055
8.184,-0.105,-0.060
8.186,-0.140,-0.055
8.188,-0.240,-0.050
8.190,-0.350,-0.045
8.192,-0.340,-0.035
8.194,-0.450,-0.035
8.196,-0.455,-0.035
8.198,-0.380,-0.035
8.200,-0.305,-0.045
8.202,-0.245,-0.055
8.204,-0.115,-0.065
8.206,-0.200,-0.075
8.208,-0.220,-0.080
8.210,-0.300,-0.075
8.212,-0.440,-0.070
8.214,-0.435,-0.055
8.216,-0.445,-0.045
8.218,-0.405,-0.035
8.220,-0.270,-0.025
8.222,-0.145,-0.025
8.224,-0.115,-0.025
8.226,-0.110,-0.025
8.228,-0.165,-0.030
8.230,-0.330,-0.035
8.232,-0.420,-0.040
8.234,-0.495,-0.040
8.236,-0.460,-0.040
8.238,-0.340,-0.040
8.240,-0.220,-0.040
8.242,-0.155,-0.040
8.244,-0.135,-0.040
8.246,-0.155,-0.045
8.248,-0.215,-0.045
8.250,-0.315,-0.045
8.252,-0.430,-0.045
8.254,-0.465,-0.045
8.256,-0.415,-0.045
8.258,-0.345,-0.040
8.260,-0.220,-0.035
8.262,-0.130,-0.035
8.264,-0.145,-0.035
8.266,-0.175,-0.035
8.268,-0.225,-0.035
8.270,-0.355,-0.040
8.272,-0.445,-0.040
8.274,-0.435,-0.040
8.276,-0.390,-0.040
8.278,-0.355,-0.040
8.280,-0.240,-0.040
8.282,-0.170,-0.040
8.284,-0.095,-0.045
8.286,-0.180,-0.045
8.288,-0.295,-0.050
8.290,-0.375,-0.055
8.292,-0.430,-0.060
8.294,-0.470,-0.060
8.296,-0.450,-0.065
8.298,-0.375,-0.065
8.300,-0.250,-0.060
8.302,-0.125,-0.060
8.304,-0.085,-0.060
8.306,-0.190,-0.055
8.308,-0.265,-0.055
8.310,-0.390,-0.050
8.312,-0.445,-0.050
8.314,-0.455,-0.050
8.316,-0.430,-0.050
8.318,-0.395,-0.055
8.320,-0.210,-0.055
8.322,-0.210,-0.060
8.324,-0.145,-0.060
8.326,-0.170,-0.065
8.328,-0.240,-0.065
8.330,-0.380,-0.060
8.332,-0.445,-0.060
8.334,-0.465,-0.055
8.336,-0.415,-0.045
8.338,-0.400,-0.040
8.340,-0.160,-0.040
8.342,-0.130,-0.035
8.344,-0.175,-0.035
8.346,-0.160,-0.030
8.348,-0.245,-0.030
8.350,-0.380,-0.030
8.352,-0.455,-0.025
8.354,-0.440,-0.025
8.356,-0.410,-0.020
8.358,-0.285,-0.020
8.360,-0.175,-0.020
8.362,-0.145,-0.020
8.364,-0.145,-0.025
8.366,-0.155,-0.035
8.368,-0.235,-0.045
8.370,-0.400,-0.055
8.372,-0.465,-0.060
8.374,-0.490,-0.065
8.376,-0.450,-0.065
8.378,-0.335,-0.065
8.380,-0.160,-0.060
8.382,-0.150,-0.055
8.384,-0.165,-0.050
8.386,-0.225,-0.050
8.388,-0.260,-0.050
8.390,-0.375,-0.050
8.392,-0.500,-0.050
8.394,-0.500,-0.055
8.396,-0.375,-0.055
8.398,-0.305,-0.055
8.400,-0.195,-0.050
8.402,-0.095,-0.045
8.404,-0.150,-0.040
8.406,-0.190,-0.040
8.408,-0.290,-0.035
8.410,-0.425,-0.035
8.412,-0.445,-0.040
8.414,-0.500,-0.045
8.416,-0.430,-0.050
8.418,-0.270,-0.055
8.420,-0.150,-0.060
8.422,-0.125,-0.060
8.424,-0.135,-0.060
8.426,-0.185,-0.055
8.428,-0.285,-0.045
8.430,-0.455,-0.040
8.432,-0.455,-0.030
8.434,-0.460,-0.020
8.436,-0.395,-0.020
8.438,-0.280,-0.020
8.440,-0.140,-0.020
8.442,-0.100,-0.025
8.444,-0.105,-0.030
8.446,-0.155,-0.035
8.448,-0.270,-0.040
8.450,-0.415,-0.040
8.452,-0.485,-0.040
8.454,-0.470,-0.040
8.456,-0.395,-0.040
8.458,-0.280,-0.035
8.460,-0.150,-0.035
8.462,-0.120,-0.030
8.464,-0.115,-0.030
8.466,-0.185,-0.030
8.468,-0.305,-0.025
8.470,-0.415,-0.025
8.472,-0.425,-0.025
8.474,-0.460,-0.025
8.476,-0.410,-0.020
8.478,-0.270,-0.025
8.480,-0.090,-0.025
8.482,-0.090,-0.025
8.484,-0.150,-0.025
8.486,-0.205,-0.030
8.488,-0.280,-0.030
8.490,-0.430,-0.025
8.492,-0.420,-0.025
8.494,-0.440,-0.020
8.496,-0.365,-0.015
8.498,-0.255,-0.010
8.500,-0.180,-0.005
8.502,-0.080,-0.005
8.504,-0.105,-0.010
8.506,-0.175,-0.015
8.508,-0.325,-0.020
8.510,-0.420,-0.030
8.512,-0.430,-0.040
8.514,-0.460,-0.045
8.516,-0.385,-0.050
8.518,-0.260,-0.055
8.520,-0.155,-0.055
8.522,-0.150,-0.050
8.524,-0.140,-0.045
8.526,-0.185,-0.035
8.528,-0.325,-0.030
8.530,-0.420,-0.025
8.532,-0.430,-0.020
8.534,-0.425,-0.020
8.536,-0.390,-0.020
8.538,-0.260,-0.025
8.540,-0.165,-0.030
8.542,-0.125,-0.035
8.544,-0.105,-0.040
8.546,-0.245,-0.045
8.548,-0.360,-0.045
8.550,-0.445,-0.045
8.552,-0.505,-0.045
8.554,-0.445,-0.045
8.556,-0.370,-0.045
8.558,-0.215,-0.045
8.560,-0.175,-0.045
8.562,-0.115,-0.050
8.564,-0.215,-0.055
8.566,-0.245,-0.055
8.568,-0.310,-0.055
8.570,-0.450,-0.060
8.572,-0.490,-0.060
8.574,-0.445,-0.055
8.576,-0.355,-0.050
8.578,-0.230,-0.045
8.580,-0.135,-0.035
8.582,-0.060,-0.025
8.584,-0.130,-0.005
8.586,-0.195,0.020
8.588,-0.285,0.055
8.590,-0.300,0.100
8.592,-0.275,0.155
8.594,-0.125,0.215
8.596,-0.010,0.280
8.598,0.175,0.340
8.600,0.305,0.390
8.602,0.415,0.425
8.604,0.400,0.440
8.606,0.235,0.430
8.608,0.030,0.390
8.610,-0.150,0.330
8.612,-0.230,0.245
8.614,-0.270,0.145
8.616,-0.250,0.040
8.618,-0.265,-0.060
8.620,-0.285,-0.150
8.622,-0.345,-0.220
8.624,-0.445,-0.270
8.626,-0.475,-0.300
8.628,-0.650,-0.310
8.630,-0.745,-0.305
8.632,-0.700,-0.290
8.634,-0.670,-0.265
8.636,-0.570,-0.240
8.638,-0.390,-0.210
8.640,-0.225,-0.185
8.642,-0.210,-0.160
8.644,-0.270,-0.135
8.646,-0.325,-0.115
8.648,-0.495,-0.095
8.650,-0.525,-0.075
8.652,-0.470,-0.060
8.654,-0.410,-0.050
8.656,-0.330,-0.045
8.658,-0.210,-0.040
8.660,-0.150,-0.040
8.662,-0.130,-0.045
8.664,-0.140,-0.045
8.666,-0.275,-0.045
8.668,-0.375,-0.040
8.670,-0.435,-0.035
8.672,-0.445,-0.030
8.674,-0.410,-0.020
8.676,-0.305,-0.010
8.678,-0.170,-0.005
8.680,-0.105,0.000
8.682,-0.095,0.005
8.684,-0.155,0.005
8.686,-0.185,0.005
8.688,-0.375,0.005
8.690,-0.425,0.000
8.692,-0.475,0.000
8.694,-0.335,0.000
8.696,-0.295,0.000
8.698,-0.135,0.000
8.700,-0.095,0.000
8.702,-0.085,-0.005
8.704,-0.125,-0.005
8.706,-0.250,-0.010
8.708,-0.410,-0.010
8.710,-0.460,-0.010
8.712,-0.435,-0.010
8.714,-0.365,-0.005
8.716,-0.250,0.000
8.718,-0.080,0.000
8.720,-0.050,0.005
8.722,-0.100,0.010
8.724,-0.160,0.010
8.726,-0.270,0.010
8.728,-0.355,0.010
8.730,-0.455,0.010
8.732,-0.395,0.015
8.734,-0.335,0.020
8.736,-0.260,0.025
8.738,-0.105,0.030
8.740,-0.060,0.040
8.742,-0.025,0.045
8.744,-0.120,0.050
8.746,-0.220,0.050
8.748,-0.320,0.055
8.750,-0.410,0.055
8.752,-0.375,0.050
8.754,-0.290,0.050
8.756,-0.215,0.050
8.758,-0.070,0.050
8.760,-0.005,0.050
8.762,-0.035,0.050
8.764,-0.110,0.055
8.766,-0.200,0.060
8.768,-0.295,0.070
8.770,-0.345,0.080
8.772,-0.330,0.090
8.774,-0.265,0.100
8.776,-0.115,0.110
8.778,0.015,0.120
8.780,0.045,0.130
8.782,0.030,0.135
8.784,-0.040,0.140
8.786,-0.170,0.140
8.788,-0.300,0.140
8.790,-0.300,0.140
8.792,-0.295,0.135
8.794,-0.185,0.140
8.796,-0.080,0.145
8.798,0.045,0.155
8.800,0.080,0.165
8.802,0.045,0.175
8.804,0.010,0.185
8.806,-0.125,0.195
8.808,-0.250,0.200
8.810,-0.245,0.205
8.812,-0.155,0.205
8.814,-0.110,0.205
8.816,-0.015,0.205
8.818,0.055,0.205
8.820,0.115,0.210
8.822,0.115,0.210
8.824,0.020,0.215
8.826,-0.100,0.215
8.828,-0.230,0.215
8.830,-0.230,0.215
8.832,-0.215,0.215
8.834,-0.145,0.210
8.836,0.060,0.205
8.838,0.050,0.195
8.840,0.085,0.190
8.842,0.085,0.190
8.844,-0.040,0.185
8.846,-0.090,0.185
8.848,-0.240,0.185
8.850,-0.300,0.180
8.852,-0.215,0.175
8.854,-0.190,0.160
8.856,-0.005,0.145
8.858,-0.005,0.120
8.860,-0.025,0.100
8.862,-0.050,0.075
8.864,-0.150,0.055
8.866,-0.310,0.040
8.868,-0.380,0.025
8.870,-0.400,0.020
8.872,-0.355,0.015
8.874,-0.340,0.010
8.876,-0.165,0.010
8.878,-0.050,0.005
8.880,-0.100,0.000
8.882,-0.180,-0.005
8.884,-0.230,-0.010
8.886,-0.380,-0.020
8.888,-0.440,-0.025
8.890,-0.415,-0.030
8.892,-0.460,-0.035
8.894,-0.365,-0.035
8.896,-0.200,-0.035
8.898,-0.155,-0.035
8.900,-0.135,-0.035
8.902,-0.140,-0.035
8.904,-0.240,-0.030
8.906,-0.400,-0.030
8.908,-0.445,-0.030
8.910,-0.495,-0.035
8.912,-0.460,-0.035
8.914,-0.345,-0.035
8.916,-0.235,-0.040
8.918,-0.155,-0.040
8.920,-0.145,-0.045
8.922,-0.155,-0.045
8.924,-0.285,-0.050
8.926,-0.445,-0.050
8.928,-0.470,-0.055
8.930,-0.480,-0.055
8.932,-0.420,-0.060
8.934,-0.315,-0.060
8.936,-0.195,-0.060
8.938,-0.150,-0.065
8.940,-0.150,-0.065
8.942,-0.215,-0.065
8.944,-0.305,-0.060
8.946,-0.435,-0.060
8.948,-0.490,-0.055
8.950,-0.480,-0.055
8.952,-0.430,-0.050
8.954,-0.310,-0.050
8.956,-0.175,-0.050
8.958,-0.150,-0.050
8.960,-0.150,-0.050
8.962,-0.195,-0.045
8.964,-0.280,-0.045
8.966,-0.395,-0.040
8.968,-0.480,-0.035
8.970,-0.480,-0.030
8.972,-0.405,-0.030
8.974,-0.315,-0.025
8.976,-0.215,-0.025
8.978,-0.155,-0.030
8.980,-0.120,-0.035
8.982,-0.195,-0.035
8.984,-0.255,-0.040
8.986,-0.400,-0.045
8.988,-0.465,-0.040
8.990,-0.470,-0.040
8.992,-0.425,-0.035
8.994,-0.390,-0.030
8.996,-0.145,-0.025
8.998,-0.135,-0.025
9.000,-0.080,-0.025
9.002,-0.185,-0.025
9.004,-0.305,-0.030
9.006,-0.475,-0.030
9.008,-0.465,-0.035
9.010,-0.440,-0.035
9.012,-0.375,-0.035
9.014,-0.300,-0.035
9.016,-0.200,-0.030
9.018,-0.155,-0.030
9.020,-0.125,-0.030
9.022,-0.175,-0.035
9.024,-0.320,-0.035
9.026,-0.430,-0.040
9.028,-0.450,-0.040
9.030,-0.495,-0.040
9.032,-0.400,-0.040
9.034,-0.280,-0.040
9.036,-0.205,-0.035
9.038,-0.125,-0.035
9.040,-0.145,-0.030
9.042,-0.200,-0.030
9.044,-0.250,-0.030
9.046,-0.415,-0.030
9.048,-0.475,-0.030
9.050,-0.435,-0.030
9.052,-0.400,-0.025
9.054,-0.265,-0.025
9.056,-0.145,-0.020
9.058,-0.135,-0.020
9.060,-0.145,-0.015
9.062,-0.215,-0.020
9.064,-0.355,-0.025
9.066,-0.420,-0.030
9.068,-0.455,-0.035
9.070,-0.455,-0.045
9.072,-0.360,-0.050
9.074,-0.290,-0.050
9.076,-0.205,-0.050
9.078,-0.125,-0.045
9.080,-0.150,-0.040
9.082,-0.225,-0.030
9.084,-0.335,-0.025
9.086,-0.440,-0.020
9.088,-0.480,-0.015
9.090,-0.455,-0.020
9.092,-0.390,-0.025
9.094,-0.235,-0.030
9.096,-0.120,-0.035
9.098,-0.060,-0.035
9.100,-0.160,-0.035
9.102,-0.230,-0.030
9.104,-0.360,-0.025
9.106,-0.495,-0.020
9.108,-0.455,-0.015
9.110,-0.455,-0.015
9.112,-0.335,-0.015
9.114,-0.225,-0.020
9.116,-0.165,-0.025
9.118,-0.135,-0.030
9.120,-0.190,-0.035
9.122,-0.215,-0.035
9.124,-0.370,-0.035
9.126,-0.430,-0.030
9.128,-0.475,-0.030
9.130,-0.465,-0.030
9.132,-0.440,-0.030
9.134,-0.230,-0.035
9.136,-0.140,-0.040
9.138,-0.150,-0.045
9.140,-0.160,-0.050
9.142,-0.255,-0.045
9.144,-0.420,-0.040
9.146,-0.430,-0.030
9.148,-0.435,-0.020
9.150,-0.415,-0.010
9.152,-0.370,-0.005
9.154,-0.170,-0.010
9.156,-0.155,-0.020
9.158,-0.195,-0.035
9.160,-0.160,-0.055
9.162,-0.295,-0.070
9.164,-0.395,-0.080
9.166,-0.480,-0.080
9.168,-0.495,-0.075
9.170,-0.425,-0.065
9.172,-0.325,-0.055
9.174,-0.260,-0.040
9.176,-0.175,-0.035
9.178,-0.140,-0.030
9.180,-0.155,-0.030
9.182,-0.245,-0.035
9.184,-0.395,-0.040
9.186,-0.460,-0.045
9.188,-0.470,-0.045
9.190,-0.420,-0.045
9.192,-0.330,-0.040
9.194,-0.175,-0.035
9.196,-0.170,-0.030
9.198,-0.125,-0.025
9.200,-0.135,-0.025
9.202,-0.215,-0.030
9.204,-0.445,-0.040
9.206,-0.480,-0.045
9.208,-0.465,-0.050
9.210,-0.385,-0.055
9.212,-0.400,-0.055
9.214,-0.220,-0.050
9.216,-0.120,-0.040
9.218,-0.170,-0.030
9.220,-0.155,-0.025
9.222,-0.255,-0.020
9.224,-0.395,-0.015
9.226,-0.450,-0.020
9.228,-0.490,-0.020
9.230,-0.430,-0.025
9.232,-0.305,-0.030
9.234,-0.130,-0.030
9.236,-0.115,-0.035
9.238,-0.090,-0.035
9.240,-0.215,-0.030
9.242,-0.315,-0.030
9.244,-0.410,-0.030
9.246,-0.455,-0.030
9.248,-0.460,-0.030
9.250,-0.415,-0.030
9.252,-0.310,-0.035
9.254,-0.175,-0.035
9.256,-0.155,-0.040
9.258,-0.155,-0.040
9.260,-0.250,-0.040
9.262,-0.280,-0.040
9.264,-0.430,-0.040
9.266,-0.475,-0.040
9.268,-0.470,-0.040
9.270,-0.435,-0.035
9.272,-0.345,-0.035
9.274,-0.195,-0.035
9.276,-0.125,-0.030
9.278,-0.140,-0.030
9.280,-0.170,-0.030
9.282,-0.300,-0.025
9.284,-0.470,-0.025
9.286,-0.440,-0.020
9.288,-0.390,-0.020
9.290,-0.400,-0.020
9.292,-0.355,-0.020
9.294,-0.150,-0.015
9.296,-0.105,-0.015
9.298,-0.130,-0.005
9.300,-0.200,0.000
9.302,-0.300,0.005
9.304,-0.425,0.015
9.306,-0.415,0.020
9.308,-0.410,0.025
9.310,-0.330,0.020
9.312,-0.240,0.015
9.314,-0.155,0.005
9.316,-0.100,-0.005
9.318,-0.095,-0.020
9.320,-0.225,-0.030
9.322,-0.320,-0.035
9.324,-0.410,-0.030
9.326,-0.440,-0.025
9.328,-0.450,-0.015
9.330,-0.365,0.000
9.332,-0.200,0.015
9.334,-0.080,0.020
9.336,-0.055,0.025
9.338,-0.125,0.025
9.340,-0.190,0.015
9.342,-0.330,0.005
9.344,-0.430,-0.010
9.346,-0.440,-0.020
9.348,-0.450,-0.030
9.350,-0.415,-0.040
9.352,-0.255,-0.040
9.354,-0.145,-0.040
9.356,-0.160,-0.035
9.358,-0.135,-0.035
9.360,-0.230,-0.030
9.362,-0.315,-0.030
9.364,-0.460,-0.030
9.366,-0.455,-0.030
9.368,-0.440,-0.030
9.370,-0.410,-0.035
9.372,-0.290,-0.035
9.374,-0.160,-0.035
9.376,-0.130,-0.035
9.378,-0.130,-0.035
9.380,-0.210,-0.030
9.382,-0.345,-0.025
9.384,-0.420,-0.020
9.386,-0.435,-0.015
9.388,-0.410,-0.010
9.390,-0.355,-0.010
9.392,-0.275,-0.010
9.394,-0.200,-0.010
9.396,-0.095,-0.015
9.398,-0.130,-0.020
9.400,-0.175,-0.025
9.402,-0.345,-0.030
9.404,-0.465,-0.030
9.406,-0.475,-0.035
9.408,-0.490,-0.030
9.410,-0.380,-0.030
9.412,-0.195,-0.030
9.414,-0.120,-0.025
9.416,-0.140,-0.025
9.418,-0.155,-0.030
9.420,-0.255,-0.030
9.422,-0.390,-0.030
9.424,-0.430,-0.025
9.426,-0.450,-0.010
9.428,-0.420,0.010
9.430,-0.270,0.050
9.432,-0.095,0.095
9.434,0.065,0.155
9.436,0.160,0.225
9.438,0.195,0.295
9.440,0.185,0.360
9.442,0.060,0.415
9.444,0.060,0.450
9.446,0.070,0.460
9.448,0.075,0.450
9.450,0.065,0.410
9.452,0.120,0.345
9.454,0.065,0.265
9.456,0.095,0.175
9.458,-0.030,0.080
9.460,-0.230,-0.010
9.462,-0.455,-0.095
9.464,-0.610,-0.160
9.466,-0.705,-0.215
9.468,-0.755,-0.250
9.470,-0.625,-0.270
9.472,-0.400,-0.280
9.474,-0.375,-0.280
9.476,-0.360,-0.275
9.478,-0.385,-0.260
9.480,-0.460,-0.240
9.482,-0.560,-0.215
9.484,-0.600,-0.185
9.486,-0.550,-0.155
9.488,-0.485,-0.125
9.490,-0.410,-0.095
9.492,-0.240,-0.070
9.494,-0.190,-0.050
9.496,-0.185,-0.040
9.498,-0.170,-0.030
9.500,-0.210,-0.030
9.502,-0.385,-0.035
9.504,-0.470,-0.040
9.506,-0.455,-0.040
9.508,-0.400,-0.040
9.510,-0.315,-0.035
9.512,-0.180,-0.030
9.514,-0.145,-0.020
9.516,-0.110,-0.010
9.518,-0.185,0.000
9.520,-0.240,0.005
9.522,-0.340,0.010
9.524,-0.390,0.010
9.526,-0.410,0.010
9.528,-0.360,0.005
9.530,-0.305,0.000
9.532,-0.170,0.000
9.534,-0.130,-0.005
9.536,-0.135,-0.005
9.538,-0.165,-0.005
9.540,-0.225,0.000
9.542,-0.320,0.010
9.544,-0.355,0.015
9.546,-0.430,0.025
9.548,-0.350,0.035
9.550,-0.305,0.045
9.552,-0.090,0.050
9.554,-0.045,0.050
9.556,-0.055,0.045
9.558,-0.130,0.040
9.560,-0.195,0.035
9.562,-0.355,0.030
9.564,-0.460,0.025
9.566,-0.450,0.020
9.568,-0.285,0.020
9.570,-0.210,0.025
9.572,-0.060,0.025
9.574,-0.085,0.030
9.576,-0.100,0.030
9.578,-0.150,0.035
9.580,-0.215,0.035
9.582,-0.350,0.035
9.584,-0.340,0.035
9.586,-0.380,0.040
9.588,-0.320,0.040
9.590,-0.245,0.045
9.592,-0.100,0.045
9.594,-0.040,0.050
9.596,-0.030,0.055
9.598,-0.085,0.055
9.600,-0.200,0.060
9.602,-0.340,0.065
9.604,-0.405,0.065
9.606,-0.370,0.070
9.608,-0.260,0.070
9.610,-0.125,0.075
9.612,-0.005,0.080
9.614,-0.005,0.085
9.616,0.010,0.090
9.618,-0.060,0.100
9.620,-0.185,0.105
9.622,-0.290,0.115
9.624,-0.315,0.120
9.626,-0.285,0.125
9.628,-0.210,0.130
9.630,-0.110,0.130
9.632,-0.025,0.130
9.634,0.015,0.130
9.636,0.020,0.130
9.638,-0.035,0.135
9.640,-0.145,0.140
9.642,-0.225,0.150
9.644,-0.245,0.160
9.646,-0.185,0.175
9.648,-0.135,0.190
9.650,-0.075,0.200
9.652,0.050,0.205
9.654,0.075,0.210
9.656,0.115,0.205
9.658,0.045,0.200
9.660,-0.100,0.195
9.662,-0.270,0.195
9.664,-0.245,0.195
9.666,-0.165,0.195
9.668,-0.095,0.205
9.670,0.035,0.215
9.672,0.110,0.220
9.674,0.115,0.230
9.676,0.120,0.230
9.678,0.065,0.230
9.680,-0.130,0.220
9.682,-0.220,0.210
9.684,-0.195,0.195
9.686,-0.160,0.185
9.688,-0.160,0.170
9.690,-0.035,0.160
9.692,0.045,0.155
9.694,0.045,0.145
9.696,-0.010,0.140
9.698,-0.065,0.130
9.700,-0.180,0.120
9.702,-0.325,0.105
9.704,-0.335,0.090
9.706,-0.335,0.075
9.708,-0.245,0.060
9.710,-0.110,0.045
9.712,-0.085,0.035
9.714,-0.040,0.025
9.716,-0.070,0.025
9.718,-0.135,0.020
9.720,-0.320,0.020
9.722,-0.400,0.020
9.724,-0.435,0.020
9.726,-0.410,0.015
9.728,-0.300,0.005
9.730,-0.200,-0.005
9.732,-0.135,-0.015
9.734,-0.130,-0.020
9.736,-0.175,-0.030
9.738,-0.205,-0.035
9.740,-0.380,-0.035
9.742,-0.415,-0.035
9.744,-0.450,-0.030
9.746,-0.400,-0.025
9.748,-0.355,-0.020
9.750,-0.215,-0.020
9.752,-0.135,-0.020
9.754,-0.095,-0.020
9.756,-0.130,-0.025
9.758,-0.225,-0.025
9.760,-0.405,-0.030
9.762,-0.455,-0.035
9.764,-0.420,-0.035
9.766,-0.415,-0.040
9.768,-0.375,-0.040
9.770,-0.235,-0.040
9.772,-0.170,-0.045
9.774,-0.090,-0.045
9.776,-0.130,-0.050
9.778,-0.205,-0.055
9.780,-0.480,-0.060
9.782,-0.505,-0.060
9.784,-0.440,-0.060
9.786,-0.450,-0.060
9.788,-0.340,-0.060
9.790,-0.165,-0.060
9.792,-0.180,-0.060
9.794,-0.145,-0.060
9.796,-0.150,-0.060
9.798,-0.230,-0.060
9.800,-0.415,-0.055
9.802,-0.475,-0.055
9.804,-0.475,-0.050
9.806,-0.390,-0.045
9.808,-0.335,-0.045
9.810,-0.170,-0.045
9.812,-0.135,-0.045
9.814,-0.095,-0.045
9.816,-0.245,-0.050
9.818,-0.285,-0.055
9.820,-0.365,-0.055
9.822,-0.445,-0.055
9.824,-0.500,-0.050
9.826,-0.410,-0.045
9.828,-0.335,-0.040
9.830,-0.140,-0.030
9.832,-0.135,-0.025
9.834,-0.110,-0.020
9.836,-0.150,-0.015
9.838,-0.215,-0.015
9.840,-0.365,-0.015
9.842,-0.410,-0.020
9.844,-0.450,-0.020
9.846,-0.375,-0.025
9.848,-0.320,-0.025
9.850,-0.150,-0.025
9.852,-0.070,-0.020
9.854,-0.115,-0.020
9.856,-0.175,-0.015
9.858,-0.275,-0.015
9.860,-0.400,-0.015
9.862,-0.430,-0.015
9.864,-0.440,-0.020
9.866,-0.355,-0.025
9.868,-0.255,-0.030
9.870,-0.140,-0.035
9.872,-0.160,-0.045
9.874,-0.160,-0.050
9.876,-0.195,-0.050
9.878,-0.265,-0.055
9.880,-0.410,-0.055
9.882,-0.465,-0.050
9.884,-0.435,-0.050
9.886,-0.385,-0.045
9.888,-0.285,-0.045
9.890,-0.155,-0.045
9.892,-0.075,-0.050
9.894,-0.145,-0.050
9.896,-0.220,-0.050
9.898,-0.345,-0.050
9.900,-0.450,-0.050
9.902,-0.455,-0.045
9.904,-0.390,-0.035
9.906,-0.310,-0.025
9.908,-0.300,-0.020
9.910,-0.155,-0.015
9.912,0.010,-0.010
9.914,-0.050,-0.015
9.916,-0.250,-0.025
9.918,-0.395,-0.035
9.920,-0.410,-0.045
9.922,-0.435,-0.055
9.924,-0.455,-0.065
9.926,-0.405,-0.065
9.928,-0.260,-0.065
9.930,-0.140,-0.055
9.932,-0.125,-0.045
9.934,-0.125,-0.035
9.936,-0.135,-0.025
9.938,-0.265,-0.020
9.940,-0.445,-0.020
9.942,-0.465,-0.025
9.944,-0.445,-0.030
9.946,-0.370,-0.035
9.948,-0.245,-0.045
9.950,-0.150,-0.050
9.952,-0.130,-0.055
9.954,-0.130,-0.060
9.956,-0.185,-0.060
9.958,-0.310,-0.060
9.960,-0.460,-0.055
9.962,-0.485,-0.050
9.964,-0.430,-0.045
9.966,-0.375,-0.045
9.968,-0.230,-0.040
9.970,-0.135,-0.035
9.972,-0.090,-0.035
9.974,-0.150,-0.035
9.976,-0.200,-0.035
9.978,-0.305,-0.035
9.980,-0.395,-0.040
9.982,-0.485,-0.040
9.984,-0.415,-0.040
9.986,-0.335,-0.040
9.988,-0.270,-0.040
9.990,-0.120,-0.035
9.992,-0.075,-0.030
9.994,-0.105,-0.025
9.996,-0.200,-0.020
9.998,-0.325,-0.020
