'Elapsed time','ECG I','ECG I filtered'
'seconds','mV','mV'
0.000,0.095,0.040
0.002,0.090,0.040
0.004,0.100,0.025
0.006,0.075,0.010
0.008,0.185,-0.015
0.010,0.020,-0.040
0.012,-0.065,-0.065
0.014,-0.050,-0.080
0.016,-0.220,-0.085
0.018,-0.055,-0.075
0.020,-0.040,-0.055
0.022,0.030,-0.030
0.024,0.285,-0.005
0.026,0.235,0.010
0.028,0.095,0.015
0.030,-0.045,0.010
0.032,0.025,-0.010
0.034,-0.130,-0.030
0.036,-0.135,-0.045
0.038,-0.015,-0.055
0.040,0.045,-0.055
0.042,0.065,-0.040
0.044,0.125,-0.020
0.046,0.215,0.000
0.048,0.215,0.020
0.050,0.065,0.035
0.052,0.025,0.040
0.054,-0.125,0.040
0.056,0.045,0.030
0.058,0.040,0.020
0.060,0.055,0.005
0.062,0.105,-0.005
0.064,0.170,-0.015
0.066,0.110,-0.025
0.068,0.125,-0.030
0.070,0.010,-0.035
0.072,0.005,-0.040
0.074,-0.110,-0.040
0.076,-0.105,-0.035
0.078,-0.110,-0.025
0.080,0.035,-0.015
0.082,0.185,0.000
0.084,0.235,0.020
0.086,0.280,0.035
0.088,0.155,0.050
0.090,0.155,0.065
0.092,0.070,0.070
0.094,-0.115,0.075
0.096,0.040,0.080
0.098,0.025,0.080
0.100,0.125,0.080
0.102,0.285,0.085
0.104,0.410,0.085
0.106,0.215,0.085
0.108,0.240,0.085
0.110,0.140,0.075
0.112,-0.030,0.060
0.114,-0.070,0.040
0.116,-0.010,0.020
0.118,-0.050,0.000
0.120,0.075,-0.020
0.122,0.110,-0.035
0.124,0.225,-0.040
0.126,0.165,-0.040
0.128,-0.030,-0.035
0.130,-0.010,-0.030
0.132,-0.065,-0.020
0.134,-0.025,-0.015
0.136,-0.005,-0.020
0.138,0.060,-0.025
0.140,0.070,-0.040
0.142,0.015,-0.055
0.144,0.065,-0.065
0.146,0.060,-0.075
0.148,0.125,-0.075
0.150,-0.050,-0.070
0.152,-0.125,-0.060
0.154,-0.125,-0.045
0.156,0.035,-0.035
0.158,-0.015,-0.030
0.160,-0.020,-0.030
0.162,0.080,-0.035
0.164,0.210,-0.045
0.166,0.090,-0.060
0.168,0.060,-0.075
0.170,-0.020,-0.085
0.172,-0.180,-0.095
0.174,-0.185,-0.095
0.176,-0.120,-0.090
0.178,-0.045,-0.080
0.180,-0.005,-0.075
0.182,0.140,-0.070
0.184,0.180,-0.070
0.186,0.065,-0.075
0.188,-0.045,-0.075
0.190,0.005,-0.080
0.192,-0.110,-0.085
0.194,-0.220,-0.080
0.196,-0.150,-0.070
0.198,-0.050,-0.055
0.200,0.025,-0.040
0.202,0.210,-0.020
0.204,0.280,-0.005
0.206,0.285,0.000
0.208,0.090,0.005
0.210,0.015,-0.005
0.212,-0.075,-0.020
0.214,-0.085,-0.040
0.216,-0.185,-0.065
0.218,-0.125,-0.085
0.220,-0.115,-0.105
0.222,0.140,-0.115
0.224,0.215,-0.120
0.226,0.125,-0.115
0.228,-0.075,-0.100
0.230,-0.100,-0.090
0.232,-0.195,-0.075
0.234,-0.150,-0.065
0.236,-0.060,-0.060
0.238,-0.030,-0.055
0.240,0.075,-0.055
0.242,0.205,-0.055
0.244,0.160,-0.045
0.246,0.135,-0.020
0.248,0.015,0.015
0.250,0.130,0.070
0.252,0.015,0.140
0.254,0.115,0.225
0.256,0.275,0.320
0.258,0.485,0.410
0.260,0.670,0.495
0.262,0.840,0.565
0.264,0.955,0.615
0.266,0.875,0.640
0.268,0.715,0.645
0.270,0.525,0.620
0.272,0.325,0.580
0.274,0.400,0.515
0.276,0.515,0.440
0.278,0.520,0.355
0.280,0.445,0.265
0.282,0.455,0.180
0.284,0.165,0.100
0.286,0.065,0.030
0.288,0.010,-0.025
0.290,0.030,-0.065
0.292,-0.195,-0.090
0.294,-0.215,-0.105
0.296,-0.190,-0.110
0.298,-0.030,-0.110
0.300,-0.040,-0.105
0.302,0.235,-0.095
0.304,0.195,-0.090
0.306,-0.135,-0.090
0.308,0.025,-0.090
0.310,-0.060,-0.090
0.312,-0.105,-0.095
0.314,-0.045,-0.105
0.316,-0.230,-0.110
0.318,-0.115,-0.120
0.320,-0.015,-0.120
0.322,0.155,-0.125
0.324,0.090,-0.120
0.326,0.095,-0.110
0.328,-0.020,-0.100
0.330,-0.085,-0.080
0.332,-0.210,-0.065
0.334,-0.150,-0.045
0.336,-0.125,-0.025
0.338,0.105,-0.015
0.340,0.160,-0.005
0.342,0.295,-0.005
0.344,0.330,-0.010
0.346,0.060,-0.025
0.348,0.005,-0.040
0.350,-0.075,-0.055
0.352,-0.210,-0.070
0.354,-0.185,-0.080
0.356,-0.025,-0.090
0.358,0.035,-0.085
0.360,0.025,-0.075
0.362,0.055,-0.065
0.364,0.160,-0.045
0.366,0.170,-0.030
0.368,0.050,-0.020
0.370,0.020,-0.015
0.372,-0.135,-0.015
0.374,-0.090,-0.025
0.376,0.010,-0.035
0.378,0.110,-0.045
0.380,0.045,-0.055
0.382,0.130,-0.055
0.384,0.135,-0.050
0.386,0.120,-0.035
0.388,0.070,-0.020
0.390,0.070,-0.010
0.392,-0.105,0.000
0.394,-0.050,0.000
0.396,0.045,-0.010
0.398,0.050,-0.030
0.400,-0.020,-0.050
0.402,0.110,-0.075
0.404,0.135,-0.090
0.406,0.015,-0.100
0.408,0.020,-0.100
0.410,-0.005,-0.090
0.412,-0.210,-0.075
0.414,-0.120,-0.060
0.416,0.005,-0.045
0.418,0.010,-0.030
0.420,0.075,-0.020
0.422,0.210,-0.015
0.424,0.115,-0.015
0.426,0.145,-0.015
0.428,0.135,-0.010
0.430,0.015,-0.005
0.432,-0.160,0.000
0.434,0.040,0.010
0.436,-0.020,0.015
0.438,0.095,0.020
0.440,0.145,0.020
0.442,0.235,0.020
0.444,0.155,0.025
0.446,0.150,0.030
0.448,0.165,0.040
0.450,0.065,0.050
0.452,0.065,0.065
0.454,0.060,0.080
0.456,0.110,0.090
0.458,0.095,0.095
0.460,0.290,0.095
0.462,0.265,0.090
0.464,0.195,0.080
0.466,0.190,0.075
0.468,0.135,0.070
0.470,0.095,0.070
0.472,0.040,0.085
0.474,0.090,0.105
0.476,0.165,0.130
0.478,0.210,0.160
0.480,0.330,0.190
0.482,0.405,0.210
0.484,0.395,0.230
0.486,0.350,0.240
0.488,0.285,0.240
0.490,0.285,0.240
0.492,0.295,0.235
0.494,0.220,0.230
0.496,0.180,0.225
0.498,0.210,0.220
0.500,0.295,0.215
0.502,0.450,0.210
0.504,0.445,0.205
0.506,0.265,0.200
0.508,0.250,0.195
0.510,0.205,0.185
0.512,0.225,0.180
0.514,0.215,0.175
0.516,0.115,0.165
0.518,0.150,0.155
0.520,0.305,0.145
0.522,0.255,0.130
0.524,0.350,0.120
0.526,0.265,0.105
0.528,0.105,0.090
0.530,0.055,0.080
0.532,0.110,0.075
0.534,0.040,0.075
0.536,0.110,0.080
0.538,0.170,0.085
0.540,0.230,0.090
0.542,0.300,0.090
0.544,0.235,0.090
0.546,0.240,0.085
0.548,0.175,0.070
0.550,0.005,0.055
0.552,-0.075,0.040
0.554,0.000,0.020
0.556,0.055,0.010
0.558,0.030,0.000
0.560,0.175,-0.005
0.562,0.200,-0.010
0.564,0.120,-0.010
0.566,0.125,-0.010
0.568,0.110,-0.010
0.570,-0.005,-0.010
0.572,-0.030,-0.010
0.574,-0.230,-0.010
0.576,0.020,-0.015
0.578,0.090,-0.015
0.580,0.240,-0.015
0.582,0.200,-0.015
0.584,0.120,-0.020
0.586,0.075,-0.020
0.588,0.010,-0.030
0.590,-0.165,-0.035
0.592,0.010,-0.045
0.594,-0.120,-0.060
0.596,-0.040,-0.070
0.598,-0.040,-0.075
0.600,0.125,-0.080
0.602,0.200,-0.080
0.604,0.140,-0.080
0.606,-0.045,-0.075
0.608,-0.050,-0.070
0.610,-0.150,-0.065
0.612,-0.120,-0.065
0.614,-0.110,-0.070
0.616,0.005,-0.075
0.618,0.025,-0.080
0.620,0.170,-0.085
0.622,0.050,-0.090
0.624,0.100,-0.090
0.626,0.040,-0.085
0.628,-0.045,-0.075
0.630,-0.250,-0.065
0.632,-0.100,-0.055
0.634,0.000,-0.045
0.636,0.105,-0.040
0.638,0.045,-0.040
0.640,0.105,-0.045
0.642,0.105,-0.050
0.644,0.080,-0.060
0.646,0.060,-0.060
0.648,0.070,-0.065
0.650,-0.150,-0.065
0.652,-0.180,-0.065
0.654,-0.120,-0.065
0.656,0.065,-0.065
0.658,0.055,-0.070
0.660,0.120,-0.075
0.662,0.135,-0.085
0.664,0.055,-0.090
0.666,-0.095,-0.090
0.668,-0.140,-0.085
0.670,-0.060,-0.075
0.672,-0.125,-0.055
0.674,0.040,-0.035
0.676,0.020,-0.010
0.678,0.165,0.010
0.680,0.255,0.020
0.682,0.205,0.025
0.684,0.125,0.020
0.686,0.080,0.005
0.688,0.055,-0.015
0.690,-0.105,-0.035
0.692,-0.140,-0.050
0.694,-0.035,-0.065
0.696,-0.020,-0.070
0.698,-0.030,-0.070
0.700,0.140,-0.065
0.702,0.220,-0.050
0.704,0.110,-0.040
0.706,-0.025,-0.030
0.708,0.040,-0.020
0.710,0.035,-0.020
0.712,-0.155,-0.020
0.714,-0.035,-0.030
0.716,0.015,-0.045
0.718,0.060,-0.060
0.720,0.060,-0.080
0.722,0.095,-0.095
0.724,0.065,-0.110
0.726,-0.035,-0.115
0.728,-0.075,-0.110
0.730,-0.260,-0.105
0.732,-0.165,-0.095
0.734,0.025,-0.080
0.736,-0.010,-0.070
0.738,0.085,-0.060
0.740,0.205,-0.060
0.742,0.125,-0.065
0.744,0.030,-0.070
0.746,-0.030,-0.075
0.748,-0.095,-0.080
0.750,-0.155,-0.080
0.752,-0.210,-0.070
0.754,-0.060,-0.055
0.756,0.015,-0.030
0.758,0.245,-0.010
0.760,0.255,0.010
0.762,0.265,0.025
0.764,0.130,0.035
0.766,0.095,0.035
0.768,0.055,0.025
0.770,-0.085,0.010
0.772,-0.110,-0.005
0.774,-0.020,-0.020
0.776,0.050,-0.030
0.778,0.155,-0.030
0.780,0.245,-0.030
0.782,0.165,-0.015
0.784,0.090,0.005
0.786,0.045,0.030
0.788,0.060,0.055
0.790,0.055,0.075
0.792,0.080,0.090
0.794,0.225,0.095
0.796,0.155,0.090
0.798,0.175,0.070
0.800,0.265,0.045
0.802,0.150,0.010
0.804,0.070,-0.020
0.806,0.050,-0.045
0.808,-0.115,-0.065
0.810,-0.110,-0.070
0.812,-0.140,-0.060
0.814,-0.085,-0.045
0.816,0.130,-0.030
0.818,0.250,-0.010
0.820,0.265,0.000
0.822,0.225,0.005
0.824,-0.025,-0.005
0.826,-0.085,-0.025
0.828,-0.050,-0.050
0.830,-0.065,-0.075
0.832,-0.185,-0.105
0.834,-0.040,-0.125
0.836,-0.025,-0.135
0.838,0.070,-0.140
0.840,0.035,-0.135
0.842,0.010,-0.130
0.844,-0.035,-0.115
0.846,-0.015,-0.105
0.848,-0.125,-0.090
0.850,-0.130,-0.080
0.852,-0.055,-0.070
0.854,0.050,-0.060
0.856,0.050,-0.050
0.858,0.090,-0.045
0.860,0.200,-0.040
0.862,0.115,-0.045
0.864,0.055,-0.050
0.866,-0.015,-0.060
0.868,-0.165,-0.075
0.870,-0.165,-0.090
0.872,-0.130,-0.105
0.874,-0.075,-0.115
0.876,-0.035,-0.120
0.878,0.075,-0.120
0.880,0.100,-0.115
0.882,0.065,-0.105
0.884,-0.015,-0.095
0.886,-0.020,-0.090
0.888,-0.170,-0.085
0.890,-0.150,-0.090
0.892,-0.120,-0.095
0.894,-0.005,-0.105
0.896,-0.070,-0.120
0.898,0.155,-0.125
0.900,0.020,-0.130
0.902,0.055,-0.130
0.904,-0.080,-0.120
0.906,-0.105,-0.115
0.908,-0.100,-0.105
0.910,-0.120,-0.100
0.912,-0.095,-0.100
0.914,-0.095,-0.100
0.916,0.020,-0.110
0.918,0.105,-0.115
0.920,0.100,-0.120
0.922,0.020,-0.115
0.924,-0.085,-0.105
0.926,-0.100,-0.085
0.928,-0.095,-0.060
0.930,-0.080,-0.035
0.932,0.055,-0.015
0.934,0.120,0.000
0.936,0.110,0.005
0.938,0.195,0.010
0.940,0.170,0.015
0.942,0.180,0.025
0.944,0.150,0.055
0.946,0.085,0.105
0.948,0.010,0.175
0.950,0.175,0.265
0.952,0.430,0.370
0.954,0.575,0.480
0.956,0.775,0.575
0.958,1.005,0.655
0.960,0.960,0.705
0.962,0.950,0.725
0.964,0.725,0.710
0.966,0.605,0.670
0.968,0.405,0.600
0.970,0.385,0.510
0.972,0.480,0.410
0.974,0.485,0.305
0.976,0.405,0.200
0.978,0.400,0.100
0.980,0.125,0.010
0.982,-0.125,-0.060
0.984,-0.130,-0.110
0.986,-0.150,-0.140
0.988,-0.120,-0.145
0.990,-0.150,-0.130
0.992,-0.075,-0.105
0.994,0.030,-0.070
0.996,0.075,-0.035
0.998,0.265,-0.015
1.000,0.205,-0.005
1.002,0.105,-0.010
1.004,-0.040,-0.025
1.006,-0.070,-0.050
1.008,-0.180,-0.075
1.010,-0.165,-0.100
1.012,-0.070,-0.110
1.014,-0.025,-0.115
1.016,0.085,-0.105
1.018,0.175,-0.085
1.020,0.200,-0.065
1.022,0.045,-0.050
1.024,-0.005,-0.040
1.026,-0.085,-0.035
1.028,-0.170,-0.045
1.030,-0.110,-0.055
1.032,-0.020,-0.065
1.034,0.055,-0.075
1.036,0.085,-0.085
1.038,0.105,-0.090
1.040,0.170,-0.090
1.042,-0.005,-0.090
1.044,-0.145,-0.095
1.046,-0.135,-0.095
1.048,-0.185,-0.100
1.050,-0.185,-0.105
1.052,0.035,-0.110
1.054,-0.010,-0.110
1.056,-0.005,-0.100
1.058,0.130,-0.090
1.060,0.045,-0.075
1.062,0.135,-0.055
1.064,0.080,-0.040
1.066,-0.085,-0.030
1.068,-0.140,-0.020
1.070,-0.080,-0.020
1.072,0.000,-0.030
1.074,0.150,-0.040
1.076,0.215,-0.055
1.078,0.075,-0.065
1.080,0.095,-0.075
1.082,-0.040,-0.085
1.084,-0.050,-0.085
1.086,-0.075,-0.090
1.088,-0.135,-0.090
1.090,-0.200,-0.090
1.092,0.010,-0.085
1.094,0.005,-0.080
1.096,0.115,-0.075
1.098,0.195,-0.065
1.100,0.080,-0.050
1.102,0.065,-0.030
1.104,0.030,-0.015
1.106,0.050,0.005
1.108,-0.015,0.020
1.110,0.010,0.025
1.112,0.055,0.025
1.114,0.070,0.020
1.116,0.125,0.010
1.118,0.195,-0.005
1.120,0.140,-0.020
1.122,0.060,-0.030
1.124,0.090,-0.035
1.126,-0.030,-0.035
1.128,-0.155,-0.025
1.130,-0.100,-0.015
1.132,0.070,-0.005
1.134,0.115,0.010
1.136,0.270,0.020
1.138,0.225,0.030
1.140,0.155,0.030
1.142,0.150,0.030
1.144,0.070,0.030
1.146,-0.045,0.025
1.148,-0.080,0.020
1.150,-0.085,0.015
1.152,0.095,0.010
1.154,0.140,0.010
1.156,0.220,0.010
1.158,0.285,0.010
1.160,0.170,0.015
1.162,0.100,0.020
1.164,0.075,0.030
1.166,0.010,0.040
1.168,0.010,0.050
1.170,0.105,0.065
1.172,0.190,0.080
1.174,0.160,0.095
1.176,0.265,0.110
1.178,0.285,0.125
1.180,0.415,0.140
1.182,0.245,0.155
1.184,0.240,0.165
1.186,0.155,0.175
1.188,0.065,0.185
1.190,0.135,0.190
1.192,0.260,0.190
1.194,0.270,0.195
1.196,0.460,0.195
1.198,0.460,0.190
1.200,0.305,0.190
1.202,0.210,0.190
1.204,0.205,0.185
1.206,0.195,0.185
1.208,0.130,0.185
1.210,0.145,0.185
1.212,0.275,0.185
1.214,0.250,0.190
1.216,0.400,0.195
1.218,0.400,0.195
1.220,0.390,0.195
1.222,0.275,0.185
1.224,0.225,0.175
1.226,0.105,0.160
1.228,0.170,0.145
1.230,0.055,0.120
1.232,0.095,0.095
1.234,0.115,0.075
1.236,0.265,0.055
1.238,0.275,0.035
1.240,0.155,0.025
1.242,0.155,0.015
1.244,0.020,0.010
1.246,-0.050,0.000
1.248,-0.090,-0.005
1.250,0.000,-0.015
1.252,-0.020,-0.030
1.254,0.065,-0.045
1.256,0.100,-0.055
1.258,0.060,-0.070
1.260,0.095,-0.075
1.262,0.055,-0.080
1.264,0.075,-0.080
1.266,-0.090,-0.080
1.268,-0.125,-0.075
1.270,-0.110,-0.070
1.272,-0.015,-0.070
1.274,-0.005,-0.075
1.276,0.150,-0.075
1.278,0.055,-0.075
1.280,0.105,-0.075
1.282,0.055,-0.075
1.284,0.055,-0.065
1.286,-0.115,-0.055
1.288,-0.205,-0.040
1.290,-0.100,-0.030
1.292,0.125,-0.020
1.294,0.135,-0.015
1.296,0.215,-0.015
1.298,0.215,-0.020
1.300,0.100,-0.025
1.302,-0.045,-0.030
1.304,-0.010,-0.040
1.306,-0.040,-0.040
1.308,-0.040,-0.035
1.310,-0.115,-0.030
1.312,-0.005,-0.025
1.314,0.190,-0.020
1.316,0.230,-0.015
1.318,0.210,-0.015
1.320,0.050,-0.020
1.322,0.055,-0.030
1.324,-0.060,-0.035
1.326,-0.110,-0.045
1.328,-0.120,-0.050
1.330,-0.065,-0.055
1.332,-0.005,-0.060
1.334,0.100,-0.065
1.336,0.225,-0.065
1.338,0.175,-0.065
1.340,0.035,-0.070
1.342,-0.010,-0.070
1.344,-0.030,-0.070
1.346,-0.145,-0.070
1.348,-0.230,-0.070
1.350,-0.075,-0.065
1.352,0.025,-0.060
1.354,0.280,-0.060
1.356,0.140,-0.065
1.358,0.075,-0.070
1.360,0.100,-0.080
1.362,-0.010,-0.095
1.364,-0.130,-0.110
1.366,-0.245,-0.130
1.368,-0.305,-0.140
1.370,-0.265,-0.150
1.372,-0.045,-0.145
1.374,0.030,-0.135
1.376,0.280,-0.115
1.378,0.155,-0.090
1.380,0.090,-0.065
1.382,0.035,-0.035
1.384,-0.025,-0.010
1.386,-0.070,0.005
1.388,-0.120,0.015
1.390,0.060,0.015
1.392,0.130,0.010
1.394,0.160,0.000
1.396,0.180,-0.015
1.398,0.190,-0.020
1.400,0.140,-0.025
1.402,-0.075,-0.020
1.404,0.055,-0.010
1.406,0.005,0.010
1.408,-0.150,0.025
1.410,0.065,0.040
1.412,0.130,0.050
1.414,0.250,0.050
1.416,0.260,0.040
1.418,0.260,0.015
1.420,0.270,-0.010
1.422,-0.060,-0.045
1.424,-0.235,-0.075
1.426,-0.220,-0.105
1.428,-0.115,-0.125
1.430,-0.035,-0.130
1.432,-0.030,-0.130
1.434,0.050,-0.120
1.436,0.165,-0.100
1.438,0.135,-0.080
1.440,0.075,-0.060
1.442,-0.050,-0.045
1.444,-0.155,-0.035
1.446,-0.055,-0.030
1.448,0.015,-0.030
1.450,-0.010,-0.040
1.452,0.030,-0.060
1.454,0.115,-0.075
1.456,0.170,-0.095
1.458,0.055,-0.110
1.460,0.040,-0.120
1.462,-0.110,-0.120
1.464,-0.145,-0.115
1.466,-0.110,-0.105
1.468,-0.180,-0.090
1.470,-0.135,-0.070
1.472,0.000,-0.045
1.474,0.285,-0.025
1.476,0.310,-0.005
1.478,0.260,0.010
1.480,0.085,0.020
1.482,0.020,0.025
1.484,-0.125,0.025
1.486,-0.060,0.015
1.488,0.040,0.005
1.490,0.095,-0.010
1.492,0.145,-0.025
1.494,0.210,-0.040
1.496,-0.015,-0.055
1.498,0.080,-0.060
1.500,0.085,-0.060
1.502,-0.025,-0.050
1.504,-0.070,-0.040
1.506,-0.045,-0.030
1.508,0.060,-0.015
1.510,0.035,-0.010
1.512,0.150,-0.005
1.514,0.220,-0.010
1.516,0.170,-0.015
1.518,0.045,-0.025
1.520,0.080,-0.035
1.522,0.030,-0.040
1.524,-0.140,-0.050
1.526,-0.045,-0.055
1.528,-0.035,-0.065
1.530,0.000,-0.070
1.532,0.060,-0.075
1.534,0.105,-0.080
1.536,0.030,-0.085
1.538,0.060,-0.085
1.540,0.010,-0.080
1.542,-0.015,-0.065
1.544,-0.065,-0.050
1.546,-0.085,-0.030
1.548,-0.035,-0.010
1.550,0.160,0.010
1.552,0.185,0.020
1.554,0.210,0.030
1.556,0.210,0.030
1.558,0.110,0.030
1.560,0.005,0.025
1.562,0.025,0.025
1.564,0.075,0.030
1.566,0.085,0.035
1.568,0.085,0.045
1.570,0.150,0.060
1.572,0.260,0.070
1.574,0.175,0.075
1.576,0.265,0.075
1.578,0.200,0.065
1.580,0.150,0.055
1.582,0.060,0.040
1.584,-0.030,0.025
1.586,-0.010,0.015
1.588,0.050,0.015
1.590,0.145,0.025
1.592,0.230,0.035
1.594,0.355,0.050
1.596,0.210,0.065
1.598,0.120,0.070
1.600,0.170,0.070
1.602,0.075,0.060
1.604,-0.035,0.035
1.606,-0.070,0.010
1.608,-0.035,-0.020
1.610,0.085,-0.045
1.612,0.160,-0.070
1.614,0.105,-0.080
1.616,0.110,-0.085
1.618,-0.030,-0.085
1.620,0.010,-0.080
1.622,-0.015,-0.075
1.624,-0.085,-0.070
1.626,-0.130,-0.075
1.628,-0.120,-0.080
1.630,0.030,-0.095
1.632,0.060,-0.110
1.634,0.040,-0.120
1.636,0.030,-0.130
1.638,0.020,-0.140
1.640,-0.045,-0.135
1.642,-0.120,-0.130
1.644,-0.130,-0.120
1.646,-0.150,-0.110
1.648,-0.065,-0.100
1.650,0.055,-0.090
1.652,0.060,-0.090
1.654,0.060,-0.090
1.656,0.095,-0.100
1.658,0.040,-0.110
1.660,-0.085,-0.120
1.662,-0.135,-0.125
1.664,-0.145,-0.130
1.666,-0.115,-0.125
1.668,-0.020,-0.120
1.670,0.095,-0.100
1.672,0.025,-0.080
1.674,0.155,-0.060
1.676,0.135,-0.040
1.678,0.050,-0.025
1.680,0.095,-0.020
1.682,-0.045,-0.025
1.684,-0.100,-0.035
1.686,-0.085,-0.055
1.688,-0.025,-0.070
1.690,-0.035,-0.085
1.692,0.100,-0.095
1.694,0.165,-0.090
1.696,0.095,-0.080
1.698,0.075,-0.060
1.700,0.050,-0.035
1.702,-0.050,-0.015
1.704,-0.020,0.005
1.706,0.045,0.020
1.708,0.085,0.030
1.710,0.055,0.045
1.712,0.265,0.070
1.714,0.385,0.110
1.716,0.320,0.170
1.718,0.360,0.245
1.720,0.345,0.345
1.722,0.445,0.450
1.724,0.540,0.560
1.726,0.695,0.655
1.728,0.900,0.725
1.730,1.115,0.765
1.732,1.010,0.765
1.734,0.805,0.730
1.736,0.670,0.665
1.738,0.570,0.570
1.740,0.570,0.465
1.742,0.380,0.355
1.744,0.280,0.250
1.746,0.315,0.150
1.748,0.110,0.070
1.750,0.005,0.005
1.752,0.090,-0.045
1.754,0.050,-0.075
1.756,0.040,-0.095
1.758,-0.030,-0.105
1.760,-0.035,-0.105
1.762,-0.045,-0.100
1.764,-0.050,-0.090
1.766,-0.025,-0.085
1.768,-0.060,-0.075
1.770,0.035,-0.070
1.772,0.160,-0.070
1.774,0.105,-0.070
1.776,0.100,-0.075
1.778,-0.045,-0.080
1.780,-0.020,-0.080
1.782,-0.180,-0.085
1.784,-0.035,-0.080
1.786,0.120,-0.075
1.788,0.025,-0.070
1.790,-0.010,-0.060
1.792,0.090,-0.045
1.794,0.035,-0.035
1.796,0.145,-0.025
1.798,0.130,-0.015
1.800,0.100,-0.010
1.802,0.035,-0.010
1.804,0.045,-0.015
1.806,0.020,-0.025
1.808,0.020,-0.035
1.810,-0.095,-0.050
1.812,0.070,-0.065
1.814,0.140,-0.080
1.816,0.095,-0.090
1.818,-0.045,-0.095
1.820,0.035,-0.095
1.822,-0.120,-0.090
1.824,0.010,-0.075
1.826,-0.030,-0.065
1.828,-0.005,-0.050
1.830,-0.015,-0.040
1.832,0.170,-0.035
1.834,0.135,-0.035
1.836,0.115,-0.040
1.838,-0.020,-0.055
1.840,0.055,-0.065
1.842,-0.065,-0.080
1.844,-0.075,-0.090
1.846,-0.120,-0.095
1.848,-0.040,-0.090
1.850,0.030,-0.085
1.852,0.135,-0.070
1.854,0.110,-0.060
1.856,0.150,-0.045
1.858,0.105,-0.035
1.860,0.025,-0.025
1.862,-0.075,-0.015
1.864,-0.120,-0.010
1.866,-0.030,-0.010
1.868,0.180,-0.005
1.870,0.115,0.000
1.872,0.220,0.000
1.874,0.255,0.005
1.876,0.225,0.010
1.878,-0.005,0.015
1.880,0.095,0.015
1.882,-0.045,0.020
1.884,0.000,0.025
1.886,0.100,0.030
1.888,0.110,0.030
1.890,0.105,0.035
1.892,0.285,0.035
1.894,0.245,0.030
1.896,0.180,0.025
1.898,0.070,0.015
1.900,0.040,0.000
1.902,-0.105,-0.020
1.904,-0.025,-0.035
1.906,0.030,-0.050
1.908,-0.010,-0.060
1.910,0.110,-0.065
1.912,0.185,-0.060
1.914,0.185,-0.045
1.916,0.075,-0.025
1.918,0.130,0.000
1.920,0.020,0.025
1.922,0.010,0.040
1.924,0.010,0.050
1.926,0.060,0.055
1.928,0.165,0.050
1.930,0.225,0.045
1.932,0.215,0.035
1.934,0.170,0.030
1.936,0.235,0.035
1.938,0.190,0.045
1.940,0.025,0.065
1.942,0.070,0.090
1.944,0.075,0.120
1.946,0.265,0.150
1.948,0.290,0.175
1.950,0.295,0.200
1.952,0.450,0.215
1.954,0.450,0.225
1.956,0.350,0.235
1.958,0.385,0.240
1.960,0.160,0.240
1.962,0.255,0.245
1.964,0.315,0.255
1.966,0.255,0.260
1.968,0.390,0.265
1.970,0.480,0.270
1.972,0.480,0.270
1.974,0.475,0.265
1.976,0.320,0.260
1.978,0.355,0.245
1.980,0.255,0.225
1.982,0.200,0.205
1.984,0.135,0.180
1.986,0.125,0.155
1.988,0.200,0.130
1.990,0.225,0.105
1.992,0.405,0.090
1.994,0.290,0.075
1.996,0.185,0.065
1.998,0.140,0.055
2.000,0.040,0.050
2.002,0.035,0.045
2.004,-0.045,0.035
2.006,0.040,0.030
2.008,0.120,0.015
2.010,0.285,0.005
2.012,0.185,-0.010
2.014,0.145,-0.020
2.016,0.105,-0.030
2.018,0.015,-0.030
2.020,0.010,-0.030
2.022,-0.010,-0.025
2.024,-0.100,-0.020
2.026,-0.065,-0.015
2.028,0.190,-0.010
2.030,0.180,-0.010
2.032,0.295,-0.010
2.034,0.160,-0.010
2.036,0.000,-0.010
2.038,0.020,-0.010
2.040,0.040,-0.005
2.042,0.095,0.005
2.044,-0.050,0.020
2.046,0.220,0.035
2.048,0.080,0.045
2.050,0.235,0.055
2.052,0.210,0.060
2.054,0.255,0.060
2.056,0.195,0.050
2.058,0.125,0.040
2.060,-0.050,0.020
2.062,-0.010,-0.005
2.064,0.070,-0.030
2.066,0.060,-0.055
2.068,-0.125,-0.075
2.070,0.080,-0.090
2.072,0.160,-0.100
2.074,0.095,-0.105
2.076,0.005,-0.110
2.078,-0.060,-0.100
2.080,-0.110,-0.095
2.082,-0.070,-0.080
2.084,-0.040,-0.065
2.086,0.085,-0.050
2.088,0.070,-0.040
2.090,0.195,-0.030
2.092,0.230,-0.030
2.094,0.080,-0.035
2.096,-0.020,-0.045
2.098,0.000,-0.060
2.100,-0.070,-0.075
2.102,-0.095,-0.090
2.104,-0.180,-0.100
2.106,0.025,-0.105
2.108,-0.010,-0.105
2.110,0.130,-0.095
2.112,0.045,-0.080
2.114,0.155,-0.065
2.116,0.165,-0.045
2.118,0.080,-0.035
2.120,-0.095,-0.030
2.122,-0.200,-0.035
2.124,-0.065,-0.045
2.126,0.050,-0.055
2.128,0.135,-0.070
2.130,0.135,-0.085
2.132,0.045,-0.090
2.134,0.055,-0.085
2.136,0.110,-0.070
2.138,0.070,-0.045
2.140,-0.045,-0.020
2.142,-0.095,0.010
2.144,0.045,0.040
2.146,0.015,0.055
2.148,0.300,0.060
2.150,0.340,0.055
2.152,0.260,0.035
2.154,0.155,0.010
2.156,0.010,-0.015
2.158,0.055,-0.040
2.160,-0.215,-0.060
2.162,-0.055,-0.065
2.164,0.005,-0.065
2.166,0.045,-0.055
2.168,0.150,-0.040
2.170,0.145,-0.025
2.172,0.210,-0.010
2.174,0.125,-0.005
2.176,0.050,0.000
2.178,0.040,-0.005
2.180,0.010,-0.010
2.182,-0.050,-0.020
2.184,0.040,-0.025
2.186,0.110,-0.030
2.188,0.060,-0.035
2.190,0.260,-0.035
2.192,0.120,-0.030
2.194,0.060,-0.030
2.196,-0.035,-0.030
2.198,0.110,-0.030
2.200,-0.075,-0.030
2.202,-0.105,-0.030
2.204,-0.040,-0.035
2.206,0.115,-0.035
2.208,0.140,-0.045
2.210,0.145,-0.050
2.212,0.070,-0.065
2.214,0.115,-0.075
2.216,0.050,-0.090
2.218,-0.125,-0.100
2.220,-0.180,-0.110
2.222,-0.100,-0.110
2.224,-0.030,-0.105
2.226,-0.045,-0.090
2.228,0.080,-0.075
2.230,0.210,-0.055
2.232,0.185,-0.035
2.234,0.125,-0.020
2.236,0.155,-0.005
2.238,0.010,-0.005
2.240,-0.025,-0.005
2.242,-0.140,-0.010
2.244,-0.060,-0.015
2.246,0.140,-0.020
2.248,0.160,-0.025
2.250,0.225,-0.030
2.252,0.165,-0.035
2.254,0.180,-0.035
2.256,0.205,-0.035
2.258,-0.180,-0.040
2.260,-0.135,-0.045
2.262,-0.095,-0.050
2.264,-0.005,-0.055
2.266,0.120,-0.060
2.268,0.090,-0.060
2.270,0.225,-0.060
2.272,0.255,-0.060
2.274,0.105,-0.055
2.276,-0.085,-0.050
2.278,-0.115,-0.050
2.280,-0.190,-0.045
2.282,-0.040,-0.045
2.284,0.070,-0.045
2.286,0.145,-0.045
2.288,0.160,-0.045
2.290,0.195,-0.045
2.292,0.160,-0.045
2.294,0.055,-0.045
2.296,-0.110,-0.050
2.298,-0.135,-0.055
2.300,-0.015,-0.065
2.302,-0.070,-0.070
2.304,0.020,-0.080
2.306,0.080,-0.080
2.308,0.135,-0.080
2.310,0.025,-0.075
2.312,0.070,-0.070
2.314,0.115,-0.060
2.316,0.065,-0.050
2.318,-0.040,-0.040
2.320,-0.090,-0.035
2.322,-0.075,-0.030
2.324,-0.030,-0.030
2.326,0.060,-0.030
2.328,0.260,-0.030
2.330,0.135,-0.025
2.332,0.275,-0.015
2.334,0.115,0.000
2.336,0.070,0.020
2.338,0.035,0.040
2.340,0.015,0.055
2.342,0.035,0.070
2.344,0.180,0.080
2.346,0.190,0.080
2.348,0.325,0.080
2.350,0.300,0.070
2.352,0.190,0.065
2.354,0.120,0.060
2.356,0.190,0.055
2.358,-0.080,0.060
2.360,0.020,0.060
2.362,0.135,0.060
2.364,0.230,0.060
2.366,0.245,0.055
2.368,0.220,0.040
2.370,0.180,0.025
2.372,0.140,0.000
2.374,0.010,-0.025
2.376,-0.055,-0.045
2.378,-0.080,-0.060
2.380,-0.020,-0.070
2.382,-0.010,-0.070
2.384,0.035,-0.065
2.386,0.000,-0.060
2.388,0.140,-0.055
2.390,0.170,-0.055
2.392,0.090,-0.065
2.394,0.020,-0.085
2.396,-0.040,-0.105
2.398,-0.230,-0.130
2.400,-0.125,-0.150
2.402,-0.170,-0.160
2.404,-0.055,-0.160
2.406,-0.050,-0.145
2.408,0.135,-0.125
2.410,0.100,-0.100
2.412,0.100,-0.070
2.414,0.020,-0.050
2.416,-0.015,-0.040
2.418,-0.075,-0.040
2.420,-0.130,-0.045
2.422,-0.010,-0.065
2.424,0.190,-0.085
2.426,-0.030,-0.100
2.428,0.125,-0.115
2.430,-0.045,-0.115
2.432,0.040,-0.110
2.434,0.035,-0.095
2.436,0.120,-0.075
2.438,-0.130,-0.055
2.440,-0.285,-0.040
2.442,0.070,-0.030
2.444,0.120,-0.025
2.446,0.120,-0.030
2.448,0.205,-0.045
2.450,0.145,-0.060
2.452,-0.010,-0.080
2.454,-0.025,-0.095
2.456,-0.020,-0.110
2.458,-0.180,-0.120
2.460,-0.180,-0.120
2.462,-0.105,-0.115
2.464,0.030,-0.105
2.466,0.155,-0.090
2.468,0.210,-0.070
2.470,0.090,-0.055
2.472,0.070,-0.045
2.474,0.045,-0.040
2.476,0.005,-0.040
2.478,-0.055,-0.045
2.480,-0.120,-0.055
2.482,-0.025,-0.060
2.484,0.035,-0.060
2.486,0.115,-0.050
2.488,0.165,-0.025
2.490,0.195,0.025
2.492,0.150,0.090
2.494,0.265,0.170
2.496,0.285,0.260
2.498,0.365,0.360
2.500,0.475,0.450
2.502,0.650,0.530
2.504,0.790,0.590
2.506,0.875,0.630
2.508,0.865,0.635
2.510,0.740,0.620
2.512,0.545,0.575
2.514,0.515,0.510
2.516,0.565,0.430
2.518,0.430,0.340
2.520,0.335,0.245
2.522,0.195,0.155
2.524,0.050,0.065
2.526,0.060,-0.010
2.528,-0.010,-0.075
2.530,0.080,-0.115
2.532,-0.055,-0.145
2.534,-0.095,-0.150
2.536,-0.035,-0.145
2.538,-0.160,-0.125
2.540,-0.085,-0.105
2.542,0.010,-0.075
2.544,0.045,-0.055
2.546,0.025,-0.040
2.548,0.180,-0.035
2.550,0.175,-0.035
2.552,0.085,-0.040
2.554,0.015,-0.055
2.556,-0.065,-0.065
2.558,-0.175,-0.075
2.560,-0.070,-0.085
2.562,0.010,-0.090
2.564,0.000,-0.095
2.566,0.035,-0.095
2.568,0.110,-0.095
2.570,0.110,-0.095
2.572,0.030,-0.090
2.574,0.030,-0.080
2.576,-0.100,-0.070
2.578,-0.175,-0.060
2.580,-0.045,-0.050
2.582,0.035,-0.040
2.584,0.125,-0.035
2.586,0.180,-0.040
2.588,0.155,-0.055
2.590,0.050,-0.070
2.592,0.005,-0.090
2.594,-0.005,-0.110
2.596,-0.170,-0.125
2.598,-0.110,-0.135
2.600,-0.190,-0.130
2.602,-0.170,-0.115
2.604,0.010,-0.095
2.606,0.265,-0.075
2.608,0.120,-0.050
2.610,0.135,-0.030
2.612,0.180,-0.020
2.614,0.040,-0.020
2.616,-0.060,-0.025
2.618,-0.175,-0.040
2.620,-0.030,-0.055
2.622,-0.060,-0.065
2.624,-0.020,-0.075
2.626,0.150,-0.080
2.628,0.130,-0.080
2.630,0.130,-0.070
2.632,0.140,-0.060
2.634,0.080,-0.045
2.636,-0.095,-0.030
2.638,-0.155,-0.015
2.640,-0.025,-0.005
2.642,0.115,0.000
2.644,0.070,0.005
2.646,0.205,0.005
2.648,0.200,0.000
2.650,0.190,-0.005
2.652,0.120,-0.010
2.654,0.105,-0.015
2.656,-0.125,-0.015
2.658,-0.130,-0.010
2.660,0.030,-0.005
2.662,0.080,0.005
2.664,0.085,0.015
2.666,0.355,0.025
2.668,0.200,0.030
2.670,0.150,0.030
2.672,0.130,0.025
2.674,0.000,0.020
2.676,0.025,0.005
2.678,-0.030,-0.005
2.680,0.035,-0.015
2.682,0.020,-0.025
2.684,0.095,-0.035
2.686,0.075,-0.035
2.688,0.170,-0.035
2.690,0.210,-0.025
2.692,0.075,-0.015
2.694,0.065,0.000
2.696,0.000,0.015
2.698,-0.170,0.030
2.700,0.125,0.045
2.702,0.170,0.060
2.704,0.170,0.070
2.706,0.205,0.075
2.708,0.260,0.080
2.710,0.275,0.080
2.712,0.215,0.085
2.714,0.160,0.090
2.716,0.060,0.105
2.718,0.160,0.120
2.720,0.120,0.135
2.722,0.150,0.155
2.724,0.245,0.170
2.726,0.425,0.185
2.728,0.440,0.190
2.730,0.330,0.200
2.732,0.300,0.200
2.734,0.285,0.205
2.736,0.240,0.210
2.738,0.225,0.220
2.740,0.260,0.230
2.742,0.260,0.245
2.744,0.290,0.260
2.746,0.455,0.270
2.748,0.510,0.280
2.750,0.560,0.280
2.752,0.340,0.275
2.754,0.345,0.260
2.756,0.160,0.245
2.758,0.230,0.220
2.760,0.255,0.195
2.762,0.175,0.170
2.764,0.290,0.145
2.766,0.345,0.120
2.768,0.240,0.095
2.770,0.200,0.075
2.772,0.160,0.050
2.774,0.080,0.030
2.776,-0.065,0.015
2.778,-0.035,0.000
2.780,0.035,-0.010
2.782,0.165,-0.015
2.784,0.045,-0.015
2.786,0.090,-0.010
2.788,0.255,0.000
2.790,0.230,0.015
2.792,0.165,0.025
2.794,0.035,0.040
2.796,-0.095,0.050
2.798,0.025,0.055
2.800,0.065,0.055
2.802,0.135,0.050
2.804,0.120,0.035
2.806,0.340,0.020
2.808,0.225,0.000
2.810,0.105,-0.015
2.812,0.055,-0.030
2.814,-0.135,-0.030
2.816,-0.135,-0.025
2.818,0.015,-0.010
2.820,0.040,0.005
2.822,0.195,0.025
2.824,0.185,0.040
2.826,0.285,0.050
2.828,0.130,0.045
2.830,0.255,0.035
2.832,0.120,0.015
2.834,-0.120,-0.015
2.836,-0.070,-0.040
2.838,-0.070,-0.070
2.840,-0.150,-0.090
2.842,-0.005,-0.105
2.844,0.095,-0.110
2.846,0.100,-0.110
2.848,0.110,-0.105
2.850,0.015,-0.100
2.852,-0.020,-0.100
2.854,-0.140,-0.100
2.856,-0.170,-0.105
2.858,-0.125,-0.110
2.860,-0.045,-0.120
2.862,-0.035,-0.130
2.864,0.055,-0.130
2.866,0.100,-0.130
2.868,0.030,-0.120
2.870,0.040,-0.105
2.872,-0.025,-0.085
2.874,-0.100,-0.060
2.876,-0.055,-0.040
2.878,-0.065,-0.030
2.880,-0.025,-0.020
2.882,0.085,-0.020
2.884,0.105,-0.025
2.886,0.220,-0.030
2.888,0.195,-0.040
2.890,0.025,-0.045
2.892,0.070,-0.045
2.894,-0.125,-0.040
2.896,-0.150,-0.030
2.898,0.010,-0.020
2.900,0.075,-0.010
2.902,0.095,-0.005
2.904,0.200,0.000
2.906,0.195,-0.005
2.908,0.260,-0.010
2.910,0.050,-0.025
2.912,-0.055,-0.035
2.914,-0.150,-0.045
2.916,-0.180,-0.050
2.918,-0.110,-0.055
2.920,0.090,-0.060
2.922,0.155,-0.060
2.924,0.080,-0.065
2.926,0.145,-0.065
2.928,0.115,-0.065
2.930,0.005,-0.065
2.932,-0.010,-0.060
2.934,-0.095,-0.055
2.936,-0.160,-0.045
2.938,-0.115,-0.035
2.940,0.085,-0.025
2.942,0.150,-0.020
2.944,0.185,-0.015
2.946,0.155,-0.015
2.948,0.110,-0.020
2.950,0.015,-0.035
2.952,-0.010,-0.050
2.954,-0.120,-0.065
2.956,-0.060,-0.075
2.958,-0.085,-0.085
2.960,-0.110,-0.085
2.962,0.070,-0.080
2.964,0.090,-0.070
2.966,0.100,-0.060
2.968,0.035,-0.050
2.970,0.135,-0.040
2.972,0.065,-0.035
2.974,-0.075,-0.035
2.976,-0.090,-0.035
2.978,-0.020,-0.035
2.980,-0.015,-0.040
2.982,-0.070,-0.040
2.984,0.125,-0.035
2.986,0.210,-0.030
2.988,0.340,-0.025
2.990,0.065,-0.020
2.992,-0.020,-0.015
2.994,-0.080,-0.010
2.996,-0.060,-0.015
2.998,-0.015,-0.015
3.000,-0.020,-0.020
3.002,0.130,-0.030
3.004,0.135,-0.035
3.006,0.115,-0.040
3.008,0.205,-0.045
3.010,0.085,-0.050
3.012,-0.110,-0.055
3.014,-0.190,-0.060
3.016,-0.205,-0.065
3.018,-0.025,-0.065
3.020,-0.005,-0.065
3.022,0.065,-0.065
3.024,0.115,-0.065
3.026,0.165,-0.060
3.028,0.155,-0.055
3.030,0.000,-0.045
3.032,0.020,-0.040
3.034,-0.150,-0.030
3.036,-0.115,-0.020
3.038,0.110,-0.015
3.040,0.025,-0.010
3.042,0.085,-0.010
3.044,0.180,-0.010
3.046,0.135,-0.015
3.048,0.155,-0.020
3.050,0.090,-0.035
3.052,0.005,-0.050
3.054,-0.135,-0.065
3.056,-0.200,-0.080
3.058,-0.245,-0.100
3.060,0.005,-0.110
3.062,-0.010,-0.120
3.064,0.040,-0.120
3.066,0.135,-0.115
3.068,0.125,-0.100
3.070,0.000,-0.075
3.072,0.005,-0.040
3.074,-0.110,-0.010
3.076,-0.080,0.025
3.078,0.065,0.055
3.080,0.235,0.080
3.082,0.120,0.095
3.084,0.350,0.100
3.086,0.340,0.100
3.088,0.340,0.090
3.090,0.190,0.080
3.092,-0.050,0.065
3.094,-0.105,0.055
3.096,0.010,0.050
3.098,0.150,0.045
3.100,0.125,0.045
3.102,0.130,0.050
3.104,0.255,0.050
3.106,0.285,0.055
3.108,0.270,0.060
3.110,0.120,0.065
3.112,0.070,0.070
3.114,0.020,0.070
3.116,0.035,0.065
3.118,0.105,0.060
3.120,0.080,0.050
3.122,0.145,0.035
3.124,0.250,0.015
3.126,0.215,-0.005
3.128,0.055,-0.025
3.130,-0.080,-0.040
3.132,-0.030,-0.050
3.134,-0.105,-0.055
3.136,-0.055,-0.060
3.138,0.020,-0.060
3.140,-0.025,-0.065
3.142,0.040,-0.075
3.144,0.100,-0.095
3.146,0.160,-0.115
3.148,0.105,-0.145
3.150,-0.170,-0.175
3.152,-0.295,-0.200
3.154,-0.330,-0.215
3.156,-0.305,-0.215
3.158,-0.100,-0.195
3.160,-0.065,-0.170
3.162,-0.035,-0.130
3.164,0.140,-0.090
3.166,0.120,-0.050
3.168,0.160,-0.025
3.170,0.010,-0.010
3.172,-0.065,-0.010
3.174,-0.070,-0.020
3.176,-0.020,-0.035
3.178,-0.025,-0.045
3.180,0.025,-0.045
3.182,0.100,-0.040
3.184,0.200,-0.020
3.186,0.160,0.000
3.188,0.080,0.020
3.190,0.130,0.035
3.192,-0.080,0.040
3.194,0.080,0.030
3.196,0.190,0.000
3.198,-0.055,-0.035
3.200,-0.105,-0.070
3.202,-0.080,-0.110
3.204,0.090,-0.135
3.206,0.000,-0.150
3.208,-0.085,-0.150
3.210,-0.045,-0.140
3.212,-0.115,-0.120
3.214,-0.140,-0.100
3.216,-0.110,-0.080
3.218,-0.100,-0.065
3.220,-0.060,-0.060
3.222,0.180,-0.060
3.224,0.195,-0.065
3.226,0.080,-0.070
3.228,-0.040,-0.080
3.230,-0.085,-0.090
3.232,-0.110,-0.090
3.234,-0.075,-0.090
3.236,-0.095,-0.080
3.238,0.000,-0.065
3.240,0.015,-0.040
3.242,0.135,-0.005
3.244,0.230,0.040
3.246,0.270,0.095
3.248,0.270,0.160
3.250,0.305,0.240
3.252,0.250,0.330
3.254,0.380,0.425
3.256,0.465,0.520
3.258,0.700,0.610
3.260,0.960,0.685
3.262,1.020,0.745
3.264,0.970,0.775
3.266,0.840,0.775
3.268,0.725,0.735
3.270,0.635,0.665
3.272,0.590,0.565
3.274,0.510,0.440
3.276,0.360,0.310
3.278,0.155,0.180
3.280,0.175,0.060
3.282,0.055,-0.035
3.284,-0.055,-0.100
3.286,-0.080,-0.135
3.288,-0.085,-0.140
3.290,0.010,-0.120
3.292,-0.050,-0.095
3.294,-0.040,-0.060
3.296,-0.055,-0.030
3.298,0.040,-0.015
3.300,0.025,-0.010
3.302,0.180,-0.020
3.304,0.105,-0.040
3.306,0.030,-0.065
3.308,-0.025,-0.085
3.310,-0.035,-0.105
3.312,-0.210,-0.110
3.314,-0.110,-0.110
3.316,-0.075,-0.100
3.318,0.000,-0.085
3.320,0.060,-0.070
3.322,0.095,-0.060
3.324,0.185,-0.055
3.326,0.080,-0.060
3.328,-0.005,-0.075
3.330,-0.175,-0.095
3.332,-0.160,-0.120
3.334,-0.160,-0.140
3.336,-0.205,-0.160
3.338,-0.090,-0.165
3.340,-0.080,-0.160
3.342,0.050,-0.145
3.344,0.075,-0.115
3.346,0.155,-0.085
3.348,0.045,-0.055
3.350,-0.045,-0.030
3.352,-0.130,-0.015
3.354,-0.150,-0.005
3.356,0.050,0.000
3.358,0.155,-0.005
3.360,0.035,-0.005
3.362,0.180,-0.010
3.364,0.225,-0.005
3.366,0.290,0.000
3.368,0.030,0.005
3.370,0.000,0.015
3.372,-0.035,0.015
3.374,-0.065,0.010
3.376,-0.040,-0.005
3.378,0.025,-0.025
3.380,0.005,-0.045
3.382,0.090,-0.065
3.384,0.125,-0.075
3.386,0.105,-0.080
3.388,0.035,-0.075
3.390,0.010,-0.065
3.392,-0.110,-0.050
3.394,-0.155,-0.030
3.396,-0.075,-0.020
3.398,0.110,-0.015
3.400,0.120,-0.020
3.402,0.155,-0.030
3.404,0.070,-0.040
3.406,0.100,-0.050
3.408,0.090,-0.055
3.410,-0.050,-0.055
3.412,-0.160,-0.050
3.414,-0.090,-0.035
3.416,-0.015,-0.020
3.418,0.085,-0.010
3.420,0.145,0.000
3.422,0.165,0.005
3.424,0.160,0.005
3.426,0.095,0.000
3.428,0.045,-0.010
3.430,0.015,-0.015
3.432,-0.020,-0.015
3.434,-0.005,-0.015
3.436,-0.010,-0.010
3.438,0.050,-0.005
3.440,0.130,0.010
3.442,0.155,0.020
3.444,0.345,0.035
3.446,0.110,0.045
3.448,-0.005,0.060
3.450,0.075,0.070
3.452,0.085,0.080
3.454,0.085,0.085
3.456,0.095,0.090
3.458,0.130,0.090
3.460,0.265,0.090
3.462,0.195,0.085
3.464,0.220,0.085
3.466,0.305,0.085
3.468,0.130,0.085
3.470,0.095,0.095
3.472,0.085,0.110
3.474,0.065,0.130
3.476,0.140,0.150
3.478,0.315,0.170
3.480,0.340,0.185
3.482,0.340,0.195
3.484,0.295,0.195
3.486,0.310,0.190
3.488,0.275,0.175
3.490,0.195,0.165
3.492,0.075,0.155
3.494,0.105,0.155
3.496,0.155,0.155
3.498,0.240,0.165
3.500,0.420,0.180
3.502,0.460,0.195
3.504,0.395,0.210
3.506,0.260,0.220
3.508,0.215,0.220
3.510,0.165,0.215
3.512,0.155,0.200
3.514,0.145,0.180
3.516,0.165,0.160
3.518,0.295,0.135
3.520,0.360,0.115
3.522,0.255,0.100
3.524,0.185,0.095
3.526,0.140,0.090
3.528,0.205,0.095
3.530,0.020,0.100
3.532,0.105,0.105
3.534,0.105,0.110
3.536,0.080,0.105
3.538,0.080,0.095
3.540,0.260,0.085
3.542,0.305,0.065
3.544,0.385,0.045
3.546,0.080,0.025
3.548,0.030,0.005
3.550,-0.030,-0.005
3.552,-0.100,-0.010
3.554,-0.085,-0.005
3.556,0.020,-0.005
3.558,0.130,0.000
3.560,0.235,0.005
3.562,0.260,0.000
3.564,0.085,-0.005
3.566,0.110,-0.015
3.568,0.085,-0.030
3.570,-0.175,-0.040
3.572,-0.215,-0.055
3.574,-0.035,-0.070
3.576,-0.070,-0.080
3.578,-0.030,-0.085
3.580,0.120,-0.090
3.582,0.180,-0.090
3.584,0.085,-0.085
3.586,-0.035,-0.080
3.588,-0.050,-0.070
3.590,-0.165,-0.055
3.592,-0.040,-0.040
3.594,-0.085,-0.025
3.596,0.070,-0.015
3.598,0.115,-0.010
3.600,0.110,-0.015
3.602,0.115,-0.030
3.604,0.100,-0.050
3.606,0.020,-0.075
3.608,0.060,-0.095
3.610,-0.200,-0.115
3.612,-0.200,-0.125
3.614,-0.155,-0.120
3.616,-0.075,-0.110
3.618,-0.020,-0.085
3.620,0.165,-0.060
3.622,0.110,-0.035
3.624,0.220,-0.015
3.626,0.145,-0.005
3.628,-0.050,0.000
3.630,-0.125,-0.010
3.632,-0.180,-0.020
3.634,-0.055,-0.035
3.636,0.000,-0.050
3.638,0.160,-0.060
3.640,0.245,-0.065
3.642,0.075,-0.065
3.644,0.095,-0.060
3.646,-0.075,-0.055
3.648,-0.030,-0.055
3.650,-0.130,-0.055
3.652,-0.155,-0.065
3.654,-0.010,-0.075
3.656,-0.055,-0.090
3.658,-0.025,-0.105
3.660,0.100,-0.110
3.662,0.050,-0.115
3.664,-0.035,-0.105
3.666,-0.015,-0.090
3.668,0.015,-0.065
3.670,-0.030,-0.035
3.672,-0.030,-0.010
3.674,0.000,0.010
3.676,0.095,0.025
3.678,0.160,0.020
3.680,0.090,0.010
3.682,0.140,-0.015
3.684,0.125,-0.040
3.686,0.035,-0.070
3.688,-0.075,-0.090
3.690,-0.065,-0.105
3.692,-0.190,-0.110
3.694,-0.150,-0.105
3.696,-0.070,-0.090
3.698,-0.015,-0.075
3.700,0.160,-0.060
3.702,0.150,-0.045
3.704,0.180,-0.035
3.706,-0.010,-0.035
3.708,0.060,-0.035
3.710,-0.115,-0.040
3.712,-0.080,-0.045
3.714,-0.155,-0.050
3.716,-0.035,-0.050
3.718,0.195,-0.045
3.720,0.130,-0.040
3.722,0.075,-0.035
3.724,0.200,-0.030
3.726,0.015,-0.025
3.728,-0.025,-0.025
3.730,-0.035,-0.030
3.732,-0.075,-0.040
3.734,-0.130,-0.050
3.736,-0.055,-0.065
3.738,0.100,-0.075
3.740,0.095,-0.085
3.742,0.150,-0.095
3.744,0.130,-0.095
3.746,-0.085,-0.095
3.748,-0.115,-0.085
3.750,-0.165,-0.075
3.752,-0.165,-0.065
3.754,-0.005,-0.055
3.756,0.055,-0.045
3.758,0.120,-0.040
3.760,0.095,-0.035
3.762,0.085,-0.030
3.764,0.130,-0.035
3.766,0.005,-0.035
3.768,-0.045,-0.040
3.770,-0.075,-0.045
3.772,-0.075,-0.050
3.774,-0.020,-0.055
3.776,-0.090,-0.055
3.778,0.075,-0.055
3.780,0.175,-0.055
3.782,0.190,-0.045
3.784,0.105,-0.040
3.786,0.005,-0.035
3.788,-0.070,-0.030
3.790,-0.080,-0.030
3.792,-0.035,-0.035
3.794,-0.055,-0.045
3.796,-0.035,-0.055
3.798,0.125,-0.070
3.800,0.105,-0.080
3.802,0.130,-0.090
3.804,-0.100,-0.090
3.806,0.005,-0.090
3.808,-0.070,-0.080
3.810,-0.105,-0.070
3.812,-0.125,-0.055
3.814,-0.005,-0.050
3.816,0.005,-0.045
3.818,0.050,-0.050
3.820,0.135,-0.055
3.822,0.190,-0.065
3.824,0.050,-0.070
3.826,0.005,-0.075
3.828,-0.120,-0.070
3.830,-0.125,-0.060
3.832,-0.160,-0.045
3.834,0.015,-0.030
3.836,0.000,-0.015
3.838,0.235,-0.010
3.840,0.315,-0.010
3.842,0.135,-0.015
3.844,0.025,-0.025
3.846,-0.080,-0.040
3.848,-0.105,-0.055
3.850,-0.105,-0.065
3.852,-0.040,-0.065
3.854,0.055,-0.065
3.856,-0.010,-0.055
3.858,0.125,-0.045
3.860,0.225,-0.035
3.862,0.090,-0.025
3.864,0.000,-0.015
3.866,0.020,-0.005
3.868,-0.030,0.000
3.870,-0.005,0.010
3.872,-0.010,0.020
3.874,0.095,0.035
3.876,0.095,0.045
3.878,0.230,0.055
3.880,0.270,0.060
3.882,0.400,0.065
3.884,0.090,0.065
3.886,0.080,0.065
3.888,-0.005,0.060
3.890,-0.060,0.055
3.892,0.100,0.050
3.894,0.035,0.050
3.896,0.040,0.050
3.898,0.240,0.045
3.900,0.275,0.045
3.902,0.345,0.040
3.904,0.105,0.035
3.906,0.005,0.025
3.908,-0.100,0.010
3.910,-0.010,-0.005
3.912,-0.135,-0.020
3.914,-0.005,-0.040
3.916,0.040,-0.055
3.918,0.140,-0.065
3.920,0.120,-0.075
3.922,0.165,-0.080
3.924,0.090,-0.085
3.926,-0.160,-0.090
3.928,-0.210,-0.090
3.930,-0.265,-0.085
3.932,-0.045,-0.085
3.934,0.000,-0.085
3.936,0.045,-0.090
3.938,0.020,-0.090
3.940,0.080,-0.095
3.942,0.120,-0.100
3.944,0.025,-0.105
3.946,-0.080,-0.110
3.948,-0.205,-0.115
3.950,-0.245,-0.115
3.952,-0.150,-0.115
3.954,-0.080,-0.115
3.956,-0.045,-0.110
3.958,0.155,-0.105
3.960,0.145,-0.100
3.962,0.065,-0.090
3.964,-0.035,-0.090
3.966,-0.140,-0.090
3.968,-0.280,-0.095
3.970,-0.120,-0.100
3.972,-0.080,-0.110
3.974,-0.065,-0.115
3.976,-0.025,-0.115
3.978,0.130,-0.105
3.980,0.060,-0.090
3.982,0.030,-0.070
3.984,0.030,-0.045
3.986,0.025,-0.020
3.988,-0.050,0.000
3.990,0.030,0.005
3.992,0.035,0.005
3.994,0.000,-0.010
3.996,-0.025,-0.035
3.998,0.025,-0.060
4.000,0.130,-0.080
4.002,0.100,-0.090
4.004,0.075,-0.095
4.006,-0.085,-0.085
4.008,-0.135,-0.070
4.010,-0.075,-0.050
4.012,-0.095,-0.035
4.014,0.015,-0.025
4.016,0.075,-0.015
4.018,0.240,-0.010
4.020,0.220,0.000
4.022,0.130,0.030
4.024,0.045,0.075
4.026,0.120,0.145
4.028,0.150,0.235
4.030,0.245,0.340
4.032,0.610,0.455
4.034,0.710,0.555
4.036,0.730,0.640
4.038,0.975,0.695
4.040,1.030,0.720
4.042,0.855,0.710
4.044,0.630,0.670
4.046,0.545,0.605
4.048,0.375,0.520
4.050,0.295,0.430
4.052,0.440,0.340
4.054,0.405,0.245
4.056,0.435,0.160
4.058,0.255,0.080
4.060,0.025,0.010
4.062,-0.060,-0.045
4.064,-0.030,-0.090
4.066,-0.200,-0.115
4.068,-0.165,-0.130
4.070,-0.125,-0.130
4.072,0.010,-0.120
4.074,0.070,-0.105
4.076,-0.040,-0.090
4.078,0.080,-0.075
4.080,-0.015,-0.060
4.082,0.090,-0.055
4.084,0.050,-0.045
4.086,-0.025,-0.045
4.088,-0.030,-0.040
4.090,-0.050,-0.030
4.092,-0.080,-0.025
4.094,0.000,-0.020
4.096,0.110,-0.015
4.098,0.270,-0.020
4.100,0.260,-0.030
4.102,0.140,-0.045
4.104,-0.140,-0.060
4.106,-0.130,-0.080
4.108,-0.145,-0.095
4.110,-0.115,-0.105
4.112,-0.140,-0.105
4.114,-0.030,-0.105
4.116,0.160,-0.095
4.118,0.120,-0.090
4.120,0.060,-0.085
4.122,0.025,-0.085
4.124,0.030,-0.090
4.126,-0.260,-0.100
4.128,-0.165,-0.115
4.130,-0.170,-0.125
4.132,-0.080,-0.135
4.134,-0.010,-0.135
4.136,0.065,-0.135
4.138,0.160,-0.125
4.140,0.010,-0.110
4.142,-0.005,-0.095
4.144,-0.040,-0.080
4.146,-0.195,-0.060
4.148,-0.045,-0.045
4.150,-0.065,-0.030
4.152,0.035,-0.015
4.154,0.090,0.000
4.156,0.200,0.005
4.158,0.215,0.015
4.160,0.170,0.010
4.162,0.085,0.005
4.164,-0.040,-0.005
4.166,-0.100,-0.020
4.168,-0.125,-0.035
4.170,-0.085,-0.045
4.172,0.000,-0.050
4.174,0.070,-0.045
4.176,0.160,-0.035
4.178,0.125,-0.020
4.180,0.230,-0.005
4.182,0.085,0.010
4.184,0.100,0.015
4.186,-0.070,0.015
4.188,-0.060,0.000
4.190,-0.050,-0.015
4.192,-0.070,-0.035
4.194,-0.055,-0.055
4.196,0.170,-0.070
4.198,0.210,-0.070
4.200,0.130,-0.060
4.202,0.030,-0.040
4.204,0.010,-0.015
4.206,-0.060,0.005
4.208,-0.045,0.025
4.210,0.020,0.030
4.212,0.085,0.025
4.214,0.145,0.010
4.216,0.225,-0.010
4.218,0.110,-0.025
4.220,0.090,-0.040
4.222,0.010,-0.040
4.224,0.000,-0.030
4.226,-0.010,-0.010
4.228,-0.095,0.020
4.230,0.030,0.055
4.232,0.145,0.085
4.234,0.285,0.105
4.236,0.440,0.115
4.238,0.305,0.115
4.240,0.175,0.100
4.242,0.130,0.085
4.244,0.005,0.070
4.246,-0.020,0.055
4.248,0.040,0.055
4.250,0.080,0.060
4.252,0.200,0.075
4.254,0.165,0.100
4.256,0.290,0.130
4.258,0.375,0.155
4.260,0.400,0.180
4.262,0.270,0.200
4.264,0.225,0.210
4.266,0.190,0.215
4.268,0.010,0.215
4.270,0.305,0.220
4.272,0.305,0.220
4.274,0.260,0.230
4.276,0.475,0.235
4.278,0.465,0.245
4.280,0.350,0.255
4.282,0.295,0.260
4.284,0.260,0.255
4.286,0.275,0.245
4.288,0.270,0.225
4.290,0.110,0.200
4.292,0.175,0.180
4.294,0.315,0.160
4.296,0.380,0.150
4.298,0.300,0.150
4.300,0.330,0.155
4.302,0.215,0.170
4.304,0.180,0.185
4.306,0.155,0.195
4.308,0.150,0.195
4.310,0.170,0.175
4.312,0.205,0.140
4.314,0.230,0.095
4.316,0.205,0.040
4.318,0.025,-0.015
4.320,0.115,-0.060
4.322,-0.015,-0.090
4.324,-0.050,-0.100
4.326,-0.190,-0.100
4.328,-0.205,-0.080
4.330,0.020,-0.055
4.332,0.105,-0.035
4.334,0.120,-0.020
4.336,0.155,-0.015
4.338,0.140,-0.015
4.340,0.110,-0.025
4.342,-0.025,-0.030
4.344,0.015,-0.035
4.346,-0.150,-0.025
4.348,-0.100,-0.010
4.350,0.155,0.015
4.352,0.105,0.045
4.354,0.240,0.065
4.356,0.245,0.075
4.358,0.240,0.075
4.360,0.265,0.060
4.362,0.040,0.035
4.364,-0.045,0.005
4.366,-0.100,-0.025
4.368,-0.130,-0.045
4.370,-0.045,-0.060
4.372,-0.035,-0.060
4.374,0.100,-0.055
4.376,0.225,-0.040
4.378,0.145,-0.025
4.380,0.135,-0.015
4.382,0.050,-0.005
4.384,-0.070,-0.005
4.386,-0.085,-0.010
4.388,-0.015,-0.020
4.390,-0.060,-0.035
4.392,0.025,-0.050
4.394,0.065,-0.065
4.396,0.080,-0.080
4.398,0.135,-0.090
4.400,0.035,-0.095
4.402,-0.025,-0.100
4.404,-0.180,-0.100
4.406,-0.165,-0.100
4.408,-0.170,-0.095
4.410,-0.080,-0.095
4.412,-0.025,-0.095
4.414,0.130,-0.095
4.416,0.065,-0.095
4.418,0.030,-0.100
4.420,-0.030,-0.105
4.422,-0.040,-0.110
4.424,-0.130,-0.105
4.426,-0.145,-0.100
4.428,-0.145,-0.085
4.430,-0.090,-0.070
4.432,-0.025,-0.050
4.434,0.175,-0.030
4.436,0.250,-0.015
4.438,0.180,0.000
4.440,0.110,0.010
4.442,0.035,0.015
4.444,-0.045,0.020
4.446,-0.035,0.020
4.448,-0.060,0.020
4.450,0.080,0.020
4.452,0.065,0.020
4.454,0.230,0.015
4.456,0.215,0.010
4.458,0.120,0.000
4.460,0.125,-0.015
4.462,0.070,-0.030
4.464,-0.100,-0.045
4.466,-0.210,-0.055
4.468,-0.160,-0.060
4.470,0.020,-0.060
4.472,0.005,-0.050
4.474,0.190,-0.040
4.476,0.160,-0.025
4.478,0.195,-0.020
4.480,0.055,-0.020
4.482,0.080,-0.025
4.484,-0.135,-0.040
4.486,-0.175,-0.060
4.488,-0.200,-0.080
4.490,-0.115,-0.095
4.492,0.015,-0.105
4.494,0.180,-0.105
4.496,0.100,-0.100
4.498,0.140,-0.090
4.500,0.080,-0.075
4.502,-0.065,-0.060
4.504,-0.230,-0.045
4.506,-0.140,-0.035
4.508,-0.075,-0.030
4.510,0.060,-0.025
4.512,0.130,-0.030
4.514,0.145,-0.035
4.516,0.220,-0.040
4.518,0.050,-0.045
4.520,0.025,-0.045
4.522,0.005,-0.045
4.524,-0.110,-0.045
4.526,-0.090,-0.045
4.528,-0.170,-0.040
4.530,0.040,-0.040
4.532,0.115,-0.035
4.534,0.075,-0.035
4.536,0.155,-0.035
4.538,0.070,-0.035
4.540,0.160,-0.035
4.542,-0.025,-0.035
4.544,-0.090,-0.035
4.546,-0.090,-0.030
4.548,-0.080,-0.030
4.550,0.020,-0.030
4.552,0.050,-0.025
4.554,0.165,-0.025
4.556,0.155,-0.030
4.558,0.160,-0.030
4.560,-0.035,-0.035
4.562,0.040,-0.040
4.564,-0.090,-0.045
4.566,-0.075,-0.050
4.568,-0.130,-0.055
4.570,-0.100,-0.055
4.572,0.060,-0.060
4.574,0.100,-0.060
4.576,0.155,-0.060
4.578,0.185,-0.060
4.580,0.005,-0.060
4.582,-0.080,-0.060
4.584,-0.125,-0.060
4.586,-0.175,-0.060
4.588,-0.105,-0.060
4.590,0.045,-0.055
4.592,0.045,-0.050
4.594,0.230,-0.045
4.596,0.100,-0.040
4.598,0.035,-0.035
4.600,-0.005,-0.035
4.602,0.095,-0.040
4.604,-0.130,-0.055
4.606,-0.145,-0.070
4.608,-0.080,-0.090
4.610,0.010,-0.110
4.612,-0.040,-0.125
4.614,-0.050,-0.130
4.616,0.095,-0.120
4.618,0.005,-0.105
4.620,-0.040,-0.075
4.622,-0.070,-0.040
4.624,-0.030,-0.005
4.626,0.075,0.025
4.628,0.055,0.045
4.630,0.170,0.060
4.632,0.165,0.060
4.634,0.185,0.055
4.636,0.145,0.045
4.638,0.190,0.035
4.640,0.030,0.035
4.642,0.080,0.045
4.644,-0.045,0.065
4.646,0.110,0.090
4.648,0.100,0.115
4.650,0.215,0.140
4.652,0.340,0.155
4.654,0.360,0.160
4.656,0.360,0.150
4.658,0.165,0.130
4.660,0.080,0.105
4.662,0.020,0.075
4.664,0.000,0.045
4.666,0.025,0.030
4.668,0.050,0.020
4.670,0.090,0.015
4.672,0.145,0.020
4.674,0.225,0.030
4.676,0.185,0.030
4.678,0.100,0.030
4.680,0.005,0.015
4.682,-0.025,-0.005
4.684,-0.105,-0.030
4.686,-0.090,-0.055
4.688,-0.085,-0.080
4.690,-0.005,-0.100
4.692,0.075,-0.115
4.694,0.030,-0.120
4.696,-0.005,-0.125
4.698,-0.020,-0.125
4.700,-0.115,-0.130
4.702,-0.220,-0.135
4.704,-0.205,-0.145
4.706,-0.170,-0.155
4.708,-0.050,-0.165
4.710,-0.120,-0.175
4.712,-0.010,-0.175
4.714,0.100,-0.165
4.716,-0.120,-0.150
4.718,-0.150,-0.130
4.720,0.000,-0.110
4.722,-0.110,-0.090
4.724,-0.075,-0.070
4.726,0.000,-0.055
4.728,-0.150,-0.045
4.730,0.030,-0.035
4.732,0.160,-0.025
4.734,0.170,-0.015
4.736,0.165,-0.005
4.738,0.130,0.005
4.740,0.120,0.005
4.742,-0.060,0.005
4.744,-0.125,-0.005
4.746,-0.210,-0.025
4.748,-0.020,-0.045
4.750,0.120,-0.070
4.752,0.060,-0.085
4.754,0.080,-0.095
4.756,0.085,-0.095
4.758,-0.055,-0.085
4.760,-0.035,-0.070
4.762,-0.095,-0.060
4.764,-0.105,-0.050
4.766,-0.075,-0.055
4.768,-0.090,-0.065
4.770,-0.035,-0.085
4.772,0.060,-0.110
4.774,0.110,-0.130
4.776,0.025,-0.145
4.778,-0.135,-0.150
4.780,-0.130,-0.145
4.782,-0.260,-0.125
4.784,-0.165,-0.110
4.786,-0.110,-0.090
4.788,0.035,-0.075
4.790,0.030,-0.065
4.792,0.125,-0.055
4.794,0.115,-0.040
4.796,0.130,-0.015
4.798,0.065,0.030
4.800,0.085,0.100
4.802,0.155,0.195
4.804,0.220,0.305
4.806,0.345,0.425
4.808,0.690,0.545
4.810,0.740,0.650
4.812,1.040,0.720
4.814,1.010,0.760
4.816,0.895,0.755
4.818,0.690,0.715
4.820,0.530,0.640
4.822,0.420,0.540
4.824,0.290,0.425
4.826,0.410,0.315
4.828,0.385,0.210
4.830,0.270,0.120
4.832,0.075,0.045
4.834,0.095,-0.005
4.836,0.035,-0.035
4.838,-0.095,-0.045
4.840,0.025,-0.050
4.842,-0.145,-0.040
4.844,-0.090,-0.035
4.846,-0.030,-0.030
4.848,0.070,-0.030
4.850,0.145,-0.040
4.852,0.085,-0.055
4.854,0.080,-0.080
4.856,0.030,-0.105
4.858,-0.040,-0.125
4.860,-0.095,-0.145
4.862,-0.305,-0.150
4.864,-0.275,-0.150
4.866,-0.145,-0.145
4.868,-0.030,-0.130
4.870,-0.020,-0.115
4.872,0.160,-0.100
4.874,0.045,-0.090
4.876,0.030,-0.085
4.878,0.025,-0.085
4.880,-0.140,-0.090
4.882,-0.210,-0.100
4.884,-0.300,-0.105
4.886,-0.085,-0.105
4.888,-0.045,-0.105
4.890,0.015,-0.105
4.892,0.100,-0.100
4.894,0.090,-0.095
4.896,0.030,-0.090
4.898,-0.170,-0.090
4.900,-0.105,-0.085
4.902,-0.095,-0.085
4.904,-0.115,-0.085
4.906,-0.155,-0.085
4.908,-0.025,-0.080
4.910,0.015,-0.080
4.912,0.115,-0.075
4.914,0.095,-0.075
4.916,0.030,-0.075
4.918,-0.080,-0.080
4.920,-0.070,-0.080
4.922,-0.195,-0.080
4.924,-0.230,-0.075
4.926,-0.055,-0.070
4.928,0.065,-0.060
4.930,0.050,-0.045
4.932,0.200,-0.030
4.934,0.160,-0.020
4.936,0.095,-0.010
4.938,0.015,-0.005
4.940,-0.030,-0.005
4.942,-0.085,-0.010
4.944,-0.085,-0.015
4.946,0.025,-0.025
4.948,-0.045,-0.030
4.950,0.100,-0.030
4.952,0.085,-0.030
4.954,0.130,-0.020
4.956,0.125,-0.015
4.958,0.130,-0.005
4.960,-0.010,0.000
4.962,-0.050,0.000
4.964,-0.040,-0.005
4.966,-0.080,-0.010
4.968,-0.010,-0.020
4.970,0.010,-0.030
4.972,0.160,-0.035
4.974,0.165,-0.040
4.976,0.070,-0.040
4.978,0.020,-0.035
4.980,-0.085,-0.030
4.982,-0.140,-0.025
4.984,-0.075,-0.020
4.986,-0.010,-0.020
4.988,0.025,-0.020
4.990,0.075,-0.025
4.992,0.120,-0.030
4.994,0.165,-0.040
4.996,0.075,-0.040
4.998,0.020,-0.040
5.000,-0.090,-0.040
5.002,-0.185,-0.030
5.004,-0.105,-0.015
5.006,-0.010,0.005
5.008,0.140,0.025
5.010,0.155,0.055
5.012,0.315,0.085
5.014,0.325,0.115
5.016,0.215,0.150
5.018,0.170,0.175
5.020,0.180,0.200
5.022,0.210,0.215
5.024,0.185,0.220
5.026,0.170,0.220
5.028,0.095,0.215
5.030,0.365,0.205
5.032,0.450,0.195
5.034,0.375,0.190
5.036,0.280,0.185
5.038,0.200,0.190
5.040,0.195,0.190
5.042,0.115,0.195
5.044,0.080,0.195
5.046,0.095,0.190
5.048,0.140,0.185
5.050,0.390,0.175
5.052,0.365,0.165
5.054,0.305,0.155
5.056,0.295,0.155
5.058,0.135,0.160
5.060,0.030,0.170
5.062,0.165,0.180
5.064,0.130,0.195
5.066,0.220,0.205
5.068,0.190,0.205
5.070,0.370,0.195
5.072,0.350,0.175
5.074,0.290,0.155
5.076,0.190,0.130
5.078,0.180,0.110
5.080,0.005,0.090
5.082,-0.080,0.085
5.084,0.035,0.085
5.086,0.090,0.090
5.088,0.160,0.090
5.090,0.310,0.095
5.092,0.260,0.090
5.094,0.165,0.075
5.096,0.150,0.060
5.098,0.045,0.040
5.100,-0.115,0.015
5.102,-0.060,0.000
5.104,-0.010,-0.015
5.106,0.040,-0.025
5.108,-0.175,-0.025
5.110,0.165,-0.025
5.112,0.250,-0.020
5.114,0.095,-0.015
5.116,0.025,-0.015
5.118,0.095,-0.015
5.120,-0.235,-0.020
5.122,-0.005,-0.020
5.124,-0.150,-0.025
5.126,-0.025,-0.025
5.128,0.045,-0.030
5.130,0.145,-0.030
5.132,0.145,-0.030
5.134,0.085,-0.035
5.136,-0.025,-0.040
5.138,-0.040,-0.045
5.140,-0.115,-0.055
5.142,-0.160,-0.065
5.144,-0.175,-0.070
5.146,-0.090,-0.075
5.148,0.030,-0.075
5.150,0.135,-0.075
5.152,0.090,-0.070
5.154,0.050,-0.065
5.156,0.035,-0.055
5.158,-0.030,-0.050
5.160,-0.115,-0.045
5.162,-0.110,-0.040
5.164,-0.190,-0.035
5.166,-0.025,-0.035
5.168,0.045,-0.035
5.170,0.160,-0.040
5.172,0.125,-0.045
5.174,0.045,-0.050
5.176,0.005,-0.060
5.178,0.005,-0.065
5.180,-0.185,-0.070
5.182,-0.170,-0.075
5.184,-0.115,-0.075
5.186,-0.030,-0.070
5.188,-0.015,-0.065
5.190,0.020,-0.055
5.192,0.185,-0.045
5.194,0.100,-0.040
5.196,0.055,-0.035
5.198,-0.110,-0.040
5.200,-0.145,-0.055
5.202,-0.110,-0.070
5.204,-0.060,-0.090
5.206,-0.065,-0.110
5.208,-0.120,-0.120
5.210,0.025,-0.130
5.212,-0.010,-0.125
5.214,-0.130,-0.115
5.216,0.010,-0.095
5.218,0.015,-0.075
5.220,-0.160,-0.055
5.222,-0.165,-0.035
5.224,-0.070,-0.025
5.226,0.040,-0.020
5.228,0.205,-0.025
5.230,0.100,-0.030
5.232,0.050,-0.040
5.234,-0.010,-0.045
5.236,0.050,-0.050
5.238,-0.090,-0.045
5.240,-0.105,-0.040
5.242,-0.155,-0.035
5.244,-0.045,-0.025
5.246,-0.005,-0.015
5.248,0.170,-0.010
5.250,0.205,-0.010
5.252,0.100,-0.015
5.254,0.040,-0.025
5.256,-0.090,-0.035
5.258,-0.090,-0.045
5.260,-0.095,-0.055
5.262,-0.145,-0.060
5.264,-0.075,-0.055
5.266,0.025,-0.050
5.268,0.070,-0.045
5.270,0.135,-0.030
5.272,0.140,-0.020
5.274,0.080,-0.010
5.276,0.070,-0.005
5.278,-0.050,0.000
5.280,-0.060,0.005
5.282,-0.110,0.005
5.284,-0.115,0.005
5.286,0.020,0.005
5.288,0.130,0.000
5.290,0.270,-0.010
5.292,0.205,-0.020
5.294,0.065,-0.035
5.296,-0.105,-0.050
5.298,-0.180,-0.070
5.300,-0.205,-0.085
5.302,-0.200,-0.095
5.304,-0.160,-0.100
5.306,-0.045,-0.100
5.308,0.075,-0.095
5.310,0.130,-0.085
5.312,0.105,-0.080
5.314,0.065,-0.070
5.316,-0.075,-0.065
5.318,-0.240,-0.065
5.320,-0.190,-0.070
5.322,-0.130,-0.075
5.324,-0.130,-0.080
5.326,-0.005,-0.085
5.328,0.075,-0.085
5.330,0.025,-0.085
5.332,0.105,-0.080
5.334,0.020,-0.070
5.336,0.025,-0.065
5.338,-0.230,-0.060
5.340,-0.230,-0.060
5.342,-0.115,-0.065
5.344,0.005,-0.065
5.346,-0.025,-0.070
5.348,0.015,-0.075
5.350,0.110,-0.080
5.352,0.075,-0.075
5.354,0.055,-0.070
5.356,-0.035,-0.065
5.358,-0.220,-0.050
5.360,-0.110,-0.040
5.362,-0.090,-0.025
5.364,-0.055,-0.010
5.366,0.020,0.005
5.368,0.115,0.020
5.370,0.145,0.030
5.372,0.230,0.035
5.374,0.165,0.035
5.376,0.125,0.030
5.378,-0.090,0.015
5.380,-0.120,-0.005
5.382,-0.175,-0.030
5.384,-0.010,-0.055
5.386,-0.110,-0.075
5.388,0.090,-0.085
5.390,0.020,-0.090
5.392,-0.005,-0.085
5.394,0.025,-0.075
5.396,0.040,-0.055
5.398,-0.090,-0.040
5.400,-0.215,-0.025
5.402,-0.150,-0.020
5.404,0.050,-0.020
5.406,0.030,-0.025
5.408,0.115,-0.035
5.410,0.080,-0.045
5.412,0.115,-0.045
5.414,0.005,-0.040
5.416,-0.045,-0.030
5.418,-0.180,-0.010
5.420,-0.065,0.010
5.422,-0.050,0.025
5.424,0.230,0.040
5.426,0.120,0.045
5.428,0.125,0.045
5.430,0.065,0.040
5.432,0.160,0.035
5.434,0.020,0.025
5.436,0.050,0.025
5.438,-0.030,0.025
5.440,-0.005,0.030
5.442,-0.075,0.040
5.444,0.040,0.050
5.446,0.200,0.055
5.448,0.220,0.055
5.450,0.130,0.050
5.452,0.135,0.040
5.454,0.055,0.030
5.456,-0.035,0.015
5.458,-0.160,0.005
5.460,-0.090,-0.005
5.462,0.015,-0.010
5.464,0.065,-0.015
5.466,0.000,-0.015
5.468,0.130,-0.010
5.470,0.120,-0.010
5.472,0.050,-0.015
5.474,-0.065,-0.020
5.476,-0.075,-0.025
5.478,-0.040,-0.040
5.480,-0.115,-0.050
5.482,-0.145,-0.060
5.484,-0.020,-0.075
5.486,-0.005,-0.085
5.488,0.030,-0.090
5.490,0.010,-0.100
5.492,-0.055,-0.105
5.494,-0.085,-0.115
5.496,-0.155,-0.120
5.498,-0.210,-0.125
5.500,-0.300,-0.130
5.502,-0.165,-0.135
5.504,-0.060,-0.135
5.506,-0.030,-0.130
5.508,-0.040,-0.125
5.510,0.045,-0.115
5.512,-0.020,-0.105
5.514,-0.075,-0.100
5.516,-0.140,-0.095
5.518,-0.175,-0.090
5.520,-0.170,-0.090
5.522,-0.215,-0.095
5.524,-0.095,-0.100
5.526,0.020,-0.105
5.528,0.030,-0.110
5.530,-0.015,-0.110
5.532,0.060,-0.110
5.534,0.000,-0.100
5.536,-0.275,-0.090
5.538,-0.165,-0.075
5.540,-0.125,-0.060
5.542,-0.135,-0.040
5.544,0.050,-0.025
5.546,0.085,-0.010
5.548,0.175,0.000
5.550,0.165,0.005
5.552,0.015,0.010
5.554,-0.035,0.005
5.556,0.030,0.000
5.558,-0.070,-0.010
5.560,-0.150,-0.025
5.562,-0.130,-0.035
5.564,-0.085,-0.040
5.566,-0.025,-0.035
5.568,0.190,-0.020
5.570,0.140,0.010
5.572,0.150,0.060
5.574,0.130,0.120
5.576,0.165,0.195
5.578,0.120,0.280
5.580,0.330,0.365
5.582,0.385,0.440
5.584,0.580,0.510
5.586,0.775,0.560
5.588,0.750,0.585
5.590,0.770,0.590
5.592,0.555,0.575
5.594,0.510,0.530
5.596,0.450,0.470
5.598,0.270,0.390
5.600,0.150,0.295
5.602,0.330,0.195
5.604,0.165,0.090
5.606,0.000,-0.005
5.608,-0.140,-0.080
5.610,-0.025,-0.135
5.612,-0.140,-0.165
5.614,-0.090,-0.170
5.616,-0.235,-0.155
5.618,-0.260,-0.120
5.620,-0.080,-0.080
5.622,0.020,-0.040
5.624,-0.010,-0.015
5.626,0.065,-0.005
5.628,0.150,-0.005
5.630,0.055,-0.025
5.632,0.035,-0.045
5.634,-0.055,-0.065
5.636,-0.090,-0.075
5.638,-0.185,-0.075
5.640,-0.175,-0.060
5.642,-0.050,-0.040
5.644,-0.110,-0.020
5.646,0.175,-0.010
5.648,0.160,-0.005
5.650,0.165,-0.015
5.652,0.010,-0.040
5.654,-0.050,-0.070
5.656,-0.215,-0.100
5.658,-0.210,-0.125
5.660,-0.320,-0.140
5.662,-0.205,-0.140
5.664,-0.090,-0.130
5.666,0.160,-0.105
5.668,0.055,-0.075
5.670,0.055,-0.050
5.672,0.000,-0.035
5.674,-0.085,-0.025
5.676,-0.115,-0.030
5.678,-0.080,-0.040
5.680,-0.185,-0.060
5.682,-0.035,-0.075
5.684,-0.080,-0.090
5.686,0.015,-0.100
5.688,-0.015,-0.105
5.690,0.030,-0.100
5.692,-0.050,-0.090
5.694,-0.085,-0.075
5.696,-0.095,-0.060
5.698,-0.165,-0.045
5.700,-0.075,-0.030
5.702,-0.065,-0.020
5.704,-0.095,-0.010
5.706,0.160,0.000
5.708,0.150,0.005
5.710,0.120,0.005
5.712,0.050,0.005
5.714,-0.025,0.000
5.716,-0.140,-0.010
5.718,-0.200,-0.020
5.720,-0.105,-0.030
5.722,-0.065,-0.040
5.724,-0.045,-0.045
5.726,0.115,-0.050
5.728,0.125,-0.050
5.730,0.070,-0.045
5.732,0.005,-0.040
5.734,-0.060,-0.025
5.736,-0.170,-0.010
5.738,-0.160,0.005
5.740,-0.030,0.015
5.742,0.075,0.025
5.744,0.175,0.030
5.746,0.185,0.030
5.748,0.195,0.025
5.750,0.165,0.015
5.752,-0.085,0.005
5.754,-0.030,-0.005
5.756,-0.170,-0.010
5.758,-0.190,-0.015
5.760,-0.185,-0.020
5.762,0.120,-0.015
5.764,0.040,-0.005
5.766,0.150,0.005
5.768,0.190,0.020
5.770,0.195,0.035
5.772,0.095,0.050
5.774,-0.005,0.065
5.776,-0.205,0.080
5.778,-0.040,0.090
5.780,0.055,0.095
5.782,0.115,0.100
5.784,0.160,0.100
5.786,0.305,0.105
5.788,0.265,0.105
5.790,0.175,0.105
5.792,0.110,0.110
5.794,0.040,0.115
5.796,0.020,0.125
5.798,0.055,0.140
5.800,0.115,0.150
5.802,0.175,0.155
5.804,0.210,0.160
5.806,0.290,0.160
5.808,0.260,0.160
5.810,0.275,0.155
5.812,0.130,0.160
5.814,0.085,0.165
5.816,0.130,0.175
5.818,0.020,0.190
5.820,0.155,0.210
5.822,0.315,0.235
5.824,0.320,0.255
5.826,0.425,0.275
5.828,0.480,0.280
5.830,0.270,0.280
5.832,0.250,0.275
5.834,0.270,0.255
5.836,0.200,0.235
5.838,0.035,0.210
5.840,0.060,0.190
5.842,0.095,0.175
5.844,0.280,0.165
5.846,0.305,0.155
5.848,0.275,0.155
5.850,0.200,0.155
5.852,0.130,0.155
5.854,0.050,0.155
5.856,-0.015,0.145
5.858,0.060,0.135
5.860,0.065,0.125
5.862,0.205,0.105
5.864,0.140,0.090
5.866,0.145,0.070
5.868,0.180,0.050
5.870,0.095,0.040
5.872,0.075,0.025
5.874,-0.095,0.020
5.876,-0.175,0.015
5.878,-0.100,0.010
5.880,-0.055,0.005
5.882,0.100,0.000
5.884,0.050,-0.005
5.886,0.140,-0.005
5.888,0.095,-0.010
5.890,0.045,-0.010
5.892,-0.005,-0.015
5.894,-0.175,-0.015
5.896,-0.165,-0.010
5.898,-0.055,-0.015
5.900,-0.045,-0.015
5.902,0.000,-0.025
5.904,0.100,-0.030
5.906,0.100,-0.040
5.908,-0.005,-0.050
5.910,-0.090,-0.055
5.912,-0.080,-0.060
5.914,-0.225,-0.055
5.916,-0.115,-0.045
5.918,-0.035,-0.035
5.920,-0.040,-0.020
5.922,0.045,-0.010
5.924,0.090,-0.005
5.926,0.065,-0.005
5.928,0.075,-0.010
5.930,0.040,-0.020
5.932,-0.050,-0.035
5.934,-0.210,-0.045
5.936,-0.170,-0.055
5.938,-0.155,-0.065
5.940,-0.115,-0.065
5.942,0.015,-0.065
5.944,0.070,-0.060
5.946,0.045,-0.055
5.948,0.065,-0.045
5.950,0.040,-0.040
5.952,-0.120,-0.040
5.954,-0.245,-0.035
5.956,-0.095,-0.040
5.958,-0.110,-0.040
5.960,-0.055,-0.040
5.962,-0.055,-0.040
5.964,0.135,-0.040
5.966,0.045,-0.035
5.968,0.110,-0.035
5.970,-0.025,-0.030
5.972,-0.150,-0.030
5.974,-0.165,-0.035
5.976,-0.050,-0.040
5.978,-0.175,-0.050
5.980,-0.120,-0.065
5.982,-0.025,-0.075
5.984,0.130,-0.080
5.986,-0.035,-0.085
5.988,-0.035,-0.080
5.990,0.005,-0.070
5.992,-0.100,-0.055
5.994,-0.200,-0.040
5.996,-0.125,-0.025
5.998,-0.115,-0.020
6.000,-0.020,-0.020
6.002,0.050,-0.030
6.004,-0.025,-0.040
6.006,0.105,-0.055
6.008,-0.005,-0.065
6.010,-0.080,-0.070
6.012,-0.080,-0.065
6.014,-0.205,-0.050
6.016,-0.135,-0.035
6.018,-0.065,-0.020
6.020,-0.005,0.000
6.022,0.010,0.005
6.024,0.050,0.010
6.026,0.145,0.005
6.028,0.075,-0.005
6.030,0.055,-0.020
6.032,-0.095,-0.030
6.034,-0.210,-0.035
6.036,-0.200,-0.040
6.038,-0.060,-0.035
6.040,0.015,-0.025
6.042,-0.015,-0.015
6.044,0.155,-0.010
6.046,0.105,-0.005
6.048,0.050,-0.005
6.050,-0.035,-0.010
6.052,-0.120,-0.020
6.054,-0.255,-0.025
6.056,-0.175,-0.030
6.058,-0.030,-0.035
6.060,0.025,-0.035
6.062,-0.020,-0.035
6.064,0.105,-0.030
6.066,0.140,-0.025
6.068,0.115,-0.025
6.070,-0.120,-0.020
6.072,-0.120,-0.025
6.074,-0.155,-0.030
6.076,-0.120,-0.040
6.078,-0.095,-0.050
6.080,-0.010,-0.065
6.082,-0.075,-0.080
6.084,0.035,-0.095
6.086,-0.025,-0.105
6.088,-0.060,-0.115
6.090,-0.110,-0.120
6.092,-0.140,-0.120
6.094,-0.265,-0.115
6.096,-0.235,-0.110
6.098,-0.150,-0.095
6.100,-0.070,-0.085
6.102,-0.025,-0.075
6.104,0.060,-0.065
6.106,0.070,-0.060
6.108,0.045,-0.055
6.110,-0.010,-0.050
6.112,-0.210,-0.045
6.114,-0.080,-0.045
6.116,-0.200,-0.040
6.118,-0.155,-0.035
6.120,-0.020,-0.035
6.122,-0.005,-0.030
6.124,0.125,-0.030
6.126,0.105,-0.025
6.128,0.080,-0.020
6.130,-0.055,-0.015
6.132,-0.100,-0.010
6.134,-0.120,0.000
6.136,-0.095,0.005
6.138,-0.060,0.010
6.140,-0.030,0.010
6.142,0.085,0.010
6.144,0.100,0.005
6.146,0.125,-0.005
6.148,0.045,-0.010
6.150,-0.035,-0.015
6.152,-0.155,-0.015
6.154,-0.185,-0.005
6.156,-0.075,0.005
6.158,-0.005,0.025
6.160,0.035,0.040
6.162,0.200,0.055
6.164,0.170,0.065
6.166,0.180,0.065
6.168,0.075,0.060
6.170,0.040,0.045
6.172,-0.115,0.030
6.174,-0.100,0.010
6.176,-0.105,-0.005
6.178,-0.140,-0.020
6.180,-0.095,-0.025
6.182,0.085,-0.030
6.184,0.105,-0.035
6.186,0.080,-0.035
6.188,-0.035,-0.035
6.190,-0.165,-0.040
6.192,-0.150,-0.035
6.194,-0.120,-0.035
6.196,-0.125,-0.025
6.198,-0.050,-0.015
6.200,0.065,-0.005
6.202,0.075,0.010
6.204,0.165,0.015
6.206,0.080,0.020
6.208,0.025,0.020
6.210,-0.050,0.010
6.212,-0.120,0.000
6.214,-0.185,-0.015
6.216,-0.090,-0.025
6.218,-0.175,-0.035
6.220,-0.010,-0.035
6.222,0.160,-0.035
6.224,0.115,-0.030
6.226,0.025,-0.025
6.228,0.045,-0.020
6.230,-0.130,-0.020
6.232,-0.225,-0.030
6.234,-0.170,-0.040
6.236,-0.180,-0.050
6.238,-0.135,-0.065
6.240,-0.050,-0.075
6.242,0.050,-0.080
6.244,0.085,-0.080
6.246,0.070,-0.075
6.248,-0.115,-0.070
6.250,-0.095,-0.060
6.252,-0.190,-0.050
6.254,-0.180,-0.045
6.256,-0.175,-0.045
6.258,-0.170,-0.055
6.260,-0.040,-0.065
6.262,0.015,-0.085
6.264,0.120,-0.110
6.266,-0.060,-0.135
6.268,-0.155,-0.160
6.270,-0.285,-0.180
6.272,-0.345,-0.195
6.274,-0.390,-0.210
6.276,-0.345,-0.210
6.278,-0.285,-0.205
6.280,-0.125,-0.195
6.282,-0.040,-0.175
6.284,-0.010,-0.155
6.286,-0.025,-0.130
6.288,-0.060,-0.105
6.290,-0.130,-0.085
6.292,-0.245,-0.065
6.294,-0.195,-0.050
6.296,-0.175,-0.045
6.298,-0.040,-0.035
6.300,-0.045,-0.030
6.302,0.090,-0.025
6.304,0.140,-0.020
6.306,0.090,-0.010
6.308,-0.065,-0.005
6.310,0.010,0.005
6.312,-0.205,0.020
6.314,-0.065,0.035
6.316,-0.030,0.060
6.318,0.005,0.095
6.320,0.150,0.140
6.322,0.345,0.200
6.324,0.370,0.270
6.326,0.420,0.350
6.328,0.390,0.435
6.330,0.555,0.515
6.332,0.500,0.580
6.334,0.460,0.630
6.336,0.700,0.660
6.338,0.680,0.655
6.340,0.580,0.630
6.342,0.455,0.575
6.344,0.600,0.505
6.346,0.540,0.420
6.348,0.410,0.325
6.350,0.325,0.225
6.352,0.050,0.130
6.354,-0.245,0.040
6.356,-0.185,-0.040
6.358,-0.265,-0.105
6.360,-0.275,-0.155
6.362,-0.075,-0.180
6.364,-0.035,-0.190
6.366,0.000,-0.185
6.368,-0.235,-0.160
6.370,-0.125,-0.135
6.372,-0.170,-0.105
6.374,-0.235,-0.080
6.376,-0.345,-0.060
6.378,-0.080,-0.055
6.380,-0.040,-0.060
6.382,0.095,-0.070
6.384,0.085,-0.085
6.386,-0.100,-0.100
6.388,-0.200,-0.110
6.390,-0.130,-0.110
6.392,-0.210,-0.105
6.394,-0.290,-0.090
6.396,-0.215,-0.075
6.398,-0.075,-0.060
6.400,-0.030,-0.050
6.402,0.080,-0.040
6.404,0.075,-0.035
6.406,0.070,-0.035
6.408,0.050,-0.035
6.410,-0.120,-0.035
6.412,-0.315,-0.030
6.414,-0.170,-0.030
6.416,-0.175,-0.025
6.418,-0.005,-0.020
6.420,0.075,-0.020
6.422,-0.005,-0.025
6.424,0.080,-0.030
6.426,0.055,-0.035
6.428,-0.080,-0.045
6.430,-0.130,-0.050
6.432,-0.180,-0.055
6.434,-0.200,-0.055
6.436,-0.040,-0.050
6.438,-0.150,-0.050
6.440,-0.005,-0.050
6.442,0.070,-0.050
6.444,0.055,-0.055
6.446,-0.020,-0.065
6.448,-0.185,-0.075
6.450,-0.170,-0.090
6.452,-0.210,-0.100
6.454,-0.185,-0.110
6.456,-0.225,-0.115
6.458,-0.095,-0.120
6.460,-0.105,-0.125
6.462,-0.070,-0.125
6.464,-0.055,-0.120
6.466,-0.030,-0.115
6.468,-0.040,-0.110
6.470,-0.215,-0.100
6.472,-0.250,-0.090
6.474,-0.215,-0.075
6.476,-0.080,-0.060
6.478,-0.145,-0.045
6.480,-0.005,-0.030
6.482,0.160,-0.015
6.484,0.110,-0.005
6.486,0.010,0.005
6.488,-0.020,0.010
6.490,-0.135,0.015
6.492,-0.125,0.020
6.494,-0.095,0.020
6.496,0.050,0.025
6.498,0.005,0.025
6.500,0.050,0.025
6.502,0.105,0.025
6.504,0.085,0.025
6.506,0.020,0.025
6.508,-0.030,0.020
6.510,-0.080,0.020
6.512,-0.165,0.020
6.514,-0.110,0.025
6.516,-0.060,0.030
6.518,0.095,0.035
6.520,0.155,0.050
6.522,0.145,0.060
6.524,0.165,0.070
6.526,0.010,0.080
6.528,0.100,0.085
6.530,-0.025,0.085
6.532,-0.120,0.080
6.534,-0.075,0.075
6.536,0.010,0.060
6.538,0.025,0.050
6.540,0.175,0.045
6.542,0.165,0.040
6.544,0.155,0.040
6.546,0.045,0.050
6.548,-0.030,0.065
6.550,-0.075,0.085
6.552,-0.080,0.105
6.554,0.015,0.125
6.556,0.135,0.145
6.558,0.285,0.155
6.560,0.460,0.155
6.562,0.125,0.155
6.564,0.085,0.145
6.566,0.105,0.130
6.568,0.135,0.120
6.570,-0.035,0.115
6.572,-0.020,0.115
6.574,-0.070,0.125
6.576,0.085,0.140
6.578,0.175,0.165
6.580,0.405,0.190
6.582,0.330,0.220
6.584,0.290,0.250
6.586,0.300,0.270
6.588,0.215,0.280
6.590,0.090,0.280
6.592,0.165,0.275
6.594,0.090,0.260
6.596,0.225,0.240
6.598,0.185,0.220
6.600,0.320,0.200
6.602,0.350,0.180
6.604,0.345,0.165
6.606,0.040,0.155
6.608,-0.030,0.145
6.610,0.025,0.130
6.612,0.110,0.115
6.614,-0.035,0.095
6.616,-0.010,0.070
6.618,-0.030,0.045
6.620,0.015,0.015
6.622,0.055,-0.010
6.624,0.085,-0.035
6.626,0.065,-0.050
6.628,-0.095,-0.060
6.630,-0.270,-0.065
6.632,-0.250,-0.065
6.634,-0.185,-0.065
6.636,-0.080,-0.060
6.638,-0.075,-0.065
6.640,0.035,-0.070
6.642,0.025,-0.075
6.644,-0.080,-0.085
6.646,-0.160,-0.090
6.648,-0.125,-0.090
6.650,-0.235,-0.085
6.652,-0.220,-0.080
6.654,-0.175,-0.070
6.656,-0.095,-0.060
6.658,0.055,-0.055
6.660,0.070,-0.050
6.662,-0.045,-0.050
6.664,-0.035,-0.050
6.666,-0.075,-0.055
6.668,-0.080,-0.060
6.670,-0.230,-0.060
6.672,-0.220,-0.055
6.674,-0.100,-0.055
6.676,-0.075,-0.050
6.678,-0.030,-0.045
6.680,-0.045,-0.045
6.682,0.100,-0.045
6.684,-0.070,-0.050
6.686,-0.130,-0.055
6.688,-0.165,-0.065
6.690,-0.225,-0.065
6.692,-0.120,-0.060
6.694,-0.185,-0.050
6.696,-0.045,-0.030
6.698,0.025,-0.010
6.700,0.235,0.010
6.702,0.075,0.030
6.704,-0.035,0.035
6.706,-0.120,0.030
6.708,-0.070,0.020
6.710,-0.075,-0.005
6.712,-0.090,-0.030
6.714,-0.140,-0.060
6.716,-0.175,-0.085
6.718,-0.105,-0.100
6.720,-0.025,-0.110
6.722,0.010,-0.110
6.724,-0.125,-0.110
6.726,-0.175,-0.105
6.728,-0.110,-0.100
6.730,-0.265,-0.100
6.732,-0.200,-0.105
6.734,-0.200,-0.115
6.736,-0.225,-0.125
6.738,-0.155,-0.130
6.740,-0.035,-0.130
6.742,-0.025,-0.125
6.744,-0.065,-0.110
6.746,-0.110,-0.090
6.748,-0.080,-0.070
6.750,-0.170,-0.050
6.752,-0.260,-0.035
6.754,-0.260,-0.030
6.756,-0.020,-0.030
6.758,-0.015,-0.035
6.760,0.075,-0.045
6.762,0.015,-0.055
6.764,-0.045,-0.060
6.766,-0.065,-0.060
6.768,-0.190,-0.055
6.770,-0.190,-0.040
6.772,-0.110,-0.030
6.774,-0.130,-0.020
6.776,-0.135,-0.020
6.778,0.065,-0.020
6.780,0.005,-0.030
6.782,0.025,-0.040
6.784,0.005,-0.055
6.786,-0.070,-0.065
6.788,-0.265,-0.070
6.790,-0.220,-0.065
6.792,-0.170,-0.055
6.794,-0.140,-0.040
6.796,-0.070,-0.025
6.798,0.005,-0.010
6.800,0.225,0.005
6.802,0.080,0.015
6.804,0.005,0.015
6.806,-0.020,0.010
6.808,-0.145,0.000
6.810,-0.205,-0.015
6.812,-0.315,-0.035
6.814,-0.055,-0.050
6.816,-0.085,-0.065
6.818,-0.065,-0.080
6.820,0.060,-0.090
6.822,-0.050,-0.095
6.824,-0.140,-0.100
6.826,-0.145,-0.105
6.828,-0.190,-0.105
6.830,-0.220,-0.100
6.832,-0.230,-0.100
6.834,-0.230,-0.095
6.836,-0.190,-0.090
6.838,-0.065,-0.090
6.840,0.010,-0.085
6.842,-0.015,-0.080
6.844,0.025,-0.075
6.846,-0.045,-0.070
6.848,-0.225,-0.065
6.850,-0.315,-0.060
6.852,-0.180,-0.060
6.854,-0.260,-0.060
6.856,-0.075,-0.065
6.858,-0.015,-0.070
6.860,0.050,-0.070
6.862,0.085,-0.075
6.864,-0.080,-0.070
6.866,-0.030,-0.065
6.868,-0.225,-0.055
6.870,-0.290,-0.040
6.872,-0.160,-0.030
6.874,-0.080,-0.025
6.876,-0.120,-0.025
6.878,0.120,-0.025
6.880,0.060,-0.030
6.882,0.030,-0.040
6.884,-0.125,-0.045
6.886,-0.015,-0.045
6.888,-0.220,-0.045
6.890,-0.320,-0.035
6.892,-0.140,-0.020
6.894,-0.075,-0.005
6.896,-0.015,0.005
6.898,0.195,0.015
6.900,0.125,0.015
6.902,-0.010,0.010
6.904,-0.095,-0.005
6.906,0.015,-0.020
6.908,-0.260,-0.040
6.910,-0.210,-0.055
6.912,-0.165,-0.065
6.914,-0.165,-0.070
6.916,-0.165,-0.070
6.918,0.065,-0.060
6.920,0.050,-0.050
6.922,-0.010,-0.035
6.924,0.005,-0.020
6.926,-0.095,-0.010
6.928,-0.225,0.000
6.930,-0.170,0.005
6.932,-0.115,0.010
6.934,-0.040,0.010
6.936,0.035,0.010
6.938,0.150,0.010
6.940,0.045,0.010
6.942,0.040,0.015
6.944,0.020,0.020
6.946,-0.065,0.025
6.948,-0.185,0.025
6.950,-0.090,0.030
6.952,-0.125,0.035
6.954,-0.060,0.035
6.956,0.060,0.035
6.958,0.120,0.030
6.960,0.030,0.025
6.962,0.110,0.025
6.964,0.025,0.020
6.966,-0.055,0.020
6.968,-0.155,0.015
6.970,-0.265,0.010
6.972,-0.220,0.005
6.974,0.010,0.000
6.976,0.070,-0.010
6.978,0.100,-0.020
6.980,0.095,-0.030
6.982,-0.090,-0.040
6.984,-0.080,-0.045
6.986,-0.200,-0.055
6.988,-0.345,-0.060
6.990,-0.190,-0.065
6.992,-0.125,-0.070
6.994,-0.075,-0.075
6.996,-0.065,-0.080
6.998,0.025,-0.085
7.000,-0.030,-0.085
7.002,-0.140,-0.090
7.004,-0.130,-0.095
7.006,-0.225,-0.095
7.008,-0.275,-0.095
7.010,-0.275,-0.095
7.012,-0.230,-0.090
7.014,-0.095,-0.090
7.016,-0.015,-0.090
7.018,0.030,-0.090
7.020,-0.065,-0.090
7.022,-0.095,-0.090
7.024,-0.195,-0.095
7.026,-0.180,-0.105
7.028,-0.325,-0.115
7.030,-0.220,-0.130
7.032,-0.285,-0.145
7.034,-0.250,-0.160
7.036,-0.100,-0.175
7.038,-0.090,-0.185
7.040,-0.085,-0.190
7.042,-0.190,-0.185
7.044,-0.275,-0.170
7.046,-0.305,-0.150
7.048,-0.340,-0.130
7.050,-0.310,-0.105
7.052,-0.145,-0.080
7.054,0.025,-0.065
7.056,0.010,-0.050
7.058,0.110,-0.040
7.060,0.090,-0.030
7.062,-0.085,-0.020
7.064,-0.065,-0.015
7.066,-0.215,-0.005
7.068,-0.290,0.005
7.070,-0.115,0.010
7.072,-0.055,0.010
7.074,-0.025,0.010
7.076,0.080,0.010
7.078,0.145,0.010
7.080,0.170,0.020
7.082,0.055,0.045
7.084,0.025,0.090
7.086,-0.035,0.150
7.088,-0.050,0.235
7.090,0.075,0.330
7.092,0.420,0.430
7.094,0.530,0.525
7.096,0.805,0.605
7.098,0.825,0.665
7.100,0.870,0.700
7.102,0.800,0.700
7.104,0.560,0.680
7.106,0.300,0.635
7.108,0.315,0.565
7.110,0.355,0.485
7.112,0.360,0.395
7.114,0.320,0.295
7.116,0.375,0.190
7.118,0.200,0.090
7.120,-0.055,0.000
7.122,-0.275,-0.080
7.124,-0.255,-0.135
7.126,-0.255,-0.175
7.128,-0.395,-0.185
7.130,-0.360,-0.175
7.132,-0.150,-0.150
7.134,-0.170,-0.115
7.136,0.035,-0.075
7.138,0.155,-0.040
7.140,0.035,-0.020
7.142,-0.150,-0.015
7.144,-0.050,-0.025
7.146,-0.230,-0.040
7.148,-0.355,-0.065
7.150,-0.255,-0.085
7.152,-0.100,-0.100
7.154,-0.015,-0.100
7.156,-0.075,-0.090
7.158,0.050,-0.070
7.160,0.015,-0.045
7.162,-0.055,-0.020
7.164,-0.095,-0.005
7.166,-0.170,0.005
7.168,-0.155,0.000
7.170,-0.125,-0.015
7.172,-0.160,-0.040
7.174,-0.050,-0.070
7.176,0.035,-0.095
7.178,-0.090,-0.115
7.180,-0.090,-0.125
7.182,-0.140,-0.130
7.184,-0.210,-0.120
7.186,-0.230,-0.105
7.188,-0.180,-0.090
7.190,-0.225,-0.070
7.192,-0.155,-0.060
7.194,-0.045,-0.055
7.196,0.025,-0.055
7.198,0.035,-0.060
7.200,-0.110,-0.070
7.202,-0.060,-0.080
7.204,-0.245,-0.085
7.206,-0.235,-0.090
7.208,-0.175,-0.085
7.210,-0.135,-0.080
7.212,-0.195,-0.070
7.214,-0.110,-0.060
7.216,0.090,-0.050
7.218,-0.065,-0.040
7.220,0.035,-0.040
7.222,0.020,-0.040
7.224,-0.090,-0.045
7.226,-0.305,-0.055
7.228,-0.285,-0.065
7.230,-0.265,-0.075
7.232,-0.065,-0.080
7.234,-0.065,-0.085
7.236,-0.005,-0.085
7.238,-0.080,-0.075
7.240,0.005,-0.065
7.242,-0.025,-0.045
7.244,-0.190,-0.025
7.246,-0.140,0.000
7.248,-0.110,0.020
7.250,-0.090,0.035
7.252,-0.005,0.045
7.254,0.025,0.045
7.256,0.095,0.040
7.258,0.075,0.030
7.260,0.070,0.020
7.262,0.025,0.005
7.264,-0.030,-0.005
7.266,-0.165,-0.015
7.268,-0.275,-0.020
7.270,-0.230,-0.025
7.272,-0.110,-0.025
7.274,0.060,-0.025
7.276,0.070,-0.025
7.278,0.120,-0.020
7.280,-0.060,-0.015
7.282,-0.130,0.000
7.284,-0.070,0.010
7.286,-0.075,0.030
7.288,-0.155,0.050
7.290,-0.040,0.065
7.292,0.040,0.080
7.294,0.105,0.095
7.296,0.150,0.095
7.298,0.155,0.095
7.300,0.185,0.090
7.302,0.035,0.080
7.304,-0.090,0.075
7.306,-0.145,0.070
7.308,-0.050,0.065
7.310,-0.065,0.070
7.312,0.025,0.075
7.314,0.175,0.090
7.316,0.150,0.100
7.318,0.100,0.115
7.320,0.170,0.130
7.322,0.090,0.145
7.324,0.085,0.155
7.326,-0.020,0.165
7.328,-0.015,0.170
7.330,0.060,0.180
7.332,0.115,0.180
7.334,0.235,0.180
7.336,0.370,0.180
7.338,0.190,0.180
7.340,0.180,0.175
7.342,0.110,0.175
7.344,0.130,0.180
7.346,-0.025,0.185
7.348,0.000,0.190
7.350,0.100,0.200
7.352,0.155,0.200
7.354,0.205,0.205
7.356,0.310,0.200
7.358,0.245,0.190
7.360,0.215,0.180
7.362,0.080,0.165
7.364,-0.025,0.155
7.366,-0.030,0.145
7.368,-0.025,0.140
7.370,-0.030,0.140
7.372,0.140,0.145
7.374,0.240,0.145
7.376,0.220,0.140
7.378,0.175,0.130
7.380,0.065,0.115
7.382,-0.055,0.095
7.384,0.005,0.070
7.386,-0.115,0.045
7.388,-0.200,0.020
7.390,-0.080,0.000
7.392,-0.095,-0.015
7.394,0.040,-0.025
7.396,0.045,-0.030
7.398,0.000,-0.035
7.400,-0.075,-0.040
7.402,-0.160,-0.045
7.404,-0.200,-0.045
7.406,-0.200,-0.050
7.408,-0.125,-0.050
7.410,-0.195,-0.045
7.412,-0.075,-0.040
7.414,0.080,-0.030
7.416,0.065,-0.025
7.418,0.075,-0.025
7.420,-0.090,-0.030
7.422,-0.215,-0.040
7.424,-0.275,-0.055
7.426,-0.145,-0.075
7.428,-0.235,-0.090
7.430,-0.150,-0.105
7.432,-0.245,-0.105
7.434,-0.060,-0.100
7.436,0.035,-0.085
7.438,0.000,-0.070
7.440,-0.100,-0.050
7.442,-0.055,-0.040
7.444,-0.150,-0.030
7.446,-0.320,-0.035
7.448,-0.235,-0.040
7.450,-0.125,-0.050
7.452,0.005,-0.060
7.454,-0.005,-0.070
7.456,0.030,-0.070
7.458,0.005,-0.065
7.460,-0.085,-0.055
7.462,-0.150,-0.045
7.464,-0.280,-0.035
7.466,-0.170,-0.030
7.468,-0.155,-0.030
7.470,-0.170,-0.035
7.472,-0.135,-0.040
7.474,0.005,-0.050
7.476,0.105,-0.050
7.478,0.060,-0.050
7.480,-0.090,-0.045
7.482,-0.165,-0.035
7.484,-0.190,-0.030
7.486,-0.225,-0.025
7.488,-0.200,-0.025
7.490,-0.075,-0.030
7.492,-0.095,-0.040
7.494,0.065,-0.050
7.496,-0.050,-0.065
7.498,-0.020,-0.070
7.500,-0.065,-0.075
7.502,-0.125,-0.075
7.504,-0.215,-0.065
7.506,-0.220,-0.060
7.508,-0.175,-0.050
7.510,-0.230,-0.045
7.512,-0.070,-0.045
7.514,0.055,-0.050
7.516,-0.030,-0.055
7.518,0.045,-0.065
7.520,-0.020,-0.075
7.522,-0.180,-0.085
7.524,-0.280,-0.085
7.526,-0.330,-0.085
7.528,-0.280,-0.075
7.530,-0.135,-0.060
7.532,-0.030,-0.045
7.534,0.155,-0.025
7.536,0.105,-0.005
7.538,-0.010,0.005
7.540,-0.045,0.010
7.542,-0.045,0.010
7.544,-0.185,0.000
7.546,-0.170,-0.020
7.548,-0.255,-0.040
7.550,-0.180,-0.060
7.552,-0.145,-0.080
7.554,0.010,-0.090
7.556,-0.065,-0.090
7.558,0.035,-0.080
7.560,0.005,-0.065
7.562,-0.215,-0.045
7.564,-0.225,-0.030
7.566,-0.165,-0.015
7.568,-0.185,-0.015
7.570,-0.090,-0.020
7.572,-0.045,-0.030
7.574,-0.005,-0.040
7.576,0.060,-0.055
7.578,0.000,-0.060
7.580,-0.225,-0.060
7.582,-0.195,-0.050
7.584,-0.130,-0.035
7.586,-0.180,-0.015
7.588,-0.075,0.000
7.590,-0.090,0.005
7.592,-0.055,0.005
7.594,0.110,0.000
7.596,0.020,-0.015
7.598,-0.080,-0.035
7.600,-0.110,-0.050
7.602,-0.175,-0.065
7.604,-0.200,-0.070
7.606,-0.155,-0.070
7.608,-0.225,-0.065
7.610,-0.120,-0.055
7.612,-0.030,-0.045
7.614,-0.025,-0.035
7.616,0.040,-0.030
7.618,0.020,-0.025
7.620,-0.075,-0.030
7.622,-0.125,-0.035
7.624,-0.225,-0.045
7.626,-0.205,-0.055
7.628,-0.175,-0.070
7.630,-0.205,-0.080
7.632,-0.070,-0.090
7.634,0.005,-0.095
7.636,-0.045,-0.095
7.638,-0.090,-0.095
7.640,-0.145,-0.090
7.642,-0.240,-0.075
7.644,-0.245,-0.065
7.646,-0.280,-0.050
7.648,-0.140,-0.040
7.650,-0.090,-0.030
7.652,0.160,-0.025
7.654,0.000,-0.025
7.656,-0.115,-0.025
7.658,0.015,-0.030
7.660,-0.020,-0.030
7.662,-0.155,-0.035
7.664,-0.305,-0.040
7.666,-0.255,-0.045
7.668,-0.130,-0.050
7.670,-0.100,-0.055
7.672,0.010,-0.065
7.674,0.085,-0.075
7.676,-0.065,-0.085
7.678,-0.070,-0.090
7.680,-0.220,-0.090
7.682,-0.335,-0.085
7.684,-0.320,-0.075
7.686,-0.170,-0.065
7.688,-0.070,-0.050
7.690,0.020,-0.040
7.692,-0.005,-0.035
7.694,0.035,-0.035
7.696,-0.035,-0.040
7.698,-0.025,-0.045
7.700,-0.100,-0.055
7.702,-0.275,-0.065
7.704,-0.350,-0.070
7.706,-0.270,-0.065
7.708,-0.120,-0.060
7.710,0.030,-0.050
7.712,0.035,-0.040
7.714,0.085,-0.025
7.716,0.040,-0.010
7.718,-0.100,0.005
7.720,-0.120,0.015
7.722,-0.240,0.020
7.724,-0.115,0.030
7.726,-0.090,0.035
7.728,-0.050,0.045
7.730,0.060,0.055
7.732,0.115,0.065
7.734,0.110,0.075
7.736,0.180,0.085
7.738,0.000,0.090
7.740,0.015,0.085
7.742,-0.110,0.080
7.744,-0.155,0.065
7.746,-0.065,0.050
7.748,-0.045,0.035
7.750,-0.060,0.015
7.752,0.030,0.005
7.754,0.120,0.000
7.756,0.080,-0.005
7.758,-0.100,0.005
7.760,-0.015,0.010
7.762,-0.195,0.020
7.764,-0.270,0.025
7.766,-0.105,0.025
7.768,-0.040,0.015
7.770,-0.050,0.005
7.772,0.095,-0.010
7.774,0.020,-0.030
7.776,0.000,-0.045
7.778,-0.130,-0.055
7.780,-0.160,-0.060
7.782,-0.255,-0.060
7.784,-0.275,-0.050
7.786,-0.180,-0.045
7.788,-0.100,-0.035
7.790,-0.020,-0.030
7.792,0.055,-0.030
7.794,-0.035,-0.030
7.796,0.055,-0.040
7.798,-0.125,-0.050
7.800,-0.135,-0.060
7.802,-0.220,-0.075
7.804,-0.330,-0.085
7.806,-0.320,-0.095
7.808,-0.185,-0.100
7.810,-0.140,-0.100
7.812,-0.035,-0.100
7.814,0.040,-0.095
7.816,0.010,-0.090
7.818,-0.070,-0.085
7.820,-0.190,-0.080
7.822,-0.380,-0.080
7.824,-0.285,-0.085
7.826,-0.270,-0.095
7.828,-0.295,-0.110
7.830,-0.095,-0.120
7.832,0.025,-0.130
7.834,-0.025,-0.135
7.836,-0.085,-0.130
7.838,-0.225,-0.115
7.840,-0.220,-0.100
7.842,-0.260,-0.080
7.844,-0.305,-0.065
7.846,-0.180,-0.055
7.848,-0.075,-0.050
7.850,-0.090,-0.060
7.852,0.030,-0.070
7.854,0.005,-0.085
7.856,-0.110,-0.095
7.858,-0.150,-0.100
7.860,-0.185,-0.095
7.862,-0.275,-0.080
7.864,-0.275,-0.050
7.866,-0.170,-0.020
7.868,-0.100,0.010
7.870,0.030,0.035
7.872,0.240,0.050
7.874,0.225,0.055
7.876,0.000,0.055
7.878,-0.160,0.050
7.880,-0.050,0.050
7.882,-0.010,0.060
7.884,-0.170,0.090
7.886,-0.040,0.140
7.888,0.090,0.215
7.890,0.285,0.305
7.892,0.580,0.410
7.894,0.615,0.510
7.896,0.750,0.605
7.898,0.685,0.680
7.900,0.660,0.725
7.902,0.605,0.740
7.904,0.540,0.715
7.906,0.365,0.660
7.908,0.485,0.580
7.910,0.385,0.475
7.912,0.540,0.360
7.914,0.475,0.245
7.916,0.310,0.135
7.918,-0.145,0.040
7.920,-0.340,-0.040
7.922,-0.410,-0.095
7.924,-0.390,-0.130
7.926,-0.225,-0.145
7.928,-0.115,-0.145
7.930,-0.170,-0.130
7.932,-0.035,-0.105
7.934,0.085,-0.080
7.936,0.015,-0.055
7.938,-0.165,-0.035
7.940,-0.225,-0.030
7.942,-0.215,-0.030
7.944,-0.220,-0.035
7.946,-0.170,-0.045
7.948,-0.220,-0.055
7.950,-0.020,-0.065
7.952,0.040,-0.065
7.954,0.060,-0.060
7.956,-0.025,-0.050
7.958,-0.115,-0.040
7.960,-0.160,-0.030
7.962,-0.250,-0.025
7.964,-0.235,-0.030
7.966,-0.130,-0.040
7.968,-0.105,-0.055
7.970,-0.090,-0.070
7.972,0.045,-0.080
7.974,-0.060,-0.085
7.976,-0.070,-0.080
7.978,-0.115,-0.070
7.980,-0.235,-0.050
7.982,-0.270,-0.030
7.984,-0.125,-0.015
7.986,-0.035,-0.005
7.988,-0.065,-0.005
7.990,-0.020,-0.015
7.992,0.040,-0.030
7.994,-0.035,-0.050
7.996,-0.085,-0.065
7.998,-0.215,-0.075
8.000,-0.325,-0.075
8.002,-0.190,-0.070
8.004,-0.160,-0.060
8.006,-0.120,-0.045
8.008,-0.135,-0.040
8.010,0.010,-0.035
8.012,0.030,-0.040
8.014,-0.050,-0.045
8.016,-0.045,-0.055
8.018,-0.105,-0.065
8.020,-0.260,-0.075
8.022,-0.350,-0.080
8.024,-0.240,-0.080
8.026,-0.115,-0.075
8.028,-0.120,-0.070
8.030,0.035,-0.060
8.032,0.020,-0.050
8.034,-0.085,-0.040
8.036,-0.080,-0.030
8.038,-0.075,-0.015
8.040,-0.140,-0.005
8.042,-0.160,0.010
8.044,-0.150,0.020
8.046,-0.070,0.035
8.048,0.010,0.045
8.050,0.130,0.045
8.052,0.155,0.045
8.054,0.070,0.035
8.056,0.015,0.025
8.058,-0.060,0.010
8.060,-0.305,-0.005
8.062,-0.180,-0.015
8.064,-0.110,-0.020
8.066,-0.100,-0.025
8.068,-0.170,-0.020
8.070,0.100,-0.010
8.072,0.110,0.000
8.074,0.050,0.010
8.076,-0.115,0.020
8.078,-0.120,0.030
8.080,-0.115,0.040
8.082,-0.085,0.050
8.084,-0.070,0.050
8.086,0.035,0.055
8.088,0.045,0.055
8.090,0.040,0.060
8.092,0.120,0.060
8.094,0.155,0.065
8.096,-0.095,0.070
8.098,0.040,0.080
8.100,-0.140,0.090
8.102,-0.035,0.105
8.104,-0.040,0.115
8.106,0.000,0.125
8.108,0.180,0.135
8.110,0.310,0.140
8.112,0.145,0.145
8.114,0.100,0.145
8.116,0.100,0.145
8.118,0.025,0.150
8.120,-0.075,0.155
8.122,-0.085,0.160
8.124,0.075,0.170
8.126,0.110,0.185
8.128,0.240,0.195
8.130,0.250,0.205
8.132,0.305,0.210
8.134,0.270,0.215
8.136,0.205,0.220
8.138,0.000,0.220
8.140,-0.125,0.220
8.142,0.110,0.215
8.144,0.070,0.210
8.146,0.230,0.205
8.148,0.205,0.200
8.150,0.230,0.195
8.152,0.255,0.190
8.154,0.170,0.180
8.156,0.110,0.180
8.158,0.040,0.175
8.160,-0.100,0.175
8.162,0.040,0.170
8.164,0.100,0.165
8.166,0.125,0.160
8.168,0.130,0.145
8.170,0.080,0.125
8.172,0.220,0.105
8.174,0.100,0.080
8.176,-0.065,0.055
8.178,-0.115,0.040
8.180,-0.140,0.030
8.182,-0.135,0.030
8.184,0.010,0.035
8.186,-0.100,0.045
8.188,0.040,0.055
8.190,0.160,0.065
8.192,0.120,0.065
8.194,0.040,0.055
8.196,-0.015,0.040
8.198,0.010,0.020
8.200,-0.175,0.000
8.202,-0.335,-0.015
8.204,-0.225,-0.025
8.206,-0.075,-0.030
8.208,0.060,-0.030
8.210,0.145,-0.025
8.212,0.085,-0.020
8.214,-0.040,-0.015
8.216,-0.125,-0.015
8.218,-0.190,-0.025
8.220,-0.225,-0.035
8.222,-0.300,-0.050
8.224,-0.255,-0.060
8.226,-0.080,-0.065
8.228,-0.020,-0.070
8.230,0.050,-0.065
8.232,0.110,-0.055
8.234,-0.085,-0.045
8.236,-0.190,-0.040
8.238,-0.200,-0.035
8.240,-0.195,-0.030
8.242,-0.205,-0.035
8.244,-0.220,-0.045
8.246,-0.095,-0.060
8.248,-0.045,-0.070
8.250,0.010,-0.080
8.252,-0.015,-0.085
8.254,-0.030,-0.090
8.256,-0.250,-0.090
8.258,-0.220,-0.085
8.260,-0.265,-0.080
8.262,-0.275,-0.075
8.264,-0.235,-0.070
8.266,-0.155,-0.065
8.268,-0.095,-0.065
8.270,0.060,-0.060
8.272,0.110,-0.055
8.274,0.050,-0.050
8.276,-0.100,-0.040
8.278,-0.385,-0.030
8.280,-0.205,-0.015
8.282,-0.205,-0.010
8.284,-0.115,-0.005
8.286,0.000,-0.005
8.288,0.085,-0.010
8.290,0.120,-0.020
8.292,-0.010,-0.030
8.294,-0.060,-0.035
8.296,-0.205,-0.040
8.298,-0.225,-0.035
8.300,-0.235,-0.025
8.302,-0.135,-0.020
8.304,-0.065,-0.010
8.306,-0.015,-0.005
8.308,0.020,-0.010
8.310,-0.045,-0.020
8.312,0.015,-0.035
8.314,-0.065,-0.050
8.316,-0.145,-0.065
8.318,-0.335,-0.070
8.320,-0.245,-0.070
8.322,-0.210,-0.055
8.324,-0.090,-0.040
8.326,-0.025,-0.020
8.328,0.085,-0.005
8.330,0.135,0.005
8.332,0.060,0.005
8.334,-0.075,-0.010
8.336,-0.215,-0.030
8.338,-0.315,-0.060
8.340,-0.300,-0.085
8.342,-0.270,-0.105
8.344,-0.125,-0.110
8.346,-0.160,-0.110
8.348,0.000,-0.095
8.350,0.030,-0.070
8.352,0.085,-0.045
8.354,-0.010,-0.020
8.356,-0.095,-0.005
8.358,-0.305,0.005
8.360,-0.220,0.005
8.362,-0.130,-0.005
8.364,-0.015,-0.020
8.366,-0.040,-0.030
8.368,0.005,-0.040
8.370,0.010,-0.045
8.372,-0.030,-0.045
8.374,0.020,-0.040
8.376,-0.100,-0.030
8.378,-0.330,-0.020
8.380,-0.225,-0.010
8.382,-0.195,-0.005
8.384,-0.065,0.000
8.386,0.025,0.000
8.388,0.135,-0.005
8.390,-0.040,-0.010
8.392,0.095,-0.015
8.394,-0.045,-0.020
8.396,-0.190,-0.025
8.398,-0.220,-0.030
8.400,-0.210,-0.030
8.402,-0.225,-0.030
8.404,-0.105,-0.035
8.406,-0.060,-0.040
8.408,0.040,-0.045
8.410,0.095,-0.050
8.412,-0.015,-0.055
8.414,-0.080,-0.055
8.416,-0.170,-0.055
8.418,-0.235,-0.055
8.420,-0.205,-0.050
8.422,-0.245,-0.045
8.424,-0.155,-0.045
8.426,-0.005,-0.045
8.428,0.040,-0.050
8.430,0.005,-0.060
8.432,-0.045,-0.070
8.434,-0.120,-0.080
8.436,-0.225,-0.085
8.438,-0.350,-0.095
8.440,-0.395,-0.095
8.442,-0.150,-0.090
8.444,-0.135,-0.085
8.446,-0.125,-0.075
8.448,0.060,-0.065
8.450,0.055,-0.055
8.452,-0.065,-0.050
8.454,-0.105,-0.050
8.456,-0.265,-0.050
8.458,-0.215,-0.055
8.460,-0.220,-0.055
8.462,-0.155,-0.055
8.464,-0.105,-0.050
8.466,-0.090,-0.040
8.468,0.030,-0.030
8.470,0.020,-0.015
8.472,-0.030,-0.005
8.474,-0.035,-0.005
8.476,-0.075,-0.005
8.478,-0.145,-0.010
8.480,-0.200,-0.025
8.482,-0.225,-0.040
8.484,-0.135,-0.050
8.486,-0.120,-0.055
8.488,-0.030,-0.055
8.490,0.020,-0.045
8.492,0.015,-0.035
8.494,0.180,-0.020
8.496,-0.115,-0.005
8.498,-0.280,0.000
8.500,-0.230,-0.010
8.502,-0.235,-0.025
8.504,-0.160,-0.045
8.506,0.030,-0.070
8.508,-0.015,-0.095
8.510,-0.070,-0.110
8.512,-0.120,-0.115
8.514,-0.160,-0.115
8.516,-0.195,-0.100
8.518,-0.240,-0.085
8.520,-0.265,-0.070
8.522,-0.190,-0.060
8.524,-0.075,-0.060
8.526,-0.130,-0.065
8.528,-0.005,-0.080
8.530,0.020,-0.100
8.532,-0.095,-0.115
8.534,-0.170,-0.125
8.536,-0.220,-0.125
8.538,-0.260,-0.110
8.540,-0.275,-0.095
8.542,-0.305,-0.070
8.544,-0.060,-0.050
8.546,-0.035,-0.035
8.548,0.060,-0.025
8.550,0.035,-0.025
8.552,0.020,-0.035
8.554,-0.090,-0.045
8.556,-0.250,-0.055
8.558,-0.255,-0.065
8.560,-0.240,-0.065
8.562,-0.135,-0.060
8.564,-0.125,-0.055
8.566,0.050,-0.045
8.568,-0.005,-0.035
8.570,-0.050,-0.025
8.572,-0.005,-0.020
8.574,-0.090,-0.015
8.576,-0.150,-0.005
8.578,-0.165,0.005
8.580,-0.080,0.015
8.582,-0.015,0.030
8.584,0.055,0.045
8.586,0.105,0.060
8.588,0.020,0.070
8.590,0.160,0.070
8.592,0.085,0.065
8.594,-0.070,0.060
8.596,-0.095,0.050
8.598,-0.180,0.045
8.600,-0.090,0.045
8.602,-0.085,0.045
8.604,0.030,0.055
8.606,0.185,0.060
8.608,0.175,0.065
8.610,0.085,0.065
8.612,-0.010,0.060
8.614,-0.110,0.040
8.616,-0.145,0.020
8.618,-0.160,-0.005
8.620,-0.240,-0.030
8.622,-0.210,-0.050
8.624,-0.020,-0.060
8.626,-0.055,-0.065
8.628,0.080,-0.065
8.630,0.040,-0.055
8.632,-0.105,-0.055
8.634,-0.125,-0.050
8.636,-0.260,-0.055
8.638,-0.215,-0.065
8.640,-0.255,-0.080
8.642,-0.265,-0.090
8.644,-0.265,-0.100
8.646,0.025,-0.100
8.648,0.080,-0.095
8.650,-0.005,-0.085
8.652,-0.100,-0.070
8.654,-0.115,-0.055
8.656,-0.215,-0.045
8.658,-0.395,-0.040
8.660,-0.195,-0.045
8.662,-0.125,-0.055
8.664,-0.105,-0.070
8.666,-0.035,-0.085
8.668,0.025,-0.100
8.670,-0.050,-0.110
8.672,-0.120,-0.115
8.674,-0.245,-0.115
8.676,-0.295,-0.110
8.678,-0.230,-0.105
8.680,-0.310,-0.090
8.682,-0.170,-0.080
8.684,-0.120,-0.065
8.686,0.050,-0.055
8.688,0.045,-0.045
8.690,-0.030,-0.040
8.692,-0.070,-0.035
8.694,-0.015,-0.040
8.696,-0.200,-0.045
8.698,-0.315,-0.065
8.700,-0.320,-0.085
8.702,-0.210,-0.110
8.704,-0.175,-0.135
8.706,-0.085,-0.155
8.708,0.025,-0.165
8.710,-0.115,-0.165
8.712,-0.165,-0.155
8.714,-0.215,-0.130
8.716,-0.375,-0.095
8.718,-0.230,-0.060
8.720,-0.140,-0.025
8.722,-0.095,0.000
8.724,-0.050,0.010
8.726,0.125,0.005
8.728,0.090,-0.005
8.730,0.085,-0.025
8.732,-0.090,-0.035
8.734,-0.255,-0.035
8.736,-0.260,-0.010
8.738,-0.060,0.035
8.740,-0.005,0.105
8.742,0.125,0.190
8.744,0.255,0.290
8.746,0.445,0.395
8.748,0.610,0.495
8.750,0.680,0.580
8.752,0.705,0.640
8.754,0.715,0.680
8.756,0.570,0.690
8.758,0.385,0.670
8.760,0.385,0.630
8.762,0.365,0.570
8.764,0.355,0.495
8.766,0.630,0.410
8.768,0.595,0.315
8.770,0.345,0.220
8.772,0.060,0.125
8.774,-0.180,0.045
8.776,-0.390,-0.020
8.778,-0.360,-0.075
8.780,-0.140,-0.110
8.782,-0.180,-0.125
8.784,-0.160,-0.130
8.786,-0.010,-0.120
8.788,-0.070,-0.105
8.790,-0.045,-0.090
8.792,-0.020,-0.075
8.794,-0.180,-0.065
8.796,-0.265,-0.060
8.798,-0.235,-0.060
8.800,-0.145,-0.070
8.802,-0.185,-0.080
8.804,-0.155,-0.090
8.806,0.035,-0.100
8.808,-0.085,-0.105
8.810,-0.045,-0.110
8.812,-0.115,-0.105
8.814,-0.235,-0.100
8.816,-0.415,-0.090
8.818,-0.200,-0.080
8.820,-0.150,-0.065
8.822,-0.080,-0.060
8.824,-0.090,-0.050
8.826,0.020,-0.045
8.828,0.035,-0.045
8.830,-0.055,-0.045
8.832,-0.135,-0.045
8.834,-0.125,-0.045
8.836,-0.155,-0.045
8.838,-0.235,-0.050
8.840,-0.190,-0.055
8.842,-0.195,-0.060
8.844,-0.015,-0.070
8.846,0.095,-0.070
8.848,-0.025,-0.070
8.850,-0.055,-0.070
8.852,-0.075,-0.060
8.854,-0.170,-0.050
8.856,-0.330,-0.040
8.858,-0.205,-0.030
8.860,-0.190,-0.025
8.862,-0.015,-0.030
8.864,0.050,-0.035
8.866,0.050,-0.050
8.868,-0.055,-0.065
8.870,-0.085,-0.080
8.872,-0.190,-0.090
8.874,-0.280,-0.090
8.876,-0.265,-0.090
8.878,-0.220,-0.080
8.880,-0.120,-0.065
8.882,-0.045,-0.050
8.884,0.095,-0.040
8.886,0.105,-0.030
8.888,-0.110,-0.025
8.890,-0.050,-0.025
8.892,-0.095,-0.025
8.894,-0.180,-0.030
8.896,-0.235,-0.035
8.898,-0.150,-0.035
8.900,-0.200,-0.040
8.902,0.080,-0.040
8.904,-0.010,-0.040
8.906,-0.080,-0.035
8.908,0.000,-0.035
8.910,0.005,-0.030
8.912,-0.015,-0.025
8.914,-0.165,-0.020
8.916,-0.235,-0.015
8.918,-0.160,-0.005
8.920,-0.120,0.005
8.922,-0.060,0.010
8.924,0.045,0.020
8.926,0.095,0.030
8.928,0.130,0.035
8.930,0.115,0.040
8.932,-0.025,0.045
8.934,-0.100,0.045
8.936,-0.100,0.045
8.938,-0.060,0.045
8.940,-0.110,0.045
8.942,-0.055,0.045
8.944,0.180,0.040
8.946,0.200,0.040
8.948,-0.075,0.045
8.950,0.060,0.050
8.952,-0.015,0.055
8.954,-0.120,0.065
8.956,-0.015,0.080
8.958,-0.105,0.090
8.960,0.055,0.105
8.962,0.120,0.115
8.964,0.095,0.125
8.966,0.120,0.135
8.968,0.225,0.145
8.970,0.170,0.155
8.972,0.110,0.170
8.974,0.000,0.180
8.976,0.070,0.195
8.978,-0.050,0.205
8.980,0.170,0.210
8.982,0.230,0.210
8.984,0.225,0.205
8.986,0.240,0.195
8.988,0.275,0.185
8.990,0.120,0.175
8.992,0.120,0.170
8.994,-0.045,0.170
8.996,-0.010,0.170
8.998,0.125,0.180
9.000,0.145,0.190
9.002,0.145,0.205
9.004,0.235,0.215
9.006,0.345,0.220
9.008,0.240,0.220
9.010,0.195,0.215
9.012,0.070,0.205
9.014,-0.020,0.195
9.016,0.035,0.185
9.018,0.095,0.170
9.020,0.120,0.160
9.022,0.055,0.150
9.024,0.300,0.140
9.026,0.140,0.125
9.028,0.205,0.115
9.030,0.040,0.105
9.032,-0.065,0.095
9.034,-0.140,0.085
9.036,-0.105,0.080
9.038,0.015,0.075
9.040,0.120,0.070
9.042,0.045,0.065
9.044,0.130,0.055
9.046,0.125,0.045
9.048,0.035,0.035
9.050,-0.045,0.020
9.052,-0.075,0.005
9.054,-0.205,-0.005
9.056,-0.185,-0.015
9.058,-0.140,-0.020
9.060,-0.100,-0.015
9.062,-0.045,-0.010
9.064,0.170,0.000
9.066,0.065,0.005
9.068,0.045,0.010
9.070,-0.055,0.005
9.072,-0.195,-0.005
9.074,-0.130,-0.025
9.076,-0.225,-0.050
9.078,-0.215,-0.070
9.080,-0.155,-0.090
9.082,-0.085,-0.105
9.084,-0.065,-0.115
9.086,-0.045,-0.115
9.088,-0.065,-0.105
9.090,-0.060,-0.095
9.092,-0.205,-0.080
9.094,-0.275,-0.065
9.096,-0.215,-0.055
9.098,-0.140,-0.050
9.100,-0.040,-0.045
9.102,-0.090,-0.050
9.104,0.045,-0.055
9.106,0.065,-0.055
9.108,-0.045,-0.055
9.110,-0.095,-0.050
9.112,-0.145,-0.040
9.114,-0.125,-0.030
9.116,-0.255,-0.025
9.118,-0.115,-0.020
9.120,-0.090,-0.025
9.122,0.025,-0.030
9.124,0.010,-0.045
9.126,0.060,-0.060
9.128,-0.045,-0.070
9.130,-0.190,-0.080
9.132,-0.335,-0.080
9.134,-0.160,-0.070
9.136,-0.200,-0.055
9.138,-0.190,-0.040
9.140,-0.010,-0.020
9.142,0.015,-0.010
9.144,0.075,0.000
9.146,0.095,0.000
9.148,-0.065,-0.010
9.150,-0.055,-0.025
9.152,-0.130,-0.035
9.154,-0.210,-0.050
9.156,-0.300,-0.060
9.158,-0.195,-0.060
9.160,-0.110,-0.060
9.162,0.060,-0.055
9.164,0.090,-0.045
9.166,-0.020,-0.035
9.168,0.045,-0.025
9.170,-0.070,-0.020
9.172,-0.250,-0.020
9.174,-0.225,-0.020
9.176,-0.175,-0.025
9.178,-0.065,-0.030
9.180,0.040,-0.030
9.182,-0.010,-0.035
9.184,0.070,-0.035
9.186,0.055,-0.035
9.188,-0.045,-0.035
9.190,-0.110,-0.035
9.192,-0.255,-0.035
9.194,-0.170,-0.035
9.196,-0.150,-0.040
9.198,-0.180,-0.045
9.200,-0.025,-0.055
9.202,-0.025,-0.060
9.204,0.045,-0.065
9.206,0.005,-0.065
9.208,-0.095,-0.065
9.210,-0.155,-0.060
9.212,-0.250,-0.055
9.214,-0.135,-0.050
9.216,-0.275,-0.045
9.218,-0.130,-0.035
9.220,-0.065,-0.030
9.222,0.080,-0.030
9.224,0.140,-0.025
9.226,0.110,-0.020
9.228,-0.050,-0.015
9.230,-0.140,-0.015
9.232,-0.280,-0.015
9.234,-0.185,-0.020
9.236,-0.110,-0.025
9.238,-0.090,-0.030
9.240,-0.065,-0.045
9.242,0.020,-0.055
9.244,0.040,-0.065
9.246,0.025,-0.075
9.248,-0.135,-0.075
9.250,-0.170,-0.075
9.252,-0.250,-0.065
9.254,-0.185,-0.055
9.256,-0.150,-0.045
9.258,-0.125,-0.030
9.260,-0.105,-0.020
9.262,0.095,-0.010
9.264,0.130,0.000
9.266,0.000,0.000
9.268,0.020,0.000
9.270,0.000,-0.005
9.272,-0.135,-0.010
9.274,-0.225,-0.020
9.276,-0.270,-0.030
9.278,-0.105,-0.045
9.280,-0.115,-0.055
9.282,0.030,-0.060
9.284,0.005,-0.065
9.286,-0.005,-0.070
9.288,-0.080,-0.065
9.290,-0.110,-0.065
9.292,-0.215,-0.055
9.294,-0.240,-0.050
9.296,-0.175,-0.040
9.298,-0.150,-0.040
9.300,-0.020,-0.040
9.302,0.120,-0.040
9.304,0.055,-0.050
9.306,-0.025,-0.060
9.308,-0.160,-0.070
9.310,-0.190,-0.085
9.312,-0.235,-0.095
9.314,-0.290,-0.105
9.316,-0.210,-0.110
9.318,-0.165,-0.110
9.320,-0.155,-0.105
9.322,0.045,-0.095
9.324,-0.070,-0.075
9.326,0.025,-0.060
9.328,-0.080,-0.045
9.330,-0.115,-0.030
9.332,-0.185,-0.025
9.334,-0.240,-0.025
9.336,-0.100,-0.035
9.338,-0.095,-0.050
9.340,-0.100,-0.065
9.342,-0.020,-0.080
9.344,0.035,-0.090
9.346,-0.080,-0.090
9.348,-0.100,-0.090
9.350,-0.165,-0.080
9.352,-0.205,-0.065
9.354,-0.185,-0.055
9.356,-0.075,-0.045
9.358,-0.015,-0.045
9.360,-0.115,-0.050
9.362,-0.065,-0.055
9.364,-0.005,-0.065
9.366,-0.005,-0.070
9.368,-0.060,-0.070
9.370,-0.065,-0.065
9.372,-0.200,-0.050
9.374,-0.335,-0.035
9.376,-0.165,-0.020
9.378,-0.005,-0.010
9.380,-0.005,0.000
9.382,0.040,0.000
9.384,0.125,-0.010
9.386,0.120,-0.025
9.388,-0.070,-0.040
9.390,-0.185,-0.055
9.392,-0.290,-0.070
9.394,-0.380,-0.080
9.396,-0.200,-0.090
9.398,-0.120,-0.095
9.400,-0.020,-0.100
9.402,0.010,-0.100
9.404,-0.065,-0.100
9.406,-0.070,-0.090
9.408,-0.115,-0.085
9.410,-0.125,-0.075
9.412,-0.225,-0.065
9.414,-0.220,-0.055
9.416,-0.160,-0.050
9.418,-0.035,-0.050
9.420,-0.120,-0.055
9.422,0.120,-0.065
9.424,-0.010,-0.070
9.426,-0.010,-0.080
9.428,-0.270,-0.085
9.430,-0.205,-0.085
9.432,-0.155,-0.080
9.434,-0.180,-0.070
9.436,-0.145,-0.060
9.438,-0.160,-0.045
9.440,0.000,-0.030
9.442,0.035,-0.025
9.444,0.005,-0.015
9.446,0.075,-0.015
9.448,-0.070,-0.010
9.450,-0.125,-0.010
9.452,-0.145,-0.005
9.454,-0.045,0.005
9.456,-0.095,0.020
9.458,-0.040,0.035
9.460,0.110,0.050
9.462,0.120,0.065
9.464,0.120,0.075
9.466,0.120,0.080
9.468,0.070,0.085
9.470,-0.015,0.085
9.472,-0.015,0.080
9.474,-0.025,0.075
9.476,-0.050,0.065
9.478,-0.005,0.060
9.480,0.055,0.050
9.482,0.120,0.040
9.484,0.115,0.030
9.486,-0.010,0.020
9.488,0.015,0.015
9.490,-0.020,0.010
9.492,-0.190,0.005
9.494,-0.240,0.005
9.496,-0.085,0.005
9.498,0.005,0.005
9.500,0.100,0.005
9.502,0.065,0.000
9.504,0.060,-0.005
9.506,-0.035,-0.020
9.508,-0.065,-0.035
9.510,-0.215,-0.055
9.512,-0.190,-0.070
9.514,-0.285,-0.085
9.516,-0.180,-0.090
9.518,-0.175,-0.095
9.520,-0.005,-0.095
9.522,0.085,-0.085
9.524,-0.005,-0.080
9.526,-0.050,-0.070
9.528,-0.130,-0.065
9.530,-0.265,-0.060
9.532,-0.255,-0.060
9.534,-0.275,-0.065
9.536,-0.110,-0.065
9.538,-0.070,-0.070
9.540,0.035,-0.070
9.542,0.055,-0.065
9.544,0.015,-0.055
9.546,-0.050,-0.045
9.548,-0.130,-0.040
9.550,-0.285,-0.035
9.552,-0.140,-0.035
9.554,-0.135,-0.040
9.556,-0.150,-0.055
9.558,-0.070,-0.075
9.560,-0.090,-0.090
9.562,0.025,-0.100
9.564,0.040,-0.110
9.566,-0.155,-0.105
9.568,-0.215,-0.090
9.570,-0.180,-0.075
9.572,-0.265,-0.055
9.574,-0.150,-0.040
9.576,0.010,-0.035
9.578,0.020,-0.040
9.580,-0.140,-0.055
9.582,-0.050,-0.080
9.584,-0.030,-0.105
9.586,-0.025,-0.125
9.588,-0.130,-0.135
9.590,-0.420,-0.130
9.592,-0.270,-0.115
9.594,-0.210,-0.090
9.596,-0.165,-0.060
9.598,-0.035,-0.035
9.600,0.105,-0.015
9.602,0.100,-0.005
9.604,0.000,-0.005
9.606,0.005,-0.015
9.608,-0.125,-0.025
9.610,-0.170,-0.035
9.612,-0.185,-0.025
9.614,-0.090,-0.005
9.616,-0.085,0.040
9.618,0.175,0.110
9.620,0.115,0.195
9.622,0.290,0.290
9.624,0.535,0.395
9.626,0.545,0.500
9.628,0.535,0.590
9.630,0.605,0.665
9.632,0.750,0.715
9.634,0.685,0.735
9.636,0.540,0.725
9.638,0.565,0.685
9.640,0.625,0.620
9.642,0.555,0.530
9.644,0.500,0.420
9.646,0.415,0.310
9.648,0.255,0.195
9.650,-0.115,0.095
9.652,-0.245,0.015
9.654,-0.345,-0.050
9.656,-0.175,-0.090
9.658,-0.170,-0.115
9.660,0.025,-0.120
9.662,-0.055,-0.110
9.664,-0.050,-0.095
9.666,-0.045,-0.080
9.668,-0.060,-0.065
9.670,-0.175,-0.055
9.672,-0.175,-0.050
9.674,-0.175,-0.050
9.676,-0.115,-0.055
9.678,-0.145,-0.065
9.680,-0.130,-0.075
9.682,0.050,-0.090
9.684,-0.030,-0.100
9.686,-0.080,-0.110
9.688,-0.215,-0.120
9.690,-0.330,-0.120
9.692,-0.270,-0.110
9.694,-0.240,-0.100
9.696,-0.085,-0.080
9.698,-0.040,-0.060
9.700,-0.030,-0.040
9.702,0.115,-0.020
9.704,0.030,-0.010
9.706,-0.080,-0.010
9.708,-0.140,-0.015
9.710,-0.215,-0.030
9.712,-0.150,-0.045
9.714,-0.205,-0.065
9.716,-0.105,-0.080
9.718,-0.100,-0.090
9.720,-0.025,-0.090
9.722,0.115,-0.085
9.724,-0.120,-0.075
9.726,0.005,-0.060
9.728,-0.260,-0.045
9.730,-0.260,-0.035
9.732,-0.105,-0.025
9.734,-0.080,-0.025
9.736,-0.100,-0.025
9.738,-0.040,-0.035
9.740,-0.005,-0.040
9.742,0.040,-0.045
9.744,-0.020,-0.050
9.746,-0.170,-0.050
9.748,-0.105,-0.045
9.750,-0.170,-0.035
9.752,-0.200,-0.025
9.754,-0.160,-0.015
9.756,0.045,-0.010
9.758,0.055,-0.010
9.760,0.035,-0.010
9.762,0.020,-0.015
9.764,-0.125,-0.025
9.766,-0.040,-0.035
9.768,-0.175,-0.040
9.770,-0.220,-0.040
9.772,-0.130,-0.040
9.774,-0.060,-0.035
9.776,-0.110,-0.030
9.778,0.035,-0.025
9.780,0.085,-0.020
9.782,0.065,-0.015
9.784,-0.045,-0.020
9.786,-0.125,-0.020
9.788,-0.130,-0.025
9.790,-0.290,-0.025
9.792,-0.130,-0.025
9.794,-0.090,-0.025
9.796,-0.020,-0.020
9.798,0.035,-0.015
9.800,0.110,-0.010
9.802,0.015,0.000
9.804,0.040,0.010
9.806,0.005,0.015
9.808,-0.130,0.025
9.810,-0.150,0.035
9.812,-0.090,0.040
9.814,-0.035,0.050
9.816,-0.020,0.055
9.818,0.140,0.055
9.820,0.205,0.055
9.822,0.135,0.055
9.824,0.015,0.055
9.826,0.005,0.055
9.828,-0.125,0.055
9.830,-0.135,0.055
9.832,-0.050,0.065
9.834,-0.085,0.075
9.836,0.155,0.090
9.838,0.240,0.105
9.840,0.235,0.125
9.842,0.215,0.140
9.844,0.120,0.150
9.846,0.065,0.165
9.848,-0.060,0.170
9.850,0.015,0.175
9.852,0.030,0.180
9.854,0.135,0.180
9.856,0.265,0.185
9.858,0.345,0.185
9.860,0.280,0.185
9.862,0.245,0.190
9.864,0.090,0.190
9.866,0.090,0.190
9.868,-0.030,0.190
9.870,0.040,0.190
9.872,0.070,0.195
9.874,0.205,0.195
9.876,0.205,0.200
9.878,0.300,0.210
9.880,0.265,0.215
9.882,0.275,0.225
9.884,0.205,0.230
9.886,0.210,0.235
9.888,0.105,0.235
9.890,0.090,0.230
9.892,0.080,0.225
9.894,0.070,0.210
9.896,0.170,0.195
9.898,0.295,0.175
9.900,0.235,0.155
9.902,0.245,0.140
9.904,0.145,0.120
9.906,-0.040,0.105
9.908,-0.095,0.090
9.910,-0.090,0.075
9.912,-0.010,0.065
9.914,-0.030,0.055
9.916,0.060,0.050
9.918,0.185,0.045
9.920,0.095,0.040
9.922,0.035,0.035
9.924,0.060,0.035
9.926,-0.090,0.030
9.928,-0.190,0.025
9.930,-0.100,0.020
9.932,-0.195,0.010
9.934,0.005,0.005
9.936,0.005,-0.005
9.938,0.140,-0.010
9.940,0.050,-0.015
9.942,-0.100,-0.020
9.944,0.005,-0.020
9.946,-0.100,-0.020
9.948,-0.185,-0.025
9.950,-0.190,-0.025
9.952,-0.225,-0.025
9.954,-0.060,-0.025
9.956,-0.055,-0.025
9.958,0.080,-0.030
9.960,0.175,-0.035
9.962,0.030,-0.040
9.964,-0.105,-0.045
9.966,-0.155,-0.050
9.968,-0.310,-0.050
9.970,-0.275,-0.050
9.972,-0.125,-0.050
9.974,-0.045,-0.045
9.976,-0.075,-0.035
9.978,0.040,-0.030
9.980,0.135,-0.020
9.982,0.110,-0.010
9.984,0.000,-0.010
9.986,-0.105,-0.010
9.988,-0.300,-0.010
9.990,-0.190,-0.020
9.992,-0.155,-0.030
9.994,-0.060,-0.040
9.996,-0.105,-0.045
9.998,-0.035,-0.055
