'Elapsed time','ECG I','ECG I filtered'
'seconds','mV','mV'
0.000,0.140,-0.155
0.002,0.175,-0.090
0.004,0.285,-0.050
0.006,0.380,-0.025
0.008,0.400,-0.015
0.010,0.400,-0.025
0.012,0.270,-0.045
0.014,0.120,-0.070
0.016,0.095,-0.090
0.018,0.055,-0.095
0.020,0.170,-0.090
0.022,0.190,-0.070
0.024,0.350,-0.050
0.026,0.385,-0.035
0.028,0.430,-0.030
0.030,0.360,-0.030
0.032,0.275,-0.045
0.034,0.120,-0.065
0.036,0.085,-0.080
0.038,0.040,-0.095
0.040,0.105,-0.095
0.042,0.205,-0.085
0.044,0.410,-0.070
0.046,0.385,-0.050
0.048,0.430,-0.035
0.050,0.370,-0.025
0.052,0.250,-0.025
0.054,0.115,-0.030
0.056,0.115,-0.040
0.058,0.100,-0.055
0.060,0.185,-0.060
0.062,0.270,-0.060
0.064,0.360,-0.055
0.066,0.435,-0.045
0.068,0.485,-0.030
0.070,0.445,-0.020
0.072,0.275,-0.015
0.074,0.140,-0.010
0.076,0.110,-0.015
0.078,0.120,-0.025
0.080,0.130,-0.030
0.082,0.255,-0.040
0.084,0.430,-0.040
0.086,0.535,-0.040
0.088,0.500,-0.040
0.090,0.300,-0.035
0.092,0.205,-0.035
0.094,0.165,-0.035
0.096,0.120,-0.035
0.098,0.165,-0.040
0.100,0.130,-0.050
0.102,0.280,-0.055
0.104,0.370,-0.060
0.106,0.415,-0.065
0.108,0.465,-0.065
0.110,0.325,-0.070
0.112,0.195,-0.070
0.114,0.045,-0.070
0.116,0.060,-0.070
0.118,0.125,-0.065
0.120,0.135,-0.060
0.122,0.315,-0.055
0.124,0.410,-0.050
0.126,0.400,-0.045
0.128,0.485,-0.040
0.130,0.335,-0.040
0.132,0.210,-0.045
0.134,0.120,-0.055
0.136,0.060,-0.065
0.138,0.040,-0.075
0.140,0.110,-0.080
0.142,0.280,-0.075
0.144,0.395,-0.070
0.146,0.520,-0.060
0.148,0.455,-0.045
0.150,0.315,-0.030
0.152,0.290,-0.020
0.154,0.145,-0.010
0.156,0.110,-0.005
0.158,0.095,0.005
0.160,0.165,0.020
0.162,0.445,0.045
0.164,0.535,0.085
0.166,0.625,0.140
0.168,0.755,0.215
0.170,0.780,0.300
0.172,0.670,0.390
0.174,0.670,0.470
0.176,0.695,0.535
0.178,0.745,0.570
0.180,0.880,0.565
0.182,0.935,0.530
0.184,0.925,0.455
0.186,0.795,0.350
0.188,0.685,0.230
0.190,0.490,0.100
0.192,0.205,-0.030
0.194,0.020,-0.145
0.196,-0.170,-0.240
0.198,-0.260,-0.310
0.200,-0.110,-0.355
0.202,0.015,-0.375
0.204,0.120,-0.380
0.206,0.170,-0.365
0.208,0.130,-0.345
0.210,0.075,-0.320
0.212,-0.060,-0.290
0.214,-0.090,-0.265
0.216,-0.115,-0.240
0.218,-0.035,-0.215
0.220,0.105,-0.190
0.222,0.220,-0.165
0.224,0.390,-0.135
0.226,0.420,-0.105
0.228,0.425,-0.080
0.230,0.305,-0.050
0.232,0.240,-0.030
0.234,0.175,-0.015
0.236,0.110,-0.010
0.238,0.155,-0.010
0.240,0.230,-0.010
0.242,0.390,-0.020
0.244,0.470,-0.025
0.246,0.510,-0.025
0.248,0.460,-0.025
0.250,0.395,-0.020
0.252,0.180,-0.010
0.254,0.150,0.000
0.256,0.100,0.010
0.258,0.220,0.020
0.260,0.340,0.025
0.262,0.460,0.030
0.264,0.505,0.025
0.266,0.560,0.025
0.268,0.480,0.025
0.270,0.365,0.025
0.272,0.265,0.030
0.274,0.170,0.035
0.276,0.095,0.040
0.278,0.280,0.045
0.280,0.340,0.045
0.282,0.460,0.045
0.284,0.525,0.040
0.286,0.560,0.040
0.288,0.535,0.035
0.290,0.425,0.030
0.292,0.200,0.030
0.294,0.180,0.035
0.296,0.135,0.040
0.298,0.255,0.045
0.300,0.410,0.050
0.302,0.510,0.055
0.304,0.520,0.060
0.306,0.570,0.060
0.308,0.540,0.060
0.310,0.450,0.055
0.312,0.270,0.060
0.314,0.245,0.060
0.316,0.220,0.060
0.318,0.270,0.065
0.320,0.390,0.070
0.322,0.575,0.075
0.324,0.570,0.080
0.326,0.570,0.085
0.328,0.530,0.090
0.330,0.430,0.095
0.332,0.295,0.100
0.334,0.310,0.110
0.336,0.260,0.120
0.338,0.360,0.135
0.340,0.510,0.145
0.342,0.650,0.155
0.344,0.635,0.165
0.346,0.690,0.170
0.348,0.610,0.170
0.350,0.455,0.170
0.352,0.380,0.170
0.354,0.385,0.170
0.356,0.280,0.170
0.358,0.430,0.170
0.360,0.495,0.170
0.362,0.620,0.175
0.364,0.690,0.180
0.366,0.720,0.180
0.368,0.660,0.185
0.370,0.475,0.185
0.372,0.395,0.185
0.374,0.370,0.180
0.376,0.320,0.180
0.378,0.430,0.175
0.380,0.550,0.170
0.382,0.665,0.165
0.384,0.615,0.165
0.386,0.690,0.165
0.388,0.610,0.165
0.390,0.435,0.165
0.392,0.375,0.165
0.394,0.365,0.165
0.396,0.310,0.165
0.398,0.400,0.160
0.400,0.545,0.155
0.402,0.620,0.145
0.404,0.645,0.135
0.406,0.650,0.125
0.408,0.515,0.110
0.410,0.365,0.100
0.412,0.275,0.085
0.414,0.240,0.075
0.416,0.230,0.060
0.418,0.300,0.050
0.420,0.455,0.035
0.422,0.500,0.030
0.424,0.450,0.020
0.426,0.500,0.015
0.428,0.525,0.015
0.430,0.310,0.015
0.432,0.190,0.010
0.434,0.155,0.005
0.436,0.135,0.000
0.438,0.270,-0.010
0.440,0.395,-0.020
0.442,0.460,-0.030
0.444,0.460,-0.040
0.446,0.460,-0.050
0.448,0.390,-0.050
0.450,0.205,-0.045
0.452,0.150,-0.035
0.454,0.180,-0.025
0.456,0.175,-0.010
0.458,0.195,0.000
0.460,0.415,0.005
0.462,0.500,0.000
0.464,0.490,-0.005
0.466,0.490,-0.020
0.468,0.420,-0.035
0.470,0.195,-0.045
0.472,0.150,-0.055
0.474,0.165,-0.055
0.476,0.185,-0.050
0.478,0.190,-0.040
0.480,0.335,-0.025
0.482,0.505,-0.010
0.484,0.560,0.000
0.486,0.480,0.010
0.488,0.390,0.015
0.490,0.290,0.015
0.492,0.260,0.010
0.494,0.230,0.010
0.496,0.145,0.005
0.498,0.235,0.005
0.500,0.430,0.005
0.502,0.470,0.005
0.504,0.560,0.010
0.506,0.520,0.010
0.508,0.430,0.010
0.510,0.230,0.005
0.512,0.180,0.000
0.514,0.135,-0.005
0.516,0.145,-0.010
0.518,0.285,-0.015
0.520,0.385,-0.020
0.522,0.495,-0.020
0.524,0.570,-0.020
0.526,0.515,-0.015
0.528,0.350,-0.010
0.530,0.195,-0.010
0.532,0.135,-0.005
0.534,0.170,-0.005
0.536,0.195,0.000
0.538,0.325,0.000
0.540,0.440,0.005
0.542,0.560,0.010
0.544,0.510,0.010
0.546,0.520,0.010
0.548,0.390,0.010
0.550,0.230,0.005
0.552,0.145,-0.005
0.554,0.130,-0.015
0.556,0.190,-0.025
0.558,0.290,-0.035
0.560,0.435,-0.045
0.562,0.430,-0.045
0.564,0.470,-0.050
0.566,0.420,-0.045
0.568,0.355,-0.040
0.570,0.175,-0.035
0.572,0.180,-0.030
0.574,0.105,-0.025
0.576,0.250,-0.025
0.578,0.260,-0.025
0.580,0.385,-0.025
0.582,0.480,-0.025
0.584,0.540,-0.020
0.586,0.475,-0.020
0.588,0.395,-0.015
0.590,0.150,-0.010
0.592,0.195,-0.010
0.594,0.180,-0.010
0.596,0.210,-0.010
0.598,0.320,-0.015
0.600,0.475,-0.025
0.602,0.455,-0.030
0.604,0.490,-0.030
0.606,0.430,-0.030
0.608,0.345,-0.025
0.610,0.185,-0.020
0.612,0.195,-0.010
0.614,0.135,0.000
0.616,0.240,0.005
0.618,0.395,0.005
0.620,0.470,0.005
0.622,0.490,0.000
0.624,0.465,-0.005
0.626,0.465,-0.005
0.628,0.360,-0.005
0.630,0.255,0.000
0.632,0.225,0.005
0.634,0.225,0.010
0.636,0.280,0.015
0.638,0.365,0.015
0.640,0.470,0.010
0.642,0.470,0.000
0.644,0.520,-0.010
0.646,0.435,-0.020
0.648,0.300,-0.030
0.650,0.105,-0.035
0.652,0.140,-0.040
0.654,0.140,-0.035
0.656,0.245,-0.035
0.658,0.355,-0.030
0.660,0.475,-0.030
0.662,0.450,-0.030
0.664,0.475,-0.035
0.666,0.440,-0.040
0.668,0.285,-0.045
0.670,0.180,-0.050
0.672,0.140,-0.055
0.674,0.105,-0.050
0.676,0.135,-0.050
0.678,0.325,-0.045
0.680,0.515,-0.040
0.682,0.490,-0.035
0.684,0.455,-0.035
0.686,0.430,-0.040
0.688,0.210,-0.045
0.690,0.145,-0.050
0.692,0.175,-0.050
0.694,0.190,-0.050
0.696,0.270,-0.045
0.698,0.380,-0.035
0.700,0.415,-0.025
0.702,0.510,-0.010
0.704,0.535,-0.005
0.706,0.415,0.000
0.708,0.265,0.000
0.710,0.200,-0.005
0.712,0.165,-0.005
0.714,0.175,0.005
0.716,0.325,0.025
0.718,0.510,0.060
0.720,0.610,0.120
0.722,0.705,0.195
0.724,0.830,0.290
0.726,0.795,0.390
0.728,0.785,0.490
0.730,0.835,0.570
0.732,0.885,0.625
0.734,0.985,0.645
0.736,0.885,0.625
0.738,0.925,0.560
0.740,0.930,0.455
0.742,0.840,0.325
0.744,0.700,0.180
0.746,0.390,0.030
0.748,0.165,-0.105
0.750,-0.080,-0.225
0.752,-0.210,-0.310
0.754,-0.160,-0.370
0.756,-0.135,-0.395
0.758,0.040,-0.395
0.760,0.135,-0.380
0.762,0.195,-0.350
0.764,0.215,-0.315
0.766,0.145,-0.275
0.768,0.075,-0.240
0.770,0.000,-0.210
0.772,0.020,-0.180
0.774,0.080,-0.155
0.776,0.165,-0.130
0.778,0.335,-0.110
0.780,0.425,-0.085
0.782,0.495,-0.065
0.784,0.445,-0.045
0.786,0.395,-0.035
0.788,0.260,-0.025
0.790,0.200,-0.020
0.792,0.125,-0.015
0.794,0.125,-0.020
0.796,0.110,-0.020
0.798,0.560,-0.015
0.800,0.550,-0.015
0.802,0.505,-0.005
0.804,0.460,0.005
0.806,0.385,0.015
0.808,0.275,0.030
0.810,0.265,0.040
0.812,0.235,0.040
0.814,0.270,0.040
0.816,0.335,0.035
0.818,0.495,0.025
0.820,0.490,0.015
0.822,0.555,0.005
0.824,0.420,-0.005
0.826,0.365,-0.005
0.828,0.310,0.000
0.830,0.285,0.010
0.832,0.280,0.020
0.834,0.210,0.030
0.836,0.280,0.040
0.838,0.555,0.040
0.840,0.540,0.040
0.842,0.480,0.040
0.844,0.525,0.035
0.846,0.455,0.030
0.848,0.305,0.030
0.850,0.245,0.035
0.852,0.195,0.040
0.854,0.290,0.050
0.856,0.415,0.055
0.858,0.530,0.065
0.860,0.570,0.070
0.862,0.615,0.070
0.864,0.525,0.070
0.866,0.390,0.070
0.868,0.280,0.070
0.870,0.310,0.070
0.872,0.220,0.070
0.874,0.250,0.075
0.876,0.435,0.080
0.878,0.670,0.090
0.880,0.585,0.090
0.882,0.590,0.095
0.884,0.570,0.095
0.886,0.395,0.090
0.888,0.355,0.090
0.890,0.310,0.090
0.892,0.285,0.095
0.894,0.320,0.100
0.896,0.455,0.110
0.898,0.525,0.125
0.900,0.665,0.140
0.902,0.725,0.155
0.904,0.655,0.165
0.906,0.560,0.175
0.908,0.430,0.175
0.910,0.330,0.175
0.912,0.325,0.170
0.914,0.390,0.165
0.916,0.515,0.160
0.918,0.705,0.160
0.920,0.695,0.160
0.922,0.710,0.160
0.924,0.610,0.165
0.926,0.525,0.170
0.928,0.410,0.175
0.930,0.375,0.180
0.932,0.355,0.180
0.934,0.390,0.180
0.936,0.550,0.175
0.938,0.625,0.165
0.940,0.660,0.155
0.942,0.705,0.145
0.944,0.575,0.140
0.946,0.480,0.135
0.948,0.370,0.130
0.950,0.320,0.135
0.952,0.350,0.135
0.954,0.365,0.140
0.956,0.525,0.140
0.958,0.640,0.140
0.960,0.670,0.135
0.962,0.630,0.125
0.964,0.545,0.110
0.966,0.405,0.095
0.968,0.225,0.080
0.970,0.230,0.065
0.972,0.215,0.050
0.974,0.410,0.035
0.976,0.375,0.020
0.978,0.460,0.010
0.980,0.590,0.000
0.982,0.495,-0.010
0.984,0.440,-0.025
0.986,0.155,-0.035
0.988,0.205,-0.045
0.990,0.120,-0.050
0.992,0.140,-0.050
0.994,0.235,-0.050
0.996,0.380,-0.045
0.998,0.435,-0.040
1.000,0.525,-0.030
1.002,0.485,-0.025
1.004,0.385,-0.025
1.006,0.230,-0.025
1.008,0.210,-0.035
1.010,0.125,-0.045
1.012,0.085,-0.060
1.014,0.185,-0.075
1.016,0.315,-0.085
1.018,0.430,-0.095
1.020,0.490,-0.095
1.022,0.475,-0.090
1.024,0.405,-0.080
1.026,0.185,-0.070
1.028,0.110,-0.055
1.030,0.125,-0.040
1.032,0.170,-0.035
1.034,0.310,-0.030
1.036,0.405,-0.035
1.038,0.430,-0.045
1.040,0.440,-0.055
1.042,0.440,-0.065
1.044,0.335,-0.070
1.046,0.220,-0.075
1.048,0.150,-0.075
1.050,0.140,-0.070
1.052,0.160,-0.060
1.054,0.235,-0.050
1.056,0.380,-0.045
1.058,0.425,-0.040
1.060,0.490,-0.035
1.062,0.435,-0.035
1.064,0.335,-0.040
1.066,0.225,-0.045
1.068,0.220,-0.050
1.070,0.125,-0.055
1.072,0.130,-0.055
1.074,0.215,-0.055
1.076,0.360,-0.050
1.078,0.515,-0.045
1.080,0.540,-0.040
1.082,0.455,-0.035
1.084,0.310,-0.035
1.086,0.205,-0.035
1.088,0.170,-0.040
1.090,0.135,-0.045
1.092,0.160,-0.050
1.094,0.280,-0.055
1.096,0.405,-0.060
1.098,0.425,-0.065
1.100,0.450,-0.065
1.102,0.480,-0.065
1.104,0.335,-0.065
1.106,0.210,-0.065
1.108,0.125,-0.060
1.110,0.155,-0.060
1.112,0.140,-0.060
1.114,0.215,-0.060
1.116,0.385,-0.065
1.118,0.405,-0.065
1.120,0.485,-0.065
1.122,0.420,-0.065
1.124,0.390,-0.065
1.126,0.210,-0.060
1.128,0.085,-0.060
1.130,0.040,-0.055
1.132,0.160,-0.055
1.134,0.285,-0.050
1.136,0.460,-0.050
1.138,0.465,-0.055
1.140,0.535,-0.055
1.142,0.425,-0.055
1.144,0.300,-0.060
1.146,0.175,-0.060
1.148,0.120,-0.060
1.150,0.050,-0.060
1.152,0.180,-0.060
1.154,0.285,-0.065
1.156,0.430,-0.065
1.158,0.445,-0.065
1.160,0.505,-0.065
1.162,0.380,-0.060
1.164,0.345,-0.060
1.166,0.195,-0.055
1.168,0.100,-0.050
1.170,0.105,-0.045
1.172,0.160,-0.045
1.174,0.340,-0.050
1.176,0.470,-0.060
1.178,0.480,-0.065
1.180,0.425,-0.070
1.182,0.360,-0.075
1.184,0.320,-0.070
1.186,0.130,-0.065
1.188,0.120,-0.050
1.190,0.150,-0.035
1.192,0.270,-0.020
1.194,0.380,-0.005
1.196,0.460,0.005
1.198,0.535,0.005
1.200,0.535,0.005
1.202,0.430,-0.005
1.204,0.280,-0.015
1.206,0.140,-0.030
1.208,0.130,-0.040
1.210,0.165,-0.050
1.212,0.180,-0.060
1.214,0.375,-0.060
1.216,0.465,-0.065
1.218,0.430,-0.065
1.220,0.425,-0.070
1.222,0.335,-0.070
1.224,0.260,-0.080
1.226,0.120,-0.085
1.228,0.060,-0.095
1.230,0.050,-0.100
1.232,0.115,-0.105
1.234,0.290,-0.110
1.236,0.365,-0.110
1.238,0.460,-0.105
1.240,0.440,-0.100
1.242,0.360,-0.090
1.244,0.275,-0.075
1.246,0.185,-0.065
1.248,0.090,-0.060
1.250,0.075,-0.060
1.252,0.150,-0.060
1.254,0.350,-0.070
1.256,0.460,-0.075
1.258,0.420,-0.085
1.260,0.470,-0.085
1.262,0.315,-0.085
1.264,0.230,-0.075
1.266,0.220,-0.065
1.268,0.090,-0.050
1.270,0.085,-0.035
1.272,0.265,-0.025
1.274,0.400,-0.010
1.276,0.445,0.000
1.278,0.505,0.025
1.280,0.630,0.060
1.282,0.585,0.120
1.284,0.505,0.195
1.286,0.510,0.295
1.288,0.570,0.400
1.290,0.720,0.505
1.292,0.870,0.595
1.294,1.150,0.655
1.296,1.290,0.670
1.298,1.260,0.635
1.300,1.025,0.550
1.302,0.785,0.430
1.304,0.540,0.275
1.306,0.330,0.115
1.308,0.100,-0.040
1.310,-0.045,-0.175
1.312,-0.075,-0.285
1.314,-0.020,-0.360
1.316,0.075,-0.400
1.318,0.140,-0.420
1.320,0.085,-0.420
1.322,0.010,-0.405
1.324,-0.145,-0.385
1.326,-0.165,-0.360
1.328,-0.175,-0.335
1.330,-0.115,-0.305
1.332,0.070,-0.270
1.334,0.280,-0.235
1.336,0.330,-0.195
1.338,0.355,-0.150
1.340,0.355,-0.115
1.342,0.370,-0.080
1.344,0.240,-0.055
1.346,0.165,-0.035
1.348,0.130,-0.030
1.350,0.155,-0.030
1.352,0.180,-0.040
1.354,0.400,-0.045
1.356,0.480,-0.055
1.358,0.460,-0.060
1.360,0.385,-0.060
1.362,0.365,-0.055
1.364,0.230,-0.045
1.366,0.105,-0.035
1.368,0.145,-0.020
1.370,0.250,-0.010
1.372,0.330,0.000
1.374,0.440,0.000
1.376,0.500,0.000
1.378,0.525,-0.005
1.380,0.505,-0.010
1.382,0.355,-0.020
1.384,0.190,-0.020
1.386,0.185,-0.025
1.388,0.145,-0.020
1.390,0.220,-0.015
1.392,0.300,-0.010
1.394,0.400,-0.005
1.396,0.405,0.005
1.398,0.605,0.010
1.400,0.495,0.015
1.402,0.420,0.020
1.404,0.290,0.020
1.406,0.240,0.025
1.408,0.200,0.025
1.410,0.210,0.025
1.412,0.325,0.025
1.414,0.455,0.025
1.416,0.515,0.025
1.418,0.575,0.025
1.420,0.590,0.025
1.422,0.415,0.020
1.424,0.200,0.020
1.426,0.185,0.025
1.428,0.260,0.025
1.430,0.250,0.030
1.432,0.345,0.035
1.434,0.505,0.045
1.436,0.520,0.050
1.438,0.600,0.060
1.440,0.565,0.070
1.442,0.460,0.080
1.444,0.290,0.085
1.446,0.275,0.090
1.448,0.270,0.095
1.450,0.345,0.100
1.452,0.430,0.100
1.454,0.575,0.100
1.456,0.625,0.100
1.458,0.650,0.105
1.460,0.560,0.110
1.462,0.470,0.115
1.464,0.375,0.120
1.466,0.285,0.125
1.468,0.305,0.130
1.470,0.350,0.135
1.472,0.480,0.140
1.474,0.650,0.145
1.476,0.675,0.145
1.478,0.705,0.150
1.480,0.655,0.150
1.482,0.460,0.155
1.484,0.335,0.160
1.486,0.360,0.165
1.488,0.345,0.170
1.490,0.405,0.170
1.492,0.505,0.160
1.494,0.580,0.155
1.496,0.675,0.140
1.498,0.670,0.130
1.500,0.580,0.120
1.502,0.435,0.115
1.504,0.330,0.110
1.506,0.310,0.110
1.508,0.245,0.110
1.510,0.350,0.115
1.512,0.510,0.110
1.514,0.550,0.105
1.516,0.605,0.095
1.518,0.705,0.080
1.520,0.515,0.070
1.522,0.310,0.055
1.524,0.245,0.045
1.526,0.190,0.040
1.528,0.225,0.035
1.530,0.265,0.035
1.532,0.490,0.030
1.534,0.530,0.025
1.536,0.560,0.015
1.538,0.480,0.005
1.540,0.395,-0.015
1.542,0.160,-0.030
1.544,0.205,-0.045
1.546,0.120,-0.050
1.548,0.120,-0.055
1.550,0.260,-0.050
1.552,0.345,-0.045
1.554,0.455,-0.040
1.556,0.450,-0.040
1.558,0.490,-0.040
1.560,0.390,-0.050
1.562,0.180,-0.060
1.564,0.110,-0.075
1.566,0.115,-0.090
1.568,0.075,-0.100
1.570,0.195,-0.105
1.572,0.320,-0.105
1.574,0.425,-0.095
1.576,0.430,-0.085
1.578,0.435,-0.070
1.580,0.380,-0.060
1.582,0.205,-0.055
1.584,0.160,-0.050
1.586,0.140,-0.055
1.588,0.105,-0.060
1.590,0.220,-0.070
1.592,0.320,-0.080
1.594,0.390,-0.085
1.596,0.455,-0.090
1.598,0.380,-0.090
1.600,0.365,-0.090
1.602,0.165,-0.085
1.604,0.045,-0.080
1.606,0.110,-0.075
1.608,0.160,-0.070
1.610,0.220,-0.070
1.612,0.365,-0.070
1.614,0.430,-0.075
1.616,0.485,-0.075
1.618,0.365,-0.080
1.620,0.310,-0.075
1.622,0.170,-0.070
1.624,0.160,-0.065
1.626,0.090,-0.055
1.628,0.120,-0.050
1.630,0.175,-0.040
1.632,0.450,-0.040
1.634,0.485,-0.035
1.636,0.520,-0.040
1.638,0.430,-0.045
1.640,0.275,-0.050
1.642,0.210,-0.055
1.644,0.150,-0.060
1.646,0.110,-0.060
1.648,0.140,-0.055
1.650,0.240,-0.055
1.652,0.395,-0.050
1.654,0.435,-0.050
1.656,0.520,-0.050
1.658,0.390,-0.055
1.660,0.345,-0.065
1.662,0.175,-0.075
1.664,0.100,-0.085
1.666,0.085,-0.090
1.668,0.135,-0.095
1.670,0.230,-0.095
1.672,0.410,-0.090
1.674,0.390,-0.080
1.676,0.480,-0.070
1.678,0.355,-0.065
1.680,0.305,-0.060
1.682,0.185,-0.060
1.684,0.125,-0.065
1.686,0.075,-0.075
1.688,0.140,-0.080
1.690,0.265,-0.090
1.692,0.380,-0.090
1.694,0.425,-0.090
1.696,0.455,-0.090
1.698,0.390,-0.085
1.700,0.265,-0.075
1.702,0.175,-0.070
1.704,0.050,-0.070
1.706,0.035,-0.070
1.708,0.225,-0.070
1.710,0.215,-0.075
1.712,0.385,-0.080
1.714,0.430,-0.085
1.716,0.460,-0.085
1.718,0.425,-0.085
1.720,0.285,-0.085
1.722,0.075,-0.080
1.724,0.085,-0.080
1.726,0.080,-0.075
1.728,0.170,-0.075
1.730,0.265,-0.080
1.732,0.355,-0.080
1.734,0.475,-0.085
1.736,0.405,-0.085
1.738,0.355,-0.085
1.740,0.295,-0.085
1.742,0.135,-0.080
1.744,0.140,-0.075
1.746,0.075,-0.070
1.748,0.085,-0.065
1.750,0.265,-0.065
1.752,0.405,-0.065
1.754,0.475,-0.065
1.756,0.455,-0.070
1.758,0.360,-0.070
1.760,0.265,-0.070
1.762,0.130,-0.065
1.764,0.105,-0.060
1.766,0.115,-0.055
1.768,0.185,-0.045
1.770,0.370,-0.035
1.772,0.395,-0.030
1.774,0.435,-0.025
1.776,0.550,-0.025
1.778,0.425,-0.025
1.780,0.265,-0.025
1.782,0.125,-0.030
1.784,0.125,-0.035
1.786,0.110,-0.040
1.788,0.210,-0.050
1.790,0.330,-0.055
1.792,0.410,-0.060
1.794,0.425,-0.065
1.796,0.395,-0.070
1.798,0.345,-0.070
1.800,0.225,-0.070
1.802,0.155,-0.065
1.804,0.110,-0.065
1.806,0.075,-0.060
1.808,0.140,-0.060
1.810,0.330,-0.065
1.812,0.515,-0.070
1.814,0.390,-0.075
1.816,0.390,-0.075
1.818,0.410,-0.080
1.820,0.220,-0.080
1.822,0.090,-0.075
1.824,0.080,-0.070
1.826,0.110,-0.060
1.828,0.165,-0.050
1.830,0.400,-0.045
1.832,0.420,-0.040
1.834,0.500,-0.035
1.836,0.465,-0.040
1.838,0.390,-0.040
1.840,0.235,-0.045
1.842,0.150,-0.055
1.844,0.095,-0.060
1.846,0.120,-0.065
1.848,0.205,-0.065
1.850,0.375,-0.060
1.852,0.475,-0.045
1.854,0.445,-0.015
1.856,0.530,0.030
1.858,0.510,0.090
1.860,0.355,0.170
1.862,0.465,0.260
1.864,0.530,0.365
1.866,0.605,0.465
1.868,0.880,0.555
1.870,1.165,0.625
1.872,1.240,0.665
1.874,1.270,0.665
1.876,1.100,0.625
1.878,0.915,0.545
1.880,0.585,0.430
1.882,0.485,0.285
1.884,0.220,0.135
1.886,0.135,-0.020
1.888,0.140,-0.155
1.890,0.130,-0.265
1.892,0.085,-0.350
1.894,0.080,-0.395
1.896,0.045,-0.415
1.898,-0.030,-0.405
1.900,-0.160,-0.380
1.902,-0.120,-0.350
1.904,-0.170,-0.315
1.906,-0.065,-0.280
1.908,-0.045,-0.255
1.910,0.185,-0.235
1.912,0.295,-0.215
1.914,0.380,-0.190
1.916,0.370,-0.165
1.918,0.275,-0.130
1.920,0.225,-0.095
1.922,0.135,-0.060
1.924,0.045,-0.030
1.926,0.175,-0.010
1.928,0.240,0.000
1.930,0.355,-0.005
1.932,0.520,-0.015
1.934,0.515,-0.035
1.936,0.400,-0.050
1.938,0.345,-0.060
1.940,0.180,-0.060
1.942,0.120,-0.050
1.944,0.110,-0.035
1.946,0.205,-0.010
1.948,0.270,0.010
1.950,0.510,0.025
1.952,0.525,0.035
1.954,0.485,0.030
1.956,0.445,0.020
1.958,0.360,0.000
1.960,0.170,-0.015
1.962,0.165,-0.030
1.964,0.160,-0.035
1.966,0.185,-0.035
1.968,0.275,-0.025
1.970,0.480,-0.010
1.972,0.460,0.005
1.974,0.480,0.015
1.976,0.500,0.020
1.978,0.380,0.025
1.980,0.285,0.020
1.982,0.245,0.020
1.984,0.125,0.015
1.986,0.175,0.020
1.988,0.360,0.020
1.990,0.530,0.030
1.992,0.545,0.035
1.994,0.550,0.040
1.996,0.470,0.045
1.998,0.355,0.045
2.000,0.255,0.045
2.002,0.170,0.045
2.004,0.210,0.045
2.006,0.230,0.045
2.008,0.415,0.050
2.010,0.580,0.060
2.012,0.565,0.070
2.014,0.580,0.080
2.016,0.490,0.085
2.018,0.420,0.085
2.020,0.250,0.085
2.022,0.235,0.085
2.024,0.280,0.080
2.026,0.365,0.075
2.028,0.375,0.080
2.030,0.545,0.090
2.032,0.645,0.105
2.034,0.650,0.120
2.036,0.595,0.140
2.038,0.460,0.150
2.040,0.280,0.160
2.042,0.325,0.155
2.044,0.285,0.150
2.046,0.385,0.140
2.048,0.495,0.130
2.050,0.530,0.125
2.052,0.640,0.130
2.054,0.685,0.145
2.056,0.585,0.165
2.058,0.430,0.185
2.060,0.460,0.200
2.062,0.360,0.210
2.064,0.345,0.205
2.066,0.345,0.190
2.068,0.515,0.170
2.070,0.605,0.140
2.072,0.610,0.115
2.074,0.620,0.100
2.076,0.515,0.095
2.078,0.430,0.100
2.080,0.300,0.110
2.082,0.320,0.120
2.084,0.245,0.135
2.086,0.375,0.135
2.088,0.505,0.135
2.090,0.540,0.120
2.092,0.640,0.105
2.094,0.630,0.090
2.096,0.445,0.075
2.098,0.380,0.070
2.100,0.200,0.075
2.102,0.260,0.075
2.104,0.225,0.080
2.106,0.260,0.080
2.108,0.375,0.070
2.110,0.585,0.055
2.112,0.590,0.030
2.114,0.500,0.005
2.116,0.325,-0.020
2.118,0.210,-0.040
2.120,0.095,-0.045
2.122,0.130,-0.045
2.124,0.110,-0.040
2.126,0.220,-0.030
2.128,0.390,-0.020
2.130,0.455,-0.020
2.132,0.465,-0.030
2.134,0.455,-0.045
2.136,0.305,-0.070
2.138,0.175,-0.090
2.140,0.080,-0.110
2.142,-0.035,-0.120
2.144,0.000,-0.120
2.146,0.130,-0.110
2.148,0.390,-0.095
2.150,0.440,-0.080
2.152,0.395,-0.065
2.154,0.465,-0.055
2.156,0.305,-0.050
2.158,0.185,-0.050
2.160,0.145,-0.055
2.162,0.050,-0.065
2.164,0.095,-0.065
2.166,0.225,-0.070
2.168,0.370,-0.070
2.170,0.425,-0.065
2.172,0.445,-0.060
2.174,0.375,-0.060
2.176,0.330,-0.060
2.178,0.120,-0.060
2.180,0.055,-0.065
2.182,0.085,-0.070
2.184,0.160,-0.070
2.186,0.225,-0.070
2.188,0.415,-0.070
2.190,0.430,-0.060
2.192,0.450,-0.055
2.194,0.390,-0.045
2.196,0.290,-0.045
2.198,0.175,-0.045
2.200,0.100,-0.045
2.202,0.035,-0.055
2.204,0.160,-0.060
2.206,0.220,-0.070
2.208,0.420,-0.070
2.210,0.375,-0.070
2.212,0.370,-0.070
2.214,0.410,-0.060
2.216,0.300,-0.050
2.218,0.130,-0.040
2.220,0.150,-0.035
2.222,0.110,-0.030
2.224,0.150,-0.030
2.226,0.225,-0.030
2.228,0.380,-0.030
2.230,0.495,-0.035
2.232,0.505,-0.040
2.234,0.400,-0.040
2.236,0.280,-0.040
2.238,0.100,-0.040
2.240,0.115,-0.040
2.242,0.075,-0.040
2.244,0.145,-0.045
2.246,0.225,-0.050
2.248,0.405,-0.055
2.250,0.410,-0.065
2.252,0.465,-0.070
2.254,0.385,-0.075
2.256,0.265,-0.075
2.258,0.175,-0.075
2.260,0.045,-0.070
2.262,0.075,-0.065
2.264,0.135,-0.060
2.266,0.255,-0.055
2.268,0.405,-0.055
2.270,0.475,-0.050
2.272,0.470,-0.050
2.274,0.350,-0.050
2.276,0.265,-0.045
2.278,0.110,-0.045
2.280,0.085,-0.050
2.282,0.085,-0.050
2.284,0.135,-0.055
2.286,0.270,-0.055
2.288,0.495,-0.060
2.290,0.425,-0.060
2.292,0.415,-0.055
2.294,0.320,-0.050
2.296,0.250,-0.045
2.298,0.125,-0.035
2.300,0.135,-0.025
2.302,0.140,-0.020
2.304,0.195,-0.015
2.306,0.285,-0.015
2.308,0.410,-0.020
2.310,0.475,-0.025
2.312,0.470,-0.030
2.314,0.405,-0.035
2.316,0.290,-0.035
2.318,0.155,-0.035
2.320,0.090,-0.035
2.322,0.155,-0.035
2.324,0.210,-0.035
2.326,0.225,-0.040
2.328,0.370,-0.045
2.330,0.415,-0.050
2.332,0.470,-0.060
2.334,0.435,-0.065
2.336,0.220,-0.065
2.338,0.130,-0.065
2.340,0.090,-0.055
2.342,0.090,-0.035
2.344,0.260,-0.015
2.346,0.385,0.010
2.348,0.480,0.030
2.350,0.560,0.045
2.352,0.505,0.050
2.354,0.425,0.050
2.356,0.300,0.040
2.358,0.180,0.020
2.360,0.115,-0.005
2.362,0.105,-0.025
2.364,0.165,-0.045
2.366,0.305,-0.060
2.368,0.430,-0.070
2.370,0.430,-0.070
2.372,0.405,-0.060
2.374,0.380,-0.050
2.376,0.220,-0.040
2.378,0.095,-0.035
2.380,0.090,-0.030
2.382,0.095,-0.030
2.384,0.150,-0.035
2.386,0.375,-0.040
2.388,0.455,-0.045
2.390,0.465,-0.045
2.392,0.400,-0.040
2.394,0.360,-0.035
2.396,0.225,-0.025
2.398,0.150,-0.020
2.400,0.100,-0.015
2.402,0.125,-0.010
2.404,0.220,-0.015
2.406,0.440,-0.020
2.408,0.455,-0.025
2.410,0.430,-0.030
2.412,0.420,-0.035
2.414,0.405,-0.035
2.416,0.235,-0.030
2.418,0.140,-0.030
2.420,0.020,-0.025
2.422,0.150,-0.020
2.424,0.265,-0.015
2.426,0.455,-0.005
2.428,0.455,0.020
2.430,0.565,0.060
2.432,0.560,0.115
2.434,0.620,0.195
2.436,0.495,0.290
2.438,0.600,0.390
2.440,0.595,0.485
2.442,0.800,0.570
2.444,0.985,0.620
2.446,1.135,0.640
2.448,1.140,0.615
2.450,0.975,0.550
2.452,0.865,0.450
2.454,0.675,0.325
2.456,0.455,0.190
2.458,0.205,0.055
2.460,0.010,-0.070
2.462,-0.085,-0.175
2.464,-0.075,-0.260
2.466,0.045,-0.315
2.468,0.150,-0.350
2.470,0.130,-0.365
2.472,0.090,-0.360
2.474,0.050,-0.345
2.476,-0.090,-0.320
2.478,-0.130,-0.290
2.480,-0.155,-0.260
2.482,-0.060,-0.225
2.484,0.135,-0.190
2.486,0.350,-0.160
2.488,0.360,-0.130
2.490,0.400,-0.105
2.492,0.325,-0.080
2.494,0.270,-0.055
2.496,0.165,-0.040
2.498,0.195,-0.025
2.500,0.130,-0.020
2.502,0.170,-0.010
2.504,0.290,-0.010
2.506,0.425,-0.010
2.508,0.450,-0.010
2.510,0.490,-0.010
2.512,0.490,-0.005
2.514,0.325,0.000
2.516,0.185,0.005
2.518,0.170,0.015
2.520,0.190,0.020
2.522,0.195,0.025
2.524,0.280,0.025
2.526,0.525,0.025
2.528,0.475,0.020
2.530,0.485,0.020
2.532,0.380,0.020
2.534,0.380,0.020
2.536,0.265,0.030
2.538,0.175,0.035
2.540,0.145,0.045
2.542,0.250,0.055
2.544,0.340,0.060
2.546,0.540,0.060
2.548,0.560,0.060
2.550,0.555,0.050
2.552,0.430,0.040
2.554,0.345,0.035
2.556,0.215,0.030
2.558,0.175,0.030
2.560,0.160,0.035
2.562,0.255,0.040
2.564,0.415,0.050
2.566,0.505,0.065
2.568,0.565,0.070
2.570,0.545,0.075
2.572,0.490,0.075
2.574,0.320,0.075
2.576,0.285,0.065
2.578,0.215,0.060
2.580,0.190,0.055
2.582,0.265,0.055
2.584,0.395,0.055
2.586,0.585,0.060
2.588,0.580,0.070
2.590,0.565,0.080
2.592,0.430,0.095
2.594,0.440,0.105
2.596,0.315,0.115
2.598,0.225,0.125
2.600,0.210,0.125
2.602,0.350,0.130
2.604,0.500,0.125
2.606,0.590,0.125
2.608,0.655,0.125
2.610,0.620,0.125
2.612,0.535,0.130
2.614,0.390,0.140
2.616,0.300,0.150
2.618,0.225,0.160
2.620,0.380,0.170
2.622,0.470,0.180
2.624,0.525,0.185
2.626,0.595,0.185
2.628,0.595,0.180
2.630,0.690,0.175
2.632,0.620,0.170
2.634,0.380,0.160
2.636,0.390,0.155
2.638,0.280,0.150
2.640,0.315,0.150
2.642,0.325,0.145
2.644,0.510,0.145
2.646,0.625,0.145
2.648,0.665,0.145
2.650,0.685,0.145
2.652,0.510,0.140
2.654,0.395,0.140
2.656,0.330,0.140
2.658,0.285,0.135
2.660,0.290,0.130
2.662,0.380,0.130
2.664,0.520,0.120
2.666,0.575,0.115
2.668,0.580,0.105
2.670,0.560,0.090
2.672,0.470,0.075
2.674,0.275,0.065
2.676,0.220,0.050
2.678,0.195,0.040
2.680,0.205,0.030
2.682,0.270,0.020
2.684,0.410,0.010
2.686,0.450,0.005
2.688,0.465,-0.005
2.690,0.435,-0.010
2.692,0.395,-0.015
2.694,0.235,-0.020
2.696,0.125,-0.025
2.698,0.080,-0.030
2.700,0.150,-0.030
2.702,0.220,-0.030
2.704,0.380,-0.030
2.706,0.435,-0.035
2.708,0.420,-0.035
2.710,0.400,-0.045
2.712,0.395,-0.050
2.714,0.150,-0.060
2.716,0.155,-0.065
2.718,0.070,-0.065
2.720,0.100,-0.065
2.722,0.215,-0.060
2.724,0.370,-0.055
2.726,0.410,-0.050
2.728,0.400,-0.040
2.730,0.415,-0.035
2.732,0.370,-0.035
2.734,0.225,-0.035
2.736,0.110,-0.040
2.738,0.095,-0.045
2.740,0.145,-0.050
2.742,0.245,-0.055
2.744,0.385,-0.060
2.746,0.395,-0.060
2.748,0.460,-0.055
2.750,0.395,-0.050
2.752,0.245,-0.050
2.754,0.115,-0.045
2.756,0.135,-0.040
2.758,0.115,-0.040
2.760,0.150,-0.040
2.762,0.265,-0.035
2.764,0.400,-0.035
2.766,0.460,-0.035
2.768,0.450,-0.035
2.770,0.375,-0.035
2.772,0.300,-0.035
2.774,0.170,-0.040
2.776,0.115,-0.045
2.778,0.065,-0.050
2.780,0.170,-0.060
2.782,0.215,-0.065
2.784,0.365,-0.065
2.786,0.410,-0.065
2.788,0.475,-0.060
2.790,0.425,-0.055
2.792,0.310,-0.045
2.794,0.120,-0.040
2.796,0.155,-0.040
2.798,0.075,-0.040
2.800,0.165,-0.045
2.802,0.220,-0.050
2.804,0.380,-0.060
2.806,0.425,-0.065
2.808,0.435,-0.075
2.810,0.350,-0.075
2.812,0.250,-0.070
2.814,0.190,-0.065
2.816,0.125,-0.060
2.818,0.120,-0.050
2.820,0.190,-0.045
2.822,0.270,-0.040
2.824,0.400,-0.035
2.826,0.380,-0.035
2.828,0.480,-0.040
2.830,0.380,-0.045
2.832,0.245,-0.045
2.834,0.165,-0.050
2.836,0.110,-0.045
2.838,0.090,-0.045
2.840,0.135,-0.040
2.842,0.275,-0.030
2.844,0.460,-0.025
2.846,0.480,-0.015
2.848,0.510,-0.010
2.850,0.390,-0.010
2.852,0.270,-0.015
2.854,0.230,-0.025
2.856,0.120,-0.035
2.858,0.020,-0.050
2.860,0.110,-0.060
2.862,0.275,-0.070
2.864,0.435,-0.080
2.866,0.415,-0.080
2.868,0.465,-0.080
2.870,0.380,-0.070
2.872,0.255,-0.060
2.874,0.150,-0.050
2.876,0.105,-0.040
2.878,0.135,-0.035
2.880,0.170,-0.030
2.882,0.305,-0.030
2.884,0.410,-0.035
2.886,0.435,-0.035
2.888,0.445,-0.035
2.890,0.380,-0.035
2.892,0.260,-0.030
2.894,0.165,-0.025
2.896,0.080,-0.015
2.898,0.180,-0.010
2.900,0.235,-0.005
2.902,0.355,-0.005
2.904,0.485,-0.005
2.906,0.480,-0.005
2.908,0.450,-0.010
2.910,0.395,-0.015
2.912,0.245,-0.015
2.914,0.160,-0.015
2.916,0.160,-0.015
2.918,0.155,-0.015
2.920,0.185,-0.015
2.922,0.365,-0.015
2.924,0.475,-0.020
2.926,0.470,-0.030
2.928,0.455,-0.040
2.930,0.315,-0.050
2.932,0.195,-0.060
2.934,0.125,-0.065
2.936,0.035,-0.070
2.938,0.060,-0.075
2.940,0.195,-0.080
2.942,0.370,-0.075
2.944,0.385,-0.075
2.946,0.475,-0.070
2.948,0.385,-0.065
2.950,0.340,-0.055
2.952,0.160,-0.050
2.954,0.145,-0.045
2.956,0.050,-0.040
2.958,0.140,-0.040
2.960,0.180,-0.045
2.962,0.380,-0.045
2.964,0.450,-0.050
2.966,0.520,-0.050
2.968,0.390,-0.050
2.970,0.340,-0.045
2.972,0.150,-0.045
2.974,0.115,-0.040
2.976,0.075,-0.035
2.978,0.210,-0.035
2.980,0.250,-0.035
2.982,0.415,-0.025
2.984,0.430,-0.015
2.986,0.470,0.015
2.988,0.465,0.060
2.990,0.525,0.130
2.992,0.490,0.215
2.994,0.580,0.315
2.996,0.540,0.415
2.998,0.675,0.510
3.000,0.855,0.585
3.002,1.165,0.625
3.004,1.210,0.625
3.006,1.065,0.580
3.008,0.905,0.490
3.010,0.710,0.370
3.012,0.410,0.225
3.014,0.220,0.075
3.016,0.060,-0.070
3.018,-0.065,-0.195
3.020,-0.085,-0.295
3.022,0.085,-0.360
3.024,0.055,-0.395
3.026,0.090,-0.400
3.028,0.020,-0.380
3.030,0.075,-0.350
3.032,-0.140,-0.310
3.034,-0.110,-0.270
3.036,-0.070,-0.235
3.038,-0.035,-0.210
3.040,0.100,-0.185
3.042,0.275,-0.165
3.044,0.355,-0.150
3.046,0.365,-0.135
3.048,0.375,-0.115
3.050,0.310,-0.090
3.052,0.195,-0.070
3.054,0.115,-0.045
3.056,0.060,-0.030
3.058,0.060,-0.015
3.060,0.345,-0.010
3.062,0.425,-0.010
3.064,0.460,-0.015
3.066,0.405,-0.025
3.068,0.455,-0.030
3.070,0.325,-0.030
3.072,0.130,-0.025
3.074,0.195,-0.020
3.076,0.105,-0.005
3.078,0.160,0.005
3.080,0.375,0.015
3.082,0.465,0.020
3.084,0.465,0.020
3.086,0.470,0.015
3.088,0.445,0.005
3.090,0.395,0.000
3.092,0.190,-0.005
3.094,0.130,0.000
3.096,0.180,0.000
3.098,0.235,0.010
3.100,0.350,0.020
3.102,0.540,0.025
3.104,0.490,0.030
3.106,0.530,0.035
3.108,0.480,0.035
3.110,0.290,0.030
3.112,0.215,0.030
3.114,0.220,0.035
3.116,0.200,0.040
3.118,0.285,0.045
3.120,0.370,0.050
3.122,0.495,0.055
3.124,0.515,0.055
3.126,0.555,0.055
3.128,0.465,0.050
3.130,0.405,0.045
3.132,0.165,0.040
3.134,0.185,0.045
3.136,0.190,0.045
3.138,0.320,0.055
3.140,0.450,0.070
3.142,0.525,0.080
3.144,0.515,0.090
3.146,0.595,0.100
3.148,0.490,0.100
3.150,0.370,0.100
3.152,0.260,0.100
3.154,0.250,0.095
3.156,0.255,0.095
3.158,0.355,0.100
3.160,0.470,0.110
3.162,0.605,0.120
3.164,0.645,0.135
3.166,0.635,0.140
3.168,0.520,0.145
3.170,0.420,0.150
3.172,0.315,0.145
3.174,0.290,0.145
3.176,0.270,0.145
3.178,0.370,0.145
3.180,0.560,0.155
3.182,0.625,0.160
3.184,0.730,0.175
3.186,0.650,0.180
3.188,0.530,0.190
3.190,0.410,0.190
3.192,0.405,0.185
3.194,0.305,0.180
3.196,0.355,0.170
3.198,0.400,0.165
3.200,0.560,0.155
3.202,0.590,0.155
3.204,0.600,0.155
3.206,0.655,0.155
3.208,0.545,0.155
3.210,0.335,0.155
3.212,0.300,0.155
3.214,0.365,0.150
3.216,0.295,0.140
3.218,0.375,0.130
3.220,0.515,0.125
3.222,0.595,0.115
3.224,0.670,0.110
3.226,0.550,0.105
3.228,0.470,0.100
3.230,0.305,0.090
3.232,0.205,0.080
3.234,0.135,0.060
3.236,0.235,0.040
3.238,0.275,0.020
3.240,0.415,-0.005
3.242,0.430,-0.020
3.244,0.475,-0.030
3.246,0.430,-0.035
3.248,0.375,-0.035
3.250,0.195,-0.030
3.252,0.095,-0.025
3.254,0.060,-0.025
3.256,0.100,-0.025
3.258,0.205,-0.035
3.260,0.375,-0.045
3.262,0.435,-0.055
3.264,0.485,-0.065
3.266,0.375,-0.070
3.268,0.230,-0.070
3.270,0.115,-0.065
3.272,0.155,-0.055
3.274,0.155,-0.050
3.276,0.150,-0.040
3.278,0.160,-0.035
3.280,0.325,-0.035
3.282,0.390,-0.040
3.284,0.495,-0.050
3.286,0.395,-0.060
3.288,0.275,-0.070
3.290,0.160,-0.075
3.292,0.055,-0.080
3.294,0.045,-0.080
3.296,0.110,-0.075
3.298,0.190,-0.075
3.300,0.355,-0.070
3.302,0.395,-0.065
3.304,0.425,-0.065
3.306,0.375,-0.060
3.308,0.250,-0.060
3.310,0.140,-0.055
3.312,0.160,-0.050
3.314,0.080,-0.045
3.316,0.150,-0.040
3.318,0.220,-0.035
3.320,0.370,-0.035
3.322,0.465,-0.030
3.324,0.465,-0.035
3.326,0.370,-0.035
3.328,0.240,-0.045
3.330,0.180,-0.050
3.332,0.130,-0.050
3.334,0.040,-0.055
3.336,0.135,-0.050
3.338,0.250,-0.050
3.340,0.390,-0.045
3.342,0.390,-0.035
3.344,0.450,-0.035
3.346,0.450,-0.030
3.348,0.275,-0.030
3.350,0.210,-0.035
3.352,0.095,-0.040
3.354,0.105,-0.050
3.356,0.065,-0.055
3.358,0.165,-0.060
3.360,0.325,-0.065
3.362,0.380,-0.060
3.364,0.550,-0.055
3.366,0.375,-0.050
3.368,0.245,-0.045
3.370,0.085,-0.035
3.372,0.125,-0.035
3.374,0.080,-0.035
3.376,0.170,-0.035
3.378,0.245,-0.040
3.380,0.345,-0.050
3.382,0.370,-0.060
3.384,0.425,-0.070
3.386,0.340,-0.075
3.388,0.245,-0.080
3.390,0.105,-0.080
3.392,0.070,-0.075
3.394,0.100,-0.070
3.396,0.120,-0.060
3.398,0.225,-0.050
3.400,0.385,-0.045
3.402,0.435,-0.040
3.404,0.430,-0.040
3.406,0.370,-0.040
3.408,0.225,-0.045
3.410,0.115,-0.055
3.412,0.085,-0.065
3.414,0.035,-0.075
3.416,0.080,-0.080
3.418,0.220,-0.080
3.420,0.360,-0.075
3.422,0.420,-0.065
3.424,0.455,-0.050
3.426,0.405,-0.040
3.428,0.275,-0.030
3.430,0.080,-0.020
3.432,0.085,-0.025
3.434,0.135,-0.030
3.436,0.160,-0.045
3.438,0.215,-0.060
3.440,0.295,-0.075
3.442,0.385,-0.085
3.444,0.405,-0.090
3.446,0.355,-0.090
3.448,0.200,-0.080
3.450,0.155,-0.065
3.452,0.040,-0.050
3.454,0.075,-0.040
3.456,0.155,-0.040
3.458,0.285,-0.040
3.460,0.365,-0.050
3.462,0.410,-0.065
3.464,0.340,-0.080
3.466,0.335,-0.090
3.468,0.140,-0.095
3.470,0.070,-0.090
3.472,0.065,-0.080
3.474,0.070,-0.060
3.476,0.130,-0.040
3.478,0.260,-0.020
3.480,0.430,-0.005
3.482,0.555,0.010
3.484,0.525,0.015
3.486,0.385,0.010
3.488,0.210,0.005
3.490,0.095,-0.005
3.492,0.110,-0.020
3.494,0.080,-0.030
3.496,0.180,-0.040
3.498,0.315,-0.050
3.500,0.450,-0.050
3.502,0.435,-0.055
3.504,0.385,-0.055
3.506,0.255,-0.055
3.508,0.120,-0.050
3.510,0.100,-0.055
3.512,0.040,-0.055
3.514,0.070,-0.060
3.516,0.165,-0.070
3.518,0.335,-0.080
3.520,0.335,-0.085
3.522,0.390,-0.095
3.524,0.355,-0.095
3.526,0.310,-0.095
3.528,0.105,-0.090
3.530,0.035,-0.080
3.532,0.030,-0.070
3.534,0.050,-0.060
3.536,0.270,-0.050
3.538,0.255,-0.045
3.540,0.310,-0.050
3.542,0.460,-0.055
3.544,0.400,-0.060
3.546,0.245,-0.070
3.548,0.110,-0.080
3.550,0.045,-0.085
3.552,0.015,-0.090
3.554,0.060,-0.090
3.556,0.180,-0.085
3.558,0.340,-0.080
3.560,0.375,-0.075
3.562,0.380,-0.065
3.564,0.325,-0.050
3.566,0.295,-0.025
3.568,0.125,0.015
3.570,0.215,0.065
3.572,0.255,0.135
3.574,0.380,0.220
3.576,0.570,0.315
3.578,0.835,0.415
3.580,0.985,0.515
3.582,1.150,0.590
3.584,1.110,0.640
3.586,1.015,0.655
3.588,0.815,0.625
3.590,0.670,0.550
3.592,0.470,0.440
3.594,0.410,0.300
3.596,0.380,0.145
3.598,0.405,-0.010
3.600,0.275,-0.150
3.602,0.105,-0.265
3.604,-0.010,-0.345
3.606,-0.105,-0.395
3.608,-0.245,-0.415
3.610,-0.360,-0.410
3.612,-0.275,-0.385
3.614,-0.205,-0.350
3.616,-0.040,-0.310
3.618,0.140,-0.275
3.620,0.225,-0.235
3.622,0.270,-0.205
3.624,0.275,-0.175
3.626,0.095,-0.145
3.628,0.060,-0.115
3.630,0.005,-0.090
3.632,0.020,-0.070
3.634,0.145,-0.050
3.636,0.265,-0.035
3.638,0.360,-0.030
3.640,0.375,-0.025
3.642,0.365,-0.030
3.644,0.330,-0.030
3.646,0.250,-0.035
3.648,0.130,-0.035
3.650,0.110,-0.035
3.652,0.070,-0.030
3.654,0.095,-0.025
3.656,0.285,-0.015
3.658,0.340,-0.005
3.660,0.395,0.000
3.662,0.435,0.005
3.664,0.385,0.010
3.666,0.270,0.010
3.668,0.155,0.005
3.670,0.100,0.000
3.672,0.095,-0.005
3.674,0.110,-0.015
3.676,0.265,-0.025
3.678,0.385,-0.030
3.680,0.370,-0.030
3.682,0.445,-0.030
3.684,0.385,-0.025
3.686,0.220,-0.015
3.688,0.075,-0.005
3.690,0.075,0.000
3.692,0.125,0.005
3.694,0.200,0.010
3.696,0.305,0.010
3.698,0.415,0.005
3.700,0.455,0.005
3.702,0.450,0.005
3.704,0.350,0.010
3.706,0.135,0.020
3.708,0.150,0.035
3.710,0.170,0.050
3.712,0.180,0.065
3.714,0.300,0.075
3.716,0.385,0.085
3.718,0.460,0.085
3.720,0.460,0.080
3.722,0.495,0.075
3.724,0.395,0.065
3.726,0.250,0.060
3.728,0.190,0.060
3.730,0.195,0.065
3.732,0.160,0.070
3.734,0.225,0.080
3.736,0.400,0.090
3.738,0.480,0.100
3.740,0.565,0.105
3.742,0.485,0.115
3.744,0.485,0.120
3.746,0.320,0.125
3.748,0.195,0.135
3.750,0.245,0.145
3.752,0.260,0.150
3.754,0.305,0.160
3.756,0.490,0.160
3.758,0.555,0.160
3.760,0.545,0.155
3.762,0.545,0.150
3.764,0.510,0.145
3.766,0.365,0.145
3.768,0.270,0.145
3.770,0.220,0.150
3.772,0.285,0.160
3.774,0.390,0.170
3.776,0.525,0.180
3.778,0.580,0.190
3.780,0.565,0.190
3.782,0.555,0.190
3.784,0.510,0.180
3.786,0.365,0.170
3.788,0.245,0.160
3.790,0.255,0.155
3.792,0.290,0.150
3.794,0.325,0.145
3.796,0.465,0.150
3.798,0.550,0.150
3.800,0.585,0.145
3.802,0.555,0.140
3.804,0.380,0.130
3.806,0.285,0.110
3.808,0.230,0.095
3.810,0.135,0.075
3.812,0.150,0.060
3.814,0.235,0.050
3.816,0.360,0.045
3.818,0.465,0.045
3.820,0.490,0.050
3.822,0.415,0.050
3.824,0.340,0.050
3.826,0.195,0.040
3.828,0.140,0.030
3.830,0.095,0.015
3.832,0.040,0.000
3.834,0.165,-0.015
3.836,0.275,-0.030
3.838,0.345,-0.045
3.840,0.385,-0.050
3.842,0.330,-0.055
3.844,0.225,-0.060
3.846,0.070,-0.065
3.848,0.005,-0.065
3.850,-0.080,-0.075
3.852,0.020,-0.080
3.854,0.165,-0.085
3.856,0.310,-0.090
3.858,0.300,-0.090
3.860,0.380,-0.085
3.862,0.330,-0.075
3.864,0.215,-0.065
3.866,-0.035,-0.055
3.868,0.065,-0.045
3.870,0.030,-0.040
3.872,0.020,-0.045
3.874,0.125,-0.050
3.876,0.315,-0.055
3.878,0.310,-0.065
3.880,0.305,-0.075
3.882,0.315,-0.075
3.884,0.175,-0.075
3.886,0.095,-0.070
3.888,0.055,-0.065
3.890,-0.045,-0.060
3.892,0.030,-0.050
3.894,0.195,-0.050
3.896,0.325,-0.045
3.898,0.340,-0.045
3.900,0.330,-0.050
3.902,0.310,-0.050
3.904,0.175,-0.055
3.906,0.025,-0.055
3.908,0.055,-0.050
3.910,-0.010,-0.050
3.912,0.055,-0.050
3.914,0.150,-0.055
3.916,0.285,-0.055
3.918,0.360,-0.065
3.920,0.360,-0.070
3.922,0.205,-0.075
3.924,0.070,-0.080
3.926,0.045,-0.080
3.928,-0.010,-0.080
3.930,0.025,-0.070
3.932,0.055,-0.065
3.934,0.205,-0.055
3.936,0.330,-0.050
3.938,0.345,-0.050
3.940,0.310,-0.050
3.942,0.235,-0.050
3.944,0.180,-0.055
3.946,0.065,-0.060
3.948,0.040,-0.060
3.950,-0.090,-0.055
3.952,0.005,-0.055
3.954,0.240,-0.050
3.956,0.455,-0.050
3.958,0.345,-0.045
3.960,0.345,-0.050
3.962,0.230,-0.055
3.964,0.105,-0.060
3.966,0.030,-0.065
3.968,-0.020,-0.070
3.970,-0.085,-0.075
3.972,0.055,-0.075
3.974,0.150,-0.070
3.976,0.320,-0.065
3.978,0.360,-0.060
3.980,0.385,-0.050
3.982,0.250,-0.040
3.984,0.115,-0.040
3.986,0.020,-0.035
3.988,0.000,-0.040
3.990,0.015,-0.045
3.992,0.050,-0.050
3.994,0.220,-0.055
3.996,0.290,-0.060
3.998,0.320,-0.065
4.000,0.270,-0.065
4.002,0.230,-0.065
4.004,0.115,-0.060
4.006,0.005,-0.060
4.008,-0.020,-0.055
4.010,-0.015,-0.050
4.012,0.085,-0.050
4.014,0.200,-0.055
4.016,0.280,-0.060
4.018,0.285,-0.065
4.020,0.325,-0.075
4.022,0.270,-0.080
4.024,0.055,-0.080
4.026,-0.015,-0.075
4.028,-0.025,-0.070
4.030,-0.020,-0.060
4.032,0.075,-0.050
4.034,0.280,-0.040
4.036,0.330,-0.030
4.038,0.335,-0.030
4.040,0.345,-0.035
4.042,0.230,-0.045
4.044,0.035,-0.060
4.046,-0.055,-0.070
4.048,-0.090,-0.085
4.050,-0.085,-0.090
4.052,0.050,-0.095
4.054,0.265,-0.095
4.056,0.280,-0.090
4.058,0.320,-0.080
4.060,0.350,-0.075
4.062,0.160,-0.065
4.064,0.010,-0.060
4.066,-0.005,-0.060
4.068,-0.030,-0.060
4.070,-0.030,-0.060
4.072,0.085,-0.065
4.074,0.300,-0.070
4.076,0.280,-0.075
4.078,0.295,-0.075
4.080,0.215,-0.080
4.082,0.165,-0.085
4.084,0.035,-0.085
4.086,-0.050,-0.085
4.088,-0.055,-0.085
4.090,-0.045,-0.085
4.092,0.090,-0.080
4.094,0.260,-0.070
4.096,0.315,-0.065
4.098,0.310,-0.055
4.100,0.305,-0.045
4.102,0.170,-0.035
4.104,0.005,-0.030
4.106,-0.010,-0.030
4.108,0.035,-0.030
4.110,0.045,-0.030
4.112,0.155,-0.035
4.114,0.240,-0.040
4.116,0.225,-0.045
4.118,0.330,-0.050
4.120,0.300,-0.050
4.122,0.260,-0.055
4.124,0.035,-0.055
4.126,-0.020,-0.060
4.128,-0.080,-0.060
4.130,-0.060,-0.065
4.132,0.125,-0.065
4.134,0.260,-0.065
4.136,0.260,-0.065
4.138,0.335,-0.065
4.140,0.300,-0.065
4.142,0.150,-0.065
4.144,0.020,-0.060
4.146,-0.055,-0.060
4.148,-0.075,-0.065
4.150,-0.015,-0.065
4.152,0.080,-0.070
4.154,0.265,-0.075
4.156,0.285,-0.080
4.158,0.280,-0.085
4.160,0.225,-0.090
4.162,0.080,-0.090
4.164,-0.040,-0.090
4.166,-0.120,-0.085
4.168,-0.005,-0.080
4.170,0.070,-0.070
4.172,0.110,-0.060
4.174,0.250,-0.050
4.176,0.335,-0.040
4.178,0.310,-0.035
4.180,0.285,-0.035
4.182,0.160,-0.040
4.184,-0.005,-0.045
4.186,-0.105,-0.055
4.188,-0.070,-0.060
4.190,-0.015,-0.060
4.192,0.150,-0.045
4.194,0.335,-0.015
4.196,0.350,0.035
4.198,0.520,0.110
4.200,0.475,0.195
4.202,0.540,0.295
4.204,0.425,0.395
4.206,0.525,0.490
4.208,0.620,0.570
4.210,0.735,0.620
4.212,0.925,0.635
4.214,0.975,0.615
4.216,0.910,0.560
4.218,0.785,0.470
4.220,0.645,0.355
4.222,0.330,0.225
4.224,0.120,0.085
4.226,-0.020,-0.045
4.228,-0.220,-0.165
4.230,-0.270,-0.270
4.232,-0.190,-0.345
4.234,-0.125,-0.395
4.236,-0.055,-0.420
4.238,-0.060,-0.420
4.240,-0.095,-0.405
4.242,-0.155,-0.370
4.244,-0.255,-0.330
4.246,-0.260,-0.285
4.248,-0.240,-0.240
4.250,-0.155,-0.205
4.252,0.060,-0.170
4.254,0.185,-0.145
4.256,0.245,-0.130
4.258,0.255,-0.115
4.260,0.150,-0.100
4.262,0.075,-0.090
4.264,-0.020,-0.075
4.266,-0.030,-0.065
4.268,-0.090,-0.050
4.270,0.075,-0.040
4.272,0.200,-0.030
4.274,0.260,-0.020
4.276,0.385,-0.015
4.278,0.340,-0.015
4.280,0.230,-0.015
4.282,0.030,-0.010
4.284,-0.015,-0.010
4.286,0.000,-0.005
4.288,0.100,0.000
4.290,0.130,0.005
4.292,0.210,0.010
4.294,0.375,0.010
4.296,0.330,0.010
4.298,0.265,0.010
4.300,0.225,0.010
4.302,0.085,0.005
4.304,0.085,0.000
4.306,0.020,0.000
4.308,0.000,0.000
4.310,0.075,0.000
4.312,0.210,0.005
4.314,0.355,0.010
4.316,0.365,0.015
4.318,0.365,0.020
4.320,0.255,0.025
4.322,0.095,0.030
4.324,0.035,0.035
4.326,0.070,0.040
4.328,0.075,0.040
4.330,0.125,0.045
4.332,0.290,0.045
4.334,0.335,0.045
4.336,0.355,0.045
4.338,0.365,0.045
4.340,0.320,0.040
4.342,0.125,0.040
4.344,0.075,0.045
4.346,0.065,0.050
4.348,0.090,0.055
4.350,0.195,0.065
4.352,0.300,0.075
4.354,0.280,0.080
4.356,0.550,0.090
4.358,0.400,0.095
4.360,0.265,0.100
4.362,0.145,0.100
4.364,0.125,0.100
4.366,0.100,0.100
4.368,0.115,0.100
4.370,0.205,0.105
4.372,0.355,0.110
4.374,0.440,0.115
4.376,0.500,0.120
4.378,0.440,0.130
4.380,0.380,0.140
4.382,0.165,0.145
4.384,0.155,0.155
4.386,0.140,0.160
4.388,0.180,0.170
4.390,0.335,0.175
4.392,0.430,0.180
4.394,0.500,0.185
4.396,0.505,0.185
4.398,0.435,0.185
4.400,0.355,0.185
4.402,0.270,0.185
4.404,0.185,0.180
4.406,0.195,0.175
4.408,0.240,0.165
4.410,0.280,0.155
4.412,0.370,0.145
4.414,0.435,0.135
4.416,0.475,0.125
4.418,0.440,0.115
4.420,0.325,0.110
4.422,0.130,0.105
4.424,0.105,0.105
4.426,0.045,0.110
4.428,0.165,0.115
4.430,0.195,0.120
4.432,0.440,0.125
4.434,0.470,0.125
4.436,0.450,0.115
4.438,0.345,0.105
4.440,0.255,0.090
4.442,0.130,0.070
4.444,0.020,0.050
4.446,-0.075,0.030
4.448,0.075,0.015
4.450,0.160,0.005
4.452,0.295,0.000
4.454,0.360,0.000
4.456,0.260,0.000
4.458,0.260,0.005
4.460,0.195,0.005
4.462,0.070,0.005
4.464,-0.020,0.000
4.466,0.000,-0.005
4.468,-0.025,-0.015
4.470,0.140,-0.025
4.472,0.265,-0.035
4.474,0.260,-0.040
4.476,0.300,-0.045
4.478,0.255,-0.045
4.480,0.065,-0.045
4.482,0.035,-0.045
4.484,-0.050,-0.040
4.486,-0.085,-0.040
4.488,-0.030,-0.045
4.490,0.085,-0.055
4.492,0.250,-0.060
4.494,0.255,-0.070
4.496,0.240,-0.080
4.498,0.215,-0.080
4.500,0.050,-0.075
4.502,-0.070,-0.070
4.504,-0.050,-0.060
4.506,-0.040,-0.045
4.508,0.060,-0.035
4.510,0.130,-0.030
4.512,0.245,-0.035
4.514,0.265,-0.040
4.516,0.235,-0.050
4.518,0.150,-0.060
4.520,0.050,-0.070
4.522,-0.045,-0.075
4.524,0.030,-0.080
4.526,-0.140,-0.075
4.528,0.005,-0.070
4.530,0.170,-0.060
4.532,0.190,-0.055
4.534,0.220,-0.055
4.536,0.230,-0.060
4.538,0.170,-0.070
4.540,0.085,-0.080
4.542,-0.065,-0.085
4.544,-0.075,-0.090
4.546,-0.140,-0.080
4.548,0.040,-0.070
4.550,0.165,-0.050
4.552,0.220,-0.025
4.554,0.295,-0.005
4.556,0.340,0.005
4.558,0.270,0.010
4.560,0.055,0.000
4.562,-0.040,-0.010
4.564,-0.100,-0.025
4.566,0.005,-0.040
4.568,0.025,-0.045
4.570,0.210,-0.045
4.572,0.250,-0.035
4.574,0.265,-0.020
4.576,0.230,-0.010
4.578,0.130,-0.010
4.580,0.030,-0.020
4.582,0.050,-0.040
4.584,-0.075,-0.065
4.586,-0.020,-0.090
4.588,0.010,-0.100
4.590,0.140,-0.095
4.592,0.220,-0.070
4.594,0.270,-0.025
4.596,0.270,0.030
4.598,0.135,0.080
4.600,0.010,0.115
4.602,0.205,0.130
4.604,0.290,0.110
4.606,0.310,0.065
4.608,0.260,0.005
4.610,0.135,-0.055
4.612,0.005,-0.100
4.614,-0.060,-0.125
4.616,-0.085,-0.120
4.618,0.015,-0.095
4.620,0.075,-0.055
4.622,0.230,-0.015
4.624,0.205,0.010
4.626,0.280,0.015
4.628,0.185,0.000
4.630,0.130,-0.030
4.632,-0.030,-0.065
4.634,0.005,-0.095
4.636,-0.030,-0.110
4.638,-0.010,-0.105
4.640,0.000,-0.080
4.642,0.155,-0.050
4.644,0.190,-0.015
4.646,0.340,0.010
4.648,0.290,0.015
4.650,0.165,0.005
4.652,0.005,-0.015
4.654,-0.065,-0.045
4.656,-0.090,-0.065
4.658,0.000,-0.075
4.660,0.055,-0.075
4.662,0.185,-0.065
4.664,0.265,-0.045
4.666,0.295,-0.025
4.668,0.220,-0.015
4.670,0.130,-0.015
4.672,-0.030,-0.020
4.674,0.000,-0.030
4.676,-0.065,-0.040
4.678,-0.075,-0.050
4.680,0.055,-0.050
4.682,0.275,-0.040
4.684,0.280,-0.030
4.686,0.270,-0.015
4.688,0.210,-0.010
4.690,0.100,-0.010
4.692,-0.025,-0.010
4.694,-0.070,-0.020
4.696,-0.095,-0.025
4.698,0.035,-0.030
4.700,0.185,-0.025
4.702,0.270,-0.015
4.704,0.345,-0.005
4.706,0.380,0.010
4.708,0.225,0.020
4.710,0.110,0.020
4.712,-0.055,0.010
4.714,0.000,-0.005
4.716,-0.040,-0.025
4.718,-0.045,-0.045
4.720,0.070,-0.060
4.722,0.225,-0.065
4.724,0.270,-0.065
4.726,0.295,-0.060
4.728,0.205,-0.055
4.730,0.035,-0.045
4.732,-0.060,-0.045
4.734,-0.090,-0.045
4.736,-0.100,-0.050
4.738,-0.005,-0.055
4.740,0.110,-0.060
4.742,0.245,-0.065
4.744,0.235,-0.060
4.746,0.230,-0.055
4.748,0.255,-0.050
4.750,0.065,-0.040
4.752,-0.075,-0.040
4.754,-0.095,-0.040
4.756,-0.115,-0.050
4.758,-0.015,-0.055
4.760,0.155,-0.060
4.762,0.270,-0.060
4.764,0.185,-0.060
4.766,0.265,-0.050
4.768,0.225,-0.035
4.770,0.030,-0.020
4.772,0.020,-0.005
4.774,-0.005,0.005
4.776,0.005,0.010
4.778,0.055,0.020
4.780,0.100,0.035
4.782,0.315,0.065
4.784,0.425,0.110
4.786,0.510,0.175
4.788,0.505,0.260
4.790,0.480,0.360
4.792,0.530,0.460
4.794,0.550,0.550
4.796,0.670,0.615
4.798,0.755,0.650
4.800,0.885,0.640
4.802,0.820,0.590
4.804,0.695,0.500
4.806,0.675,0.380
4.808,0.575,0.235
4.810,0.205,0.090
4.812,-0.130,-0.050
4.814,-0.330,-0.175
4.816,-0.345,-0.270
4.818,-0.350,-0.340
4.820,-0.220,-0.380
4.822,-0.100,-0.400
4.824,-0.050,-0.395
4.826,-0.075,-0.375
4.828,-0.150,-0.340
4.830,-0.230,-0.305
4.832,-0.235,-0.265
4.834,-0.320,-0.230
4.836,-0.205,-0.190
4.838,-0.055,-0.160
4.840,0.055,-0.130
4.842,0.195,-0.105
4.844,0.165,-0.085
4.846,0.235,-0.065
4.848,0.225,-0.045
4.850,0.060,-0.025
4.852,-0.030,-0.010
4.854,-0.005,0.010
4.856,0.015,0.020
4.858,0.040,0.030
4.860,0.225,0.035
4.862,0.280,0.035
4.864,0.310,0.030
4.866,0.320,0.020
4.868,0.240,0.010
4.870,0.070,0.005
4.872,-0.015,0.000
4.874,-0.020,0.000
4.876,0.020,0.000
4.878,0.050,0.010
4.880,0.210,0.020
4.882,0.265,0.025
4.884,0.360,0.035
4.886,0.345,0.035
4.888,0.250,0.040
4.890,0.075,0.035
4.892,-0.005,0.035
4.894,0.025,0.035
4.896,-0.015,0.035
4.898,0.130,0.035
4.900,0.280,0.040
4.902,0.340,0.040
4.904,0.365,0.035
4.906,0.295,0.035
4.908,0.145,0.030
4.910,0.045,0.025
4.912,-0.060,0.020
4.914,-0.035,0.020
4.916,0.120,0.025
4.918,0.160,0.035
4.920,0.265,0.045
4.922,0.350,0.060
4.924,0.425,0.075
4.926,0.295,0.090
4.928,0.220,0.095
4.930,0.220,0.095
4.932,0.040,0.090
4.934,0.015,0.080
4.936,0.070,0.070
4.938,0.180,0.065
4.940,0.315,0.070
4.942,0.330,0.075
4.944,0.390,0.090
4.946,0.420,0.110
4.948,0.310,0.130
4.950,0.115,0.145
4.952,0.155,0.155
4.954,0.070,0.165
4.956,0.150,0.165
4.958,0.235,0.160
4.960,0.415,0.155
4.962,0.450,0.155
4.964,0.465,0.155
4.966,0.425,0.165
4.968,0.370,0.180
4.970,0.195,0.200
4.972,0.180,0.215
4.974,0.160,0.230
4.976,0.200,0.235
4.978,0.360,0.235
4.980,0.445,0.230
4.982,0.500,0.215
4.984,0.500,0.200
4.986,0.455,0.190
4.988,0.335,0.180
4.990,0.165,0.175
4.992,0.135,0.180
4.994,0.040,0.185
4.996,0.200,0.190
4.998,0.435,0.200
5.000,0.460,0.200
5.002,0.410,0.200
5.004,0.515,0.195
5.006,0.485,0.185
5.008,0.305,0.180
5.010,0.110,0.170
5.012,0.115,0.160
5.014,0.110,0.150
5.016,0.200,0.145
5.018,0.250,0.135
5.020,0.430,0.125
5.022,0.430,0.115
5.024,0.355,0.105
5.026,0.245,0.090
5.028,0.130,0.075
5.030,0.055,0.065
5.032,0.035,0.055
5.034,0.055,0.050
5.036,0.065,0.045
5.038,0.205,0.040
5.040,0.270,0.030
5.042,0.280,0.025
5.044,0.305,0.015
5.046,0.175,0.000
5.048,0.085,-0.010
5.050,-0.015,-0.025
5.052,-0.060,-0.035
5.054,-0.080,-0.040
5.056,-0.030,-0.045
5.058,0.090,-0.045
5.060,0.235,-0.040
5.062,0.245,-0.040
5.064,0.265,-0.040
5.066,0.155,-0.040
5.068,0.050,-0.040
5.070,-0.030,-0.045
5.072,-0.080,-0.050
5.074,-0.040,-0.055
5.076,-0.055,-0.060
5.078,0.060,-0.060
5.080,0.170,-0.060
5.082,0.215,-0.060
5.084,0.235,-0.060
5.086,0.225,-0.055
5.088,0.075,-0.055
5.090,-0.100,-0.050
5.092,-0.130,-0.045
5.094,-0.115,-0.040
5.096,0.025,-0.040
5.098,0.200,-0.035
5.100,0.215,-0.030
5.102,0.230,-0.025
5.104,0.285,-0.025
5.106,0.180,-0.020
5.108,0.015,-0.020
5.110,-0.060,-0.020
5.112,-0.100,-0.020
5.114,-0.050,-0.025
5.116,0.025,-0.025
5.118,0.135,-0.030
5.120,0.205,-0.035
5.122,0.225,-0.040
5.124,0.235,-0.040
5.126,0.180,-0.045
5.128,0.020,-0.045
5.130,-0.105,-0.045
5.132,-0.125,-0.050
5.134,-0.045,-0.050
5.136,-0.010,-0.050
5.138,0.195,-0.050
5.140,0.190,-0.050
5.142,0.235,-0.050
5.144,0.165,-0.050
5.146,0.145,-0.050
5.148,0.000,-0.045
5.150,-0.060,-0.040
5.152,-0.100,-0.035
5.154,-0.065,-0.030
5.156,0.085,-0.025
5.158,0.190,-0.020
5.160,0.230,-0.015
5.162,0.265,-0.015
5.164,0.190,-0.020
5.166,0.140,-0.025
5.168,0.010,-0.030
5.170,-0.075,-0.040
5.172,-0.085,-0.050
5.174,-0.020,-0.055
5.176,-0.005,-0.060
5.178,0.115,-0.065
5.180,0.205,-0.065
5.182,0.195,-0.065
5.184,0.195,-0.060
5.186,0.145,-0.055
5.188,0.010,-0.045
5.190,-0.050,-0.035
5.192,-0.150,-0.025
5.194,-0.045,-0.020
5.196,0.045,-0.020
5.198,0.190,-0.020
5.200,0.250,-0.030
5.202,0.250,-0.040
5.204,0.205,-0.050
5.206,0.075,-0.065
5.208,-0.090,-0.075
5.210,-0.120,-0.080
5.212,-0.120,-0.080
5.214,-0.120,-0.075
5.216,0.030,-0.070
5.218,0.195,-0.060
5.220,0.240,-0.050
5.222,0.225,-0.045
5.224,0.185,-0.040
5.226,0.055,-0.045
5.228,-0.025,-0.050
5.230,-0.135,-0.055
5.232,-0.055,-0.060
5.234,-0.100,-0.065
5.236,0.010,-0.065
5.238,0.185,-0.065
5.240,0.225,-0.060
5.242,0.250,-0.055
5.244,0.175,-0.045
5.246,0.075,-0.040
5.248,-0.065,-0.040
5.250,-0.090,-0.040
5.252,-0.070,-0.045
5.254,-0.065,-0.050
5.256,0.020,-0.060
5.258,0.180,-0.065
5.260,0.215,-0.070
5.262,0.180,-0.070
5.264,0.140,-0.070
5.266,0.040,-0.065
5.268,-0.095,-0.060
5.270,-0.160,-0.050
5.272,-0.100,-0.045
5.274,-0.030,-0.035
5.276,0.155,-0.030
5.278,0.225,-0.030
5.280,0.185,-0.025
5.282,0.250,-0.030
5.284,0.195,-0.035
5.286,0.060,-0.040
5.288,-0.055,-0.045
5.290,-0.130,-0.050
5.292,-0.150,-0.050
5.294,-0.135,-0.050
5.296,0.060,-0.050
5.298,0.295,-0.045
5.300,0.220,-0.035
5.302,0.200,-0.030
5.304,0.260,-0.025
5.306,0.085,-0.020
5.308,-0.060,-0.020
5.310,-0.105,-0.020
5.312,-0.095,-0.025
5.314,0.000,-0.035
5.316,0.060,-0.045
5.318,0.140,-0.055
5.320,0.225,-0.065
5.322,0.260,-0.070
5.324,0.160,-0.075
5.326,0.045,-0.075
5.328,-0.155,-0.070
5.330,-0.155,-0.070
5.332,-0.105,-0.065
5.334,-0.075,-0.060
5.336,0.050,-0.060
5.338,0.165,-0.060
5.340,0.260,-0.060
5.342,0.240,-0.065
5.344,0.155,-0.070
5.346,0.010,-0.070
5.348,-0.155,-0.070
5.350,-0.190,-0.070
5.352,-0.135,-0.070
5.354,-0.025,-0.065
5.356,0.110,-0.065
5.358,0.210,-0.060
5.360,0.215,-0.060
5.362,0.230,-0.055
5.364,0.170,-0.055
5.366,-0.020,-0.050
5.368,-0.110,-0.050
5.370,-0.120,-0.055
5.372,-0.135,-0.055
5.374,-0.060,-0.060
5.376,0.110,-0.060
5.378,0.145,-0.060
5.380,0.235,-0.055
5.382,0.255,-0.040
5.384,0.190,-0.010
5.386,0.090,0.040
5.388,0.135,0.105
5.390,0.100,0.185
5.392,0.195,0.285
5.394,0.410,0.385
5.396,0.625,0.485
5.398,0.820,0.575
5.400,0.975,0.640
5.402,1.095,0.670
5.404,1.025,0.665
5.406,0.660,0.615
5.408,0.410,0.525
5.410,0.210,0.400
5.412,0.170,0.250
5.414,0.075,0.090
5.416,0.135,-0.060
5.418,-0.035,-0.200
5.420,-0.100,-0.310
5.422,-0.195,-0.390
5.424,-0.255,-0.440
5.426,-0.405,-0.455
5.428,-0.450,-0.440
5.430,-0.510,-0.415
5.432,-0.430,-0.375
5.434,-0.335,-0.330
5.436,-0.065,-0.290
5.438,-0.020,-0.255
5.440,0.050,-0.225
5.442,0.030,-0.195
5.444,-0.015,-0.170
5.446,-0.095,-0.145
5.448,-0.095,-0.120
5.450,-0.135,-0.095
5.452,-0.135,-0.075
5.454,-0.005,-0.060
5.456,0.125,-0.050
5.458,0.115,-0.050
5.460,0.195,-0.050
5.462,0.275,-0.050
5.464,0.100,-0.055
5.466,-0.030,-0.055
5.468,-0.155,-0.055
5.470,-0.190,-0.045
5.472,-0.085,-0.040
5.474,0.085,-0.025
5.476,0.220,-0.015
5.478,0.255,-0.010
5.480,0.180,-0.010
5.482,0.235,-0.010
5.484,0.150,-0.015
5.486,-0.010,-0.020
5.488,-0.115,-0.025
5.490,-0.145,-0.025
5.492,-0.055,-0.020
5.494,0.010,-0.015
5.496,0.205,-0.005
5.498,0.275,0.005
5.500,0.320,0.010
5.502,0.220,0.020
5.504,0.145,0.020
5.506,-0.010,0.020
5.508,-0.050,0.015
5.510,-0.070,0.015
5.512,-0.020,0.010
5.514,0.060,0.010
5.516,0.205,0.015
5.518,0.245,0.015
5.520,0.300,0.025
5.522,0.200,0.030
5.524,0.180,0.035
5.526,0.020,0.035
5.528,-0.010,0.040
5.530,-0.035,0.040
5.532,-0.010,0.040
5.534,0.055,0.045
5.536,0.205,0.045
5.538,0.265,0.050
5.540,0.340,0.055
5.542,0.270,0.060
5.544,0.170,0.065
5.546,0.055,0.070
5.548,0.025,0.070
5.550,-0.025,0.075
5.552,0.015,0.075
5.554,0.150,0.075
5.556,0.285,0.075
5.558,0.335,0.080
5.560,0.355,0.090
5.562,0.280,0.100
5.564,0.230,0.120
5.566,0.100,0.135
5.568,0.090,0.150
5.570,0.075,0.160
5.572,0.135,0.170
5.574,0.275,0.175
5.576,0.335,0.175
5.578,0.390,0.175
5.580,0.435,0.170
5.582,0.365,0.170
5.584,0.225,0.170
5.586,0.200,0.170
5.588,0.030,0.175
5.590,0.105,0.175
5.592,0.095,0.175
5.594,0.290,0.175
5.596,0.375,0.175
5.598,0.420,0.170
5.600,0.430,0.170
5.602,0.355,0.165
5.604,0.175,0.165
5.606,0.085,0.165
5.608,0.120,0.170
5.610,0.115,0.170
5.612,0.125,0.170
5.614,0.265,0.165
5.616,0.365,0.160
5.618,0.435,0.150
5.620,0.385,0.140
5.622,0.190,0.130
5.624,0.180,0.115
5.626,0.025,0.105
5.628,0.100,0.095
5.630,0.000,0.080
5.632,-0.015,0.070
5.634,0.180,0.055
5.636,0.235,0.040
5.638,0.245,0.025
5.640,0.190,0.005
5.642,0.115,-0.005
5.644,0.040,-0.020
5.646,-0.095,-0.025
5.648,-0.100,-0.030
5.650,-0.035,-0.035
5.652,-0.060,-0.035
5.654,0.055,-0.035
5.656,0.180,-0.040
5.658,0.230,-0.045
5.660,0.220,-0.050
5.662,0.160,-0.055
5.664,-0.065,-0.055
5.666,-0.245,-0.060
5.668,-0.135,-0.055
5.670,-0.085,-0.055
5.672,-0.055,-0.055
5.674,0.020,-0.050
5.676,0.175,-0.050
5.678,0.200,-0.055
5.680,0.140,-0.060
5.682,0.050,-0.065
5.684,-0.040,-0.065
5.686,-0.150,-0.070
5.688,-0.205,-0.070
5.690,-0.160,-0.070
5.692,-0.085,-0.065
5.694,0.110,-0.055
5.696,0.175,-0.050
5.698,0.200,-0.045
5.700,0.125,-0.040
5.702,0.085,-0.040
5.704,-0.045,-0.045
5.706,-0.150,-0.050
5.708,-0.195,-0.055
5.710,-0.175,-0.060
5.712,-0.050,-0.060
5.714,0.100,-0.065
5.716,0.200,-0.060
5.718,0.175,-0.060
5.720,0.205,-0.060
5.722,0.000,-0.060
5.724,-0.150,-0.060
5.726,-0.125,-0.065
5.728,-0.180,-0.070
5.730,-0.165,-0.080
5.732,-0.105,-0.085
5.734,0.040,-0.090
5.736,0.130,-0.090
5.738,0.150,-0.085
5.740,0.095,-0.080
5.742,0.060,-0.070
5.744,-0.020,-0.060
5.746,-0.205,-0.050
5.748,-0.120,-0.045
5.750,-0.110,-0.045
5.752,-0.045,-0.050
5.754,0.090,-0.060
5.756,0.100,-0.070
5.758,0.145,-0.075
5.760,0.085,-0.075
5.762,0.080,-0.065
5.764,0.005,-0.055
5.766,-0.110,-0.040
5.768,-0.180,-0.030
5.770,-0.145,-0.025
5.772,-0.015,-0.025
5.774,0.150,-0.030
5.776,0.190,-0.045
5.778,0.235,-0.055
5.780,0.095,-0.070
5.782,0.030,-0.080
5.784,-0.135,-0.080
5.786,-0.205,-0.075
5.788,-0.210,-0.065
5.790,-0.050,-0.055
5.792,-0.015,-0.040
5.794,0.165,-0.035
5.796,0.150,-0.035
5.798,0.210,-0.035
5.800,0.130,-0.045
5.802,-0.010,-0.050
5.804,-0.135,-0.055
5.806,-0.135,-0.060
5.808,-0.245,-0.060
5.810,-0.110,-0.060
5.812,0.035,-0.060
5.814,0.155,-0.060
5.816,0.120,-0.065
5.818,0.165,-0.070
5.820,0.070,-0.075
5.822,-0.030,-0.080
5.824,-0.115,-0.080
5.826,-0.165,-0.075
5.828,-0.185,-0.065
5.830,-0.080,-0.055
5.832,-0.040,-0.045
5.834,0.165,-0.040
5.836,0.165,-0.040
5.838,0.200,-0.045
5.840,0.105,-0.055
5.842,-0.060,-0.065
5.844,-0.190,-0.080
5.846,-0.190,-0.085
5.848,-0.210,-0.090
5.850,-0.135,-0.090
5.852,-0.020,-0.090
5.854,0.130,-0.080
5.856,0.205,-0.075
5.858,0.170,-0.070
5.860,0.060,-0.065
5.862,-0.040,-0.070
5.864,-0.205,-0.075
5.866,-0.225,-0.085
5.868,-0.200,-0.090
5.870,-0.105,-0.090
5.872,-0.025,-0.090
5.874,0.125,-0.080
5.876,0.225,-0.070
5.878,0.175,-0.055
5.880,0.070,-0.040
5.882,-0.055,-0.035
5.884,-0.110,-0.030
5.886,-0.180,-0.030
5.888,-0.190,-0.040
5.890,-0.090,-0.055
5.892,0.010,-0.065
5.894,0.115,-0.075
5.896,0.140,-0.080
5.898,0.130,-0.080
5.900,0.085,-0.065
5.902,-0.020,-0.050
5.904,-0.145,-0.030
5.906,-0.080,-0.015
5.908,-0.170,0.000
5.910,-0.145,0.005
5.912,0.130,0.005
5.914,0.265,-0.005
5.916,0.250,-0.020
5.918,0.110,-0.035
5.920,0.045,-0.050
5.922,-0.065,-0.060
5.924,-0.135,-0.065
5.926,-0.190,-0.065
5.928,-0.195,-0.065
5.930,-0.130,-0.065
5.932,0.035,-0.065
5.934,0.130,-0.070
5.936,0.130,-0.075
5.938,0.050,-0.090
5.940,-0.005,-0.100
5.942,-0.105,-0.105
5.944,-0.215,-0.110
5.946,-0.225,-0.110
5.948,-0.190,-0.105
5.950,-0.085,-0.095
5.952,0.050,-0.085
5.954,0.075,-0.080
5.956,0.135,-0.080
5.958,0.115,-0.080
5.960,0.015,-0.090
5.962,-0.125,-0.095
5.964,-0.215,-0.100
5.966,-0.205,-0.105
5.968,-0.245,-0.105
5.970,-0.135,-0.100
5.972,0.030,-0.090
5.974,0.095,-0.080
5.976,0.220,-0.075
5.978,0.110,-0.070
5.980,0.020,-0.070
5.982,-0.115,-0.065
5.984,-0.185,-0.060
5.986,-0.200,-0.050
5.988,-0.140,-0.025
5.990,-0.040,0.020
5.992,0.220,0.080
5.994,0.280,0.160
5.996,0.540,0.255
5.998,0.605,0.355
6.000,0.515,0.460
6.002,0.485,0.550
6.004,0.570,0.620
6.006,0.620,0.660
6.008,0.680,0.665
6.010,0.645,0.625
6.012,0.650,0.545
6.014,0.505,0.430
6.016,0.505,0.285
6.018,0.345,0.130
6.020,-0.005,-0.025
6.022,-0.310,-0.165
6.024,-0.450,-0.285
6.026,-0.575,-0.370
6.028,-0.545,-0.425
6.030,-0.415,-0.445
6.032,-0.320,-0.440
6.034,-0.205,-0.415
6.036,-0.155,-0.385
6.038,-0.160,-0.345
6.040,-0.220,-0.310
6.042,-0.340,-0.280
6.044,-0.380,-0.250
6.046,-0.375,-0.225
6.048,-0.310,-0.200
6.050,-0.150,-0.175
6.052,0.020,-0.145
6.054,0.090,-0.120
6.056,0.150,-0.090
6.058,0.105,-0.070
6.060,-0.030,-0.055
6.062,-0.125,-0.045
6.064,-0.130,-0.040
6.066,-0.205,-0.045
6.068,-0.140,-0.050
6.070,-0.085,-0.050
6.072,0.105,-0.055
6.074,0.190,-0.050
6.076,0.165,-0.045
6.078,0.075,-0.040
6.080,-0.050,-0.030
6.082,-0.145,-0.020
6.084,-0.050,-0.015
6.086,-0.160,-0.010
6.088,-0.080,-0.010
6.090,-0.030,-0.010
6.092,0.145,-0.010
6.094,0.165,-0.015
6.096,0.215,-0.015
6.098,0.150,-0.020
6.100,-0.050,-0.020
6.102,-0.075,-0.020
6.104,-0.120,-0.015
6.106,-0.175,-0.010
6.108,-0.100,-0.005
6.110,0.040,0.005
6.112,0.230,0.015
6.114,0.150,0.020
6.116,0.240,0.030
6.118,0.225,0.035
6.120,0.055,0.040
6.122,-0.085,0.040
6.124,-0.135,0.040
6.126,-0.120,0.035
6.128,-0.045,0.035
6.130,0.095,0.030
6.132,0.160,0.030
6.134,0.240,0.025
6.136,0.250,0.025
6.138,0.160,0.030
6.140,0.045,0.030
6.142,-0.085,0.035
6.144,-0.125,0.040
6.146,-0.100,0.045
6.148,-0.030,0.050
6.150,0.095,0.055
6.152,0.230,0.060
6.154,0.265,0.065
6.156,0.300,0.070
6.158,0.200,0.075
6.160,0.075,0.085
6.162,-0.025,0.090
6.164,-0.065,0.100
6.166,-0.015,0.105
6.168,0.075,0.115
6.170,0.205,0.120
6.172,0.320,0.130
6.174,0.340,0.140
6.176,0.285,0.145
6.178,0.265,0.155
6.180,0.155,0.165
6.182,-0.010,0.175
6.184,0.030,0.180
6.186,0.070,0.185
6.188,0.085,0.190
6.190,0.300,0.190
6.192,0.360,0.185
6.194,0.345,0.185
6.196,0.350,0.185
6.198,0.295,0.185
6.200,0.135,0.185
6.202,0.070,0.190
6.204,0.025,0.190
6.206,0.060,0.195
6.208,0.185,0.200
6.210,0.265,0.195
6.212,0.345,0.190
6.214,0.370,0.180
6.216,0.255,0.170
6.218,0.195,0.150
6.220,0.125,0.135
6.222,0.045,0.125
6.224,-0.095,0.115
6.226,0.000,0.110
6.228,0.070,0.110
6.230,0.180,0.110
6.232,0.360,0.110
6.234,0.230,0.110
6.236,0.250,0.105
6.238,0.170,0.095
6.240,-0.005,0.075
6.242,-0.095,0.055
6.244,-0.160,0.035
6.246,-0.165,0.015
6.248,-0.015,-0.005
6.250,0.085,-0.015
6.252,0.100,-0.020
6.254,0.160,-0.020
6.256,0.155,-0.020
6.258,0.065,-0.015
6.260,-0.055,-0.015
6.262,-0.180,-0.020
6.264,-0.225,-0.025
6.266,-0.210,-0.040
6.268,-0.115,-0.055
6.270,0.035,-0.070
6.272,0.060,-0.080
6.274,0.105,-0.090
6.276,0.080,-0.095
6.278,-0.060,-0.090
6.280,-0.140,-0.085
6.282,-0.185,-0.075
6.284,-0.255,-0.065
6.286,-0.170,-0.060
6.288,-0.065,-0.055
6.290,0.095,-0.055
6.292,0.035,-0.060
6.294,0.080,-0.065
6.296,0.150,-0.065
6.298,0.005,-0.070
6.300,-0.160,-0.070
6.302,-0.195,-0.065
6.304,-0.270,-0.065
6.306,-0.270,-0.060
6.308,-0.090,-0.060
6.310,0.040,-0.060
6.312,0.060,-0.065
6.314,0.160,-0.070
6.316,0.085,-0.070
6.318,0.010,-0.070
6.320,-0.170,-0.065
6.322,-0.190,-0.065
6.324,-0.240,-0.055
6.326,-0.210,-0.050
6.328,-0.095,-0.045
6.330,0.075,-0.045
6.332,0.135,-0.050
6.334,0.115,-0.055
6.336,0.130,-0.060
6.338,-0.020,-0.065
6.340,-0.190,-0.070
6.342,-0.285,-0.075
6.344,-0.285,-0.075
6.346,-0.130,-0.070
6.348,-0.115,-0.065
6.350,0.080,-0.060
6.352,0.095,-0.050
6.354,0.205,-0.040
6.356,0.095,-0.035
6.358,-0.015,-0.025
6.360,-0.175,-0.020
6.362,-0.170,-0.020
6.364,-0.175,-0.020
6.366,-0.145,-0.020
6.368,-0.050,-0.025
6.370,0.080,-0.030
6.372,0.125,-0.035
6.374,0.170,-0.045
6.376,0.095,-0.050
6.378,-0.080,-0.050
6.380,-0.170,-0.055
6.382,-0.220,-0.050
6.384,-0.260,-0.050
6.386,-0.135,-0.045
6.388,-0.060,-0.045
6.390,0.140,-0.045
6.392,0.105,-0.045
6.394,0.140,-0.050
6.396,0.040,-0.055
6.398,-0.055,-0.060
6.400,-0.240,-0.070
6.402,-0.225,-0.070
6.404,-0.215,-0.075
6.406,-0.145,-0.070
6.408,-0.060,-0.070
6.410,0.055,-0.060
6.412,0.135,-0.055
6.414,0.125,-0.050
6.416,0.045,-0.045
6.418,-0.050,-0.040
6.420,-0.235,-0.040
6.422,-0.230,-0.045
6.424,-0.165,-0.050
6.426,-0.145,-0.055
6.428,-0.065,-0.060
6.430,0.125,-0.065
6.432,0.080,-0.065
6.434,0.090,-0.065
6.436,0.070,-0.060
6.438,-0.190,-0.055
6.440,-0.175,-0.050
6.442,-0.110,-0.045
6.444,-0.185,-0.040
6.446,-0.170,-0.035
6.448,-0.015,-0.035
6.450,0.055,-0.040
6.452,0.065,-0.045
6.454,0.120,-0.050
6.456,0.030,-0.055
6.458,-0.060,-0.055
6.460,-0.170,-0.055
6.462,-0.210,-0.050
6.464,-0.225,-0.040
6.466,-0.145,-0.030
6.468,0.040,-0.025
6.470,0.145,-0.020
6.472,0.145,-0.020
6.474,0.140,-0.020
6.476,0.060,-0.025
6.478,-0.095,-0.035
6.480,-0.215,-0.045
6.482,-0.320,-0.050
6.484,-0.240,-0.050
6.486,-0.090,-0.050
6.488,0.000,-0.045
6.490,0.105,-0.035
6.492,0.180,-0.025
6.494,0.165,-0.015
6.496,0.045,-0.010
6.498,-0.045,0.000
6.500,-0.125,0.000
6.502,-0.215,-0.005
6.504,-0.185,-0.015
6.506,-0.090,-0.025
6.508,0.035,-0.035
6.510,0.090,-0.045
6.512,0.115,-0.055
6.514,0.095,-0.060
6.516,0.020,-0.060
6.518,-0.125,-0.055
6.520,-0.205,-0.045
6.522,-0.235,-0.040
6.524,-0.205,-0.035
6.526,-0.140,-0.030
6.528,0.070,-0.035
6.530,0.095,-0.045
6.532,0.080,-0.055
6.534,0.115,-0.065
6.536,-0.065,-0.070
6.538,-0.210,-0.075
6.540,-0.195,-0.070
6.542,-0.210,-0.065
6.544,-0.165,-0.055
6.546,-0.125,-0.045
6.548,0.035,-0.040
6.550,0.080,-0.040
6.552,0.130,-0.050
6.554,0.070,-0.060
6.556,-0.100,-0.075
6.558,-0.170,-0.085
6.560,-0.205,-0.085
6.562,-0.210,-0.085
6.564,-0.255,-0.070
6.566,-0.125,-0.055
6.568,0.090,-0.035
6.570,0.155,-0.010
6.572,0.155,0.010
6.574,0.165,0.030
6.576,0.040,0.050
6.578,-0.080,0.085
6.580,-0.035,0.130
6.582,-0.030,0.190
6.584,0.170,0.270
6.586,0.360,0.360
6.588,0.540,0.455
6.590,0.745,0.540
6.592,0.855,0.605
6.594,0.915,0.635
6.596,0.660,0.620
6.598,0.385,0.565
6.600,0.215,0.460
6.602,0.070,0.330
6.604,0.030,0.180
6.606,-0.005,0.025
6.608,0.005,-0.115
6.610,-0.160,-0.230
6.612,-0.130,-0.315
6.614,-0.280,-0.365
6.616,-0.420,-0.390
6.618,-0.540,-0.385
6.620,-0.530,-0.370
6.622,-0.545,-0.345
6.624,-0.485,-0.315
6.626,-0.350,-0.290
6.628,-0.145,-0.265
6.630,-0.105,-0.240
6.632,0.025,-0.220
6.634,-0.030,-0.195
6.636,-0.160,-0.170
6.638,-0.295,-0.145
6.640,-0.290,-0.115
6.642,-0.290,-0.095
6.644,-0.205,-0.070
6.646,-0.040,-0.055
6.648,0.105,-0.040
6.650,0.135,-0.030
6.652,0.115,-0.025
6.654,0.095,-0.020
6.656,-0.030,-0.015
6.658,-0.145,-0.010
6.660,-0.205,-0.005
6.662,-0.205,0.005
6.664,-0.105,0.010
6.666,0.000,0.010
6.668,0.125,0.015
6.670,0.140,0.015
6.672,0.275,0.015
6.674,0.090,0.010
6.676,-0.060,0.010
6.678,-0.180,0.005
6.680,-0.170,0.005
6.682,-0.150,0.010
6.684,-0.095,0.010
6.686,0.045,0.015
6.688,0.175,0.025
6.690,0.155,0.030
6.692,0.220,0.040
6.694,0.115,0.050
6.696,0.000,0.055
6.698,-0.065,0.060
6.700,-0.125,0.065
6.702,-0.145,0.070
6.704,-0.065,0.070
6.706,0.090,0.070
6.708,0.180,0.070
6.710,0.215,0.070
6.712,0.170,0.065
6.714,0.145,0.065
6.716,0.020,0.060
6.718,-0.055,0.060
6.720,-0.090,0.060
6.722,-0.120,0.065
6.724,-0.030,0.065
6.726,0.035,0.070
6.728,0.190,0.075
6.730,0.260,0.080
6.732,0.220,0.085
6.734,0.175,0.090
6.736,0.035,0.100
6.738,-0.035,0.105
6.740,-0.070,0.115
6.742,0.050,0.125
6.744,-0.020,0.135
6.746,0.120,0.145
6.748,0.315,0.150
6.750,0.300,0.160
6.752,0.320,0.165
6.754,0.225,0.170
6.756,0.090,0.170
6.758,0.005,0.175
6.760,-0.005,0.175
6.762,0.040,0.175
6.764,0.085,0.180
6.766,0.230,0.190
6.768,0.360,0.195
6.770,0.350,0.200
6.772,0.345,0.210
6.774,0.240,0.215
6.776,0.110,0.215
6.778,0.055,0.215
6.780,-0.015,0.215
6.782,0.055,0.210
6.784,0.130,0.200
6.786,0.250,0.195
6.788,0.315,0.195
6.790,0.370,0.195
6.792,0.380,0.195
6.794,0.225,0.200
6.796,0.115,0.205
6.798,0.040,0.210
6.800,-0.040,0.210
6.802,0.060,0.210
6.804,0.150,0.205
6.806,0.210,0.195
6.808,0.350,0.185
6.810,0.300,0.170
6.812,0.250,0.155
6.814,0.210,0.145
6.816,0.025,0.130
6.818,-0.080,0.120
6.820,-0.135,0.115
6.822,-0.040,0.110
6.824,0.010,0.100
6.826,0.190,0.090
6.828,0.205,0.080
6.830,0.220,0.065
6.832,0.140,0.045
6.834,0.050,0.025
6.836,-0.090,0.005
6.838,-0.280,-0.015
6.840,-0.230,-0.025
6.842,-0.125,-0.035
6.844,-0.085,-0.035
6.846,0.030,-0.030
6.848,0.050,-0.025
6.850,0.185,-0.020
6.852,0.115,-0.020
6.854,-0.025,-0.020
6.856,-0.220,-0.025
6.858,-0.245,-0.035
6.860,-0.240,-0.045
6.862,-0.120,-0.055
6.864,-0.090,-0.060
6.866,0.045,-0.060
6.868,0.035,-0.055
6.870,0.110,-0.050
6.872,0.080,-0.045
6.874,-0.005,-0.045
6.876,-0.190,-0.045
6.878,-0.265,-0.050
6.880,-0.275,-0.060
6.882,-0.180,-0.070
6.884,-0.120,-0.075
6.886,0.020,-0.075
6.888,0.045,-0.075
6.890,0.075,-0.065
6.892,0.005,-0.055
6.894,-0.035,-0.050
6.896,-0.150,-0.045
6.898,-0.195,-0.045
6.900,-0.245,-0.055
6.902,-0.285,-0.065
6.904,-0.150,-0.075
6.906,0.070,-0.080
6.908,0.045,-0.085
6.910,0.035,-0.080
6.912,0.015,-0.070
6.914,0.010,-0.055
6.916,-0.165,-0.040
6.918,-0.270,-0.030
6.920,-0.245,-0.020
6.922,-0.180,-0.020
6.924,-0.060,-0.025
6.926,0.090,-0.030
6.928,0.155,-0.040
6.930,0.100,-0.045
6.932,0.035,-0.045
6.934,-0.120,-0.045
6.936,-0.175,-0.040
6.938,-0.190,-0.030
6.940,-0.235,-0.025
6.942,-0.185,-0.020
6.944,-0.045,-0.025
6.946,0.055,-0.030
6.948,0.135,-0.035
6.950,0.105,-0.045
6.952,0.015,-0.050
6.954,-0.080,-0.055
6.956,-0.250,-0.055
6.958,-0.230,-0.050
6.960,-0.250,-0.045
6.962,-0.165,-0.040
6.964,-0.045,-0.035
6.966,0.060,-0.035
6.968,0.055,-0.035
6.970,0.090,-0.040
6.972,0.055,-0.045
6.974,-0.065,-0.045
6.976,-0.205,-0.045
6.978,-0.235,-0.045
6.980,-0.260,-0.045
6.982,-0.155,-0.045
6.984,-0.040,-0.045
6.986,0.015,-0.045
6.988,0.050,-0.050
6.990,0.165,-0.055
6.992,-0.015,-0.055
6.994,-0.120,-0.060
6.996,-0.205,-0.065
6.998,-0.215,-0.065
7.000,-0.255,-0.065
7.002,-0.160,-0.060
7.004,-0.040,-0.055
7.006,-0.005,-0.050
7.008,0.085,-0.045
7.010,0.135,-0.045
7.012,0.060,-0.040
7.014,-0.150,-0.040
7.016,-0.260,-0.045
7.018,-0.235,-0.045
7.020,-0.265,-0.045
7.022,-0.135,-0.045
7.024,-0.005,-0.045
7.026,0.060,-0.040
7.028,0.150,-0.040
7.030,0.110,-0.035
7.032,-0.020,-0.030
7.034,-0.130,-0.030
7.036,-0.185,-0.030
7.038,-0.250,-0.030
7.040,-0.230,-0.035
7.042,-0.135,-0.045
7.044,0.000,-0.050
7.046,0.050,-0.055
7.048,0.040,-0.060
7.050,0.090,-0.060
7.052,0.035,-0.060
7.054,-0.155,-0.055
7.056,-0.215,-0.050
7.058,-0.290,-0.045
7.060,-0.245,-0.045
7.062,-0.110,-0.045
7.064,0.015,-0.045
7.066,0.070,-0.050
7.068,0.030,-0.050
7.070,0.060,-0.055
7.072,-0.010,-0.055
7.074,-0.160,-0.055
7.076,-0.170,-0.055
7.078,-0.290,-0.055
7.080,-0.205,-0.055
7.082,-0.120,-0.055
7.084,-0.050,-0.055
7.086,0.040,-0.060
7.088,0.080,-0.060
7.090,0.075,-0.060
7.092,0.065,-0.060
7.094,-0.155,-0.050
7.096,-0.205,-0.040
7.098,-0.315,-0.030
7.100,-0.225,-0.015
7.102,-0.045,-0.005
7.104,0.055,0.000
7.106,0.080,0.000
7.108,0.155,0.000
7.110,0.130,-0.010
7.112,-0.010,-0.020
7.114,-0.165,-0.030
7.116,-0.270,-0.040
7.118,-0.300,-0.045
7.120,-0.215,-0.050
7.122,-0.065,-0.050
7.124,0.060,-0.045
7.126,0.085,-0.045
7.128,0.055,-0.040
7.130,-0.045,-0.040
7.132,0.020,-0.040
7.134,-0.185,-0.040
7.136,-0.275,-0.045
7.138,-0.260,-0.055
7.140,-0.235,-0.065
7.142,-0.080,-0.075
7.144,0.050,-0.080
7.146,0.005,-0.080
7.148,0.070,-0.075
7.150,0.010,-0.070
7.152,-0.025,-0.060
7.154,-0.175,-0.050
7.156,-0.235,-0.040
7.158,-0.245,-0.035
7.160,-0.215,-0.035
7.162,-0.090,-0.040
7.164,0.050,-0.050
7.166,0.065,-0.055
7.168,0.120,-0.065
7.170,0.020,-0.070
7.172,-0.090,-0.070
7.174,-0.180,-0.065
7.176,-0.260,-0.055
7.178,-0.275,-0.045
7.180,-0.230,-0.040
7.182,-0.120,-0.035
7.184,0.090,-0.030
7.186,0.125,-0.025
7.188,0.125,-0.015
7.190,0.075,0.010
7.192,-0.005,0.055
7.194,-0.030,0.120
7.196,0.005,0.210
7.198,0.110,0.315
7.200,0.385,0.430
7.202,0.505,0.540
7.204,0.710,0.630
7.206,0.875,0.695
7.208,1.020,0.715
7.210,0.790,0.690
7.212,0.565,0.620
7.214,0.320,0.505
7.216,0.130,0.365
7.218,-0.050,0.210
7.220,-0.110,0.050
7.222,-0.105,-0.100
7.224,-0.200,-0.225
7.226,-0.325,-0.315
7.228,-0.220,-0.380
7.230,-0.325,-0.410
7.232,-0.475,-0.415
7.234,-0.575,-0.400
7.236,-0.550,-0.375
7.238,-0.585,-0.340
7.240,-0.480,-0.305
7.242,-0.285,-0.275
7.244,-0.110,-0.240
7.246,-0.020,-0.210
7.248,-0.030,-0.180
7.250,-0.080,-0.150
7.252,-0.185,-0.125
7.254,-0.255,-0.095
7.256,-0.210,-0.070
7.258,-0.260,-0.050
7.260,-0.215,-0.035
7.262,-0.060,-0.025
7.264,0.040,-0.020
7.266,0.110,-0.020
7.268,0.095,-0.025
7.270,0.000,-0.025
7.272,-0.055,-0.025
7.274,-0.165,-0.025
7.276,-0.260,-0.020
7.278,-0.275,-0.020
7.280,-0.150,-0.015
7.282,0.005,-0.015
7.284,0.120,-0.015
7.286,0.080,-0.015
7.288,0.100,-0.020
7.290,0.055,-0.020
7.292,-0.080,-0.020
7.294,-0.175,-0.015
7.296,-0.250,-0.010
7.298,-0.190,0.000
7.300,-0.080,0.005
7.302,0.040,0.010
7.304,0.100,0.015
7.306,0.095,0.020
7.308,0.115,0.020
7.310,0.090,0.025
7.312,-0.015,0.025
7.314,-0.100,0.030
7.316,-0.155,0.035
7.318,-0.160,0.040
7.320,-0.075,0.040
7.322,0.020,0.045
7.324,0.055,0.040
7.326,0.130,0.040
7.328,0.220,0.035
7.330,0.135,0.035
7.332,-0.065,0.035
7.334,-0.160,0.040
7.336,-0.120,0.050
7.338,-0.130,0.065
7.340,-0.110,0.075
7.342,0.100,0.085
7.344,0.180,0.090
7.346,0.195,0.095
7.348,0.190,0.095
7.350,0.095,0.090
7.352,0.020,0.085
7.354,-0.095,0.085
7.356,-0.160,0.085
7.358,-0.065,0.090
7.360,0.015,0.100
7.362,0.150,0.110
7.364,0.180,0.120
7.366,0.305,0.130
7.368,0.255,0.140
7.370,0.145,0.145
7.372,-0.050,0.150
7.374,-0.040,0.150
7.376,-0.075,0.155
7.378,0.000,0.155
7.380,0.120,0.165
7.382,0.215,0.170
7.384,0.285,0.175
7.386,0.315,0.180
7.388,0.285,0.185
7.390,0.170,0.190
7.392,0.055,0.195
7.394,0.010,0.195
7.396,-0.055,0.195
7.398,0.005,0.190
7.400,0.170,0.190
7.402,0.250,0.190
7.404,0.285,0.190
7.406,0.325,0.190
7.408,0.270,0.190
7.410,0.180,0.190
7.412,0.030,0.190
7.414,-0.060,0.190
7.416,0.015,0.190
7.418,0.015,0.190
7.420,0.095,0.185
7.422,0.220,0.175
7.424,0.310,0.160
7.426,0.320,0.145
7.428,0.200,0.125
7.430,0.055,0.105
7.432,-0.155,0.090
7.434,-0.115,0.075
7.436,-0.110,0.060
7.438,-0.135,0.055
7.440,-0.015,0.050
7.442,0.105,0.045
7.444,0.200,0.045
7.446,0.205,0.040
7.448,0.070,0.035
7.450,-0.005,0.025
7.452,-0.145,0.020
7.454,-0.205,0.005
7.456,-0.260,-0.005
7.458,-0.200,-0.015
7.460,-0.110,-0.025
7.462,0.065,-0.035
7.464,0.085,-0.045
7.466,0.095,-0.050
7.468,0.030,-0.060
7.470,-0.130,-0.065
7.472,-0.225,-0.070
7.474,-0.325,-0.075
7.476,-0.290,-0.075
7.478,-0.215,-0.075
7.480,-0.080,-0.070
7.482,-0.005,-0.065
7.484,0.045,-0.055
7.486,0.150,-0.050
7.488,0.010,-0.050
7.490,-0.145,-0.050
7.492,-0.260,-0.055
7.494,-0.280,-0.065
7.496,-0.295,-0.075
7.498,-0.225,-0.080
7.500,-0.130,-0.090
7.502,0.055,-0.090
7.504,-0.025,-0.085
7.506,0.005,-0.080
7.508,0.035,-0.065
7.510,-0.090,-0.055
7.512,-0.240,-0.045
7.514,-0.230,-0.045
7.516,-0.285,-0.045
7.518,-0.205,-0.050
7.520,-0.105,-0.060
7.522,0.010,-0.075
7.524,0.060,-0.080
7.526,0.055,-0.085
7.528,-0.050,-0.085
7.530,-0.135,-0.080
7.532,-0.265,-0.070
7.534,-0.265,-0.055
7.536,-0.265,-0.045
7.538,-0.195,-0.040
7.540,-0.085,-0.035
7.542,0.010,-0.040
7.544,0.115,-0.040
7.546,0.115,-0.050
7.548,-0.015,-0.055
7.550,-0.125,-0.060
7.552,-0.250,-0.060
7.554,-0.300,-0.060
7.556,-0.280,-0.060
7.558,-0.140,-0.060
7.560,-0.070,-0.065
7.562,-0.010,-0.065
7.564,0.045,-0.070
7.566,0.055,-0.075
7.568,-0.025,-0.075
7.570,-0.160,-0.075
7.572,-0.240,-0.075
7.574,-0.325,-0.070
7.576,-0.295,-0.065
7.578,-0.175,-0.060
7.580,-0.065,-0.060
7.582,0.010,-0.060
7.584,0.045,-0.065
7.586,0.075,-0.070
7.588,0.005,-0.075
7.590,-0.200,-0.075
7.592,-0.250,-0.075
7.594,-0.315,-0.070
7.596,-0.280,-0.060
7.598,-0.225,-0.055
7.600,0.030,-0.045
7.602,0.040,-0.040
7.604,0.095,-0.040
7.606,0.065,-0.045
7.608,-0.005,-0.050
7.610,-0.180,-0.055
7.612,-0.280,-0.060
7.614,-0.300,-0.060
7.616,-0.240,-0.060
7.618,-0.145,-0.060
7.620,-0.010,-0.055
7.622,0.055,-0.050
7.624,0.065,-0.045
7.626,0.040,-0.045
7.628,-0.010,-0.050
7.630,-0.165,-0.055
7.632,-0.250,-0.060
7.634,-0.315,-0.060
7.636,-0.305,-0.065
7.638,-0.170,-0.065
7.640,0.020,-0.060
7.642,0.030,-0.060
7.644,0.050,-0.055
7.646,0.035,-0.055
7.648,-0.080,-0.060
7.650,-0.135,-0.060
7.652,-0.170,-0.065
7.654,-0.370,-0.070
7.656,-0.285,-0.075
7.658,-0.175,-0.075
7.660,0.010,-0.075
7.662,0.030,-0.075
7.664,0.060,-0.075
7.666,0.010,-0.080
7.668,-0.085,-0.080
7.670,-0.250,-0.085
7.672,-0.295,-0.090
7.674,-0.305,-0.090
7.676,-0.295,-0.090
7.678,-0.140,-0.090
7.680,-0.005,-0.085
7.682,-0.045,-0.075
7.684,0.130,-0.070
7.686,0.025,-0.060
7.688,-0.120,-0.060
7.690,-0.210,-0.060
7.692,-0.295,-0.060
7.694,-0.335,-0.070
7.696,-0.270,-0.075
7.698,-0.125,-0.080
7.700,0.035,-0.080
7.702,0.060,-0.080
7.704,0.080,-0.075
7.706,0.020,-0.065
7.708,-0.090,-0.060
7.710,-0.215,-0.055
7.712,-0.305,-0.055
7.714,-0.240,-0.055
7.716,-0.265,-0.065
7.718,-0.150,-0.070
7.720,0.015,-0.080
7.722,-0.015,-0.080
7.724,0.075,-0.080
7.726,0.075,-0.075
7.728,-0.090,-0.060
7.730,-0.255,-0.050
7.732,-0.280,-0.035
7.734,-0.305,-0.030
7.736,-0.250,-0.025
7.738,-0.065,-0.025
7.740,0.050,-0.030
7.742,0.080,-0.030
7.744,0.115,-0.035
7.746,0.030,-0.035
7.748,-0.050,-0.030
7.750,-0.215,-0.025
7.752,-0.230,-0.015
7.754,-0.240,-0.005
7.756,-0.110,-0.005
7.758,-0.055,-0.005
7.760,0.005,-0.010
7.762,0.030,-0.020
7.764,0.090,-0.035
7.766,0.040,-0.050
7.768,-0.070,-0.065
7.770,-0.240,-0.075
7.772,-0.305,-0.080
7.774,-0.315,-0.080
7.776,-0.260,-0.080
7.778,-0.145,-0.080
7.780,-0.005,-0.075
7.782,0.055,-0.075
7.784,0.075,-0.075
7.786,0.015,-0.070
7.788,-0.120,-0.070
7.790,-0.255,-0.065
7.792,-0.300,-0.065
7.794,-0.315,-0.060
7.796,-0.280,-0.060
7.798,-0.100,-0.060
7.800,-0.010,-0.060
7.802,0.005,-0.060
7.804,0.135,-0.060
7.806,0.095,-0.060
7.808,-0.110,-0.060
7.810,-0.265,-0.060
7.812,-0.325,-0.055
7.814,-0.310,-0.050
7.816,-0.200,-0.050
7.818,-0.085,-0.045
7.820,0.055,-0.050
7.822,0.070,-0.055
7.824,0.095,-0.060
7.826,-0.025,-0.065
7.828,-0.130,-0.065
7.830,-0.245,-0.065
7.832,-0.275,-0.050
7.834,-0.245,-0.025
7.836,-0.170,0.010
7.838,0.050,0.065
7.840,0.245,0.130
7.842,0.305,0.210
7.844,0.405,0.300
7.846,0.495,0.395
7.848,0.390,0.485
7.850,0.370,0.565
7.852,0.445,0.625
7.854,0.580,0.650
7.856,0.570,0.640
7.858,0.585,0.590
7.860,0.475,0.500
7.862,0.450,0.380
7.864,0.360,0.235
7.866,0.080,0.085
7.868,-0.175,-0.065
7.870,-0.420,-0.195
7.872,-0.585,-0.295
7.874,-0.630,-0.370
7.876,-0.545,-0.410
7.878,-0.410,-0.425
7.880,-0.315,-0.415
7.882,-0.265,-0.390
7.884,-0.230,-0.360
7.886,-0.325,-0.325
7.888,-0.370,-0.290
7.890,-0.445,-0.255
7.892,-0.445,-0.220
7.894,-0.385,-0.190
7.896,-0.265,-0.160
7.898,-0.095,-0.130
7.900,0.020,-0.100
7.902,0.055,-0.075
7.904,0.055,-0.055
7.906,-0.005,-0.045
7.908,-0.190,-0.040
7.910,-0.215,-0.040
7.912,-0.315,-0.045
7.914,-0.295,-0.050
7.916,-0.170,-0.055
7.918,-0.040,-0.060
7.920,0.080,-0.060
7.922,0.110,-0.050
7.924,0.035,-0.045
7.926,-0.035,-0.030
7.928,-0.165,-0.020
7.930,-0.275,-0.010
7.932,-0.260,-0.005
7.934,-0.175,0.000
7.936,-0.095,0.005
7.938,0.015,0.005
7.940,0.070,0.005
7.942,0.180,0.010
7.944,0.125,0.010
7.946,0.000,0.015
7.948,-0.205,0.020
7.950,-0.230,0.020
7.952,-0.215,0.025
7.954,-0.165,0.025
7.956,0.015,0.025
7.958,0.140,0.025
7.960,0.080,0.020
7.962,0.130,0.020
7.964,0.135,0.020
7.966,0.030,0.020
7.968,-0.175,0.020
7.970,-0.215,0.020
7.972,-0.205,0.020
7.974,-0.150,0.025
7.976,-0.005,0.025
7.978,0.125,0.030
7.980,0.130,0.035
7.982,0.185,0.045
7.984,0.140,0.055
7.986,0.000,0.065
7.988,-0.115,0.075
7.990,-0.115,0.080
7.992,-0.150,0.080
7.994,-0.115,0.080
7.996,-0.035,0.075
7.998,0.105,0.070
8.000,0.160,0.065
8.002,0.205,0.060
8.004,0.165,0.065
8.006,0.100,0.080
8.008,-0.095,0.095
8.010,-0.090,0.115
8.012,-0.100,0.135
8.014,-0.065,0.150
8.016,0.105,0.165
8.018,0.210,0.170
8.020,0.250,0.170
8.022,0.245,0.165
8.024,0.255,0.160
8.026,0.115,0.155
8.028,-0.045,0.160
8.030,-0.025,0.165
8.032,-0.095,0.175
8.034,0.015,0.185
8.036,0.175,0.190
8.038,0.265,0.195
8.040,0.265,0.195
8.042,0.320,0.190
8.044,0.185,0.185
8.046,0.125,0.175
8.048,0.015,0.170
8.050,-0.020,0.170
8.052,-0.070,0.170
8.054,-0.040,0.175
8.056,0.125,0.180
8.058,0.285,0.185
8.060,0.250,0.190
8.062,0.335,0.190
8.064,0.255,0.185
8.066,0.140,0.180
8.068,-0.060,0.170
8.070,-0.125,0.160
8.072,-0.040,0.150
8.074,-0.010,0.145
8.076,0.090,0.135
8.078,0.150,0.120
8.080,0.185,0.110
8.082,0.205,0.095
8.084,0.150,0.080
8.086,-0.025,0.070
8.088,-0.165,0.055
8.090,-0.165,0.040
8.092,-0.225,0.030
8.094,-0.115,0.020
8.096,0.005,0.010
8.098,0.045,0.000
8.100,0.140,-0.005
8.102,0.105,-0.015
8.104,0.035,-0.020
8.106,-0.150,-0.030
8.108,-0.275,-0.035
8.110,-0.315,-0.040
8.112,-0.210,-0.045
8.114,-0.200,-0.050
8.116,0.010,-0.055
8.118,-0.055,-0.055
8.120,0.060,-0.055
8.122,0.070,-0.055
8.124,-0.005,-0.055
8.126,-0.125,-0.055
8.128,-0.290,-0.055
8.130,-0.290,-0.055
8.132,-0.280,-0.055
8.134,-0.225,-0.055
8.136,-0.065,-0.055
8.138,0.005,-0.055
8.140,0.035,-0.055
8.142,0.015,-0.055
8.144,-0.065,-0.055
8.146,-0.130,-0.055
8.148,-0.170,-0.055
8.150,-0.240,-0.055
8.152,-0.315,-0.055
8.154,-0.240,-0.055
8.156,-0.060,-0.050
8.158,0.005,-0.050
8.160,0.060,-0.050
8.162,0.120,-0.050
8.164,0.000,-0.050
8.166,-0.205,-0.050
8.168,-0.215,-0.050
8.170,-0.265,-0.050
8.172,-0.290,-0.055
8.174,-0.205,-0.055
8.176,-0.070,-0.055
8.178,0.030,-0.060
8.180,0.060,-0.060
8.182,0.040,-0.060
8.184,0.010,-0.060
8.186,-0.220,-0.055
8.188,-0.215,-0.055
8.190,-0.330,-0.055
8.192,-0.210,-0.050
8.194,-0.225,-0.050
8.196,-0.080,-0.045
8.198,0.075,-0.045
8.200,0.125,-0.040
8.202,0.050,-0.040
8.204,-0.075,-0.035
8.206,-0.210,-0.035
8.208,-0.220,-0.030
8.210,-0.295,-0.030
8.212,-0.285,-0.025
8.214,-0.120,-0.025
8.216,0.040,-0.025
8.218,0.115,-0.025
8.220,0.080,-0.025
8.222,0.020,-0.030
8.224,-0.045,-0.030
8.226,-0.210,-0.035
8.228,-0.250,-0.035
8.230,-0.290,-0.040
8.232,-0.220,-0.045
8.234,-0.170,-0.045
8.236,0.035,-0.045
8.238,0.015,-0.045
8.240,0.115,-0.045
8.242,0.050,-0.040
8.244,-0.060,-0.040
8.246,-0.235,-0.035
8.248,-0.265,-0.035
8.250,-0.290,-0.035
8.252,-0.205,-0.035
8.254,-0.080,-0.035
8.256,0.060,-0.035
8.258,0.065,-0.030
8.260,0.105,-0.030
8.262,0.065,-0.025
8.264,-0.070,-0.020
8.266,-0.215,-0.020
8.268,-0.225,-0.025
8.270,-0.335,-0.030
8.272,-0.240,-0.040
8.274,-0.125,-0.055
8.276,0.020,-0.065
8.278,0.030,-0.075
8.280,0.070,-0.075
8.282,0.035,-0.075
8.284,-0.070,-0.065
8.286,-0.195,-0.055
8.288,-0.320,-0.040
8.290,-0.275,-0.035
8.292,-0.245,-0.030
8.294,-0.100,-0.030
8.296,0.045,-0.040
8.298,0.060,-0.050
8.300,0.110,-0.060
8.302,0.000,-0.065
8.304,-0.160,-0.070
8.306,-0.235,-0.065
8.308,-0.260,-0.060
8.310,-0.280,-0.055
8.312,-0.250,-0.050
8.314,-0.135,-0.045
8.316,-0.015,-0.045
8.318,0.035,-0.045
8.320,0.055,-0.045
8.322,0.025,-0.050
8.324,-0.130,-0.050
8.326,-0.255,-0.055
8.328,-0.165,-0.055
8.330,-0.340,-0.055
8.332,-0.255,-0.060
8.334,-0.095,-0.065
8.336,0.075,-0.070
8.338,0.050,-0.075
8.340,-0.095,-0.080
8.342,-0.015,-0.080
8.344,-0.140,-0.075
8.346,-0.235,-0.065
8.348,-0.270,-0.055
8.350,-0.270,-0.040
8.352,-0.155,-0.025
8.354,-0.015,-0.015
8.356,0.030,-0.005
8.358,0.115,-0.005
8.360,0.095,-0.010
8.362,0.055,-0.015
8.364,-0.145,-0.025
8.366,-0.210,-0.030
8.368,-0.245,-0.030
8.370,-0.250,-0.025
8.372,-0.170,-0.020
8.374,-0.025,-0.010
8.376,0.090,-0.005
8.378,0.145,0.000
8.380,0.115,0.000
8.382,-0.015,-0.005
8.384,-0.175,-0.015
8.386,-0.255,-0.030
8.388,-0.275,-0.045
8.390,-0.250,-0.055
8.392,-0.180,-0.065
8.394,-0.055,-0.070
8.396,-0.015,-0.070
8.398,0.025,-0.065
8.400,0.080,-0.060
8.402,-0.020,-0.055
8.404,-0.130,-0.050
8.406,-0.270,-0.045
8.408,-0.325,-0.045
8.410,-0.295,-0.045
8.412,-0.225,-0.050
8.414,-0.005,-0.050
8.416,0.030,-0.050
8.418,0.130,-0.045
8.420,0.060,-0.040
8.422,0.025,-0.035
8.424,-0.165,-0.035
8.426,-0.305,-0.030
8.428,-0.295,-0.035
8.430,-0.270,-0.035
8.432,-0.180,-0.045
8.434,-0.030,-0.050
8.436,0.065,-0.055
8.438,-0.030,-0.060
8.440,0.030,-0.060
8.442,0.105,-0.055
8.444,-0.165,-0.045
8.446,-0.255,-0.040
8.448,-0.270,-0.035
8.450,-0.250,-0.035
8.452,-0.150,-0.035
8.454,-0.035,-0.030
8.456,0.040,-0.015
8.458,0.060,0.015
8.460,0.135,0.060
8.462,0.160,0.130
8.464,0.120,0.220
8.466,0.175,0.330
8.468,0.250,0.435
8.470,0.360,0.535
8.472,0.460,0.615
8.474,0.795,0.655
8.476,0.890,0.655
8.478,0.800,0.610
8.480,0.535,0.520
8.482,0.315,0.395
8.484,0.015,0.255
8.486,-0.070,0.105
8.488,-0.215,-0.030
8.490,-0.385,-0.150
8.492,-0.460,-0.245
8.494,-0.355,-0.310
8.496,-0.285,-0.350
8.498,-0.205,-0.365
8.500,-0.295,-0.370
8.502,-0.390,-0.360
8.504,-0.530,-0.340
8.506,-0.510,-0.320
8.508,-0.565,-0.295
8.510,-0.470,-0.265
8.512,-0.370,-0.235
8.514,-0.100,-0.200
8.516,-0.015,-0.165
8.518,-0.015,-0.135
8.520,-0.015,-0.105
8.522,-0.070,-0.080
8.524,-0.230,-0.065
8.526,-0.270,-0.050
8.528,-0.265,-0.045
8.530,-0.210,-0.040
8.532,-0.095,-0.035
8.534,0.065,-0.035
8.536,0.080,-0.030
8.538,0.075,-0.025
8.540,0.010,-0.020
8.542,-0.105,-0.010
8.544,-0.095,-0.005
8.546,-0.245,-0.005
8.548,-0.230,0.000
8.550,-0.130,0.000
8.552,-0.115,-0.005
8.554,0.085,-0.005
8.556,0.115,-0.005
8.558,0.115,-0.005
8.560,0.085,0.000
8.562,0.005,0.000
8.564,-0.210,0.005
8.566,-0.220,0.010
8.568,-0.235,0.010
8.570,-0.155,0.010
8.572,-0.080,0.010
8.574,0.145,0.015
8.576,0.110,0.015
8.578,0.140,0.020
8.580,0.095,0.025
8.582,-0.025,0.025
8.584,-0.160,0.030
8.586,-0.200,0.030
8.588,-0.240,0.030
8.590,-0.090,0.030
8.592,-0.035,0.030
8.594,0.085,0.030
8.596,0.185,0.030
8.598,0.120,0.030
8.600,0.145,0.035
8.602,-0.035,0.040
8.604,-0.145,0.050
8.606,-0.145,0.055
8.608,-0.200,0.065
8.610,-0.065,0.070
8.612,0.070,0.080
8.614,0.135,0.085
8.616,0.220,0.095
8.618,0.215,0.100
8.620,0.170,0.105
8.622,0.045,0.110
8.624,-0.105,0.115
8.626,-0.105,0.115
8.628,-0.135,0.115
8.630,-0.015,0.115
8.632,0.110,0.115
8.634,0.150,0.115
8.636,0.180,0.120
8.638,0.245,0.125
8.640,0.200,0.135
8.642,0.140,0.145
8.644,-0.010,0.155
8.646,-0.060,0.170
8.648,-0.025,0.175
8.650,0.075,0.185
8.652,0.185,0.190
8.654,0.230,0.195
8.656,0.295,0.195
8.658,0.330,0.200
8.660,0.265,0.200
8.662,0.150,0.205
8.664,0.035,0.205
8.666,-0.045,0.200
8.668,-0.030,0.195
8.670,0.095,0.185
8.672,0.215,0.175
8.674,0.165,0.170
8.676,0.235,0.165
8.678,0.310,0.165
8.680,0.250,0.170
8.682,0.185,0.180
8.684,0.045,0.195
8.686,-0.030,0.200
8.688,-0.110,0.205
8.690,0.065,0.200
8.692,0.150,0.185
8.694,0.215,0.165
8.696,0.240,0.135
8.698,0.215,0.110
8.700,0.175,0.085
8.702,-0.035,0.065
8.704,-0.160,0.055
8.706,-0.235,0.050
8.708,-0.185,0.050
8.710,-0.095,0.050
8.712,0.125,0.055
8.714,0.215,0.050
8.716,0.150,0.045
8.718,0.080,0.035
8.720,-0.030,0.020
8.722,-0.155,0.005
8.724,-0.165,-0.005
8.726,-0.245,-0.015
8.728,-0.230,-0.020
8.730,-0.140,-0.025
8.732,0.025,-0.030
8.734,0.080,-0.035
8.736,0.040,-0.045
8.738,0.050,-0.055
8.740,-0.070,-0.065
8.742,-0.210,-0.070
8.744,-0.265,-0.075
8.746,-0.290,-0.075
8.748,-0.345,-0.075
8.750,-0.205,-0.070
8.752,0.075,-0.060
8.754,0.080,-0.055
8.756,0.075,-0.050
8.758,0.030,-0.050
8.760,-0.065,-0.050
8.762,-0.190,-0.050
8.764,-0.260,-0.050
8.766,-0.285,-0.055
8.768,-0.250,-0.055
8.770,-0.180,-0.050
8.772,-0.045,-0.050
8.774,0.020,-0.045
8.776,0.155,-0.045
8.778,0.070,-0.045
8.780,-0.080,-0.050
8.782,-0.165,-0.060
8.784,-0.270,-0.070
8.786,-0.390,-0.080
8.788,-0.300,-0.090
8.790,-0.165,-0.090
8.792,-0.025,-0.090
8.794,0.015,-0.085
8.796,0.080,-0.075
8.798,0.110,-0.065
8.800,-0.075,-0.050
8.802,-0.195,-0.045
8.804,-0.230,-0.035
8.806,-0.235,-0.035
8.808,-0.285,-0.040
8.810,-0.130,-0.040
8.812,0.030,-0.045
8.814,0.070,-0.050
8.816,0.115,-0.050
8.818,0.015,-0.050
8.820,-0.045,-0.045
8.822,-0.220,-0.045
8.824,-0.250,-0.040
8.826,-0.225,-0.040
8.828,-0.265,-0.045
8.830,-0.125,-0.045
8.832,0.035,-0.050
8.834,0.065,-0.050
8.836,0.110,-0.050
8.838,0.035,-0.050
8.840,-0.080,-0.050
8.842,-0.210,-0.045
8.844,-0.270,-0.045
8.846,-0.295,-0.045
8.848,-0.225,-0.050
8.850,-0.130,-0.060
8.852,0.045,-0.065
8.854,0.010,-0.070
8.856,0.070,-0.070
8.858,0.010,-0.065
8.860,-0.060,-0.060
8.862,-0.240,-0.050
8.864,-0.255,-0.040
8.866,-0.245,-0.030
8.868,-0.195,-0.025
8.870,-0.100,-0.025
8.872,0.035,-0.030
8.874,0.055,-0.040
8.876,0.065,-0.045
8.878,0.040,-0.055
8.880,-0.070,-0.060
8.882,-0.275,-0.060
8.884,-0.265,-0.060
8.886,-0.295,-0.055
8.888,-0.215,-0.045
8.890,-0.130,-0.040
8.892,0.030,-0.035
8.894,0.215,-0.035
8.896,0.100,-0.035
8.898,0.000,-0.035
8.900,-0.095,-0.035
8.902,-0.225,-0.040
8.904,-0.315,-0.040
8.906,-0.290,-0.045
8.908,-0.220,-0.045
8.910,-0.050,-0.050
8.912,0.035,-0.055
8.914,0.075,-0.065
8.916,0.025,-0.070
8.918,0.000,-0.075
8.920,-0.165,-0.085
8.922,-0.260,-0.085
8.924,-0.295,-0.090
8.926,-0.315,-0.090
8.928,-0.240,-0.085
8.930,-0.075,-0.085
8.932,-0.010,-0.080
8.934,0.090,-0.080
8.936,0.085,-0.075
8.938,-0.065,-0.070
8.940,-0.135,-0.065
8.942,-0.210,-0.060
8.944,-0.250,-0.055
8.946,-0.290,-0.055
8.948,-0.180,-0.050
8.950,-0.065,-0.050
8.952,0.080,-0.045
8.954,0.095,-0.050
8.956,0.080,-0.050
8.958,-0.005,-0.055
8.960,-0.130,-0.055
8.962,-0.250,-0.055
8.964,-0.315,-0.060
8.966,-0.305,-0.060
8.968,-0.165,-0.060
8.970,-0.035,-0.060
8.972,0.030,-0.065
8.974,0.060,-0.065
8.976,0.080,-0.065
8.978,-0.005,-0.065
8.980,-0.160,-0.065
8.982,-0.280,-0.060
8.984,-0.335,-0.055
8.986,-0.225,-0.050
8.988,-0.185,-0.040
8.990,0.005,-0.030
8.992,0.110,-0.020
8.994,0.090,-0.010
8.996,0.150,-0.005
8.998,0.020,0.000
9.000,-0.150,0.000
9.002,-0.175,0.000
9.004,-0.195,-0.010
9.006,-0.250,-0.020
9.008,-0.145,-0.035
9.010,-0.025,-0.050
9.012,0.065,-0.060
9.014,0.055,-0.070
9.016,-0.020,-0.075
9.018,-0.095,-0.075
9.020,-0.240,-0.070
9.022,-0.225,-0.065
9.024,-0.255,-0.055
9.026,-0.200,-0.045
9.028,-0.145,-0.040
9.030,0.020,-0.040
9.032,0.070,-0.040
9.034,0.070,-0.045
9.036,0.055,-0.055
9.038,-0.120,-0.060
9.040,-0.215,-0.065
9.042,-0.220,-0.065
9.044,-0.270,-0.065
9.046,-0.245,-0.060
9.048,-0.125,-0.060
9.050,0.055,-0.055
9.052,0.025,-0.050
9.054,0.080,-0.045
9.056,-0.010,-0.045
9.058,-0.030,-0.045
9.060,-0.155,-0.045
9.062,-0.275,-0.045
9.064,-0.315,-0.050
9.066,-0.205,-0.050
9.068,-0.120,-0.050
9.070,0.015,-0.050
9.072,0.045,-0.045
9.074,0.120,-0.035
9.076,0.025,-0.015
9.078,-0.025,0.020
9.080,-0.030,0.070
9.082,0.025,0.140
9.084,0.005,0.230
9.086,0.090,0.325
9.088,0.380,0.430
9.090,0.635,0.525
9.092,0.755,0.605
9.094,0.915,0.660
9.096,0.880,0.680
9.098,0.675,0.655
9.100,0.380,0.595
9.102,0.230,0.495
9.104,0.145,0.365
9.106,-0.020,0.220
9.108,0.030,0.070
9.110,0.045,-0.075
9.112,-0.150,-0.200
9.114,-0.250,-0.300
9.116,-0.350,-0.365
9.118,-0.415,-0.405
9.120,-0.575,-0.415
9.122,-0.620,-0.405
9.124,-0.610,-0.385
9.126,-0.435,-0.350
9.128,-0.355,-0.315
9.130,-0.235,-0.280
9.132,-0.135,-0.245
9.134,-0.075,-0.215
9.136,-0.070,-0.185
9.138,-0.140,-0.150
9.140,-0.210,-0.120
9.142,-0.275,-0.090
9.144,-0.255,-0.065
9.146,-0.170,-0.045
9.148,-0.060,-0.035
9.150,0.055,-0.030
9.152,0.060,-0.030
9.154,0.050,-0.035
9.156,0.020,-0.045
9.158,-0.085,-0.050
9.160,-0.165,-0.050
9.162,-0.225,-0.045
9.164,-0.245,-0.035
9.166,-0.180,-0.020
9.168,0.005,-0.005
9.170,0.075,0.005
9.172,0.135,0.010
9.174,0.130,0.015
9.176,0.060,0.010
9.178,-0.080,0.005
9.180,-0.170,0.000
9.182,-0.240,-0.010
9.184,-0.185,-0.015
9.186,-0.135,-0.015
9.188,-0.010,-0.010
9.190,0.050,-0.005
9.192,0.165,0.005
9.194,0.135,0.015
9.196,0.085,0.025
9.198,-0.045,0.035
9.200,-0.120,0.045
9.202,-0.165,0.050
9.204,-0.170,0.050
9.206,-0.070,0.045
9.208,0.020,0.040
9.210,0.110,0.030
9.212,0.165,0.020
9.214,0.110,0.010
9.216,0.065,0.005
9.218,0.025,0.005
9.220,-0.155,0.010
9.222,-0.280,0.025
9.224,-0.210,0.040
9.226,-0.020,0.065
9.228,0.080,0.085
9.230,0.245,0.105
9.232,0.270,0.120
9.234,0.280,0.125
9.236,0.135,0.120
9.238,0.015,0.115
9.240,-0.100,0.100
9.242,-0.150,0.090
9.244,-0.095,0.080
9.246,0.000,0.080
9.248,0.140,0.080
9.250,0.195,0.090
9.252,0.260,0.105
9.254,0.265,0.120
9.256,0.165,0.135
9.258,0.020,0.145
9.260,-0.045,0.150
9.262,-0.065,0.155
9.264,-0.055,0.155
9.266,0.025,0.150
9.268,0.225,0.150
9.270,0.260,0.150
9.272,0.280,0.160
9.274,0.290,0.170
9.276,0.240,0.180
9.278,0.080,0.190
9.280,0.025,0.200
9.282,-0.025,0.205
9.284,-0.020,0.205
9.286,0.110,0.200
9.288,0.285,0.195
9.290,0.285,0.185
9.292,0.330,0.175
9.294,0.320,0.165
9.296,0.210,0.165
9.298,0.015,0.165
9.300,-0.080,0.175
9.302,-0.005,0.180
9.304,0.020,0.185
9.306,0.070,0.185
9.308,0.235,0.185
9.310,0.310,0.180
9.312,0.285,0.170
9.314,0.215,0.155
9.316,0.210,0.145
9.318,0.025,0.130
9.320,-0.105,0.115
9.322,-0.120,0.100
9.324,-0.105,0.090
9.326,0.010,0.075
9.328,0.155,0.060
9.330,0.135,0.045
9.332,0.170,0.030
9.334,0.110,0.015
9.336,0.005,0.005
9.338,-0.090,-0.005
9.340,-0.250,-0.010
9.342,-0.255,-0.015
9.344,-0.125,-0.020
9.346,-0.065,-0.025
9.348,0.020,-0.030
9.350,0.040,-0.035
9.352,0.105,-0.045
9.354,-0.015,-0.055
9.356,-0.055,-0.060
9.358,-0.200,-0.065
9.360,-0.215,-0.070
9.362,-0.280,-0.070
9.364,-0.195,-0.070
9.366,-0.140,-0.065
9.368,-0.015,-0.065
9.370,0.020,-0.065
9.372,0.110,-0.070
9.374,-0.020,-0.070
9.376,-0.040,-0.075
9.378,-0.220,-0.075
9.380,-0.265,-0.080
9.382,-0.270,-0.080
9.384,-0.265,-0.075
9.386,-0.095,-0.075
9.388,0.060,-0.075
9.390,0.040,-0.075
9.392,0.045,-0.075
9.394,0.010,-0.075
9.396,-0.175,-0.075
9.398,-0.300,-0.080
9.400,-0.215,-0.080
9.402,-0.235,-0.080
9.404,-0.230,-0.080
9.406,-0.140,-0.080
9.408,0.000,-0.080
9.410,0.080,-0.080
9.412,0.130,-0.080
9.414,0.005,-0.080
9.416,-0.105,-0.075
9.418,-0.290,-0.070
9.420,-0.255,-0.065
9.422,-0.300,-0.060
9.424,-0.180,-0.055
9.426,-0.095,-0.050
9.428,0.050,-0.050
9.430,0.110,-0.050
9.432,0.125,-0.055
9.434,0.035,-0.060
9.436,-0.155,-0.065
9.438,-0.255,-0.070
9.440,-0.260,-0.070
9.442,-0.295,-0.070
9.444,-0.190,-0.060
9.446,-0.030,-0.055
9.448,0.065,-0.045
9.450,0.085,-0.035
9.452,0.045,-0.030
9.454,0.075,-0.030
9.456,-0.110,-0.030
9.458,-0.180,-0.035
9.460,-0.235,-0.045
9.462,-0.200,-0.050
9.464,-0.255,-0.055
9.466,-0.055,-0.060
9.468,0.015,-0.060
9.470,0.115,-0.060
9.472,0.120,-0.060
9.474,-0.010,-0.055
9.476,-0.105,-0.055
9.478,-0.235,-0.050
9.480,-0.265,-0.050
9.482,-0.235,-0.055
9.484,-0.160,-0.055
9.486,-0.035,-0.055
9.488,0.075,-0.060
9.490,0.040,-0.055
9.492,0.115,-0.055
9.494,-0.015,-0.050
9.496,-0.135,-0.040
9.498,-0.190,-0.035
9.500,-0.275,-0.030
9.502,-0.220,-0.030
9.504,-0.150,-0.030
9.506,0.005,-0.035
9.508,0.080,-0.040
9.510,0.135,-0.045
9.512,0.075,-0.055
9.514,0.000,-0.065
9.516,-0.205,-0.070
9.518,-0.225,-0.075
9.520,-0.335,-0.080
9.522,-0.265,-0.085
9.524,-0.200,-0.085
9.526,-0.045,-0.085
9.528,0.050,-0.080
9.530,0.055,-0.080
9.532,0.060,-0.075
9.534,-0.015,-0.065
9.536,-0.195,-0.060
9.538,-0.185,-0.050
9.540,-0.260,-0.045
9.542,-0.200,-0.045
9.544,-0.140,-0.045
9.546,-0.030,-0.050
9.548,0.020,-0.055
9.550,0.125,-0.060
9.552,0.035,-0.065
9.554,-0.060,-0.065
9.556,-0.190,-0.060
9.558,-0.225,-0.055
9.560,-0.220,-0.050
9.562,-0.210,-0.045
9.564,-0.110,-0.040
9.566,0.000,-0.040
9.568,0.035,-0.045
9.570,0.045,-0.050
9.572,0.065,-0.050
9.574,-0.030,-0.055
9.576,-0.180,-0.050
9.578,-0.205,-0.040
9.580,-0.240,-0.030
9.582,-0.155,-0.015
9.584,-0.070,-0.005
9.586,0.035,0.005
9.588,0.085,0.005
9.590,0.215,0.000
9.592,0.095,-0.010
9.594,0.005,-0.025
9.596,-0.180,-0.045
9.598,-0.235,-0.060
9.600,-0.250,-0.070
9.602,-0.245,-0.080
9.604,-0.205,-0.085
9.606,-0.015,-0.085
9.608,-0.015,-0.080
9.610,0.075,-0.075
9.612,0.080,-0.075
9.614,0.020,-0.070
9.616,-0.175,-0.070
9.618,-0.240,-0.070
9.620,-0.310,-0.070
9.622,-0.280,-0.075
9.624,-0.130,-0.075
9.626,0.040,-0.075
9.628,0.045,-0.075
9.630,0.080,-0.075
9.632,0.005,-0.075
9.634,-0.090,-0.075
9.636,-0.210,-0.075
9.638,-0.245,-0.070
9.640,-0.295,-0.070
9.642,-0.240,-0.065
9.644,-0.100,-0.060
9.646,0.075,-0.055
9.648,0.055,-0.050
9.650,0.145,-0.040
9.652,0.085,-0.035
9.654,-0.030,-0.025
9.656,-0.170,-0.020
9.658,-0.230,-0.015
9.660,-0.245,-0.015
9.662,-0.170,-0.015
9.664,-0.075,-0.015
9.666,0.040,-0.020
9.668,0.100,-0.015
9.670,0.170,0.000
9.672,0.090,0.030
9.674,0.050,0.075
9.676,-0.005,0.135
9.678,0.065,0.215
9.680,0.165,0.305
9.682,0.245,0.400
9.684,0.435,0.480
9.686,0.720,0.540
9.688,0.760,0.570
9.690,0.720,0.560
9.692,0.580,0.510
9.694,0.350,0.425
9.696,0.105,0.315
9.698,0.000,0.185
9.700,-0.075,0.060
9.702,-0.225,-0.060
9.704,-0.260,-0.165
9.706,-0.220,-0.240
9.708,-0.215,-0.300
9.710,-0.230,-0.335
9.712,-0.310,-0.355
9.714,-0.350,-0.365
9.716,-0.525,-0.365
9.718,-0.540,-0.365
9.720,-0.585,-0.355
9.722,-0.470,-0.340
9.724,-0.315,-0.320
9.726,-0.155,-0.290
9.728,-0.115,-0.250
9.730,-0.065,-0.210
9.732,-0.110,-0.165
9.734,-0.130,-0.125
9.736,-0.250,-0.090
9.738,-0.265,-0.060
9.740,-0.200,-0.045
9.742,-0.105,-0.035
9.744,-0.015,-0.025
9.746,0.100,-0.025
9.748,0.085,-0.020
9.750,0.105,-0.015
9.752,0.070,-0.005
9.754,-0.075,0.000
9.756,-0.130,0.010
9.758,-0.195,0.015
9.760,-0.185,0.015
9.762,-0.070,0.015
9.764,0.045,0.010
9.766,0.130,0.005
9.768,0.110,-0.005
9.770,0.095,-0.010
9.772,0.030,-0.010
9.774,-0.075,-0.010
9.776,-0.170,-0.005
9.778,-0.180,0.005
9.780,-0.180,0.010
9.782,-0.070,0.020
9.784,0.075,0.025
9.786,0.120,0.030
9.788,0.155,0.035
9.790,0.175,0.040
9.792,0.070,0.040
9.794,-0.060,0.040
9.796,-0.080,0.045
9.798,-0.190,0.045
9.800,-0.210,0.040
9.802,-0.020,0.040
9.804,0.130,0.045
9.806,0.145,0.045
9.808,0.230,0.050
9.810,0.190,0.055
9.812,0.085,0.065
9.814,-0.070,0.070
9.816,-0.065,0.080
9.818,-0.085,0.085
9.820,-0.100,0.090
9.822,-0.015,0.090
9.824,0.130,0.090
9.826,0.160,0.085
9.828,0.260,0.085
9.830,0.255,0.085
9.832,0.135,0.090
9.834,-0.005,0.095
9.836,-0.065,0.105
9.838,-0.145,0.115
9.840,-0.065,0.125
9.842,0.010,0.135
9.844,0.230,0.140
9.846,0.250,0.140
9.848,0.380,0.145
9.850,0.250,0.145
9.852,0.190,0.150
9.854,0.015,0.160
9.856,-0.020,0.165
9.858,0.020,0.175
9.860,0.015,0.185
9.862,0.065,0.195
9.864,0.240,0.195
9.866,0.290,0.195
9.868,0.330,0.195
9.870,0.330,0.190
9.872,0.295,0.185
9.874,0.080,0.185
9.876,0.000,0.185
9.878,-0.005,0.190
9.880,0.040,0.200
9.882,0.160,0.210
9.884,0.285,0.220
9.886,0.365,0.230
9.888,0.375,0.235
9.890,0.315,0.235
9.892,0.245,0.225
9.894,0.080,0.215
9.896,-0.010,0.205
9.898,0.005,0.190
9.900,0.000,0.175
9.902,0.090,0.165
9.904,0.280,0.155
9.906,0.265,0.150
9.908,0.245,0.140
9.910,0.240,0.135
9.912,0.125,0.125
9.914,-0.040,0.115
9.916,-0.075,0.105
9.918,-0.115,0.090
9.920,-0.070,0.075
9.922,-0.025,0.060
9.924,0.125,0.045
9.926,0.140,0.030
9.928,0.155,0.015
9.930,0.105,0.000
9.932,-0.075,-0.010
9.934,-0.215,-0.020
9.936,-0.165,-0.025
9.938,-0.225,-0.035
9.940,-0.190,-0.040
9.942,-0.120,-0.045
9.944,0.030,-0.050
9.946,0.050,-0.055
9.948,0.120,-0.060
9.950,0.045,-0.065
9.952,-0.030,-0.065
9.954,-0.265,-0.070
9.956,-0.255,-0.070
9.958,-0.235,-0.070
9.960,-0.220,-0.065
9.962,-0.095,-0.060
9.964,0.045,-0.060
9.966,0.070,-0.050
9.968,0.125,-0.045
9.970,0.040,-0.040
9.972,-0.055,-0.035
9.974,-0.165,-0.035
9.976,-0.225,-0.035
9.978,-0.240,-0.035
9.980,-0.205,-0.040
9.982,-0.125,-0.050
9.984,0.015,-0.055
9.986,0.080,-0.065
9.988,0.085,-0.070
9.990,0.040,-0.070
9.992,-0.160,-0.070
9.994,-0.125,-0.060
9.996,-0.260,-0.050
9.998,-0.225,-0.040
