'Elapsed time','ECG I','ECG I filtered'
'seconds','mV','mV'
0.000,0.085,0.075
0.002,0.015,0.000
0.004,-0.095,-0.045
0.006,-0.110,-0.080
0.008,-0.235,-0.095
0.010,-0.150,-0.080
0.012,-0.040,-0.050
0.014,0.130,-0.015
0.016,0.125,0.015
0.018,0.130,0.040
0.020,0.130,0.045
0.022,0.070,0.040
0.024,-0.045,0.020
0.026,-0.125,-0.005
0.028,-0.125,-0.025
0.030,-0.085,-0.040
0.032,-0.025,-0.045
0.034,0.090,-0.045
0.036,0.125,-0.035
0.038,0.120,-0.020
0.040,0.095,-0.010
0.042,0.035,-0.010
0.044,-0.085,-0.010
0.046,-0.130,-0.015
0.048,-0.175,-0.025
0.050,-0.105,-0.035
0.052,-0.015,-0.040
0.054,0.075,-0.040
0.056,0.100,-0.040
0.058,0.125,-0.035
0.060,0.090,-0.030
0.062,0.025,-0.025
0.064,-0.105,-0.020
0.066,-0.140,-0.020
0.068,-0.155,-0.020
0.070,-0.105,-0.020
0.072,-0.035,-0.020
0.074,0.065,-0.020
0.076,0.140,-0.015
0.078,0.160,-0.010
0.080,0.075,-0.005
0.082,0.040,-0.005
0.084,-0.070,-0.005
0.086,-0.150,-0.005
0.088,-0.110,-0.010
0.090,-0.175,-0.020
0.092,-0.105,-0.030
0.094,0.095,-0.040
0.096,0.190,-0.050
0.098,0.110,-0.055
0.100,0.015,-0.055
0.102,-0.040,-0.055
0.104,-0.110,-0.055
0.106,-0.165,-0.050
0.108,-0.175,-0.050
0.110,-0.110,-0.045
0.112,-0.070,-0.045
0.114,0.045,-0.040
0.116,0.090,-0.040
0.118,0.140,-0.035
0.120,0.120,-0.035
0.122,-0.020,-0.030
0.124,-0.120,-0.025
0.126,-0.140,-0.025
0.128,-0.170,-0.020
0.130,-0.110,-0.020
0.132,0.010,-0.015
0.134,0.090,-0.020
0.136,0.110,-0.020
0.138,0.160,-0.025
0.140,0.085,-0.025
0.142,-0.040,-0.030
0.144,-0.175,-0.030
0.146,-0.210,-0.030
0.148,-0.090,-0.030
0.150,-0.080,-0.030
0.152,-0.010,-0.030
0.154,0.075,-0.030
0.156,0.075,-0.030
0.158,0.160,-0.030
0.160,0.115,-0.035
0.162,-0.025,-0.035
0.164,-0.185,-0.035
0.166,-0.185,-0.030
0.168,-0.120,-0.030
0.170,-0.080,-0.030
0.172,0.025,-0.030
0.174,0.045,-0.030
0.176,0.080,-0.035
0.178,0.155,-0.035
0.180,0.030,-0.035
0.182,-0.015,-0.035
0.184,-0.125,-0.035
0.186,-0.200,-0.035
0.188,-0.175,-0.030
0.190,-0.135,-0.030
0.192,0.090,-0.025
0.194,0.120,-0.025
0.196,0.095,-0.025
0.198,0.080,-0.030
0.200,0.000,-0.030
0.202,-0.040,-0.030
0.204,-0.135,-0.030
0.206,-0.140,-0.030
0.208,-0.120,-0.025
0.210,-0.090,-0.020
0.212,0.050,-0.015
0.214,0.115,-0.015
0.216,0.085,-0.010
0.218,0.120,-0.010
0.220,0.085,-0.015
0.222,-0.035,-0.020
0.224,-0.115,-0.030
0.226,-0.130,-0.035
0.228,-0.175,-0.045
0.230,-0.105,-0.050
0.232,0.000,-0.050
0.234,0.090,-0.050
0.236,0.165,-0.040
0.238,0.085,-0.030
0.240,0.060,-0.015
0.242,0.015,0.000
0.244,-0.015,0.015
0.246,-0.105,0.025
0.248,-0.090,0.030
0.250,-0.085,0.035
0.252,0.080,0.030
0.254,0.145,0.020
0.256,0.175,0.005
0.258,0.185,-0.005
0.260,0.030,-0.020
0.262,-0.090,-0.030
0.264,-0.120,-0.030
0.266,-0.170,-0.030
0.268,-0.190,-0.030
0.270,-0.055,-0.025
0.272,0.065,-0.025
0.274,0.110,-0.025
0.276,0.135,-0.025
0.278,0.065,-0.030
0.280,0.040,-0.040
0.282,-0.035,-0.045
0.284,-0.150,-0.050
0.286,-0.215,-0.050
0.288,-0.140,-0.050
0.290,-0.115,-0.045
0.292,0.045,-0.040
0.294,0.080,-0.035
0.296,0.110,-0.030
0.298,0.125,-0.030
0.300,0.040,-0.025
0.302,-0.080,-0.025
0.304,-0.110,-0.030
0.306,-0.150,-0.025
0.308,-0.175,-0.025
0.310,-0.080,-0.020
0.312,0.095,-0.020
0.314,0.135,-0.015
0.316,0.130,-0.015
0.318,0.070,-0.020
0.320,0.050,-0.025
0.322,-0.030,-0.030
0.324,-0.145,-0.035
0.326,-0.165,-0.040
0.328,-0.125,-0.040
0.330,-0.065,-0.035
0.332,0.045,-0.030
0.334,0.090,-0.020
0.336,0.185,-0.010
0.338,0.165,-0.005
0.340,0.035,0.000
0.342,-0.065,0.005
0.344,-0.100,0.005
0.346,-0.145,0.010
0.348,-0.095,0.025
0.350,0.030,0.050
0.352,0.230,0.090
0.354,0.330,0.145
0.356,0.420,0.215
0.358,0.465,0.295
0.360,0.390,0.370
0.362,0.370,0.435
0.364,0.425,0.485
0.366,0.475,0.500
0.368,0.455,0.480
0.370,0.385,0.430
0.372,0.395,0.345
0.374,0.325,0.235
0.376,0.310,0.120
0.378,0.090,0.000
0.380,-0.130,-0.105
0.382,-0.310,-0.195
0.384,-0.345,-0.255
0.386,-0.410,-0.300
0.388,-0.380,-0.320
0.390,-0.370,-0.325
0.392,-0.185,-0.320
0.394,-0.230,-0.305
0.396,-0.145,-0.295
0.398,-0.135,-0.280
0.400,-0.215,-0.260
0.402,-0.290,-0.240
0.404,-0.335,-0.210
0.406,-0.265,-0.180
0.408,-0.155,-0.145
0.410,-0.080,-0.110
0.412,0.055,-0.075
0.414,0.080,-0.045
0.416,0.140,-0.025
0.418,0.070,-0.010
0.420,0.030,-0.005
0.422,-0.120,-0.005
0.424,-0.105,-0.010
0.426,-0.115,-0.015
0.428,-0.060,-0.020
0.430,0.010,-0.020
0.432,0.115,-0.015
0.434,0.125,-0.015
0.436,0.135,-0.010
0.438,0.060,0.000
0.440,0.000,0.005
0.442,-0.065,0.010
0.444,-0.105,0.015
0.446,-0.075,0.020
0.448,-0.030,0.025
0.450,0.060,0.025
0.452,0.165,0.030
0.454,0.225,0.030
0.456,0.195,0.035
0.458,0.140,0.035
0.460,0.015,0.030
0.462,-0.080,0.030
0.464,-0.110,0.025
0.466,-0.075,0.025
0.468,-0.040,0.025
0.470,0.065,0.020
0.472,0.150,0.025
0.474,0.215,0.025
0.476,0.195,0.025
0.478,0.130,0.025
0.480,0.040,0.025
0.482,-0.090,0.025
0.484,-0.105,0.020
0.486,-0.065,0.020
0.488,-0.080,0.015
0.490,0.115,0.015
0.492,0.140,0.020
0.494,0.185,0.025
0.496,0.210,0.030
0.498,0.155,0.040
0.500,0.030,0.045
0.502,-0.085,0.055
0.504,-0.020,0.060
0.506,-0.075,0.060
0.508,0.005,0.060
0.510,0.090,0.055
0.512,0.185,0.055
0.514,0.220,0.055
0.516,0.220,0.055
0.518,0.185,0.065
0.520,0.090,0.075
0.522,-0.040,0.085
0.524,-0.010,0.100
0.526,0.000,0.110
0.528,0.045,0.115
0.530,0.160,0.115
0.532,0.240,0.115
0.534,0.275,0.110
0.536,0.235,0.105
0.538,0.235,0.105
0.540,0.035,0.105
0.542,0.020,0.110
0.544,0.020,0.120
0.546,0.030,0.130
0.548,0.125,0.140
0.550,0.230,0.150
0.552,0.295,0.160
0.554,0.320,0.165
0.556,0.295,0.170
0.558,0.190,0.170
0.560,0.160,0.170
0.562,0.150,0.175
0.564,0.060,0.180
0.566,0.130,0.185
0.568,0.105,0.195
0.570,0.280,0.205
0.572,0.390,0.215
0.574,0.375,0.225
0.576,0.385,0.230
0.578,0.295,0.235
0.580,0.165,0.240
0.582,0.155,0.240
0.584,0.150,0.240
0.586,0.145,0.240
0.588,0.205,0.240
0.590,0.320,0.235
0.592,0.360,0.235
0.594,0.410,0.230
0.596,0.330,0.225
0.598,0.330,0.215
0.600,0.165,0.205
0.602,0.055,0.195
0.604,0.055,0.180
0.606,0.100,0.165
0.608,0.140,0.150
0.610,0.240,0.135
0.612,0.240,0.120
0.614,0.290,0.105
0.616,0.315,0.095
0.618,0.095,0.080
0.620,-0.015,0.070
0.622,-0.050,0.060
0.624,-0.095,0.050
0.626,-0.040,0.045
0.628,-0.005,0.040
0.630,0.170,0.035
0.632,0.195,0.025
0.634,0.230,0.020
0.636,0.125,0.015
0.638,0.040,0.010
0.640,-0.070,0.005
0.642,-0.145,0.000
0.644,-0.190,-0.005
0.646,-0.075,-0.010
0.648,0.020,-0.015
0.650,0.120,-0.025
0.652,0.080,-0.030
0.654,0.130,-0.035
0.656,0.050,-0.040
0.658,0.050,-0.040
0.660,-0.125,-0.040
0.662,-0.145,-0.040
0.664,-0.150,-0.040
0.666,-0.055,-0.035
0.668,-0.015,-0.030
0.670,0.055,-0.030
0.672,0.110,-0.030
0.674,0.150,-0.030
0.676,0.080,-0.030
0.678,-0.010,-0.030
0.680,-0.125,-0.035
0.682,-0.150,-0.035
0.684,-0.150,-0.040
0.686,-0.095,-0.040
0.688,-0.030,-0.040
0.690,0.085,-0.040
0.692,0.105,-0.040
0.694,0.145,-0.035
0.696,0.080,-0.035
0.698,0.000,-0.030
0.700,-0.110,-0.030
0.702,-0.105,-0.025
0.704,-0.155,-0.025
0.706,-0.145,-0.025
0.708,-0.005,-0.030
0.710,0.100,-0.035
0.712,0.125,-0.040
0.714,0.165,-0.045
0.716,0.080,-0.050
0.718,-0.015,-0.050
0.720,-0.105,-0.050
0.722,-0.155,-0.045
0.724,-0.195,-0.040
0.726,-0.080,-0.030
0.728,0.025,-0.020
0.730,0.110,-0.015
0.732,0.155,-0.010
0.734,0.125,-0.015
0.736,0.060,-0.020
0.738,-0.050,-0.030
0.740,-0.150,-0.040
0.742,-0.190,-0.045
0.744,-0.165,-0.050
0.746,-0.050,-0.050
0.748,0.020,-0.050
0.750,0.125,-0.045
0.752,0.125,-0.035
0.754,0.115,-0.030
0.756,0.025,-0.030
0.758,0.015,-0.030
0.760,-0.125,-0.030
0.762,-0.155,-0.035
0.764,-0.190,-0.040
0.766,-0.105,-0.045
0.768,0.095,-0.040
0.770,0.110,-0.040
0.772,0.085,-0.030
0.774,0.190,-0.025
0.776,0.050,-0.020
0.778,-0.020,-0.015
0.780,-0.120,-0.015
0.782,-0.130,-0.015
0.784,-0.165,-0.020
0.786,-0.065,-0.030
0.788,0.055,-0.035
0.790,0.185,-0.045
0.792,0.160,-0.045
0.794,0.130,-0.045
0.796,0.035,-0.040
0.798,-0.070,-0.035
0.800,-0.140,-0.030
0.802,-0.095,-0.025
0.804,-0.135,-0.020
0.806,-0.070,-0.015
0.808,0.055,-0.015
0.810,0.130,-0.015
0.812,0.135,-0.015
0.814,0.155,-0.010
0.816,0.080,-0.010
0.818,-0.070,-0.010
0.820,-0.090,-0.010
0.822,-0.130,-0.010
0.824,-0.115,-0.010
0.826,-0.100,-0.010
0.828,0.090,-0.015
0.830,0.130,-0.015
0.832,0.100,-0.015
0.834,0.190,-0.015
0.836,0.085,-0.015
0.838,-0.015,-0.010
0.840,-0.215,-0.010
0.842,-0.130,-0.010
0.844,-0.100,-0.010
0.846,-0.040,-0.015
0.848,0.035,-0.020
0.850,0.125,-0.025
0.852,0.140,-0.035
0.854,0.125,-0.045
0.856,0.050,-0.050
0.858,-0.075,-0.050
0.860,-0.140,-0.050
0.862,-0.235,-0.050
0.864,-0.165,-0.050
0.866,-0.050,-0.045
0.868,0.050,-0.045
0.870,0.110,-0.040
0.872,0.185,-0.040
0.874,0.195,-0.040
0.876,-0.025,-0.035
0.878,-0.130,-0.035
0.880,-0.130,-0.030
0.882,-0.125,-0.020
0.884,-0.110,-0.015
0.886,-0.055,-0.005
0.888,0.140,0.000
0.890,0.185,0.000
0.892,0.190,-0.005
0.894,0.055,-0.010
0.896,-0.020,-0.020
0.898,-0.050,-0.035
0.900,-0.055,-0.045
0.902,-0.065,-0.055
0.904,-0.195,-0.065
0.906,-0.055,-0.070
0.908,0.010,-0.070
0.910,0.075,-0.065
0.912,0.125,-0.060
0.914,0.145,-0.050
0.916,-0.005,-0.040
0.918,-0.105,-0.030
0.920,-0.105,-0.020
0.922,-0.125,-0.015
0.924,-0.125,-0.015
0.926,-0.020,-0.015
0.928,0.095,-0.020
0.930,0.150,-0.025
0.932,0.175,-0.030
0.934,0.070,-0.035
0.936,-0.005,-0.035
0.938,-0.085,-0.035
0.940,-0.150,-0.035
0.942,-0.115,-0.035
0.944,-0.065,-0.030
0.946,-0.010,-0.030
0.948,0.070,-0.030
0.950,0.150,-0.030
0.952,0.150,-0.030
0.954,0.080,-0.035
0.956,0.000,-0.040
0.958,-0.135,-0.045
0.960,-0.160,-0.045
0.962,-0.160,-0.045
0.964,-0.115,-0.040
0.966,0.015,-0.035
0.968,0.115,-0.030
0.970,0.150,-0.025
0.972,0.110,-0.025
0.974,0.050,-0.020
0.976,0.065,-0.020
0.978,-0.115,-0.020
0.980,-0.125,-0.020
0.982,-0.145,-0.020
0.984,-0.080,-0.020
0.986,0.055,-0.020
0.988,0.115,-0.015
0.990,0.190,-0.010
0.992,0.170,-0.005
0.994,0.060,0.005
0.996,0.035,0.015
0.998,-0.045,0.020
1.000,-0.040,0.025
1.002,-0.075,0.030
1.004,-0.025,0.030
1.006,0.015,0.025
1.008,0.180,0.015
1.010,0.170,0.000
1.012,0.175,-0.015
1.014,0.045,-0.030
1.016,-0.045,-0.045
1.018,-0.180,-0.055
1.020,-0.110,-0.065
1.022,-0.235,-0.065
1.024,-0.085,-0.060
1.026,-0.040,-0.050
1.028,0.140,-0.040
1.030,0.135,-0.030
1.032,0.185,-0.025
1.034,0.135,-0.015
1.036,-0.015,-0.015
1.038,-0.125,-0.015
1.040,-0.190,-0.020
1.042,-0.155,-0.025
1.044,-0.085,-0.035
1.046,0.045,-0.040
1.048,0.085,-0.045
1.050,0.200,-0.050
1.052,0.100,-0.050
1.054,0.060,-0.045
1.056,-0.045,-0.045
1.058,-0.110,-0.040
1.060,-0.140,-0.035
1.062,-0.125,-0.030
1.064,-0.065,-0.025
1.066,0.050,-0.025
1.068,0.115,-0.025
1.070,0.160,-0.030
1.072,0.120,-0.035
1.074,0.065,-0.040
1.076,-0.055,-0.045
1.078,-0.125,-0.050
1.080,-0.175,-0.050
1.082,-0.105,-0.050
1.084,-0.105,-0.050
1.086,-0.005,-0.045
1.088,0.145,-0.035
1.090,0.165,-0.025
1.092,0.085,-0.010
1.094,0.105,0.005
1.096,0.005,0.030
1.098,-0.015,0.065
1.100,0.065,0.115
1.102,0.065,0.170
1.104,0.175,0.240
1.106,0.410,0.310
1.108,0.505,0.385
1.110,0.670,0.445
1.112,0.765,0.490
1.114,0.670,0.505
1.116,0.515,0.485
1.118,0.335,0.435
1.120,0.135,0.350
1.122,0.080,0.240
1.124,0.045,0.115
1.126,0.045,-0.010
1.128,0.075,-0.125
1.130,-0.025,-0.215
1.132,-0.185,-0.285
1.134,-0.255,-0.330
1.136,-0.335,-0.345
1.138,-0.495,-0.345
1.140,-0.425,-0.335
1.142,-0.410,-0.310
1.144,-0.325,-0.285
1.146,-0.165,-0.260
1.148,-0.105,-0.235
1.150,-0.025,-0.210
1.152,0.045,-0.185
1.154,-0.055,-0.155
1.156,-0.150,-0.130
1.158,-0.200,-0.100
1.160,-0.150,-0.080
1.162,-0.110,-0.060
1.164,-0.030,-0.045
1.166,0.095,-0.035
1.168,0.085,-0.025
1.170,0.165,-0.020
1.172,0.160,-0.015
1.174,0.070,-0.015
1.176,-0.080,-0.010
1.178,-0.105,-0.010
1.180,-0.080,-0.010
1.182,-0.050,-0.010
1.184,-0.085,-0.015
1.186,0.055,-0.020
1.188,0.155,-0.025
1.190,0.205,-0.025
1.192,0.140,-0.025
1.194,0.070,-0.020
1.196,-0.055,-0.010
1.198,-0.095,-0.005
1.200,-0.105,0.005
1.202,-0.105,0.010
1.204,0.000,0.015
1.206,0.175,0.015
1.208,0.195,0.015
1.210,0.190,0.015
1.212,0.125,0.015
1.214,0.100,0.020
1.216,-0.020,0.020
1.218,-0.120,0.025
1.220,-0.085,0.025
1.222,-0.070,0.020
1.224,-0.010,0.020
1.226,0.165,0.015
1.228,0.170,0.010
1.230,0.220,0.005
1.232,0.150,0.010
1.234,0.110,0.015
1.236,-0.030,0.025
1.238,-0.145,0.035
1.240,-0.045,0.045
1.242,-0.035,0.055
1.244,0.030,0.055
1.246,0.135,0.050
1.248,0.200,0.045
1.250,0.230,0.035
1.252,0.160,0.025
1.254,0.120,0.020
1.256,-0.050,0.020
1.258,-0.055,0.025
1.260,-0.070,0.035
1.262,-0.010,0.045
1.264,0.060,0.055
1.266,0.180,0.060
1.268,0.255,0.060
1.270,0.265,0.060
1.272,0.255,0.060
1.274,0.080,0.060
1.276,0.000,0.065
1.278,-0.060,0.070
1.280,-0.040,0.085
1.282,0.085,0.095
1.284,0.215,0.110
1.286,0.295,0.120
1.288,0.230,0.125
1.290,0.290,0.130
1.292,0.305,0.125
1.294,0.115,0.125
1.296,0.050,0.120
1.298,0.020,0.120
1.300,0.080,0.125
1.302,0.080,0.135
1.304,0.215,0.145
1.306,0.330,0.160
1.308,0.380,0.175
1.310,0.345,0.185
1.312,0.275,0.195
1.314,0.190,0.205
1.316,0.105,0.205
1.318,0.115,0.200
1.320,0.105,0.195
1.322,0.200,0.190
1.324,0.305,0.185
1.326,0.300,0.185
1.328,0.345,0.185
1.330,0.385,0.190
1.332,0.360,0.200
1.334,0.200,0.205
1.336,0.135,0.215
1.338,0.115,0.225
1.340,0.125,0.230
1.342,0.165,0.230
1.344,0.295,0.225
1.346,0.410,0.215
1.348,0.435,0.200
1.350,0.320,0.185
1.352,0.225,0.165
1.354,0.155,0.145
1.356,-0.030,0.125
1.358,0.005,0.105
1.360,0.090,0.090
1.362,0.045,0.080
1.364,0.145,0.070
1.366,0.210,0.065
1.368,0.240,0.060
1.370,0.280,0.055
1.372,0.160,0.050
1.374,-0.030,0.045
1.376,-0.100,0.035
1.378,-0.045,0.025
1.380,-0.050,0.010
1.382,-0.030,0.000
1.384,0.065,-0.010
1.386,0.155,-0.020
1.388,0.190,-0.025
1.390,0.100,-0.030
1.392,0.010,-0.030
1.394,-0.085,-0.025
1.396,-0.060,-0.020
1.398,-0.130,-0.015
1.400,-0.040,-0.015
1.402,-0.020,-0.010
1.404,0.085,-0.010
1.406,0.110,-0.010
1.408,0.185,-0.015
1.410,0.135,-0.020
1.412,0.085,-0.025
1.414,-0.090,-0.030
1.416,-0.090,-0.035
1.418,-0.170,-0.040
1.420,-0.125,-0.045
1.422,-0.050,-0.050
1.424,-0.005,-0.055
1.426,0.115,-0.055
1.428,0.145,-0.055
1.430,0.105,-0.055
1.432,0.055,-0.050
1.434,-0.055,-0.045
1.436,-0.115,-0.040
1.438,-0.195,-0.035
1.440,-0.110,-0.035
1.442,-0.045,-0.030
1.444,0.040,-0.035
1.446,0.110,-0.035
1.448,0.110,-0.045
1.450,0.130,-0.050
1.452,0.035,-0.060
1.454,-0.140,-0.065
1.456,-0.155,-0.070
1.458,-0.155,-0.070
1.460,-0.115,-0.070
1.462,-0.020,-0.065
1.464,0.140,-0.055
1.466,0.075,-0.050
1.468,0.120,-0.040
1.470,0.125,-0.040
1.472,0.015,-0.040
1.474,-0.125,-0.040
1.476,-0.120,-0.045
1.478,-0.180,-0.050
1.480,-0.140,-0.060
1.482,-0.040,-0.065
1.484,0.105,-0.065
1.486,0.075,-0.065
1.488,0.150,-0.065
1.490,0.105,-0.060
1.492,0.035,-0.050
1.494,-0.085,-0.045
1.496,-0.115,-0.040
1.498,-0.205,-0.035
1.500,-0.110,-0.030
1.502,-0.025,-0.030
1.504,0.125,-0.035
1.506,0.130,-0.040
1.508,0.115,-0.045
1.510,0.110,-0.050
1.512,0.010,-0.055
1.514,-0.120,-0.055
1.516,-0.160,-0.055
1.518,-0.165,-0.055
1.520,-0.110,-0.050
1.522,0.005,-0.045
1.524,0.090,-0.040
1.526,0.095,-0.035
1.528,0.155,-0.035
1.530,0.100,-0.030
1.532,0.035,-0.030
1.534,-0.085,-0.035
1.536,-0.120,-0.040
1.538,-0.135,-0.045
1.540,-0.180,-0.050
1.542,-0.005,-0.050
1.544,0.095,-0.055
1.546,0.135,-0.050
1.548,0.125,-0.050
1.550,0.060,-0.045
1.552,-0.030,-0.040
1.554,-0.085,-0.035
1.556,-0.055,-0.030
1.558,-0.105,-0.030
1.560,-0.095,-0.030
1.562,-0.025,-0.035
1.564,0.095,-0.040
1.566,0.115,-0.050
1.568,0.145,-0.055
1.570,0.100,-0.060
1.572,0.010,-0.060
1.574,-0.185,-0.055
1.576,-0.160,-0.050
1.578,-0.120,-0.040
1.580,-0.075,-0.035
1.582,0.030,-0.030
1.584,0.115,-0.030
1.586,0.150,-0.035
1.588,0.090,-0.040
1.590,0.055,-0.050
1.592,-0.055,-0.060
1.594,-0.135,-0.070
1.596,-0.205,-0.075
1.598,-0.150,-0.075
1.600,-0.130,-0.075
1.602,-0.005,-0.070
1.604,0.075,-0.060
1.606,0.150,-0.050
1.608,0.140,-0.045
1.610,0.075,-0.040
1.612,-0.025,-0.040
1.614,-0.100,-0.040
1.616,-0.160,-0.045
1.618,-0.130,-0.055
1.620,-0.150,-0.060
1.622,-0.005,-0.065
1.624,0.070,-0.070
1.626,0.140,-0.070
1.628,0.185,-0.070
1.630,0.055,-0.065
1.632,-0.080,-0.060
1.634,-0.235,-0.055
1.636,-0.190,-0.050
1.638,-0.090,-0.050
1.640,-0.075,-0.045
1.642,0.015,-0.045
1.644,0.100,-0.045
1.646,0.140,-0.045
1.648,0.175,-0.045
1.650,0.035,-0.045
1.652,-0.155,-0.045
1.654,-0.080,-0.045
1.656,-0.155,-0.045
1.658,-0.155,-0.045
1.660,-0.025,-0.045
1.662,0.055,-0.050
1.664,0.075,-0.055
1.666,0.055,-0.060
1.668,0.090,-0.065
1.670,0.050,-0.065
1.672,-0.050,-0.070
1.674,-0.105,-0.065
1.676,-0.155,-0.060
1.678,-0.180,-0.055
1.680,-0.105,-0.050
1.682,0.050,-0.045
1.684,0.145,-0.045
1.686,0.205,-0.040
1.688,0.135,-0.045
1.690,0.010,-0.050
1.692,-0.110,-0.055
1.694,-0.130,-0.060
1.696,-0.170,-0.065
1.698,-0.165,-0.065
1.700,-0.060,-0.065
1.702,0.045,-0.065
1.704,0.095,-0.060
1.706,0.160,-0.055
1.708,0.120,-0.050
1.710,0.040,-0.045
1.712,-0.015,-0.045
1.714,-0.155,-0.040
1.716,-0.220,-0.040
1.718,-0.130,-0.045
1.720,-0.020,-0.050
1.722,0.040,-0.055
1.724,0.130,-0.055
1.726,0.130,-0.060
1.728,0.115,-0.060
1.730,0.060,-0.060
1.732,-0.080,-0.055
1.734,-0.135,-0.050
1.736,-0.165,-0.045
1.738,-0.115,-0.040
1.740,-0.055,-0.040
1.742,0.105,-0.040
1.744,0.110,-0.045
1.746,0.100,-0.050
1.748,0.110,-0.055
1.750,0.015,-0.055
1.752,-0.090,-0.055
1.754,-0.130,-0.050
1.756,-0.200,-0.045
1.758,-0.135,-0.035
1.760,-0.030,-0.030
1.762,0.195,-0.020
1.764,0.220,-0.020
1.766,0.135,-0.015
1.768,0.110,-0.020
1.770,0.005,-0.020
1.772,-0.070,-0.025
1.774,-0.100,-0.030
1.776,-0.175,-0.035
1.778,-0.085,-0.040
1.780,-0.010,-0.040
1.782,0.070,-0.045
1.784,0.110,-0.050
1.786,0.130,-0.055
1.788,0.005,-0.060
1.790,0.035,-0.065
1.792,-0.115,-0.070
1.794,-0.165,-0.070
1.796,-0.165,-0.065
1.798,-0.120,-0.060
1.800,-0.050,-0.050
1.802,0.110,-0.045
1.804,0.155,-0.035
1.806,0.125,-0.035
1.808,0.080,-0.035
1.810,-0.030,-0.040
1.812,-0.110,-0.050
1.814,-0.145,-0.060
1.816,-0.180,-0.070
1.818,-0.115,-0.080
1.820,-0.010,-0.080
1.822,0.100,-0.085
1.824,0.090,-0.080
1.826,0.095,-0.075
1.828,0.075,-0.065
1.830,-0.030,-0.060
1.832,-0.170,-0.055
1.834,-0.160,-0.050
1.836,-0.165,-0.050
1.838,-0.100,-0.050
1.840,-0.035,-0.050
1.842,0.110,-0.055
1.844,0.120,-0.055
1.846,0.110,-0.055
1.848,0.045,-0.050
1.850,0.015,-0.050
1.852,-0.150,-0.050
1.854,-0.150,-0.050
1.856,-0.145,-0.050
1.858,-0.125,-0.050
1.860,0.000,-0.050
1.862,0.100,-0.045
1.864,0.140,-0.030
1.866,0.170,-0.005
1.868,0.165,0.030
1.870,0.145,0.080
1.872,0.095,0.145
1.874,0.125,0.215
1.876,0.210,0.285
1.878,0.275,0.345
1.880,0.490,0.395
1.882,0.600,0.425
1.884,0.755,0.430
1.886,0.655,0.410
1.888,0.415,0.360
1.890,0.220,0.285
1.892,0.065,0.190
1.894,-0.020,0.085
1.896,-0.160,-0.025
1.898,-0.180,-0.130
1.900,-0.185,-0.220
1.902,-0.185,-0.290
1.904,-0.200,-0.340
1.906,-0.180,-0.370
1.908,-0.240,-0.375
1.910,-0.395,-0.365
1.912,-0.410,-0.340
1.914,-0.395,-0.310
1.916,-0.390,-0.275
1.918,-0.240,-0.240
1.920,-0.075,-0.210
1.922,0.015,-0.185
1.924,-0.045,-0.160
1.926,0.040,-0.145
1.928,0.000,-0.125
1.930,-0.125,-0.110
1.932,-0.170,-0.090
1.934,-0.170,-0.075
1.936,-0.105,-0.060
1.938,-0.025,-0.045
1.940,0.025,-0.035
1.942,0.125,-0.030
1.944,0.145,-0.030
1.946,0.130,-0.030
1.948,0.035,-0.030
1.950,-0.030,-0.035
1.952,-0.135,-0.035
1.954,-0.135,-0.035
1.956,-0.085,-0.035
1.958,-0.045,-0.030
1.960,0.050,-0.025
1.962,0.120,-0.020
1.964,0.215,-0.015
1.966,0.155,-0.015
1.968,-0.005,-0.015
1.970,-0.060,-0.020
1.972,-0.095,-0.020
1.974,-0.115,-0.020
1.976,-0.105,-0.020
1.978,-0.030,-0.020
1.980,0.105,-0.015
1.982,0.155,-0.010
1.984,0.160,-0.010
1.986,0.130,-0.005
1.988,0.045,-0.005
1.990,0.005,-0.005
1.992,-0.140,-0.005
1.994,-0.115,-0.005
1.996,-0.045,-0.010
1.998,0.045,-0.010
2.000,0.090,-0.010
2.002,0.155,-0.005
2.004,0.205,0.000
2.006,0.155,0.000
2.008,0.090,0.005
2.010,-0.030,0.010
2.012,-0.040,0.010
2.014,-0.140,0.015
2.016,-0.150,0.015
2.018,-0.020,0.015
2.020,0.200,0.020
2.022,0.225,0.025
2.024,0.255,0.030
2.026,0.185,0.040
2.028,0.075,0.045
2.030,-0.015,0.055
2.032,-0.020,0.060
2.034,-0.075,0.060
2.036,-0.045,0.055
2.038,0.020,0.050
2.040,0.195,0.040
2.042,0.175,0.035
2.044,0.205,0.030
2.046,0.195,0.030
2.048,0.160,0.035
2.050,0.015,0.050
2.052,-0.035,0.065
2.054,-0.015,0.085
2.056,0.030,0.100
2.058,0.080,0.115
2.060,0.250,0.125
2.062,0.255,0.130
2.064,0.355,0.130
2.066,0.285,0.125
2.068,0.155,0.125
2.070,0.100,0.120
2.072,0.000,0.120
2.074,-0.020,0.130
2.076,0.085,0.140
2.078,0.170,0.150
2.080,0.295,0.165
2.082,0.370,0.180
2.084,0.375,0.190
2.086,0.320,0.195
2.088,0.220,0.195
2.090,0.090,0.195
2.092,0.070,0.195
2.094,0.080,0.195
2.096,0.175,0.195
2.098,0.225,0.200
2.100,0.380,0.205
2.102,0.360,0.210
2.104,0.425,0.210
2.106,0.320,0.215
2.108,0.270,0.210
2.110,0.070,0.200
2.112,0.055,0.190
2.114,0.080,0.180
2.116,0.120,0.165
2.118,0.175,0.155
2.120,0.345,0.145
2.122,0.310,0.140
2.124,0.310,0.135
2.126,0.250,0.130
2.128,0.110,0.120
2.130,-0.010,0.105
2.132,0.015,0.090
2.134,-0.060,0.070
2.136,0.020,0.050
2.138,0.135,0.030
2.140,0.095,0.005
2.142,0.155,-0.010
2.144,0.165,-0.025
2.146,0.120,-0.035
2.148,0.025,-0.040
2.150,-0.070,-0.045
2.152,-0.210,-0.045
2.154,-0.190,-0.045
2.156,-0.100,-0.045
2.158,0.025,-0.045
2.160,0.110,-0.040
2.162,0.085,-0.040
2.164,0.155,-0.040
2.166,0.085,-0.040
2.168,-0.060,-0.040
2.170,-0.150,-0.045
2.172,-0.155,-0.050
2.174,-0.140,-0.060
2.176,-0.090,-0.070
2.178,-0.090,-0.075
2.180,0.010,-0.085
2.182,0.095,-0.090
2.184,0.130,-0.090
2.186,0.020,-0.085
2.188,-0.030,-0.080
2.190,-0.160,-0.075
2.192,-0.190,-0.070
2.194,-0.225,-0.070
2.196,-0.140,-0.065
2.198,0.030,-0.065
2.200,0.060,-0.065
2.202,0.085,-0.065
2.204,0.100,-0.065
2.206,0.025,-0.065
2.208,-0.020,-0.060
2.210,-0.095,-0.055
2.212,-0.185,-0.055
2.214,-0.195,-0.050
2.216,-0.115,-0.055
2.218,0.025,-0.060
2.220,0.040,-0.065
2.222,0.065,-0.075
2.224,0.120,-0.080
2.226,0.020,-0.085
2.228,-0.115,-0.085
2.230,-0.180,-0.085
2.232,-0.185,-0.080
2.234,-0.195,-0.070
2.236,-0.095,-0.065
2.238,0.050,-0.060
2.240,0.090,-0.055
2.242,0.060,-0.055
2.244,0.110,-0.060
2.246,0.030,-0.060
2.248,-0.085,-0.060
2.250,-0.240,-0.065
2.252,-0.205,-0.060
2.254,-0.160,-0.060
2.256,0.015,-0.055
2.258,0.075,-0.055
2.260,0.060,-0.050
2.262,0.115,-0.055
2.264,0.065,-0.060
2.266,-0.040,-0.065
2.268,-0.135,-0.075
2.270,-0.140,-0.085
2.272,-0.245,-0.085
2.274,-0.160,-0.085
2.276,-0.110,-0.080
2.278,0.080,-0.070
2.280,0.080,-0.055
2.282,0.120,-0.040
2.284,0.100,-0.025
2.286,0.095,-0.015
2.288,-0.045,-0.015
2.290,-0.110,-0.015
2.292,-0.165,-0.025
2.294,-0.170,-0.040
2.296,-0.065,-0.050
2.298,0.045,-0.060
2.300,0.075,-0.065
2.302,0.105,-0.065
2.304,0.105,-0.055
2.306,0.055,-0.050
2.308,-0.055,-0.035
2.310,-0.130,-0.030
2.312,-0.195,-0.025
2.314,-0.125,-0.025
2.316,-0.040,-0.030
2.318,0.070,-0.035
2.320,0.120,-0.045
2.322,0.095,-0.050
2.324,0.110,-0.050
2.326,0.030,-0.050
2.328,-0.105,-0.045
2.330,-0.150,-0.040
2.332,-0.170,-0.035
2.334,-0.105,-0.035
2.336,-0.055,-0.030
2.338,0.075,-0.030
2.340,0.125,-0.035
2.342,0.165,-0.035
2.344,0.070,-0.035
2.346,0.005,-0.035
2.348,-0.105,-0.035
2.350,-0.205,-0.035
2.352,-0.175,-0.040
2.354,-0.130,-0.040
2.356,-0.010,-0.045
2.358,0.065,-0.050
2.360,0.065,-0.060
2.362,0.095,-0.065
2.364,0.070,-0.065
2.366,0.010,-0.065
2.368,-0.160,-0.060
2.370,-0.135,-0.050
2.372,-0.145,-0.040
2.374,-0.085,-0.030
2.376,-0.025,-0.025
2.378,0.065,-0.025
2.380,0.105,-0.030
2.382,0.175,-0.040
2.384,0.020,-0.050
2.386,-0.045,-0.060
2.388,-0.110,-0.065
2.390,-0.165,-0.065
2.392,-0.150,-0.065
2.394,-0.065,-0.055
2.396,-0.005,-0.045
2.398,0.090,-0.040
2.400,-0.015,-0.035
2.402,0.055,-0.030
2.404,0.100,-0.035
2.406,0.060,-0.035
2.408,-0.090,-0.040
2.410,-0.155,-0.045
2.412,-0.160,-0.045
2.414,-0.100,-0.040
2.416,0.000,-0.035
2.418,0.080,-0.025
2.420,0.140,-0.020
2.422,0.130,-0.020
2.424,0.055,-0.025
2.426,0.000,-0.030
2.428,-0.145,-0.045
2.430,-0.210,-0.055
2.432,-0.210,-0.070
2.434,-0.130,-0.075
2.436,-0.020,-0.080
2.438,0.100,-0.075
2.440,0.100,-0.065
2.442,0.080,-0.050
2.444,0.090,-0.030
2.446,-0.025,-0.020
2.448,-0.140,-0.010
2.450,-0.215,-0.005
2.452,-0.170,-0.010
2.454,0.000,-0.020
2.456,0.030,-0.035
2.458,0.040,-0.050
2.460,0.080,-0.060
2.462,0.100,-0.070
2.464,-0.005,-0.070
2.466,-0.090,-0.065
2.468,-0.160,-0.055
2.470,-0.150,-0.045
2.472,-0.130,-0.030
2.474,-0.105,-0.020
2.476,0.035,-0.010
2.478,0.115,-0.010
2.480,0.125,-0.010
2.482,0.085,-0.020
2.484,-0.005,-0.030
2.486,-0.100,-0.035
2.488,-0.145,-0.045
2.490,-0.150,-0.050
2.492,-0.110,-0.050
2.494,-0.085,-0.045
2.496,-0.005,-0.040
2.498,0.065,-0.030
2.500,0.155,-0.020
2.502,0.125,-0.010
2.504,0.040,-0.005
2.506,-0.070,0.000
2.508,-0.110,-0.005
2.510,-0.160,-0.010
2.512,-0.130,-0.020
2.514,-0.090,-0.030
2.516,-0.030,-0.040
2.518,0.065,-0.045
2.520,0.100,-0.045
2.522,0.125,-0.040
2.524,0.055,-0.030
2.526,-0.025,-0.020
2.528,-0.035,-0.005
2.530,-0.150,0.010
2.532,-0.140,0.020
2.534,0.000,0.025
2.536,0.050,0.025
2.538,0.160,0.015
2.540,0.150,0.005
2.542,0.100,-0.010
2.544,0.015,-0.025
2.546,-0.125,-0.040
2.548,-0.180,-0.045
2.550,-0.165,-0.050
2.552,-0.155,-0.050
2.554,-0.060,-0.045
2.556,0.065,-0.035
2.558,0.105,-0.030
2.560,0.110,-0.020
2.562,0.100,-0.015
2.564,-0.025,-0.015
2.566,-0.115,-0.020
2.568,-0.180,-0.025
2.570,-0.170,-0.030
2.572,-0.110,-0.035
2.574,-0.040,-0.040
2.576,0.085,-0.040
2.578,0.100,-0.040
2.580,0.115,-0.035
2.582,0.065,-0.025
2.584,0.030,-0.020
2.586,-0.095,-0.010
2.588,-0.165,-0.010
2.590,-0.140,-0.010
2.592,-0.140,-0.015
2.594,-0.060,-0.020
2.596,0.030,-0.030
2.598,0.045,-0.035
2.600,0.125,-0.045
2.602,0.075,-0.045
2.604,0.035,-0.045
2.606,-0.120,-0.040
2.608,-0.235,-0.035
2.610,-0.180,-0.030
2.612,-0.170,-0.025
2.614,-0.020,-0.025
2.616,0.065,-0.025
2.618,0.100,-0.025
2.620,0.130,-0.025
2.622,0.065,-0.030
2.624,0.020,-0.030
2.626,-0.115,-0.030
2.628,-0.180,-0.025
2.630,-0.185,-0.015
2.632,-0.050,0.000
2.634,0.000,0.015
2.636,0.120,0.045
2.638,0.210,0.085
2.640,0.330,0.130
2.642,0.315,0.190
2.644,0.275,0.255
2.646,0.180,0.325
2.648,0.240,0.390
2.650,0.335,0.440
2.652,0.470,0.470
2.654,0.540,0.470
2.656,0.570,0.435
2.658,0.430,0.370
2.660,0.315,0.275
2.662,0.240,0.160
2.664,0.065,0.040
2.666,-0.180,-0.075
2.668,-0.355,-0.175
2.670,-0.485,-0.250
2.672,-0.425,-0.300
2.674,-0.285,-0.325
2.676,-0.175,-0.325
2.678,-0.160,-0.315
2.680,-0.215,-0.290
2.682,-0.200,-0.265
2.684,-0.255,-0.240
2.686,-0.355,-0.220
2.688,-0.300,-0.200
2.690,-0.365,-0.180
2.692,-0.225,-0.160
2.694,-0.080,-0.140
2.696,0.015,-0.115
2.698,0.075,-0.085
2.700,0.100,-0.060
2.702,0.020,-0.035
2.704,-0.015,-0.015
2.706,-0.080,0.000
2.708,-0.165,0.010
2.710,-0.180,0.020
2.712,-0.065,0.020
2.714,0.015,0.020
2.716,0.105,0.020
2.718,0.180,0.025
2.720,0.175,0.025
2.722,0.105,0.025
2.724,-0.015,0.025
2.726,-0.105,0.025
2.728,-0.120,0.020
2.730,-0.165,0.015
2.732,-0.080,0.010
2.734,0.065,0.010
2.736,0.165,0.010
2.738,0.160,0.010
2.740,0.170,0.020
2.742,0.065,0.030
2.744,-0.015,0.035
2.746,-0.095,0.045
2.748,-0.050,0.050
2.750,-0.110,0.050
2.752,-0.050,0.050
2.754,0.095,0.050
2.756,0.155,0.045
2.758,0.140,0.040
2.760,0.135,0.040
2.762,0.140,0.045
2.764,0.025,0.050
2.766,-0.040,0.055
2.768,-0.125,0.060
2.770,-0.045,0.060
2.772,-0.035,0.060
2.774,0.025,0.055
2.776,0.135,0.050
2.778,0.210,0.045
2.780,0.220,0.040
2.782,0.150,0.040
2.784,-0.040,0.045
2.786,-0.170,0.050
2.788,-0.140,0.060
2.790,-0.045,0.070
2.792,0.075,0.075
2.794,0.195,0.085
2.796,0.160,0.085
2.798,0.200,0.090
2.800,0.185,0.090
2.802,0.175,0.095
2.804,0.040,0.095
2.806,-0.055,0.100
2.808,-0.030,0.110
2.810,-0.010,0.115
2.812,0.070,0.120
2.814,0.180,0.125
2.816,0.235,0.130
2.818,0.265,0.130
2.820,0.150,0.130
2.822,0.185,0.135
2.824,0.095,0.140
2.826,0.050,0.145
2.828,0.010,0.155
2.830,0.055,0.170
2.832,0.120,0.180
2.834,0.215,0.190
2.836,0.315,0.200
2.838,0.340,0.205
2.840,0.285,0.205
2.842,0.235,0.210
2.844,0.145,0.210
2.846,0.060,0.215
2.848,0.040,0.225
2.850,0.110,0.235
2.852,0.185,0.250
2.854,0.375,0.260
2.856,0.415,0.275
2.858,0.385,0.280
2.860,0.310,0.280
2.862,0.285,0.270
2.864,0.155,0.260
2.866,0.105,0.250
2.868,0.115,0.240
2.870,0.190,0.235
2.872,0.195,0.235
2.874,0.320,0.240
2.876,0.385,0.255
2.878,0.365,0.265
2.880,0.350,0.275
2.882,0.255,0.280
2.884,0.155,0.275
2.886,0.110,0.270
2.888,0.080,0.255
2.890,0.135,0.235
2.892,0.185,0.215
2.894,0.315,0.200
2.896,0.275,0.185
2.898,0.280,0.170
2.900,0.260,0.155
2.902,0.160,0.140
2.904,0.010,0.125
2.906,-0.105,0.110
2.908,-0.095,0.095
2.910,0.015,0.075
2.912,0.025,0.065
2.914,0.130,0.055
2.916,0.215,0.050
2.918,0.195,0.055
2.920,0.155,0.060
2.922,0.100,0.065
2.924,-0.080,0.065
2.926,-0.175,0.060
2.928,-0.110,0.055
2.930,-0.085,0.040
2.932,0.030,0.025
2.934,0.090,0.010
2.936,0.090,0.000
2.938,0.170,-0.010
2.940,0.110,-0.010
2.942,-0.080,-0.010
2.944,-0.110,-0.005
2.946,-0.150,0.000
2.948,-0.135,0.005
2.950,-0.100,0.005
2.952,-0.070,0.005
2.954,0.105,0.000
2.956,0.125,0.000
2.958,0.135,0.000
2.960,0.060,0.005
2.962,-0.035,0.010
2.964,-0.150,0.015
2.966,-0.125,0.020
2.968,-0.155,0.020
2.970,-0.100,0.015
2.972,0.005,0.005
2.974,0.155,-0.005
2.976,0.075,-0.015
2.978,0.100,-0.020
2.980,0.085,-0.025
2.982,-0.010,-0.025
2.984,-0.175,-0.015
2.986,-0.160,-0.010
2.988,-0.185,0.000
2.990,-0.155,0.005
2.992,0.005,0.005
2.994,0.055,0.000
2.996,0.105,-0.005
2.998,0.140,-0.010
3.000,0.070,-0.015
3.002,-0.030,-0.010
3.004,-0.130,-0.005
3.006,-0.165,0.000
3.008,-0.140,0.010
3.010,-0.095,0.015
3.012,0.030,0.020
3.014,0.085,0.015
3.016,0.120,0.005
3.018,0.155,-0.005
3.020,0.030,-0.015
3.022,-0.155,-0.025
3.024,-0.160,-0.025
3.026,-0.140,-0.025
3.028,-0.150,-0.015
3.030,-0.065,-0.005
3.032,0.050,0.005
3.034,0.055,0.015
3.036,0.160,0.020
3.038,0.160,0.020
3.040,0.075,0.015
3.042,-0.120,0.010
3.044,-0.090,0.005
3.046,-0.165,0.000
3.048,-0.190,-0.005
3.050,-0.095,-0.005
3.052,0.010,0.000
3.054,0.065,0.000
3.056,0.175,0.005
3.058,0.170,0.010
3.060,0.060,0.015
3.062,-0.045,0.015
3.064,-0.120,0.015
3.066,-0.165,0.015
3.068,-0.165,0.010
3.070,-0.055,0.005
3.072,0.065,0.000
3.074,0.100,-0.005
3.076,0.090,-0.010
3.078,0.085,-0.010
3.080,0.045,-0.010
3.082,-0.070,-0.005
3.084,-0.135,0.000
3.086,-0.195,0.010
3.088,-0.105,0.015
3.090,-0.020,0.025
3.092,0.050,0.025
3.094,0.110,0.025
3.096,0.130,0.020
3.098,0.110,0.010
3.100,0.085,0.005
3.102,-0.120,-0.005
3.104,-0.160,-0.010
3.106,-0.195,-0.015
3.108,-0.115,-0.015
3.110,-0.045,-0.015
3.112,0.040,-0.010
3.114,0.095,-0.005
3.116,0.115,-0.005
3.118,0.120,0.000
3.120,0.070,0.005
3.122,-0.120,0.005
3.124,-0.120,0.005
3.126,-0.175,0.005
3.128,-0.125,0.000
3.130,-0.035,0.000
3.132,0.045,-0.005
3.134,0.045,-0.005
3.136,0.150,-0.010
3.138,0.055,-0.005
3.140,0.040,-0.005
3.142,-0.095,0.000
3.144,-0.150,0.000
3.146,-0.180,0.005
3.148,-0.090,0.010
3.150,-0.015,0.010
3.152,0.055,0.005
3.154,0.140,0.000
3.156,0.170,0.000
3.158,0.030,-0.005
3.160,0.000,-0.010
3.162,-0.115,-0.010
3.164,-0.150,-0.005
3.166,-0.175,0.000
3.168,-0.120,0.005
3.170,-0.030,0.010
3.172,0.145,0.010
3.174,0.120,0.015
3.176,0.165,0.015
3.178,0.135,0.015
3.180,0.015,0.010
3.182,-0.150,0.010
3.184,-0.165,0.010
3.186,-0.210,0.005
3.188,-0.090,0.005
3.190,-0.010,0.000
3.192,0.040,-0.005
3.194,0.135,-0.010
3.196,0.130,-0.015
3.198,0.060,-0.015
3.200,-0.075,-0.015
3.202,-0.115,-0.010
3.204,-0.160,0.000
3.206,-0.165,0.010
3.208,-0.055,0.020
3.210,0.015,0.025
3.212,0.080,0.025
3.214,0.165,0.025
3.216,0.165,0.015
3.218,0.035,0.005
3.220,-0.060,-0.005
3.222,-0.120,-0.010
3.224,-0.200,-0.015
3.226,-0.165,-0.015
3.228,-0.050,-0.010
3.230,0.025,0.000
3.232,0.075,0.005
3.234,0.040,0.010
3.236,0.145,0.015
3.238,0.130,0.015
3.240,-0.005,0.015
3.242,-0.105,0.010
3.244,-0.155,0.005
3.246,-0.225,0.000
3.248,-0.180,-0.005
3.250,0.010,-0.005
3.252,0.105,-0.005
3.254,0.170,-0.005
3.256,0.125,0.000
3.258,0.115,0.000
3.260,-0.040,0.000
3.262,-0.165,0.000
3.264,-0.165,0.000
3.266,-0.150,0.000
3.268,-0.075,0.000
3.270,0.005,-0.005
3.272,0.140,-0.005
3.274,0.105,-0.005
3.276,0.115,-0.005
3.278,0.090,-0.010
3.280,-0.045,-0.010
3.282,-0.115,-0.010
3.284,-0.160,-0.010
3.286,-0.145,-0.010
3.288,-0.070,-0.005
3.290,0.050,0.005
3.292,0.105,0.010
3.294,0.160,0.020
3.296,0.160,0.025
3.298,0.130,0.035
3.300,0.005,0.035
3.302,-0.075,0.035
3.304,-0.145,0.035
3.306,-0.125,0.030
3.308,-0.035,0.025
3.310,0.055,0.020
3.312,0.100,0.015
3.314,0.160,0.010
3.316,0.125,0.010
3.318,0.040,0.005
3.320,-0.090,0.005
3.322,-0.175,0.005
3.324,-0.090,0.000
3.326,-0.110,-0.005
3.328,-0.125,-0.010
3.330,-0.025,-0.015
3.332,0.090,-0.020
3.334,0.150,-0.025
3.336,0.100,-0.030
3.338,0.085,-0.025
3.340,-0.100,-0.025
3.342,-0.130,-0.020
3.344,-0.145,-0.010
3.346,-0.155,-0.005
3.348,-0.080,0.000
3.350,0.030,0.005
3.352,0.115,0.005
3.354,0.235,0.005
3.356,0.120,0.005
3.358,0.050,0.000
3.360,-0.055,0.000
3.362,-0.155,0.000
3.364,-0.170,0.000
3.366,-0.115,0.000
3.368,-0.050,0.000
3.370,0.040,-0.005
3.372,0.095,-0.010
3.374,0.115,-0.015
3.376,0.040,-0.025
3.378,0.035,-0.035
3.380,-0.115,-0.045
3.382,-0.190,-0.050
3.384,-0.175,-0.050
3.386,-0.135,-0.050
3.388,-0.040,-0.045
3.390,0.030,-0.040
3.392,0.110,-0.030
3.394,0.030,-0.020
3.396,0.110,-0.015
3.398,0.090,-0.010
3.400,-0.080,0.000
3.402,-0.125,0.015
3.404,-0.075,0.045
3.406,-0.015,0.085
3.408,0.130,0.135
3.410,0.345,0.205
3.412,0.405,0.280
3.414,0.475,0.360
3.416,0.600,0.425
3.418,0.570,0.470
3.420,0.450,0.485
3.422,0.375,0.470
3.424,0.325,0.415
3.426,0.230,0.330
3.428,0.090,0.225
3.430,0.210,0.110
3.432,0.135,-0.005
3.434,0.055,-0.110
3.436,-0.110,-0.190
3.438,-0.290,-0.255
3.440,-0.410,-0.290
3.442,-0.410,-0.310
3.444,-0.485,-0.315
3.446,-0.470,-0.315
3.448,-0.380,-0.305
3.450,-0.140,-0.295
3.452,-0.125,-0.280
3.454,-0.095,-0.260
3.456,-0.080,-0.240
3.458,-0.145,-0.210
3.460,-0.230,-0.175
3.462,-0.250,-0.135
3.464,-0.220,-0.100
3.466,-0.140,-0.065
3.468,-0.015,-0.040
3.470,0.090,-0.025
3.472,0.140,-0.020
3.474,0.160,-0.015
3.476,0.135,-0.020
3.478,-0.035,-0.025
3.480,-0.100,-0.025
3.482,-0.145,-0.025
3.484,-0.130,-0.020
3.486,-0.050,-0.015
3.488,0.005,-0.010
3.490,0.130,-0.010
3.492,0.125,-0.010
3.494,0.125,-0.010
3.496,0.080,-0.010
3.498,0.005,-0.010
3.500,-0.065,-0.010
3.502,-0.110,-0.005
3.504,-0.125,0.000
3.506,-0.105,0.010
3.508,0.050,0.015
3.510,0.165,0.020
3.512,0.180,0.025
3.514,0.165,0.025
3.516,0.115,0.020
3.518,-0.015,0.015
3.520,-0.070,0.010
3.522,-0.115,0.010
3.524,-0.115,0.010
3.526,-0.030,0.015
3.528,0.030,0.020
3.530,0.190,0.030
3.532,0.240,0.030
3.534,0.170,0.035
3.536,0.060,0.030
3.538,0.040,0.030
3.540,-0.070,0.020
3.542,-0.120,0.015
3.544,-0.060,0.015
3.546,-0.030,0.010
3.548,0.065,0.015
3.550,0.200,0.015
3.552,0.175,0.020
3.554,0.175,0.025
3.556,0.140,0.030
3.558,0.090,0.030
3.560,-0.035,0.030
3.562,-0.040,0.025
3.564,-0.150,0.025
3.566,-0.030,0.025
3.568,0.095,0.025
3.570,0.125,0.030
3.572,0.215,0.035
3.574,0.280,0.045
3.576,0.210,0.055
3.578,0.045,0.065
3.580,0.005,0.070
3.582,-0.060,0.070
3.584,-0.085,0.075
3.586,-0.010,0.070
3.588,0.170,0.070
3.590,0.245,0.070
3.592,0.210,0.070
3.594,0.275,0.070
3.596,0.205,0.075
3.598,0.130,0.085
3.600,0.055,0.095
3.602,0.005,0.105
3.604,-0.035,0.115
3.606,0.060,0.120
3.608,0.235,0.125
3.610,0.300,0.130
3.612,0.310,0.135
3.614,0.310,0.145
3.616,0.315,0.150
3.618,0.165,0.155
3.620,0.105,0.165
3.622,0.055,0.170
3.624,0.050,0.180
3.626,0.160,0.180
3.628,0.220,0.185
3.630,0.385,0.180
3.632,0.370,0.175
3.634,0.325,0.175
3.636,0.315,0.170
3.638,0.195,0.170
3.640,0.110,0.175
3.642,0.015,0.180
3.644,0.125,0.185
3.646,0.200,0.190
3.648,0.350,0.190
3.650,0.370,0.190
3.652,0.310,0.180
3.654,0.320,0.165
3.656,0.360,0.145
3.658,0.150,0.125
3.660,-0.045,0.105
3.662,-0.010,0.085
3.664,0.040,0.065
3.666,0.010,0.055
3.668,0.145,0.045
3.670,0.225,0.040
3.672,0.255,0.035
3.674,0.180,0.030
3.676,0.125,0.025
3.678,0.035,0.010
3.680,-0.110,-0.005
3.682,-0.175,-0.025
3.684,-0.085,-0.040
3.686,-0.040,-0.060
3.688,0.070,-0.070
3.690,0.105,-0.080
3.692,0.150,-0.085
3.694,0.135,-0.085
3.696,-0.040,-0.080
3.698,-0.035,-0.075
3.700,-0.105,-0.070
3.702,-0.190,-0.070
3.704,-0.110,-0.070
3.706,-0.070,-0.075
3.708,0.035,-0.080
3.710,0.100,-0.090
3.712,0.175,-0.095
3.714,0.075,-0.095
3.716,-0.020,-0.095
3.718,-0.155,-0.095
3.720,-0.180,-0.095
3.722,-0.120,-0.090
3.724,-0.080,-0.090
3.726,-0.075,-0.090
3.728,-0.020,-0.095
3.730,0.095,-0.100
3.732,0.125,-0.105
3.734,0.070,-0.110
3.736,-0.035,-0.115
3.738,-0.170,-0.115
3.740,-0.185,-0.115
3.742,-0.140,-0.110
3.744,-0.105,-0.110
3.746,-0.110,-0.110
3.748,0.120,-0.110
3.750,0.045,-0.110
3.752,0.115,-0.110
3.754,0.030,-0.115
3.756,0.015,-0.115
3.758,-0.120,-0.115
3.760,-0.180,-0.110
3.762,-0.155,-0.110
3.764,-0.105,-0.110
3.766,-0.025,-0.110
3.768,0.065,-0.110
3.770,0.100,-0.110
3.772,0.135,-0.115
3.774,0.030,-0.120
3.776,-0.010,-0.120
3.778,-0.160,-0.125
3.780,-0.205,-0.125
3.782,-0.120,-0.125
3.784,-0.170,-0.125
3.786,0.005,-0.120
3.788,0.090,-0.120
3.790,0.090,-0.115
3.792,0.115,-0.110
3.794,0.120,-0.105
3.796,-0.005,-0.100
3.798,-0.160,-0.095
3.800,-0.160,-0.090
3.802,-0.165,-0.090
3.804,-0.070,-0.085
3.806,0.015,-0.085
3.808,0.090,-0.090
3.810,0.150,-0.100
3.812,0.145,-0.105
3.814,0.040,-0.115
3.816,-0.040,-0.125
3.818,-0.105,-0.130
3.820,-0.200,-0.130
3.822,-0.190,-0.125
3.824,-0.065,-0.120
3.826,0.000,-0.110
3.828,0.120,-0.105
3.830,0.135,-0.100
3.832,0.115,-0.100
3.834,0.085,-0.100
3.836,-0.070,-0.105
3.838,-0.110,-0.115
3.840,-0.130,-0.120
3.842,-0.095,-0.120
3.844,-0.065,-0.120
3.846,0.010,-0.115
3.848,0.050,-0.110
3.850,0.120,-0.105
3.852,0.195,-0.100
3.854,0.045,-0.105
3.856,0.005,-0.105
3.858,-0.145,-0.115
3.860,-0.155,-0.120
3.862,-0.155,-0.125
3.864,-0.090,-0.130
3.866,0.060,-0.125
3.868,0.135,-0.120
3.870,0.150,-0.115
3.872,0.075,-0.105
3.874,0.060,-0.105
3.876,-0.040,-0.100
3.878,-0.125,-0.105
3.880,-0.170,-0.110
3.882,-0.115,-0.120
3.884,-0.100,-0.125
3.886,0.025,-0.130
3.888,0.105,-0.135
3.890,0.175,-0.130
3.892,0.125,-0.125
3.894,0.100,-0.120
3.896,-0.085,-0.115
3.898,-0.130,-0.110
3.900,-0.170,-0.110
3.902,-0.175,-0.115
3.904,-0.095,-0.125
3.906,0.100,-0.135
3.908,0.100,-0.140
3.910,0.150,-0.145
3.912,0.060,-0.145
3.914,0.080,-0.140
3.916,-0.070,-0.135
3.918,-0.125,-0.125
3.920,-0.150,-0.115
3.922,-0.060,-0.110
3.924,-0.040,-0.105
3.926,0.085,-0.100
3.928,0.135,-0.105
3.930,0.145,-0.105
3.932,0.150,-0.115
3.934,0.045,-0.120
3.936,-0.070,-0.120
3.938,-0.130,-0.125
3.940,-0.150,-0.125
3.942,-0.120,-0.120
3.944,-0.030,-0.115
3.946,0.130,-0.110
3.948,0.175,-0.105
3.950,0.165,-0.105
3.952,0.115,-0.105
3.954,-0.015,-0.110
3.956,-0.040,-0.115
3.958,-0.110,-0.125
3.960,-0.080,-0.135
3.962,-0.150,-0.140
3.964,-0.095,-0.145
3.966,0.105,-0.145
3.968,0.110,-0.140
3.970,0.100,-0.135
3.972,0.130,-0.125
3.974,0.100,-0.120
3.976,-0.030,-0.115
3.978,-0.075,-0.110
3.980,-0.140,-0.105
3.982,-0.105,-0.105
3.984,-0.005,-0.110
3.986,0.135,-0.110
3.988,0.185,-0.110
3.990,0.175,-0.110
3.992,0.160,-0.110
3.994,0.045,-0.115
3.996,-0.065,-0.120
3.998,-0.175,-0.125
4.000,-0.135,-0.135
4.002,-0.085,-0.140
4.004,-0.050,-0.150
4.006,0.085,-0.150
4.008,0.165,-0.145
4.010,0.220,-0.140
4.012,0.195,-0.125
4.014,0.110,-0.105
4.016,-0.085,-0.090
4.018,-0.030,-0.080
4.020,-0.075,-0.075
4.022,-0.075,-0.080
4.024,-0.030,-0.095
4.026,0.090,-0.115
4.028,0.190,-0.135
4.030,0.175,-0.150
4.032,0.065,-0.160
4.034,0.040,-0.165
4.036,-0.020,-0.155
4.038,-0.075,-0.140
4.040,-0.105,-0.120
4.042,-0.020,-0.100
4.044,0.025,-0.085
4.046,0.150,-0.080
4.048,0.215,-0.075
4.050,0.210,-0.085
4.052,0.200,-0.095
4.054,0.055,-0.110
4.056,-0.085,-0.125
4.058,-0.085,-0.135
4.060,-0.075,-0.140
4.062,-0.005,-0.135
4.064,0.020,-0.130
4.066,0.110,-0.120
4.068,0.225,-0.110
4.070,0.195,-0.105
4.072,0.150,-0.105
4.074,0.080,-0.105
4.076,0.025,-0.110
4.078,-0.060,-0.110
4.080,-0.070,-0.115
4.082,-0.020,-0.115
4.084,0.080,-0.110
4.086,0.230,-0.100
4.088,0.215,-0.085
4.090,0.210,-0.075
4.092,0.140,-0.060
4.094,0.155,-0.050
4.096,0.050,-0.045
4.098,0.045,-0.040
4.100,0.015,-0.045
4.102,0.000,-0.050
4.104,0.130,-0.055
4.106,0.255,-0.065
4.108,0.255,-0.070
4.110,0.215,-0.080
4.112,0.145,-0.085
4.114,0.065,-0.085
4.116,0.025,-0.090
4.118,0.005,-0.090
4.120,-0.030,-0.090
4.122,0.045,-0.090
4.124,0.180,-0.090
4.126,0.185,-0.090
4.128,0.160,-0.095
4.130,0.200,-0.095
4.132,0.165,-0.095
4.134,0.120,-0.095
4.136,0.015,-0.095
4.138,-0.025,-0.095
4.140,-0.045,-0.095
4.142,0.015,-0.090
4.144,0.105,-0.085
4.146,0.245,-0.085
4.148,0.255,-0.080
4.150,0.330,-0.075
4.152,0.190,-0.070
4.154,0.040,-0.070
4.156,0.020,-0.065
4.158,0.010,-0.060
4.160,0.055,-0.060
4.162,0.085,-0.055
4.164,0.145,-0.055
4.166,0.290,-0.060
4.168,0.255,-0.060
4.170,0.275,-0.065
4.172,0.195,-0.070
4.174,0.060,-0.075
4.176,0.015,-0.080
4.178,-0.055,-0.085
4.180,0.000,-0.085
4.182,0.105,-0.080
4.184,0.180,-0.075
4.186,0.335,-0.070
4.188,0.235,-0.065
4.190,0.280,-0.060
4.192,0.250,-0.055
4.194,0.045,-0.050
4.196,0.005,-0.045
4.198,0.080,-0.030
4.200,0.110,-0.010
4.202,0.190,0.020
4.204,0.340,0.065
4.206,0.470,0.120
4.208,0.560,0.185
4.210,0.600,0.260
4.212,0.620,0.330
4.214,0.600,0.390
4.216,0.575,0.440
4.218,0.600,0.460
4.220,0.640,0.450
4.222,0.600,0.410
4.224,0.590,0.335
4.226,0.520,0.240
4.228,0.435,0.130
4.230,0.365,0.020
4.232,0.155,-0.090
4.234,-0.050,-0.185
4.236,-0.230,-0.260
4.238,-0.260,-0.310
4.240,-0.200,-0.340
4.242,-0.150,-0.350
4.244,-0.045,-0.350
4.246,-0.015,-0.340
4.248,-0.045,-0.320
4.250,0.040,-0.300
4.252,0.030,-0.275
4.254,-0.055,-0.245
4.256,-0.065,-0.215
4.258,-0.065,-0.175
4.260,-0.050,-0.140
4.262,0.040,-0.100
4.264,0.340,-0.065
4.266,0.365,-0.035
4.268,0.310,-0.015
4.270,0.260,-0.010
4.272,0.310,-0.010
4.274,0.115,-0.015
4.276,0.095,-0.025
4.278,0.065,-0.035
4.280,0.085,-0.040
4.282,0.210,-0.035
4.284,0.330,-0.030
4.286,0.330,-0.020
4.288,0.295,-0.010
4.290,0.370,-0.005
4.292,0.280,-0.005
4.294,0.085,-0.010
4.296,0.085,-0.015
4.298,0.095,-0.020
4.300,0.155,-0.025
4.302,0.240,-0.020
4.304,0.360,-0.015
4.306,0.365,-0.005
4.308,0.425,0.010
4.310,0.365,0.020
4.312,0.270,0.030
4.314,0.145,0.030
4.316,0.130,0.030
4.318,0.140,0.025
4.320,0.160,0.020
4.322,0.275,0.015
4.324,0.375,0.010
4.326,0.405,0.015
4.328,0.450,0.020
4.330,0.400,0.025
4.332,0.285,0.030
4.334,0.210,0.030
4.336,0.105,0.030
4.338,0.135,0.025
4.340,0.145,0.015
4.342,0.270,0.010
4.344,0.360,0.005
4.346,0.410,0.005
4.348,0.415,0.005
4.350,0.385,0.015
4.352,0.325,0.025
4.354,0.200,0.035
4.356,0.170,0.050
4.358,0.180,0.055
4.360,0.235,0.060
4.362,0.345,0.065
4.364,0.450,0.065
4.366,0.470,0.065
4.368,0.420,0.065
4.370,0.385,0.070
4.372,0.380,0.075
4.374,0.300,0.080
4.376,0.265,0.090
4.378,0.190,0.095
4.380,0.245,0.105
4.382,0.410,0.110
4.384,0.490,0.115
4.386,0.530,0.115
4.388,0.525,0.120
4.390,0.435,0.120
4.392,0.395,0.125
4.394,0.315,0.125
4.396,0.280,0.130
4.398,0.280,0.135
4.400,0.315,0.140
4.402,0.415,0.145
4.404,0.495,0.150
4.406,0.590,0.160
4.408,0.580,0.170
4.410,0.535,0.180
4.412,0.500,0.190
4.414,0.410,0.200
4.416,0.305,0.210
4.418,0.345,0.215
4.420,0.450,0.220
4.422,0.540,0.220
4.424,0.640,0.220
4.426,0.650,0.220
4.428,0.670,0.220
4.430,0.565,0.220
4.432,0.475,0.225
4.434,0.375,0.230
4.436,0.350,0.235
4.438,0.440,0.240
4.440,0.465,0.250
4.442,0.575,0.255
4.444,0.675,0.260
4.446,0.715,0.260
4.448,0.650,0.260
4.450,0.640,0.255
4.452,0.545,0.250
4.454,0.375,0.245
4.456,0.375,0.235
4.458,0.370,0.220
4.460,0.425,0.205
4.462,0.525,0.190
4.464,0.575,0.175
4.466,0.575,0.155
4.468,0.555,0.140
4.470,0.450,0.125
4.472,0.370,0.110
4.474,0.265,0.100
4.476,0.235,0.095
4.478,0.275,0.085
4.480,0.295,0.075
4.482,0.380,0.065
4.484,0.500,0.055
4.486,0.480,0.045
4.488,0.460,0.035
4.490,0.425,0.030
4.492,0.290,0.025
4.494,0.195,0.025
4.496,0.165,0.030
4.498,0.230,0.035
4.500,0.215,0.040
4.502,0.430,0.045
4.504,0.500,0.050
4.506,0.520,0.045
4.508,0.440,0.035
4.510,0.355,0.025
4.512,0.175,0.015
4.514,0.190,0.010
4.516,0.175,0.005
4.518,0.220,0.005
4.520,0.280,0.010
4.522,0.430,0.020
4.524,0.465,0.025
4.526,0.460,0.025
4.528,0.390,0.025
4.530,0.360,0.020
4.532,0.245,0.010
4.534,0.170,0.000
4.536,0.130,-0.005
4.538,0.215,-0.010
4.540,0.285,-0.010
4.542,0.365,-0.010
4.544,0.380,-0.005
4.546,0.445,0.000
4.548,0.495,0.005
4.550,0.360,0.005
4.552,0.205,0.000
4.554,0.165,0.000
4.556,0.235,0.000
4.558,0.200,0.005
4.560,0.325,0.010
4.562,0.445,0.020
4.564,0.485,0.030
4.566,0.460,0.035
4.568,0.425,0.035
4.570,0.355,0.025
4.572,0.255,0.015
4.574,0.200,0.000
4.576,0.210,-0.015
4.578,0.210,-0.020
4.580,0.310,-0.015
4.582,0.415,0.000
4.584,0.470,0.015
4.586,0.485,0.035
4.588,0.445,0.040
4.590,0.345,0.035
4.592,0.225,0.010
4.594,0.200,-0.020
4.596,0.165,-0.060
4.598,0.295,-0.095
4.600,0.245,-0.115
4.602,0.165,-0.115
4.604,0.255,-0.095
4.606,0.270,-0.050
4.608,0.385,0.005
4.610,0.470,0.055
4.612,0.480,0.095
4.614,0.505,0.110
4.616,0.455,0.105
4.618,0.385,0.085
4.620,0.325,0.050
4.622,0.160,0.015
4.624,0.235,-0.005
4.626,0.265,-0.015
4.628,0.390,-0.005
4.630,0.520,0.015
4.632,0.515,0.040
4.634,0.495,0.060
4.636,0.455,0.065
4.638,0.340,0.060
4.640,0.255,0.045
4.642,0.195,0.025
4.644,0.210,0.000
4.646,0.345,-0.010
4.648,0.355,-0.015
4.650,0.410,-0.005
4.652,0.505,0.010
4.654,0.515,0.030
4.656,0.455,0.040
4.658,0.340,0.045
4.660,0.225,0.040
4.662,0.235,0.030
4.664,0.235,0.020
4.666,0.280,0.010
4.668,0.390,0.005
4.670,0.520,0.010
4.672,0.535,0.020
4.674,0.525,0.035
4.676,0.460,0.045
4.678,0.335,0.055
4.680,0.280,0.055
4.682,0.275,0.045
4.684,0.250,0.035
4.686,0.240,0.025
4.688,0.455,0.015
4.690,0.520,0.010
4.692,0.555,0.010
4.694,0.450,0.015
4.696,0.415,0.020
4.698,0.345,0.030
4.700,0.280,0.030
4.702,0.245,0.030
4.704,0.265,0.030
4.706,0.305,0.025
4.708,0.395,0.020
4.710,0.505,0.020
4.712,0.535,0.025
4.714,0.490,0.030
4.716,0.450,0.035
4.718,0.335,0.040
4.720,0.305,0.040
4.722,0.275,0.040
4.724,0.305,0.035
4.726,0.280,0.030
4.728,0.415,0.025
4.730,0.505,0.020
4.732,0.520,0.020
4.734,0.515,0.020
4.736,0.525,0.030
4.738,0.345,0.035
4.740,0.270,0.045
4.742,0.240,0.050
4.744,0.290,0.055
4.746,0.350,0.050
4.748,0.435,0.045
4.750,0.505,0.040
4.752,0.550,0.030
4.754,0.485,0.020
4.756,0.440,0.015
4.758,0.340,0.010
4.760,0.270,0.010
4.762,0.300,0.015
4.764,0.260,0.020
4.766,0.325,0.030
4.768,0.455,0.035
4.770,0.510,0.045
4.772,0.570,0.045
4.774,0.535,0.050
4.776,0.500,0.050
4.778,0.355,0.045
4.780,0.255,0.040
4.782,0.225,0.035
4.784,0.270,0.030
4.786,0.375,0.020
4.788,0.480,0.020
4.790,0.575,0.015
4.792,0.535,0.015
4.794,0.525,0.015
4.796,0.465,0.020
4.798,0.280,0.025
4.800,0.265,0.030
4.802,0.270,0.035
4.804,0.300,0.035
4.806,0.360,0.040
4.808,0.475,0.040
4.810,0.505,0.040
4.812,0.600,0.045
4.814,0.565,0.045
4.816,0.480,0.050
4.818,0.355,0.050
4.820,0.200,0.055
4.822,0.275,0.060
4.824,0.320,0.060
4.826,0.370,0.060
4.828,0.465,0.060
4.830,0.670,0.060
4.832,0.570,0.060
4.834,0.610,0.060
4.836,0.465,0.065
4.838,0.330,0.070
4.840,0.330,0.075
4.842,0.315,0.075
4.844,0.335,0.075
4.846,0.400,0.070
4.848,0.490,0.060
4.850,0.555,0.050
4.852,0.535,0.040
4.854,0.530,0.025
4.856,0.500,0.020
4.858,0.335,0.020
4.860,0.290,0.025
4.862,0.300,0.035
4.864,0.285,0.045
4.866,0.420,0.055
4.868,0.545,0.060
4.870,0.590,0.060
4.872,0.565,0.050
4.874,0.515,0.035
4.876,0.390,0.020
4.878,0.245,0.005
4.880,0.245,-0.005
4.882,0.230,-0.010
4.884,0.310,-0.010
4.886,0.440,0.000
4.888,0.540,0.010
4.890,0.570,0.025
4.892,0.535,0.035
4.894,0.460,0.040
4.896,0.405,0.040
4.898,0.320,0.035
4.900,0.285,0.025
4.902,0.260,0.015
4.904,0.355,0.005
4.906,0.420,0.000
4.908,0.510,-0.005
4.910,0.515,-0.005
4.912,0.545,0.000
4.914,0.430,0.005
4.916,0.415,0.010
4.918,0.265,0.015
4.920,0.290,0.020
4.922,0.290,0.025
4.924,0.335,0.030
4.926,0.460,0.035
4.928,0.530,0.040
4.930,0.625,0.050
4.932,0.585,0.070
4.934,0.565,0.095
4.936,0.465,0.135
4.938,0.370,0.180
4.940,0.565,0.235
4.942,0.630,0.300
4.944,0.720,0.370
4.946,0.820,0.430
4.948,1.010,0.485
4.950,1.150,0.520
4.952,1.100,0.525
4.954,0.980,0.505
4.956,0.825,0.450
4.958,0.615,0.370
4.960,0.500,0.265
4.962,0.400,0.155
4.964,0.350,0.040
4.966,0.315,-0.065
4.968,0.335,-0.155
4.970,0.325,-0.220
4.972,0.255,-0.265
4.974,0.170,-0.285
4.976,0.080,-0.290
4.978,-0.010,-0.285
4.980,-0.005,-0.265
4.982,0.065,-0.245
4.984,0.150,-0.225
4.986,0.255,-0.200
4.988,0.370,-0.175
4.990,0.370,-0.145
4.992,0.445,-0.120
4.994,0.420,-0.090
4.996,0.325,-0.060
4.998,0.275,-0.035
5.000,0.235,-0.015
5.002,0.280,0.000
5.004,0.340,0.010
5.006,0.485,0.015
5.008,0.545,0.015
5.010,0.540,0.015
5.012,0.575,0.020
5.014,0.505,0.020
5.016,0.345,0.025
5.018,0.370,0.030
5.020,0.320,0.035
5.022,0.355,0.035
5.024,0.420,0.035
5.026,0.335,0.030
5.028,0.555,0.025
5.030,0.575,0.020
5.032,0.595,0.015
5.034,0.515,0.010
5.036,0.340,0.015
5.038,0.290,0.015
5.040,0.330,0.025
5.042,0.320,0.030
5.044,0.380,0.035
5.046,0.455,0.040
5.048,0.575,0.045
5.050,0.595,0.045
5.052,0.625,0.045
5.054,0.525,0.045
5.056,0.360,0.045
5.058,0.350,0.045
5.060,0.325,0.050
5.062,0.320,0.050
5.064,0.425,0.050
5.066,0.545,0.055
5.068,0.585,0.055
5.070,0.645,0.050
5.072,0.565,0.050
5.074,0.530,0.045
5.076,0.410,0.045
5.078,0.270,0.045
5.080,0.355,0.045
5.082,0.310,0.045
5.084,0.400,0.045
5.086,0.580,0.050
5.088,0.580,0.055
5.090,0.685,0.055
5.092,0.595,0.060
5.094,0.465,0.060
5.096,0.410,0.065
5.098,0.380,0.065
5.100,0.340,0.070
5.102,0.390,0.075
5.104,0.485,0.080
5.106,0.585,0.085
5.108,0.640,0.090
5.110,0.630,0.095
5.112,0.560,0.095
5.114,0.555,0.100
5.116,0.435,0.095
5.118,0.435,0.095
5.120,0.360,0.095
5.122,0.435,0.100
5.124,0.480,0.100
5.126,0.665,0.105
5.128,0.600,0.115
5.130,0.705,0.120
5.132,0.615,0.130
5.134,0.635,0.140
5.136,0.430,0.150
5.138,0.465,0.155
5.140,0.495,0.160
5.142,0.545,0.170
5.144,0.510,0.175
5.146,0.680,0.180
5.148,0.745,0.180
5.150,0.750,0.190
5.152,0.665,0.195
5.154,0.660,0.200
5.156,0.565,0.210
5.158,0.540,0.215
5.160,0.480,0.220
5.162,0.525,0.230
5.164,0.610,0.230
5.166,0.775,0.235
5.168,0.810,0.235
5.170,0.850,0.235
5.172,0.760,0.230
5.174,0.680,0.225
5.176,0.520,0.220
5.178,0.470,0.220
5.180,0.505,0.215
5.182,0.555,0.210
5.184,0.610,0.205
5.186,0.740,0.200
5.188,0.740,0.195
5.190,0.795,0.185
5.192,0.705,0.170
5.194,0.535,0.155
5.196,0.405,0.135
5.198,0.405,0.120
5.200,0.420,0.100
5.202,0.425,0.085
5.204,0.500,0.070
5.206,0.545,0.055
5.208,0.625,0.045
5.210,0.630,0.035
5.212,0.515,0.030
5.214,0.420,0.020
5.216,0.310,0.015
5.218,0.320,0.010
5.220,0.265,0.000
5.222,0.330,-0.005
5.224,0.420,-0.015
5.226,0.540,-0.020
5.228,0.550,-0.025
5.230,0.555,-0.030
5.232,0.465,-0.030
5.234,0.345,-0.035
5.236,0.275,-0.035
5.238,0.225,-0.035
5.240,0.260,-0.035
5.242,0.320,-0.035
5.244,0.380,-0.030
5.246,0.510,-0.030
5.248,0.560,-0.030
5.250,0.540,-0.030
5.252,0.450,-0.035
5.254,0.325,-0.040
5.256,0.245,-0.040
5.258,0.240,-0.050
5.260,0.245,-0.050
5.262,0.300,-0.055
5.264,0.430,-0.055
5.266,0.535,-0.060
5.268,0.500,-0.055
5.270,0.435,-0.055
5.272,0.485,-0.055
5.274,0.320,-0.055
5.276,0.215,-0.055
5.278,0.205,-0.060
5.280,0.195,-0.070
5.282,0.270,-0.075
5.284,0.415,-0.085
5.286,0.455,-0.090
5.288,0.550,-0.095
5.290,0.470,-0.095
5.292,0.390,-0.090
5.294,0.245,-0.085
5.296,0.185,-0.080
5.298,0.215,-0.075
5.300,0.235,-0.070
5.302,0.350,-0.065
5.304,0.415,-0.065
5.306,0.495,-0.065
5.308,0.555,-0.065
5.310,0.480,-0.065
5.312,0.415,-0.065
5.314,0.260,-0.065
5.316,0.235,-0.060
5.318,0.185,-0.060
5.320,0.280,-0.060
5.322,0.325,-0.060
5.324,0.440,-0.060
5.326,0.465,-0.065
5.328,0.520,-0.065
5.330,0.470,-0.070
5.332,0.410,-0.070
5.334,0.320,-0.065
5.336,0.280,-0.065
5.338,0.220,-0.060
5.340,0.210,-0.060
5.342,0.290,-0.060
5.344,0.425,-0.065
5.346,0.470,-0.065
5.348,0.505,-0.075
5.350,0.455,-0.080
5.352,0.410,-0.085
5.354,0.245,-0.085
5.356,0.195,-0.085
5.358,0.220,-0.080
5.360,0.230,-0.070
5.362,0.365,-0.065
5.364,0.480,-0.055
5.366,0.490,-0.050
5.368,0.515,-0.045
5.370,0.460,-0.045
5.372,0.410,-0.050
5.374,0.280,-0.055
5.376,0.235,-0.060
5.378,0.245,-0.065
5.380,0.250,-0.070
5.382,0.345,-0.075
5.384,0.475,-0.080
5.386,0.415,-0.080
5.388,0.425,-0.080
5.390,0.485,-0.085
5.392,0.430,-0.085
5.394,0.295,-0.085
5.396,0.155,-0.085
5.398,0.175,-0.085
5.400,0.230,-0.085
5.402,0.280,-0.085
5.404,0.440,-0.085
5.406,0.485,-0.085
5.408,0.500,-0.090
5.410,0.420,-0.090
5.412,0.365,-0.085
5.414,0.250,-0.085
5.416,0.200,-0.080
5.418,0.180,-0.075
5.420,0.235,-0.070
5.422,0.315,-0.070
5.424,0.470,-0.070
5.426,0.480,-0.070
5.428,0.495,-0.075
5.430,0.430,-0.080
5.432,0.335,-0.085
5.434,0.225,-0.090
5.436,0.180,-0.095
5.438,0.180,-0.095
5.440,0.255,-0.090
5.442,0.310,-0.090
5.444,0.380,-0.085
5.446,0.500,-0.080
5.448,0.485,-0.080
5.450,0.450,-0.080
5.452,0.365,-0.085
5.454,0.235,-0.090
5.456,0.135,-0.090
5.458,0.170,-0.095
5.460,0.240,-0.095
5.462,0.340,-0.090
5.464,0.425,-0.090
5.466,0.455,-0.085
5.468,0.495,-0.085
5.470,0.470,-0.090
5.472,0.275,-0.095
5.474,0.215,-0.095
5.476,0.155,-0.100
5.478,0.165,-0.100
5.480,0.205,-0.100
5.482,0.325,-0.090
5.484,0.475,-0.080
5.486,0.495,-0.070
5.488,0.480,-0.065
5.490,0.395,-0.060
5.492,0.340,-0.060
5.494,0.235,-0.065
5.496,0.205,-0.070
5.498,0.195,-0.085
5.500,0.205,-0.095
5.502,0.300,-0.100
5.504,0.420,-0.105
5.506,0.515,-0.105
5.508,0.515,-0.100
5.510,0.410,-0.090
5.512,0.270,-0.085
5.514,0.150,-0.080
5.516,0.140,-0.080
5.518,0.175,-0.085
5.520,0.230,-0.090
5.522,0.320,-0.100
5.524,0.455,-0.105
5.526,0.490,-0.105
5.528,0.430,-0.100
5.530,0.380,-0.090
5.532,0.305,-0.080
5.534,0.175,-0.070
5.536,0.220,-0.065
5.538,0.190,-0.060
5.540,0.295,-0.060
5.542,0.350,-0.065
5.544,0.460,-0.075
5.546,0.445,-0.080
5.548,0.500,-0.085
5.550,0.390,-0.090
5.552,0.300,-0.085
5.554,0.125,-0.080
5.556,0.195,-0.075
5.558,0.220,-0.065
5.560,0.265,-0.060
5.562,0.390,-0.060
5.564,0.510,-0.060
5.566,0.475,-0.065
5.568,0.430,-0.070
5.570,0.400,-0.070
5.572,0.315,-0.070
5.574,0.230,-0.065
5.576,0.215,-0.055
5.578,0.185,-0.045
5.580,0.320,-0.040
5.582,0.385,-0.030
5.584,0.510,-0.030
5.586,0.525,-0.030
5.588,0.470,-0.035
5.590,0.405,-0.045
5.592,0.255,-0.055
5.594,0.220,-0.065
5.596,0.145,-0.070
5.598,0.240,-0.075
5.600,0.230,-0.080
5.602,0.390,-0.080
5.604,0.460,-0.085
5.606,0.430,-0.085
5.608,0.420,-0.085
5.610,0.360,-0.085
5.612,0.195,-0.085
5.614,0.195,-0.090
5.616,0.170,-0.090
5.618,0.165,-0.090
5.620,0.285,-0.085
5.622,0.430,-0.085
5.624,0.380,-0.085
5.626,0.365,-0.090
5.628,0.420,-0.090
5.630,0.375,-0.095
5.632,0.240,-0.095
5.634,0.195,-0.100
5.636,0.110,-0.100
5.638,0.175,-0.095
5.640,0.295,-0.095
5.642,0.350,-0.090
5.644,0.420,-0.085
5.646,0.435,-0.080
5.648,0.390,-0.075
5.650,0.310,-0.075
5.652,0.255,-0.075
5.654,0.170,-0.075
5.656,0.150,-0.080
5.658,0.185,-0.085
5.660,0.225,-0.090
5.662,0.330,-0.095
5.664,0.470,-0.100
5.666,0.385,-0.100
5.668,0.425,-0.100
5.670,0.350,-0.100
5.672,0.210,-0.095
5.674,0.185,-0.090
5.676,0.155,-0.085
5.678,0.125,-0.075
5.680,0.255,-0.065
5.682,0.420,-0.045
5.684,0.530,-0.020
5.686,0.520,0.015
5.688,0.585,0.060
5.690,0.555,0.115
5.692,0.380,0.175
5.694,0.490,0.245
5.696,0.520,0.305
5.698,0.660,0.360
5.700,0.845,0.395
5.702,0.960,0.410
5.704,0.945,0.395
5.706,0.860,0.355
5.708,0.710,0.285
5.710,0.495,0.200
5.712,0.370,0.095
5.714,0.225,-0.015
5.716,0.060,-0.120
5.718,0.015,-0.215
5.720,0.030,-0.290
5.722,0.050,-0.350
5.724,0.125,-0.380
5.726,0.175,-0.395
5.728,0.075,-0.390
5.730,-0.035,-0.370
5.732,-0.100,-0.345
5.734,-0.090,-0.315
5.736,-0.060,-0.285
5.738,0.050,-0.260
5.740,0.120,-0.235
5.742,0.275,-0.210
5.744,0.300,-0.190
5.746,0.350,-0.165
5.748,0.315,-0.145
5.750,0.260,-0.120
5.752,0.140,-0.100
5.754,0.175,-0.080
5.756,0.170,-0.065
5.758,0.225,-0.055
5.760,0.285,-0.050
5.762,0.425,-0.050
5.764,0.465,-0.055
5.766,0.405,-0.060
5.768,0.370,-0.065
5.770,0.290,-0.065
5.772,0.180,-0.060
5.774,0.140,-0.055
5.776,0.130,-0.050
5.778,0.275,-0.040
5.780,0.380,-0.035
5.782,0.475,-0.030
5.784,0.450,-0.030
5.786,0.410,-0.030
5.788,0.405,-0.035
5.790,0.210,-0.040
5.792,0.185,-0.050
5.794,0.210,-0.055
5.796,0.150,-0.060
5.798,0.230,-0.060
5.800,0.320,-0.055
5.802,0.405,-0.050
5.804,0.445,-0.040
5.806,0.480,-0.025
5.808,0.430,-0.010
5.810,0.305,0.005
5.812,0.270,0.015
5.814,0.235,0.025
5.816,0.230,0.030
5.818,0.220,0.025
5.820,0.415,0.020
5.822,0.505,0.005
5.824,0.425,-0.005
5.826,0.425,-0.015
5.828,0.355,-0.025
5.830,0.320,-0.025
5.832,0.225,-0.020
5.834,0.200,-0.005
5.836,0.215,0.005
5.838,0.290,0.020
5.840,0.430,0.030
5.842,0.480,0.035
5.844,0.590,0.035
5.846,0.435,0.035
5.848,0.365,0.030
5.850,0.335,0.025
5.852,0.255,0.025
5.854,0.225,0.025
5.856,0.260,0.030
5.858,0.320,0.040
5.860,0.430,0.055
5.862,0.485,0.060
5.864,0.535,0.070
5.866,0.490,0.070
5.868,0.455,0.070
5.870,0.365,0.065
5.872,0.205,0.065
5.874,0.265,0.065
5.876,0.300,0.065
5.878,0.375,0.075
5.880,0.510,0.085
5.882,0.535,0.100
5.884,0.530,0.115
5.886,0.550,0.125
5.888,0.510,0.135
5.890,0.385,0.140
5.892,0.335,0.145
5.894,0.325,0.145
5.896,0.385,0.150
5.898,0.420,0.155
5.900,0.540,0.165
5.902,0.620,0.175
5.904,0.665,0.180
5.906,0.660,0.190
5.908,0.560,0.195
5.910,0.425,0.200
5.912,0.340,0.200
5.914,0.335,0.200
5.916,0.440,0.200
5.918,0.515,0.205
5.920,0.635,0.210
5.922,0.625,0.215
5.924,0.620,0.225
5.926,0.535,0.230
5.928,0.610,0.230
5.930,0.490,0.230
5.932,0.430,0.220
5.934,0.325,0.210
5.936,0.390,0.195
5.938,0.440,0.175
5.940,0.515,0.160
5.942,0.560,0.150
5.944,0.555,0.135
5.946,0.530,0.130
5.948,0.440,0.120
5.950,0.330,0.110
5.952,0.250,0.100
5.954,0.225,0.085
5.956,0.265,0.070
5.958,0.210,0.055
5.960,0.400,0.035
5.962,0.555,0.020
5.964,0.465,0.010
5.966,0.375,0.000
5.968,0.320,-0.005
5.970,0.225,-0.005
5.972,0.145,-0.010
5.974,0.060,-0.015
5.976,0.155,-0.020
5.978,0.265,-0.025
5.980,0.390,-0.035
5.982,0.390,-0.040
5.984,0.370,-0.045
5.986,0.290,-0.045
5.988,0.305,-0.045
5.990,0.115,-0.040
5.992,0.095,-0.040
5.994,0.080,-0.035
5.996,0.130,-0.035
5.998,0.255,-0.040
6.000,0.315,-0.045
6.002,0.370,-0.050
6.004,0.380,-0.060
6.006,0.310,-0.070
6.008,0.240,-0.075
6.010,0.085,-0.075
6.012,0.050,-0.075
6.014,0.030,-0.070
6.016,0.115,-0.060
6.018,0.215,-0.050
6.020,0.355,-0.040
6.022,0.385,-0.035
6.024,0.365,-0.030
6.026,0.365,-0.030
6.028,0.235,-0.030
6.030,0.110,-0.040
6.032,0.045,-0.050
6.034,0.075,-0.060
6.036,0.175,-0.070
6.038,0.255,-0.080
6.040,0.190,-0.085
6.042,0.305,-0.090
6.044,0.350,-0.090
6.046,0.290,-0.080
6.048,0.200,-0.075
6.050,0.160,-0.065
6.052,0.105,-0.055
6.054,0.065,-0.045
6.056,0.120,-0.040
6.058,0.170,-0.040
6.060,0.365,-0.045
6.062,0.355,-0.050
6.064,0.320,-0.055
6.066,0.225,-0.065
6.068,0.105,-0.065
6.070,0.105,-0.065
6.072,0.070,-0.060
6.074,0.110,-0.055
6.076,0.155,-0.050
6.078,0.255,-0.040
6.080,0.345,-0.035
6.082,0.280,-0.030
6.084,0.380,-0.030
6.086,0.290,-0.035
6.088,0.180,-0.040
6.090,0.115,-0.045
6.092,0.085,-0.055
6.094,0.015,-0.055
6.096,0.070,-0.055
6.098,0.245,-0.055
6.100,0.295,-0.050
6.102,0.360,-0.045
6.104,0.380,-0.045
6.106,0.330,-0.040
6.108,0.175,-0.040
6.110,0.025,-0.040
6.112,0.055,-0.045
6.114,0.085,-0.050
6.116,0.095,-0.050
6.118,0.215,-0.055
6.120,0.320,-0.055
6.122,0.390,-0.050
6.124,0.375,-0.045
6.126,0.240,-0.040
6.128,0.140,-0.035
6.130,0.085,-0.030
6.132,0.075,-0.025
6.134,0.075,-0.030
6.136,0.155,-0.030
6.138,0.235,-0.035
6.140,0.325,-0.040
6.142,0.345,-0.045
6.144,0.285,-0.045
6.146,0.225,-0.045
6.148,0.110,-0.040
6.150,0.120,-0.035
6.152,0.140,-0.025
6.154,0.035,-0.020
6.156,0.090,-0.020
6.158,0.270,-0.025
6.160,0.320,-0.030
6.162,0.350,-0.035
6.164,0.330,-0.045
6.166,0.300,-0.050
6.168,0.100,-0.050
6.170,0.055,-0.050
6.172,0.030,-0.045
6.174,0.075,-0.040
6.176,0.100,-0.035
6.178,0.275,-0.030
6.180,0.320,-0.030
6.182,0.295,-0.035
6.184,0.285,-0.040
6.186,0.220,-0.045
6.188,0.080,-0.050
6.190,0.035,-0.050
6.192,0.055,-0.045
6.194,0.060,-0.040
6.196,0.170,-0.030
6.198,0.330,-0.015
6.200,0.390,-0.010
6.202,0.300,-0.010
6.204,0.210,-0.010
6.206,0.260,-0.020
6.208,0.160,-0.035
6.210,-0.085,-0.045
6.212,0.030,-0.055
6.214,0.100,-0.060
6.216,0.100,-0.060
6.218,0.275,-0.055
6.220,0.300,-0.045
6.222,0.280,-0.030
6.224,0.260,-0.015
6.226,0.245,-0.005
6.228,0.115,0.000
6.230,0.100,0.000
6.232,0.075,-0.005
6.234,0.075,-0.010
6.236,0.120,-0.015
6.238,0.315,-0.020
6.240,0.280,-0.020
6.242,0.305,-0.025
6.244,0.260,-0.020
6.246,0.165,-0.020
6.248,0.080,-0.020
6.250,0.100,-0.020
6.252,0.060,-0.015
6.254,0.015,-0.015
6.256,0.180,-0.015
6.258,0.275,-0.015
6.260,0.310,-0.010
6.262,0.310,-0.005
6.264,0.325,-0.005
6.266,0.250,0.000
6.268,0.070,-0.005
6.270,0.070,-0.005
6.272,0.025,-0.015
6.274,0.040,-0.020
6.276,0.135,-0.030
6.278,0.280,-0.035
6.280,0.275,-0.040
6.282,0.305,-0.040
6.284,0.250,-0.035
6.286,0.195,-0.030
6.288,0.075,-0.020
6.290,0.020,-0.020
6.292,0.000,-0.020
6.294,0.050,-0.025
6.296,0.135,-0.035
6.298,0.255,-0.045
6.300,0.355,-0.055
6.302,0.220,-0.060
6.304,0.230,-0.060
6.306,0.140,-0.050
6.308,0.040,-0.040
6.310,0.040,-0.025
6.312,-0.030,-0.015
6.314,0.100,-0.005
6.316,0.205,-0.005
6.318,0.290,-0.005
6.320,0.260,-0.010
6.322,0.305,-0.015
6.324,0.305,-0.015
6.326,0.190,-0.015
6.328,0.030,-0.005
6.330,0.020,0.010
6.332,-0.010,0.025
6.334,0.180,0.040
6.336,0.245,0.050
6.338,0.295,0.050
6.340,0.340,0.045
6.342,0.355,0.040
6.344,0.265,0.025
6.346,0.155,0.015
6.348,0.030,0.000
6.350,0.010,-0.005
6.352,-0.005,-0.010
6.354,0.130,-0.015
6.356,0.195,-0.015
6.358,0.220,-0.020
6.360,0.275,-0.020
6.362,0.300,-0.020
6.364,0.270,-0.020
6.366,0.140,-0.020
6.368,0.065,-0.015
6.370,0.030,-0.010
6.372,0.025,-0.005
6.374,0.070,-0.005
6.376,0.195,-0.005
6.378,0.275,-0.015
6.380,0.220,-0.025
6.382,0.250,-0.040
6.384,0.230,-0.050
6.386,0.075,-0.060
6.388,0.025,-0.060
6.390,0.000,-0.050
6.392,-0.030,-0.040
6.394,0.070,-0.020
6.396,0.185,-0.005
6.398,0.285,0.000
6.400,0.320,0.005
6.402,0.275,0.000
6.404,0.235,-0.015
6.406,0.020,-0.035
6.408,0.035,-0.050
6.410,0.005,-0.060
6.412,0.020,-0.065
6.414,-0.015,-0.060
6.416,0.090,-0.050
6.418,0.290,-0.035
6.420,0.240,-0.020
6.422,0.305,-0.010
6.424,0.250,0.000
6.426,0.055,0.010
6.428,0.025,0.015
6.430,0.095,0.025
6.432,0.000,0.045
6.434,0.155,0.075
6.436,0.395,0.120
6.438,0.490,0.180
6.440,0.570,0.245
6.442,0.620,0.315
6.444,0.570,0.380
6.446,0.565,0.435
6.448,0.540,0.470
6.450,0.570,0.480
6.452,0.505,0.455
6.454,0.470,0.405
6.456,0.525,0.325
6.458,0.445,0.225
6.460,0.420,0.115
6.462,0.240,0.000
6.464,0.025,-0.100
6.466,-0.180,-0.190
6.468,-0.185,-0.255
6.470,-0.300,-0.295
6.472,-0.295,-0.310
6.474,-0.195,-0.305
6.476,-0.075,-0.285
6.478,-0.010,-0.260
6.480,0.130,-0.235
6.482,-0.030,-0.210
6.484,0.020,-0.190
6.486,-0.085,-0.175
6.488,-0.135,-0.155
6.490,-0.140,-0.140
6.492,-0.040,-0.125
6.494,0.035,-0.105
6.496,0.140,-0.085
6.498,0.175,-0.060
6.500,0.265,-0.040
6.502,0.225,-0.025
6.504,0.195,-0.015
6.506,0.045,-0.005
6.508,0.005,0.000
6.510,0.055,0.005
6.512,0.055,0.010
6.514,0.055,0.015
6.516,0.230,0.020
6.518,0.280,0.025
6.520,0.320,0.025
6.522,0.255,0.025
6.524,0.165,0.020
6.526,0.050,0.015
6.528,0.080,0.005
6.530,-0.045,-0.005
6.532,0.000,-0.015
6.534,0.090,-0.015
6.536,0.275,-0.015
6.538,0.245,-0.010
6.540,0.285,-0.005
6.542,0.240,0.000
6.544,0.175,0.010
6.546,0.095,0.015
6.548,0.050,0.015
6.550,0.010,0.020
6.552,0.050,0.015
6.554,0.120,0.015
6.556,0.240,0.015
6.558,0.285,0.020
6.560,0.310,0.025
6.562,0.270,0.030
6.564,0.210,0.040
6.566,0.105,0.045
6.568,0.035,0.055
6.570,0.005,0.060
6.572,0.060,0.060
6.574,0.135,0.060
6.576,0.305,0.060
6.578,0.335,0.055
6.580,0.335,0.055
6.582,0.250,0.050
6.584,0.205,0.055
6.586,0.075,0.055
6.588,-0.030,0.060
6.590,0.065,0.060
6.592,0.155,0.065
6.594,0.205,0.065
6.596,0.260,0.070
6.598,0.320,0.070
6.600,0.360,0.075
6.602,0.270,0.075
6.604,0.230,0.085
6.606,0.110,0.095
6.608,0.125,0.100
6.610,0.140,0.110
6.612,0.095,0.115
6.614,0.260,0.115
6.616,0.385,0.115
6.618,0.300,0.110
6.620,0.390,0.100
6.622,0.300,0.095
6.624,0.220,0.095
6.626,0.165,0.100
6.628,0.135,0.105
6.630,0.130,0.120
6.632,0.100,0.135
6.634,0.280,0.150
6.636,0.420,0.160
6.638,0.420,0.170
6.640,0.445,0.180
6.642,0.415,0.185
6.644,0.305,0.185
6.646,0.230,0.190
6.648,0.180,0.195
6.650,0.155,0.205
6.652,0.265,0.210
6.654,0.380,0.220
6.656,0.450,0.230
6.658,0.500,0.235
6.660,0.490,0.240
6.662,0.420,0.245
6.664,0.315,0.240
6.666,0.240,0.240
6.668,0.200,0.240
6.670,0.185,0.240
6.672,0.310,0.240
6.674,0.410,0.240
6.676,0.565,0.240
6.678,0.530,0.240
6.680,0.440,0.235
6.682,0.355,0.225
6.684,0.255,0.210
6.686,0.170,0.200
6.688,0.160,0.185
6.690,0.180,0.170
6.692,0.205,0.160
6.694,0.320,0.145
6.696,0.375,0.140
6.698,0.365,0.130
6.700,0.325,0.120
6.702,0.300,0.105
6.704,0.120,0.090
6.706,0.075,0.075
6.708,0.060,0.055
6.710,0.095,0.040
6.712,0.040,0.025
6.714,0.150,0.010
6.716,0.215,0.000
6.718,0.265,0.000
6.720,0.235,-0.005
6.722,0.105,-0.005
6.724,0.080,0.000
6.726,0.000,0.000
6.728,-0.080,0.000
6.730,0.015,0.000
6.732,0.045,-0.005
6.734,0.185,-0.010
6.736,0.230,-0.015
6.738,0.210,-0.020
6.740,0.210,-0.020
6.742,0.160,-0.020
6.744,0.015,-0.020
6.746,-0.030,-0.020
6.748,-0.075,-0.020
6.750,-0.010,-0.020
6.752,0.040,-0.020
6.754,0.195,-0.025
6.756,0.190,-0.030
6.758,0.215,-0.035
6.760,0.200,-0.035
6.762,0.095,-0.040
6.764,0.030,-0.035
6.766,-0.020,-0.035
6.768,-0.045,-0.035
6.770,-0.080,-0.035
6.772,-0.035,-0.035
6.774,0.140,-0.040
6.776,0.195,-0.045
6.778,0.155,-0.045
6.780,0.185,-0.050
6.782,0.155,-0.045
6.784,0.025,-0.040
6.786,-0.010,-0.035
6.788,-0.055,-0.025
6.790,-0.125,-0.020
6.792,0.010,-0.015
6.794,0.235,-0.015
6.796,0.200,-0.020
6.798,0.255,-0.025
6.800,0.220,-0.035
6.802,0.050,-0.040
6.804,-0.060,-0.045
6.806,-0.045,-0.045
6.808,-0.085,-0.040
6.810,-0.045,-0.035
6.812,0.000,-0.030
6.814,0.215,-0.030
6.816,0.250,-0.035
6.818,0.170,-0.045
6.820,0.195,-0.050
6.822,-0.050,-0.060
6.824,-0.065,-0.065
6.826,0.010,-0.065
6.828,-0.065,-0.060
6.830,-0.030,-0.050
6.832,0.030,-0.040
6.834,0.165,-0.030
6.836,0.245,-0.025
6.838,0.250,-0.020
6.840,0.125,-0.020
6.842,0.080,-0.025
6.844,-0.015,-0.030
6.846,-0.025,-0.030
6.848,-0.085,-0.035
6.850,-0.030,-0.035
6.852,0.040,-0.030
6.854,0.195,-0.025
6.856,0.230,-0.020
6.858,0.220,-0.020
6.860,0.140,-0.020
6.862,0.065,-0.025
6.864,-0.025,-0.030
6.866,-0.055,-0.030
6.868,-0.085,-0.035
6.870,0.010,-0.035
6.872,0.060,-0.035
6.874,0.215,-0.030
6.876,0.195,-0.025
6.878,0.230,-0.020
6.880,0.150,-0.015
6.882,0.045,-0.010
6.884,-0.005,-0.010
6.886,-0.050,-0.015
6.888,-0.060,-0.020
6.890,-0.030,-0.025
6.892,0.065,-0.030
6.894,0.195,-0.035
6.896,0.280,-0.040
6.898,0.225,-0.045
6.900,0.100,-0.045
6.902,-0.030,-0.045
6.904,-0.055,-0.050
6.906,-0.115,-0.050
6.908,-0.090,-0.050
6.910,0.025,-0.050
6.912,0.070,-0.050
6.914,0.155,-0.050
6.916,0.210,-0.045
6.918,0.185,-0.040
6.920,0.145,-0.040
6.922,0.075,-0.035
6.924,-0.035,-0.030
6.926,-0.075,-0.025
6.928,-0.075,-0.025
6.930,-0.020,-0.020
6.932,0.080,-0.025
6.934,0.210,-0.025
6.936,0.240,-0.030
6.938,0.235,-0.030
6.940,0.140,-0.035
6.942,0.050,-0.035
6.944,-0.035,-0.035
6.946,-0.050,-0.035
6.948,-0.095,-0.035
6.950,-0.005,-0.030
6.952,0.110,-0.030
6.954,0.170,-0.025
6.956,0.255,-0.025
6.958,0.220,-0.020
6.960,0.140,-0.020
6.962,-0.020,-0.025
6.964,-0.055,-0.025
6.966,-0.065,-0.025
6.968,-0.030,-0.030
6.970,0.060,-0.030
6.972,0.135,-0.035
6.974,0.210,-0.035
6.976,0.260,-0.035
6.978,0.150,-0.035
6.980,0.075,-0.035
6.982,-0.030,-0.030
6.984,-0.055,-0.030
6.986,-0.080,-0.025
6.988,-0.045,-0.025
6.990,0.070,-0.030
6.992,0.105,-0.030
6.994,0.195,-0.035
6.996,0.195,-0.040
6.998,0.200,-0.040
7.000,0.115,-0.045
7.002,-0.040,-0.045
7.004,-0.070,-0.045
7.006,-0.140,-0.040
7.008,-0.115,-0.040
7.010,0.020,-0.040
7.012,0.175,-0.040
7.014,0.220,-0.035
7.016,0.255,-0.035
7.018,0.255,-0.035
7.020,0.025,-0.035
7.022,0.015,-0.030
7.024,-0.055,-0.030
7.026,-0.065,-0.025
7.028,-0.065,-0.020
7.030,0.015,-0.015
7.032,0.170,-0.015
7.034,0.240,-0.010
7.036,0.190,-0.010
7.038,0.195,-0.005
7.040,0.160,-0.005
7.042,0.060,0.000
7.044,-0.050,0.000
7.046,0.005,0.000
7.048,-0.055,0.000
7.050,0.055,-0.005
7.052,0.110,-0.010
7.054,0.175,-0.015
7.056,0.230,-0.020
7.058,0.190,-0.030
7.060,0.135,-0.040
7.062,0.010,-0.045
7.064,-0.090,-0.050
7.066,-0.105,-0.050
7.068,-0.065,-0.045
7.070,0.035,-0.045
7.072,0.120,-0.040
7.074,0.130,-0.035
7.076,0.235,-0.035
7.078,0.195,-0.030
7.080,0.080,-0.035
7.082,0.005,-0.035
7.084,-0.070,-0.040
7.086,-0.135,-0.045
7.088,-0.060,-0.050
7.090,0.005,-0.050
7.092,0.135,-0.055
7.094,0.130,-0.055
7.096,0.225,-0.050
7.098,0.210,-0.045
7.100,0.115,-0.040
7.102,-0.005,-0.035
7.104,-0.090,-0.035
7.106,-0.175,-0.035
7.108,-0.030,-0.040
7.110,0.015,-0.045
7.112,0.140,-0.050
7.114,0.165,-0.055
7.116,0.185,-0.060
7.118,0.140,-0.055
7.120,0.085,-0.050
7.122,-0.005,-0.045
7.124,-0.095,-0.035
7.126,-0.070,-0.025
7.128,0.005,-0.015
7.130,0.040,-0.005
7.132,0.115,0.015
7.134,0.305,0.040
7.136,0.360,0.075
7.138,0.295,0.120
7.140,0.305,0.180
7.142,0.270,0.240
7.144,0.290,0.305
7.146,0.340,0.365
7.148,0.470,0.410
7.150,0.575,0.425
7.152,0.635,0.415
7.154,0.620,0.375
7.156,0.515,0.310
7.158,0.375,0.215
7.160,0.190,0.115
7.162,-0.025,0.005
7.164,-0.180,-0.095
7.166,-0.275,-0.185
7.168,-0.260,-0.255
7.170,-0.230,-0.300
7.172,-0.130,-0.330
7.174,-0.090,-0.340
7.176,-0.090,-0.340
7.178,-0.180,-0.325
7.180,-0.190,-0.305
7.182,-0.330,-0.280
7.184,-0.295,-0.255
7.186,-0.340,-0.225
7.188,-0.110,-0.195
7.190,-0.035,-0.165
7.192,0.070,-0.140
7.194,0.120,-0.120
7.196,0.110,-0.100
7.198,0.080,-0.085
7.200,0.055,-0.070
7.202,-0.080,-0.060
7.204,-0.125,-0.045
7.206,-0.055,-0.035
7.208,-0.010,-0.025
7.210,0.105,-0.020
7.212,0.185,-0.010
7.214,0.225,-0.005
7.216,0.200,-0.005
7.218,0.180,-0.005
7.220,0.065,-0.010
7.222,-0.070,-0.015
7.224,-0.065,-0.025
7.226,-0.055,-0.030
7.228,-0.010,-0.035
7.230,0.100,-0.035
7.232,0.190,-0.030
7.234,0.210,-0.025
7.236,0.190,-0.020
7.238,0.120,-0.010
7.240,0.060,-0.005
7.242,0.005,0.000
7.244,-0.045,0.000
7.246,-0.050,-0.005
7.248,0.030,-0.010
7.250,0.145,-0.020
7.252,0.225,-0.025
7.254,0.275,-0.030
7.256,0.180,-0.030
7.258,0.140,-0.025
7.260,-0.050,-0.015
7.262,-0.070,0.000
7.264,0.020,0.015
7.266,0.040,0.030
7.268,0.090,0.040
7.270,0.200,0.050
7.272,0.235,0.050
7.274,0.240,0.045
7.276,0.260,0.040
7.278,0.195,0.030
7.280,0.065,0.025
7.282,-0.005,0.020
7.284,-0.005,0.020
7.286,-0.010,0.025
7.288,0.085,0.030
7.290,0.215,0.035
7.292,0.255,0.040
7.294,0.225,0.045
7.296,0.275,0.045
7.298,0.220,0.040
7.300,0.070,0.035
7.302,0.015,0.035
7.304,0.005,0.035
7.306,0.000,0.035
7.308,0.130,0.045
7.310,0.215,0.055
7.312,0.255,0.065
7.314,0.330,0.075
7.316,0.325,0.090
7.318,0.235,0.095
7.320,0.110,0.100
7.322,0.070,0.105
7.324,0.025,0.105
7.326,0.100,0.105
7.328,0.185,0.110
7.330,0.335,0.110
7.332,0.345,0.115
7.334,0.315,0.125
7.336,0.360,0.130
7.338,0.280,0.140
7.340,0.155,0.145
7.342,0.110,0.150
7.344,0.090,0.155
7.346,0.150,0.160
7.348,0.250,0.165
7.350,0.375,0.170
7.352,0.435,0.175
7.354,0.450,0.185
7.356,0.395,0.190
7.358,0.340,0.200
7.360,0.180,0.210
7.362,0.165,0.220
7.364,0.165,0.225
7.366,0.275,0.225
7.368,0.340,0.225
7.370,0.445,0.220
7.372,0.400,0.210
7.374,0.365,0.205
7.376,0.360,0.195
7.378,0.295,0.190
7.380,0.295,0.185
7.382,0.175,0.180
7.384,0.100,0.175
7.386,0.125,0.170
7.388,0.210,0.165
7.390,0.320,0.155
7.392,0.415,0.150
7.394,0.390,0.135
7.396,0.275,0.120
7.398,0.285,0.105
7.400,0.135,0.085
7.402,-0.075,0.065
7.404,-0.040,0.050
7.406,0.030,0.035
7.408,0.120,0.025
7.410,0.195,0.015
7.412,0.200,0.010
7.414,0.250,0.005
7.416,0.200,0.000
7.418,0.130,-0.005
7.420,-0.040,-0.015
7.422,-0.105,-0.030
7.424,-0.095,-0.045
7.426,-0.095,-0.060
7.428,0.030,-0.075
7.430,0.140,-0.090
7.432,0.120,-0.100
7.434,0.090,-0.105
7.436,0.100,-0.100
7.438,0.025,-0.100
7.440,-0.115,-0.090
7.442,-0.140,-0.085
7.444,-0.125,-0.075
7.446,-0.035,-0.070
7.448,0.035,-0.065
7.450,0.175,-0.065
7.452,0.135,-0.065
7.454,0.160,-0.065
7.456,0.120,-0.060
7.458,0.020,-0.060
7.460,-0.085,-0.060
7.462,-0.110,-0.055
7.464,-0.110,-0.055
7.466,-0.080,-0.060
7.468,-0.010,-0.065
7.470,0.125,-0.070
7.472,0.155,-0.080
7.474,0.180,-0.085
7.476,0.070,-0.090
7.478,0.010,-0.095
7.480,-0.100,-0.095
7.482,-0.220,-0.090
7.484,-0.145,-0.085
7.486,-0.045,-0.080
7.488,0.020,-0.070
7.490,0.065,-0.065
7.492,0.215,-0.060
7.494,0.230,-0.060
7.496,0.125,-0.060
7.498,-0.040,-0.060
7.500,-0.070,-0.060
7.502,-0.145,-0.065
7.504,-0.170,-0.065
7.506,-0.020,-0.075
7.508,-0.015,-0.080
7.510,0.115,-0.085
7.512,0.170,-0.090
7.514,0.090,-0.090
7.516,0.025,-0.090
7.518,0.035,-0.085
7.520,-0.135,-0.075
7.522,-0.125,-0.065
7.524,-0.065,-0.055
7.526,0.015,-0.050
7.528,0.025,-0.050
7.530,0.155,-0.050
7.532,0.140,-0.055
7.534,0.165,-0.065
7.536,0.150,-0.075
7.538,-0.035,-0.080
7.540,-0.125,-0.080
7.542,-0.125,-0.080
7.544,-0.150,-0.070
7.546,-0.055,-0.060
7.548,0.100,-0.050
7.550,0.160,-0.040
7.552,0.180,-0.035
7.554,0.150,-0.030
7.556,0.120,-0.035
7.558,0.010,-0.040
7.560,-0.105,-0.045
7.562,-0.165,-0.055
7.564,-0.105,-0.060
7.566,-0.020,-0.065
7.568,0.100,-0.070
7.570,0.140,-0.070
7.572,0.155,-0.065
7.574,0.150,-0.065
7.576,0.085,-0.065
7.578,-0.010,-0.065
7.580,-0.125,-0.065
7.582,-0.150,-0.065
7.584,-0.085,-0.065
7.586,-0.045,-0.065
7.588,0.065,-0.065
7.590,0.190,-0.060
7.592,0.170,-0.060
7.594,0.155,-0.060
7.596,0.050,-0.055
7.598,-0.045,-0.050
7.600,-0.070,-0.050
7.602,-0.115,-0.045
7.604,-0.065,-0.040
7.606,0.000,-0.035
7.608,0.085,-0.035
7.610,0.110,-0.035
7.612,0.060,-0.035
7.614,0.250,-0.035
7.616,0.110,-0.040
7.618,-0.010,-0.045
7.620,-0.145,-0.050
7.622,-0.135,-0.055
7.624,-0.090,-0.060
7.626,-0.030,-0.065
7.628,0.085,-0.065
7.630,0.145,-0.065
7.632,0.165,-0.060
7.634,0.120,-0.060
7.636,0.075,-0.060
7.638,-0.060,-0.055
7.640,-0.135,-0.055
7.642,-0.190,-0.055
7.644,-0.130,-0.055
7.646,0.035,-0.050
7.648,0.120,-0.050
7.650,0.145,-0.050
7.652,0.210,-0.050
7.654,0.240,-0.050
7.656,-0.010,-0.055
7.658,-0.175,-0.055
7.660,-0.125,-0.060
7.662,-0.105,-0.065
7.664,-0.065,-0.065
7.666,-0.095,-0.065
7.668,0.115,-0.060
7.670,0.170,-0.055
7.672,0.185,-0.045
7.674,0.130,-0.040
7.676,0.060,-0.030
7.678,-0.040,-0.025
7.680,-0.075,-0.025
7.682,-0.140,-0.025
7.684,-0.045,-0.025
7.686,0.030,-0.030
7.688,0.110,-0.035
7.690,0.120,-0.040
7.692,0.195,-0.040
7.694,0.095,-0.040
7.696,0.055,-0.040
7.698,-0.035,-0.040
7.700,-0.120,-0.040
7.702,-0.155,-0.040
7.704,-0.105,-0.045
7.706,0.035,-0.045
7.708,0.155,-0.045
7.710,0.170,-0.045
7.712,0.210,-0.040
7.714,0.115,-0.035
7.716,0.020,-0.025
7.718,-0.035,-0.015
7.720,-0.065,-0.005
7.722,-0.090,0.000
7.724,0.005,0.005
7.726,0.095,0.000
7.728,0.195,-0.005
7.730,0.205,-0.010
7.732,0.235,-0.020
7.734,0.050,-0.030
7.736,-0.055,-0.040
7.738,-0.095,-0.045
7.740,-0.080,-0.045
7.742,-0.080,-0.045
7.744,-0.075,-0.045
7.746,0.010,-0.040
7.748,0.110,-0.040
7.750,0.125,-0.040
7.752,0.155,-0.040
7.754,0.125,-0.040
7.756,0.115,-0.045
7.758,-0.040,-0.045
7.760,-0.165,-0.050
7.762,-0.160,-0.050
7.764,-0.080,-0.050
7.766,0.000,-0.050
7.768,0.095,-0.050
7.770,0.185,-0.050
7.772,0.140,-0.050
7.774,0.135,-0.050
7.776,0.040,-0.045
7.778,-0.060,-0.045
7.780,-0.155,-0.040
7.782,-0.120,-0.035
7.784,-0.095,-0.035
7.786,0.025,-0.035
7.788,0.135,-0.035
7.790,0.175,-0.040
7.792,0.160,-0.050
7.794,0.090,-0.055
7.796,-0.010,-0.060
7.798,-0.120,-0.065
7.800,-0.165,-0.065
7.802,-0.185,-0.065
7.804,-0.115,-0.060
7.806,0.070,-0.050
7.808,0.160,-0.040
7.810,0.195,-0.030
7.812,0.190,-0.020
7.814,0.085,-0.005
7.816,-0.030,0.005
7.818,-0.010,0.020
7.820,-0.105,0.045
7.822,0.000,0.080
7.824,0.150,0.130
7.826,0.355,0.190
7.828,0.465,0.260
7.830,0.540,0.335
7.832,0.595,0.405
7.834,0.615,0.460
7.836,0.595,0.495
7.838,0.545,0.500
7.840,0.380,0.470
7.842,0.275,0.405
7.844,0.280,0.315
7.846,0.250,0.205
7.848,0.220,0.080
7.850,0.140,-0.035
7.852,0.040,-0.140
7.854,-0.130,-0.225
7.856,-0.305,-0.285
7.858,-0.435,-0.320
7.860,-0.415,-0.335
7.862,-0.405,-0.330
7.864,-0.325,-0.320
7.866,-0.140,-0.305
7.868,-0.085,-0.280
7.870,-0.125,-0.260
7.872,-0.075,-0.235
7.874,-0.135,-0.210
7.876,-0.155,-0.185
7.878,-0.125,-0.155
7.880,-0.185,-0.120
7.882,-0.160,-0.090
7.884,-0.075,-0.065
7.886,0.085,-0.045
7.888,0.095,-0.025
7.890,0.230,-0.020
7.892,0.160,-0.015
7.894,0.065,-0.015
7.896,-0.055,-0.020
7.898,-0.110,-0.025
7.900,-0.130,-0.025
7.902,-0.075,-0.030
7.904,0.045,-0.025
7.906,0.115,-0.025
7.908,0.180,-0.020
7.910,0.230,-0.015
7.912,0.090,-0.010
7.914,0.090,0.000
7.916,-0.030,0.005
7.918,-0.100,0.005
7.920,-0.115,0.010
7.922,-0.065,0.010
7.924,0.020,0.010
7.926,0.145,0.010
7.928,0.195,0.010
7.930,0.210,0.010
7.932,0.175,0.010
7.934,0.115,0.010
7.936,-0.035,0.015
7.938,-0.060,0.015
7.940,-0.070,0.020
7.942,-0.035,0.020
7.944,0.055,0.020
7.946,0.190,0.015
7.948,0.155,0.010
7.950,0.140,0.010
7.952,0.160,0.010
7.954,0.145,0.010
7.956,0.000,0.015
7.958,-0.060,0.025
7.960,-0.080,0.035
7.962,-0.020,0.045
7.964,0.040,0.055
7.966,0.220,0.060
7.968,0.255,0.065
7.970,0.255,0.065
7.972,0.200,0.060
7.974,0.065,0.055
7.976,-0.030,0.050
7.978,-0.060,0.045
7.980,-0.050,0.045
7.982,-0.005,0.050
7.984,0.110,0.055
7.986,0.220,0.060
7.988,0.285,0.070
7.990,0.270,0.075
7.992,0.205,0.075
7.994,0.115,0.080
7.996,-0.020,0.075
7.998,0.050,0.075
8.000,-0.025,0.075
8.002,-0.015,0.075
8.004,0.095,0.080
8.006,0.245,0.085
8.008,0.285,0.095
8.010,0.305,0.105
8.012,0.300,0.115
8.014,0.215,0.125
8.016,0.090,0.130
8.018,0.020,0.140
8.020,0.030,0.145
8.022,0.065,0.150
8.024,0.225,0.155
8.026,0.330,0.160
8.028,0.340,0.165
8.030,0.340,0.170
8.032,0.325,0.175
8.034,0.210,0.180
8.036,0.105,0.185
8.038,0.065,0.185
8.040,0.100,0.185
8.042,0.160,0.185
8.044,0.255,0.190
8.046,0.365,0.195
8.048,0.390,0.205
8.050,0.410,0.215
8.052,0.340,0.225
8.054,0.265,0.235
8.056,0.160,0.240
8.058,0.075,0.240
8.060,0.120,0.235
8.062,0.270,0.225
8.064,0.280,0.210
8.066,0.385,0.195
8.068,0.350,0.180
8.070,0.320,0.170
8.072,0.270,0.160
8.074,0.190,0.155
8.076,0.080,0.155
8.078,0.020,0.155
8.080,0.015,0.150
8.082,0.060,0.145
8.084,0.220,0.135
8.086,0.280,0.120
8.088,0.300,0.105
8.090,0.235,0.085
8.092,0.210,0.070
8.094,0.065,0.055
8.096,-0.045,0.045
8.098,-0.090,0.035
8.100,-0.090,0.030
8.102,-0.010,0.020
8.104,0.065,0.010
8.106,0.140,0.005
8.108,0.190,-0.005
8.110,0.160,-0.010
8.112,0.090,-0.015
8.114,-0.070,-0.020
8.116,-0.075,-0.020
8.118,-0.125,-0.020
8.120,-0.155,-0.020
8.122,-0.020,-0.025
8.124,0.100,-0.025
8.126,0.120,-0.030
8.128,0.115,-0.035
8.130,0.105,-0.040
8.132,0.085,-0.045
8.134,-0.040,-0.045
8.136,-0.150,-0.045
8.138,-0.155,-0.045
8.140,-0.090,-0.040
8.142,-0.085,-0.040
8.144,0.060,-0.040
8.146,0.085,-0.040
8.148,0.140,-0.045
8.150,0.155,-0.050
8.152,0.045,-0.050
8.154,-0.020,-0.050
8.156,-0.105,-0.045
8.158,-0.140,-0.040
8.160,-0.145,-0.035
8.162,-0.110,-0.030
8.164,0.050,-0.020
8.166,0.125,-0.020
8.168,0.200,-0.020
8.170,0.135,-0.025
8.172,0.065,-0.030
8.174,-0.075,-0.035
8.176,-0.120,-0.040
8.178,-0.150,-0.045
8.180,-0.120,-0.045
8.182,-0.065,-0.040
8.184,0.080,-0.040
8.186,0.120,-0.035
8.188,0.180,-0.030
8.190,0.105,-0.025
8.192,0.050,-0.025
8.194,-0.065,-0.030
8.196,-0.155,-0.030
8.198,-0.190,-0.035
8.200,-0.130,-0.040
8.202,-0.020,-0.045
8.204,0.110,-0.050
8.206,0.180,-0.050
8.208,0.125,-0.050
8.210,-0.015,-0.045
8.212,0.020,-0.040
8.214,-0.100,-0.035
8.216,-0.110,-0.025
8.218,-0.115,-0.020
8.220,-0.075,-0.015
8.222,0.010,-0.010
8.224,0.115,-0.010
8.226,0.175,-0.015
8.228,0.120,-0.020
8.230,0.050,-0.025
8.232,-0.030,-0.035
8.234,-0.050,-0.040
8.236,-0.110,-0.050
8.238,-0.170,-0.055
8.240,-0.120,-0.055
8.242,-0.010,-0.055
8.244,0.085,-0.050
8.246,0.140,-0.045
8.248,0.135,-0.035
8.250,0.085,-0.030
8.252,0.070,-0.020
8.254,-0.065,-0.015
8.256,-0.140,-0.015
8.258,-0.165,-0.020
8.260,-0.100,-0.025
8.262,-0.055,-0.030
8.264,0.110,-0.040
8.266,0.120,-0.045
8.268,0.130,-0.055
8.270,0.095,-0.055
8.272,0.010,-0.055
8.274,-0.115,-0.050
8.276,-0.150,-0.040
8.278,-0.160,-0.035
8.280,-0.050,-0.025
8.282,0.020,-0.020
8.284,0.130,-0.020
8.286,0.080,-0.020
8.288,0.190,-0.020
8.290,0.110,-0.025
8.292,-0.065,-0.030
8.294,-0.105,-0.035
8.296,-0.070,-0.035
8.298,-0.145,-0.035
8.300,-0.115,-0.035
8.302,-0.050,-0.030
8.304,0.110,-0.025
8.306,0.130,-0.025
8.308,0.100,-0.025
8.310,0.105,-0.030
8.312,0.010,-0.040
8.314,-0.130,-0.050
8.316,-0.120,-0.060
8.318,-0.230,-0.070
8.320,-0.130,-0.075
8.322,-0.040,-0.080
8.324,0.100,-0.075
8.326,0.095,-0.070
8.328,0.140,-0.060
8.330,0.065,-0.045
8.332,-0.025,-0.035
8.334,-0.195,-0.025
8.336,-0.110,-0.020
8.338,-0.045,-0.025
8.340,-0.095,-0.030
8.342,0.075,-0.045
8.344,0.035,-0.055
8.346,0.075,-0.070
8.348,0.095,-0.075
8.350,0.060,-0.075
8.352,-0.030,-0.070
8.354,-0.100,-0.060
8.356,-0.160,-0.045
8.358,-0.185,-0.025
8.360,-0.060,-0.015
8.362,0.060,-0.005
8.364,0.135,0.000
8.366,0.150,-0.005
8.368,0.115,-0.015
8.370,0.045,-0.030
8.372,-0.035,-0.045
8.374,-0.150,-0.055
8.376,-0.145,-0.060
8.378,-0.160,-0.060
8.380,-0.080,-0.055
8.382,0.030,-0.050
8.384,0.120,-0.035
8.386,0.145,-0.025
8.388,0.115,-0.020
8.390,-0.005,-0.015
8.392,-0.030,-0.010
8.394,-0.090,-0.015
8.396,-0.035,-0.020
8.398,-0.110,-0.025
8.400,-0.005,-0.030
8.402,-0.020,-0.030
8.404,0.080,-0.035
8.406,0.185,-0.030
8.408,0.080,-0.025
8.410,0.055,-0.025
8.412,-0.040,-0.025
8.414,-0.130,-0.025
8.416,-0.125,-0.030
8.418,-0.140,-0.040
8.420,-0.125,-0.055
8.422,0.035,-0.065
8.424,0.060,-0.075
8.426,0.075,-0.080
8.428,0.060,-0.080
8.430,-0.005,-0.070
8.432,-0.050,-0.060
8.434,-0.125,-0.045
8.436,-0.120,-0.035
8.438,-0.105,-0.025
8.440,-0.090,-0.020
8.442,0.055,-0.020
8.444,0.090,-0.030
8.446,0.080,-0.035
8.448,0.110,-0.045
8.450,-0.005,-0.055
8.452,-0.080,-0.060
8.454,-0.115,-0.055
8.456,-0.155,-0.055
8.458,-0.130,-0.045
8.460,-0.080,-0.040
8.462,0.055,-0.040
8.464,0.090,-0.040
8.466,0.050,-0.045
8.468,0.075,-0.055
8.470,0.065,-0.065
8.472,-0.100,-0.070
8.474,-0.180,-0.075
8.476,-0.175,-0.075
8.478,-0.155,-0.070
8.480,-0.055,-0.060
8.482,0.045,-0.050
8.484,0.135,-0.040
8.486,0.170,-0.030
8.488,0.150,-0.025
8.490,0.040,-0.020
8.492,-0.125,-0.020
8.494,-0.145,-0.015
8.496,-0.135,0.000
8.498,-0.045,0.030
8.500,0.090,0.070
8.502,0.280,0.130
8.504,0.360,0.200
8.506,0.475,0.280
8.508,0.490,0.355
8.510,0.535,0.415
8.512,0.410,0.460
8.514,0.425,0.470
8.516,0.355,0.450
8.518,0.260,0.395
8.520,0.225,0.310
8.522,0.300,0.205
8.524,0.265,0.090
8.526,0.165,-0.025
8.528,0.000,-0.130
8.530,-0.185,-0.220
8.532,-0.455,-0.290
8.534,-0.540,-0.335
8.536,-0.500,-0.355
8.538,-0.435,-0.360
8.540,-0.265,-0.350
8.542,-0.180,-0.330
8.544,-0.105,-0.300
8.546,-0.145,-0.270
8.548,-0.225,-0.240
8.550,-0.150,-0.205
8.552,-0.260,-0.175
8.554,-0.230,-0.150
8.556,-0.245,-0.125
8.558,-0.190,-0.105
8.560,-0.115,-0.090
8.562,0.050,-0.075
8.564,0.060,-0.065
8.566,0.170,-0.060
8.568,0.075,-0.055
8.570,-0.045,-0.050
8.572,-0.110,-0.045
8.574,-0.140,-0.040
8.576,-0.190,-0.030
8.578,-0.085,-0.025
8.580,0.010,-0.020
8.582,0.095,-0.015
8.584,0.035,-0.015
8.586,0.200,-0.010
8.588,0.140,-0.010
8.590,-0.010,-0.010
8.592,-0.085,-0.010
8.594,-0.110,-0.010
8.596,-0.105,-0.010
8.598,-0.070,-0.010
8.600,0.055,-0.010
8.602,0.085,-0.010
8.604,0.130,-0.010
8.606,0.175,-0.010
8.608,0.085,-0.015
8.610,-0.020,-0.015
8.612,-0.105,-0.015
8.614,-0.130,-0.015
8.616,-0.125,-0.015
8.618,-0.050,-0.015
8.620,0.050,-0.015
8.622,0.145,-0.010
8.624,0.160,-0.010
8.626,0.140,-0.005
8.628,0.095,0.005
8.630,0.045,0.010
8.632,-0.050,0.020
8.634,-0.090,0.030
8.636,-0.135,0.035
8.638,0.000,0.040
8.640,0.085,0.045
8.642,0.185,0.045
8.644,0.235,0.045
8.646,0.185,0.045
8.648,0.135,0.045
8.650,0.035,0.045
8.652,-0.100,0.045
8.654,-0.075,0.050
8.656,-0.070,0.050
8.658,0.030,0.055
8.660,0.145,0.055
8.662,0.185,0.050
8.664,0.235,0.050
8.666,0.180,0.045
8.668,0.145,0.040
8.670,0.010,0.035
8.672,-0.055,0.040
8.674,-0.095,0.045
8.676,-0.050,0.050
8.678,-0.025,0.065
8.680,0.175,0.075
8.682,0.320,0.090
8.684,0.240,0.100
8.686,0.265,0.110
8.688,0.205,0.115
8.690,0.135,0.125
8.692,0.015,0.130
8.694,-0.005,0.135
8.696,0.045,0.145
8.698,0.150,0.155
8.700,0.240,0.160
8.702,0.290,0.165
8.704,0.260,0.165
8.706,0.335,0.165
8.708,0.330,0.165
8.710,0.075,0.165
8.712,0.020,0.160
8.714,0.110,0.165
8.716,0.050,0.165
8.718,0.190,0.175
8.720,0.265,0.185
8.722,0.355,0.200
8.724,0.405,0.215
8.726,0.370,0.225
8.728,0.270,0.230
8.730,0.140,0.235
8.732,0.115,0.230
8.734,0.115,0.225
8.736,0.140,0.220
8.738,0.205,0.210
8.740,0.265,0.205
8.742,0.360,0.200
8.744,0.325,0.195
8.746,0.320,0.195
8.748,0.250,0.190
8.750,0.140,0.185
8.752,0.090,0.180
8.754,0.060,0.170
8.756,0.020,0.155
8.758,0.070,0.140
8.760,0.205,0.125
8.762,0.255,0.105
8.764,0.240,0.085
8.766,0.205,0.070
8.768,0.140,0.060
8.770,-0.020,0.050
8.772,-0.055,0.040
8.774,-0.105,0.035
8.776,-0.090,0.030
8.778,-0.040,0.020
8.780,0.125,0.010
8.782,0.145,0.000
8.784,0.115,-0.010
8.786,0.125,-0.025
8.788,0.030,-0.030
8.790,-0.115,-0.040
8.792,-0.110,-0.040
8.794,-0.215,-0.040
8.796,-0.080,-0.035
8.798,-0.090,-0.030
8.800,0.085,-0.025
8.802,0.115,-0.025
8.804,0.130,-0.030
8.806,0.060,-0.035
8.808,0.000,-0.045
8.810,-0.065,-0.055
8.812,-0.180,-0.065
8.814,-0.175,-0.070
8.816,-0.195,-0.065
8.818,-0.090,-0.060
8.820,0.120,-0.055
8.822,0.110,-0.050
8.824,0.080,-0.045
8.826,0.055,-0.040
8.828,-0.025,-0.045
8.830,-0.160,-0.045
8.832,-0.150,-0.050
8.834,-0.160,-0.055
8.836,-0.085,-0.055
8.838,-0.045,-0.050
8.840,0.070,-0.045
8.842,0.075,-0.035
8.844,0.125,-0.030
8.846,0.070,-0.025
8.848,-0.020,-0.030
8.850,-0.125,-0.035
8.852,-0.145,-0.045
8.854,-0.125,-0.055
8.856,-0.170,-0.060
8.858,-0.050,-0.065
8.860,0.090,-0.065
8.862,0.085,-0.060
8.864,0.125,-0.055
8.866,0.030,-0.045
8.868,-0.020,-0.035
8.870,-0.125,-0.030
8.872,-0.185,-0.025
8.874,-0.190,-0.025
8.876,-0.095,-0.030
8.878,0.030,-0.035
8.880,0.080,-0.040
8.882,0.165,-0.040
8.884,0.115,-0.045
8.886,0.080,-0.040
8.888,-0.025,-0.040
8.890,-0.145,-0.040
8.892,-0.175,-0.040
8.894,-0.150,-0.040
8.896,-0.140,-0.040
8.898,-0.055,-0.045
8.900,0.110,-0.050
8.902,0.125,-0.050
8.904,0.095,-0.055
8.906,0.035,-0.055
8.908,-0.065,-0.055
8.910,-0.140,-0.050
8.912,-0.165,-0.045
8.914,-0.155,-0.040
8.916,-0.150,-0.030
8.918,0.040,-0.025
8.920,0.105,-0.020
8.922,0.130,-0.020
8.924,0.125,-0.020
8.926,0.090,-0.020
8.928,-0.045,-0.025
8.930,-0.125,-0.030
8.932,-0.200,-0.035
8.934,-0.125,-0.040
8.936,-0.150,-0.045
8.938,-0.075,-0.050
8.940,0.120,-0.050
8.942,0.115,-0.050
8.944,0.065,-0.050
8.946,0.040,-0.050
8.948,-0.030,-0.050
8.950,-0.140,-0.050
8.952,-0.195,-0.045
8.954,-0.145,-0.045
8.956,-0.120,-0.040
8.958,-0.025,-0.040
8.960,0.095,-0.040
8.962,0.130,-0.035
8.964,0.095,-0.035
8.966,0.105,-0.035
8.968,-0.045,-0.035
8.970,-0.235,-0.035
8.972,-0.165,-0.040
8.974,-0.130,-0.040
8.976,-0.085,-0.040
8.978,0.035,-0.045
8.980,0.045,-0.045
8.982,0.115,-0.050
8.984,0.140,-0.050
8.986,0.030,-0.050
8.988,-0.105,-0.050
8.990,-0.180,-0.050
8.992,-0.180,-0.050
8.994,-0.155,-0.050
8.996,-0.100,-0.050
8.998,0.045,-0.045
9.000,0.075,-0.045
9.002,0.135,-0.040
9.004,0.085,-0.040
9.006,0.075,-0.035
9.008,-0.100,-0.035
9.010,-0.165,-0.035
9.012,-0.210,-0.035
9.014,-0.195,-0.040
9.016,-0.070,-0.050
9.018,0.090,-0.060
9.020,0.055,-0.070
9.022,0.095,-0.075
9.024,0.080,-0.080
9.026,0.030,-0.080
9.028,-0.150,-0.080
9.030,-0.245,-0.070
9.032,-0.185,-0.055
9.034,-0.125,-0.045
9.036,-0.045,-0.030
9.038,0.100,-0.025
9.040,0.140,-0.020
9.042,0.105,-0.020
9.044,0.090,-0.025
9.046,0.025,-0.030
9.048,-0.105,-0.035
9.050,-0.130,-0.035
9.052,-0.200,-0.030
9.054,-0.140,-0.025
9.056,-0.020,-0.020
9.058,0.065,-0.015
9.060,0.125,-0.010
9.062,0.145,-0.010
9.064,0.120,-0.010
9.066,0.130,-0.015
9.068,-0.130,-0.025
9.070,-0.175,-0.030
9.072,-0.170,-0.030
9.074,-0.160,-0.035
9.076,-0.005,-0.030
9.078,0.100,-0.025
9.080,0.080,-0.020
9.082,0.150,-0.020
9.084,0.060,-0.020
9.086,-0.020,-0.025
9.088,-0.065,-0.030
9.090,-0.170,-0.040
9.092,-0.175,-0.050
9.094,-0.175,-0.060
9.096,-0.075,-0.065
9.098,0.070,-0.065
9.100,0.035,-0.065
9.102,0.080,-0.060
9.104,0.100,-0.050
9.106,0.010,-0.045
9.108,-0.130,-0.040
9.110,-0.180,-0.035
9.112,-0.170,-0.035
9.114,-0.165,-0.035
9.116,-0.045,-0.040
9.118,0.085,-0.045
9.120,0.120,-0.055
9.122,0.070,-0.060
9.124,0.050,-0.060
9.126,-0.040,-0.060
9.128,-0.130,-0.060
9.130,-0.160,-0.055
9.132,-0.160,-0.050
9.134,-0.120,-0.045
9.136,-0.075,-0.040
9.138,0.065,-0.045
9.140,0.055,-0.045
9.142,-0.005,-0.050
9.144,0.060,-0.055
9.146,-0.035,-0.060
9.148,-0.085,-0.060
9.150,-0.185,-0.060
9.152,-0.200,-0.055
9.154,-0.155,-0.045
9.156,-0.045,-0.035
9.158,0.110,-0.030
9.160,0.105,-0.020
9.162,0.135,-0.015
9.164,0.065,-0.005
9.166,-0.005,0.010
9.168,-0.025,0.035
9.170,-0.030,0.070
9.172,-0.005,0.120
9.174,0.135,0.185
9.176,0.245,0.255
9.178,0.440,0.330
9.180,0.540,0.395
9.182,0.640,0.445
9.184,0.655,0.470
9.186,0.510,0.465
9.188,0.315,0.430
9.190,0.215,0.365
9.192,0.035,0.275
9.194,0.035,0.170
9.196,0.075,0.055
9.198,0.000,-0.055
9.200,-0.020,-0.155
9.202,-0.045,-0.240
9.204,-0.255,-0.305
9.206,-0.465,-0.345
9.208,-0.510,-0.365
9.210,-0.520,-0.370
9.212,-0.440,-0.355
9.214,-0.355,-0.335
9.216,-0.285,-0.305
9.218,-0.175,-0.275
9.220,-0.070,-0.240
9.222,-0.065,-0.210
9.224,-0.130,-0.180
9.226,-0.220,-0.155
9.228,-0.225,-0.130
9.230,-0.215,-0.110
9.232,-0.185,-0.090
9.234,-0.070,-0.075
9.236,0.010,-0.060
9.238,0.095,-0.045
9.240,0.065,-0.040
9.242,0.075,-0.035
9.244,-0.020,-0.035
9.246,-0.085,-0.035
9.248,-0.145,-0.040
9.250,-0.135,-0.040
9.252,-0.155,-0.045
9.254,-0.070,-0.050
9.256,0.015,-0.050
9.258,0.075,-0.050
9.260,0.095,-0.050
9.262,0.090,-0.045
9.264,0.050,-0.040
9.266,-0.155,-0.035
9.268,-0.145,-0.030
9.270,-0.135,-0.025
9.272,-0.135,-0.020
9.274,-0.120,-0.010
9.276,0.055,-0.005
9.278,0.105,0.000
9.280,0.150,0.005
9.282,0.155,0.010
9.284,0.055,0.010
9.286,-0.055,0.010
9.288,-0.110,0.005
9.290,-0.155,0.005
9.292,-0.130,0.005
9.294,-0.050,0.000
9.296,0.075,0.005
9.298,0.115,0.005
9.300,0.175,0.010
9.302,0.150,0.015
9.304,0.115,0.020
9.306,-0.055,0.020
9.308,-0.095,0.020
9.310,-0.125,0.020
9.312,-0.130,0.020
9.314,-0.115,0.020
9.316,0.085,0.020
9.318,0.105,0.020
9.320,0.225,0.030
9.322,0.170,0.035
9.324,0.085,0.045
9.326,-0.075,0.055
9.328,-0.065,0.060
9.330,-0.090,0.065
9.332,-0.070,0.065
9.334,0.075,0.065
9.336,0.115,0.060
9.338,0.125,0.055
9.340,0.165,0.050
9.342,0.210,0.055
9.344,0.100,0.055
9.346,-0.030,0.065
9.348,-0.100,0.075
9.350,-0.050,0.085
9.352,-0.035,0.090
9.354,0.035,0.100
9.356,0.175,0.105
9.358,0.220,0.110
9.360,0.270,0.110
9.362,0.205,0.115
9.364,0.175,0.125
9.366,0.015,0.130
9.368,0.010,0.140
9.370,-0.025,0.150
9.372,0.070,0.160
9.374,0.105,0.165
9.376,0.275,0.170
9.378,0.270,0.175
9.380,0.300,0.175
9.382,0.270,0.180
9.384,0.210,0.185
9.386,0.105,0.190
9.388,0.095,0.195
9.390,0.010,0.205
9.392,0.095,0.210
9.394,0.185,0.215
9.396,0.275,0.215
9.398,0.320,0.210
9.400,0.360,0.205
9.402,0.335,0.200
9.404,0.185,0.200
9.406,0.115,0.200
9.408,0.040,0.200
9.410,0.045,0.210
9.412,0.120,0.215
9.414,0.180,0.220
9.416,0.320,0.220
9.418,0.340,0.215
9.420,0.325,0.200
9.422,0.210,0.185
9.424,0.160,0.160
9.426,0.035,0.135
9.428,-0.015,0.110
9.430,-0.010,0.095
9.432,-0.040,0.080
9.434,0.030,0.070
9.436,0.100,0.060
9.438,0.180,0.060
9.440,0.265,0.055
9.442,0.140,0.045
9.444,-0.020,0.040
9.446,-0.170,0.030
9.448,-0.090,0.020
9.450,-0.225,0.010
9.452,-0.085,0.000
9.454,0.045,-0.010
9.456,0.130,-0.015
9.458,0.100,-0.025
9.460,0.085,-0.030
9.462,-0.005,-0.035
9.464,-0.085,-0.040
9.466,-0.215,-0.045
9.468,-0.200,-0.050
9.470,-0.165,-0.050
9.472,-0.120,-0.055
9.474,-0.035,-0.055
9.476,0.070,-0.055
9.478,0.075,-0.055
9.480,0.055,-0.055
9.482,0.000,-0.050
9.484,-0.070,-0.050
9.486,-0.170,-0.050
9.488,-0.215,-0.050
9.490,-0.175,-0.050
9.492,-0.160,-0.055
9.494,-0.035,-0.055
9.496,0.070,-0.060
9.498,0.050,-0.065
9.500,0.090,-0.070
9.502,-0.065,-0.070
9.504,-0.120,-0.075
9.506,-0.195,-0.075
9.508,-0.270,-0.075
9.510,-0.190,-0.075
9.512,-0.150,-0.075
9.514,-0.030,-0.070
9.516,0.000,-0.070
9.518,0.025,-0.070
9.520,0.025,-0.065
9.522,-0.015,-0.060
9.524,-0.080,-0.060
9.526,-0.145,-0.055
9.528,-0.185,-0.045
9.530,-0.205,-0.040
9.532,-0.185,-0.035
9.534,-0.115,-0.030
9.536,0.090,-0.030
9.538,0.065,-0.035
9.540,0.065,-0.040
9.542,0.000,-0.045
9.544,-0.080,-0.050
9.546,-0.205,-0.055
9.548,-0.250,-0.060
9.550,-0.185,-0.055
9.552,-0.085,-0.055
9.554,0.035,-0.045
9.556,0.010,-0.040
9.558,0.030,-0.035
9.560,0.070,-0.030
9.562,0.060,-0.030
9.564,-0.105,-0.030
9.566,-0.125,-0.035
9.568,-0.270,-0.040
9.570,-0.150,-0.045
9.572,-0.120,-0.045
9.574,-0.015,-0.050
9.576,0.060,-0.045
9.578,0.060,-0.045
9.580,0.020,-0.035
9.582,0.035,-0.030
9.584,-0.115,-0.025
9.586,-0.185,-0.025
9.588,-0.240,-0.020
9.590,-0.145,-0.025
9.592,-0.110,-0.025
9.594,0.055,-0.030
9.596,0.060,-0.030
9.598,0.050,-0.035
9.600,0.055,-0.040
9.602,0.030,-0.040
9.604,-0.120,-0.045
9.606,-0.190,-0.045
9.608,-0.210,-0.045
9.610,-0.195,-0.045
9.612,-0.110,-0.040
9.614,0.025,-0.040
9.616,0.085,-0.035
9.618,0.035,-0.025
9.620,0.080,-0.020
9.622,-0.015,-0.015
9.624,-0.110,-0.015
9.626,-0.180,-0.015
9.628,-0.225,-0.020
9.630,-0.195,-0.030
9.632,-0.135,-0.035
9.634,-0.040,-0.045
9.636,0.060,-0.055
9.638,0.075,-0.060
9.640,0.065,-0.060
9.642,0.035,-0.060
9.644,-0.190,-0.050
9.646,-0.180,-0.040
9.648,-0.205,-0.030
9.650,-0.195,-0.025
9.652,-0.075,-0.015
9.654,0.060,-0.015
9.656,0.090,-0.015
9.658,0.095,-0.020
9.660,0.015,-0.025
9.662,-0.020,-0.030
9.664,-0.155,-0.035
9.666,-0.190,-0.035
9.668,-0.160,-0.035
9.670,-0.160,-0.030
9.672,-0.055,-0.030
9.674,0.055,-0.030
9.676,0.065,-0.030
9.678,0.020,-0.035
9.680,0.025,-0.040
9.682,-0.060,-0.040
9.684,-0.185,-0.045
9.686,-0.195,-0.045
9.688,-0.210,-0.045
9.690,-0.140,-0.045
9.692,-0.085,-0.040
9.694,0.040,-0.040
9.696,0.045,-0.040
9.698,0.080,-0.045
9.700,0.000,-0.045
9.702,-0.055,-0.045
9.704,-0.180,-0.045
9.706,-0.200,-0.045
9.708,-0.225,-0.045
9.710,-0.155,-0.040
9.712,-0.060,-0.035
9.714,0.080,-0.035
9.716,0.090,-0.030
9.718,0.065,-0.030
9.720,0.020,-0.030
9.722,-0.055,-0.030
9.724,-0.155,-0.030
9.726,-0.165,-0.030
9.728,-0.225,-0.030
9.730,-0.220,-0.035
9.732,-0.030,-0.035
9.734,0.035,-0.035
9.736,0.040,-0.035
9.738,0.030,-0.040
9.740,0.080,-0.040
9.742,-0.090,-0.040
9.744,-0.200,-0.045
9.746,-0.220,-0.040
9.748,-0.245,-0.040
9.750,-0.135,-0.040
9.752,-0.055,-0.035
9.754,0.055,-0.035
9.756,0.085,-0.035
9.758,0.075,-0.030
9.760,0.015,-0.030
9.762,-0.070,-0.025
9.764,-0.135,-0.015
9.766,-0.165,-0.005
9.768,-0.185,0.005
9.770,-0.045,0.020
9.772,0.025,0.035
9.774,0.085,0.040
9.776,0.110,0.045
9.778,0.165,0.040
9.780,0.020,0.030
9.782,-0.055,0.015
9.784,-0.125,0.000
9.786,-0.220,-0.020
9.788,-0.210,-0.035
9.790,-0.150,-0.050
9.792,-0.055,-0.055
9.794,0.055,-0.055
9.796,0.090,-0.050
9.798,0.055,-0.045
9.800,-0.070,-0.040
9.802,-0.170,-0.030
9.804,-0.190,-0.030
9.806,-0.225,-0.030
9.808,-0.190,-0.035
9.810,-0.130,-0.045
9.812,-0.050,-0.050
9.814,-0.015,-0.055
9.816,0.040,-0.060
9.818,0.065,-0.060
9.820,0.010,-0.055
9.822,-0.110,-0.055
9.824,-0.225,-0.050
9.826,-0.225,-0.045
9.828,-0.205,-0.040
9.830,-0.145,-0.035
9.832,-0.030,-0.035
9.834,0.055,-0.035
9.836,0.090,-0.035
9.838,-0.015,-0.035
9.840,0.000,-0.030
9.842,-0.085,-0.030
9.844,-0.200,-0.025
9.846,-0.265,-0.025
9.848,-0.250,-0.025
9.850,-0.095,-0.025
9.852,0.060,-0.030
9.854,0.095,-0.030
9.856,0.060,-0.030
9.858,0.050,-0.035
9.860,-0.055,-0.030
9.862,-0.190,-0.030
9.864,-0.175,-0.030
9.866,-0.215,-0.025
9.868,-0.165,-0.015
9.870,-0.060,0.000
9.872,0.070,0.025
9.874,0.150,0.060
9.876,0.225,0.115
9.878,0.260,0.180
9.880,0.280,0.255
9.882,0.230,0.335
9.884,0.280,0.405
9.886,0.320,0.460
9.888,0.405,0.490
9.890,0.455,0.490
9.892,0.515,0.455
9.894,0.445,0.380
9.896,0.300,0.285
9.898,0.230,0.170
9.900,0.050,0.050
9.902,-0.170,-0.065
9.904,-0.340,-0.160
9.906,-0.510,-0.240
9.908,-0.520,-0.295
9.910,-0.385,-0.330
9.912,-0.330,-0.345
9.914,-0.270,-0.345
9.916,-0.235,-0.335
9.918,-0.225,-0.320
9.920,-0.265,-0.295
9.922,-0.355,-0.265
9.924,-0.395,-0.235
9.926,-0.455,-0.200
9.928,-0.325,-0.165
9.930,-0.175,-0.130
9.932,-0.020,-0.105
9.934,-0.010,-0.080
9.936,0.095,-0.060
9.938,0.020,-0.050
9.940,-0.025,-0.045
9.942,-0.195,-0.045
9.944,-0.225,-0.045
9.946,-0.225,-0.040
9.948,-0.165,-0.035
9.950,-0.125,-0.030
9.952,0.065,-0.020
9.954,0.075,-0.010
9.956,0.130,0.000
9.958,0.070,0.005
9.960,-0.005,0.005
9.962,-0.160,0.000
9.964,-0.250,-0.005
9.966,-0.150,-0.010
9.968,-0.165,-0.015
9.970,-0.050,-0.015
9.972,0.075,-0.015
9.974,0.015,-0.010
9.976,0.135,-0.005
9.978,0.085,0.000
9.980,-0.055,0.000
9.982,-0.130,0.000
9.984,-0.155,0.000
9.986,-0.225,0.000
9.988,-0.155,-0.005
9.990,-0.050,-0.005
9.992,0.110,-0.005
9.994,0.095,-0.005
9.996,0.140,0.000
9.998,0.100,0.005
