'Elapsed time','ECG I','ECG I filtered'
'seconds','mV','mV'
0.000,0.585,0.215
0.002,0.600,0.180
0.004,0.525,0.150
0.006,0.515,0.125
0.008,0.420,0.105
0.010,0.410,0.095
0.012,0.375,0.085
0.014,0.375,0.080
0.016,0.440,0.070
0.018,0.465,0.065
0.020,0.440,0.060
0.022,0.445,0.050
0.024,0.425,0.040
0.026,0.375,0.030
0.028,0.320,0.020
0.030,0.295,0.015
0.032,0.300,0.010
0.034,0.340,0.005
0.036,0.360,0.005
0.038,0.425,-0.005
0.040,0.435,-0.015
0.042,0.405,-0.030
0.044,0.285,-0.045
0.046,0.270,-0.065
0.048,0.265,-0.085
0.050,0.220,-0.100
0.052,0.145,-0.105
0.054,0.145,-0.110
0.056,0.265,-0.110
0.058,0.340,-0.105
0.060,0.375,-0.095
0.062,0.360,-0.085
0.064,0.305,-0.080
0.066,0.260,-0.070
0.068,0.235,-0.065
0.070,0.210,-0.065
0.072,0.215,-0.065
0.074,0.260,-0.065
0.076,0.300,-0.065
0.078,0.310,-0.070
0.080,0.325,-0.075
0.082,0.355,-0.080
0.084,0.300,-0.090
0.086,0.275,-0.100
0.088,0.200,-0.105
0.090,0.125,-0.110
0.092,0.165,-0.115
0.094,0.220,-0.115
0.096,0.290,-0.110
0.098,0.305,-0.105
0.100,0.340,-0.100
0.102,0.315,-0.095
0.104,0.295,-0.090
0.106,0.225,-0.090
0.108,0.180,-0.090
0.110,0.175,-0.095
0.112,0.215,-0.095
0.114,0.205,-0.095
0.116,0.300,-0.095
0.118,0.315,-0.090
0.120,0.345,-0.085
0.122,0.350,-0.080
0.124,0.360,-0.075
0.126,0.290,-0.070
0.128,0.145,-0.070
0.130,0.115,-0.070
0.132,0.210,-0.075
0.134,0.225,-0.080
0.136,0.275,-0.085
0.138,0.300,-0.085
0.140,0.350,-0.085
0.142,0.340,-0.075
0.144,0.305,-0.070
0.146,0.240,-0.060
0.148,0.225,-0.050
0.150,0.205,-0.050
0.152,0.205,-0.045
0.154,0.260,-0.050
0.156,0.305,-0.055
0.158,0.370,-0.065
0.160,0.345,-0.070
0.162,0.360,-0.075
0.164,0.335,-0.080
0.166,0.210,-0.080
0.168,0.215,-0.075
0.170,0.195,-0.075
0.172,0.200,-0.070
0.174,0.240,-0.070
0.176,0.250,-0.075
0.178,0.335,-0.075
0.180,0.330,-0.080
0.182,0.310,-0.080
0.184,0.300,-0.080
0.186,0.230,-0.080
0.188,0.210,-0.075
0.190,0.190,-0.070
0.192,0.200,-0.065
0.194,0.225,-0.065
0.196,0.245,-0.060
0.198,0.355,-0.060
0.200,0.380,-0.060
0.202,0.380,-0.060
0.204,0.285,-0.060
0.206,0.175,-0.060
0.208,0.225,-0.060
0.210,0.205,-0.055
0.212,0.230,-0.055
0.214,0.250,-0.050
0.216,0.315,-0.050
0.218,0.345,-0.050
0.220,0.355,-0.050
0.222,0.315,-0.050
0.224,0.290,-0.055
0.226,0.225,-0.055
0.228,0.185,-0.060
0.230,0.215,-0.065
0.232,0.210,-0.065
0.234,0.215,-0.070
0.236,0.290,-0.070
0.238,0.325,-0.070
0.240,0.320,-0.070
0.242,0.315,-0.070
0.244,0.300,-0.070
0.246,0.240,-0.070
0.248,0.150,-0.070
0.250,0.185,-0.070
0.252,0.235,-0.070
0.254,0.245,-0.070
0.256,0.295,-0.070
0.258,0.345,-0.075
0.260,0.320,-0.075
0.262,0.275,-0.075
0.264,0.265,-0.075
0.266,0.185,-0.075
0.268,0.200,-0.070
0.270,0.200,-0.065
0.272,0.230,-0.065
0.274,0.230,-0.060
0.276,0.325,-0.060
0.278,0.300,-0.065
0.280,0.330,-0.070
0.282,0.290,-0.075
0.284,0.275,-0.075
0.286,0.180,-0.075
0.288,0.190,-0.075
0.290,0.205,-0.065
0.292,0.230,-0.060
0.294,0.265,-0.050
0.296,0.345,-0.040
0.298,0.355,-0.040
0.300,0.330,-0.040
0.302,0.325,-0.050
0.304,0.235,-0.060
0.306,0.165,-0.070
0.308,0.175,-0.085
0.310,0.120,-0.090
0.312,0.210,-0.095
0.314,0.250,-0.090
0.316,0.275,-0.080
0.318,0.280,-0.070
0.320,0.320,-0.060
0.322,0.290,-0.050
0.324,0.245,-0.045
0.326,0.210,-0.050
0.328,0.170,-0.055
0.330,0.140,-0.065
0.332,0.205,-0.080
0.334,0.280,-0.090
0.336,0.285,-0.095
0.338,0.325,-0.100
0.340,0.280,-0.095
0.342,0.255,-0.085
0.344,0.240,-0.075
0.346,0.180,-0.060
0.348,0.185,-0.055
0.350,0.185,-0.050
0.352,0.200,-0.050
0.354,0.250,-0.055
0.356,0.300,-0.070
0.358,0.305,-0.080
0.360,0.315,-0.090
0.362,0.280,-0.100
0.364,0.160,-0.100
0.366,0.150,-0.095
0.368,0.145,-0.085
0.370,0.165,-0.070
0.372,0.270,-0.050
0.374,0.315,-0.030
0.376,0.320,-0.015
0.378,0.405,-0.005
0.380,0.365,0.000
0.382,0.310,0.000
0.384,0.265,-0.010
0.386,0.225,-0.015
0.388,0.190,-0.025
0.390,0.185,-0.035
0.392,0.205,-0.040
0.394,0.320,-0.045
0.396,0.295,-0.045
0.398,0.350,-0.040
0.400,0.335,-0.035
0.402,0.330,-0.025
0.404,0.300,-0.020
0.406,0.255,-0.010
0.408,0.235,-0.005
0.410,0.205,-0.005
0.412,0.220,-0.005
0.414,0.290,-0.010
0.416,0.360,-0.015
0.418,0.375,-0.020
0.420,0.390,-0.030
0.422,0.370,-0.040
0.424,0.220,-0.045
0.426,0.195,-0.050
0.428,0.185,-0.050
0.430,0.160,-0.050
0.432,0.210,-0.045
0.434,0.290,-0.040
0.436,0.320,-0.040
0.438,0.345,-0.035
0.440,0.330,-0.040
0.442,0.265,-0.045
0.444,0.180,-0.050
0.446,0.155,-0.060
0.448,0.150,-0.070
0.450,0.190,-0.080
0.452,0.210,-0.085
0.454,0.260,-0.085
0.456,0.295,-0.085
0.458,0.295,-0.080
0.460,0.305,-0.075
0.462,0.275,-0.070
0.464,0.185,-0.065
0.466,0.165,-0.065
0.468,0.165,-0.070
0.470,0.180,-0.075
0.472,0.165,-0.085
0.474,0.215,-0.100
0.476,0.280,-0.110
0.478,0.260,-0.115
0.480,0.250,-0.120
0.482,0.235,-0.115
0.484,0.150,-0.105
0.486,0.135,-0.095
0.488,0.140,-0.085
0.490,0.145,-0.075
0.492,0.230,-0.065
0.494,0.255,-0.065
0.496,0.285,-0.065
0.498,0.290,-0.075
0.500,0.230,-0.080
0.502,0.160,-0.095
0.504,0.155,-0.100
0.506,0.175,-0.110
0.508,0.125,-0.110
0.510,0.135,-0.115
0.512,0.165,-0.115
0.514,0.240,-0.110
0.516,0.240,-0.115
0.518,0.250,-0.115
0.520,0.240,-0.115
0.522,0.190,-0.115
0.524,0.110,-0.105
0.526,0.120,-0.095
0.528,0.130,-0.070
0.530,0.165,-0.040
0.532,0.370,0.005
0.534,0.495,0.065
0.536,0.530,0.130
0.538,0.565,0.200
0.540,0.565,0.280
0.542,0.645,0.355
0.544,0.660,0.425
0.546,0.805,0.490
0.548,0.835,0.535
0.550,0.830,0.560
0.552,0.815,0.560
0.554,0.850,0.530
0.556,0.850,0.475
0.558,0.760,0.390
0.560,0.625,0.290
0.562,0.455,0.185
0.564,0.305,0.075
0.566,0.165,-0.025
0.568,0.005,-0.105
0.570,-0.025,-0.165
0.572,0.110,-0.195
0.574,0.155,-0.200
0.576,0.210,-0.190
0.578,0.195,-0.160
0.580,0.195,-0.130
0.582,0.225,-0.095
0.584,0.190,-0.060
0.586,0.160,-0.040
0.588,0.190,-0.025
0.590,0.265,-0.015
0.592,0.260,-0.015
0.594,0.355,-0.020
0.596,0.330,-0.030
0.598,0.280,-0.035
0.600,0.265,-0.045
0.602,0.205,-0.050
0.604,0.145,-0.055
0.606,0.165,-0.055
0.608,0.185,-0.055
0.610,0.225,-0.050
0.612,0.255,-0.040
0.614,0.295,-0.035
0.616,0.335,-0.030
0.618,0.310,-0.025
0.620,0.305,-0.025
0.622,0.230,-0.025
0.624,0.185,-0.030
0.626,0.160,-0.035
0.628,0.145,-0.040
0.630,0.180,-0.045
0.632,0.215,-0.045
0.634,0.315,-0.045
0.636,0.360,-0.040
0.638,0.330,-0.035
0.640,0.360,-0.025
0.642,0.245,-0.020
0.644,0.185,-0.015
0.646,0.140,-0.015
0.648,0.170,-0.010
0.650,0.240,-0.015
0.652,0.285,-0.015
0.654,0.320,-0.020
0.656,0.335,-0.020
0.658,0.325,-0.020
0.660,0.315,-0.015
0.662,0.300,-0.010
0.664,0.215,-0.005
0.666,0.205,0.000
0.668,0.220,0.005
0.670,0.265,0.005
0.672,0.320,0.005
0.674,0.335,0.000
0.676,0.360,-0.005
0.678,0.370,-0.010
0.680,0.270,-0.015
0.682,0.250,-0.015
0.684,0.210,-0.015
0.686,0.200,-0.005
0.688,0.195,0.005
0.690,0.275,0.020
0.692,0.370,0.030
0.694,0.385,0.045
0.696,0.410,0.050
0.698,0.385,0.055
0.700,0.325,0.055
0.702,0.260,0.050
0.704,0.230,0.050
0.706,0.270,0.045
0.708,0.265,0.045
0.710,0.325,0.050
0.712,0.395,0.060
0.714,0.465,0.070
0.716,0.455,0.085
0.718,0.420,0.095
0.720,0.395,0.110
0.722,0.335,0.115
0.724,0.275,0.115
0.726,0.285,0.115
0.728,0.315,0.110
0.730,0.355,0.110
0.732,0.410,0.110
0.734,0.470,0.115
0.736,0.490,0.120
0.738,0.510,0.135
0.740,0.485,0.150
0.742,0.435,0.165
0.744,0.365,0.180
0.746,0.385,0.195
0.748,0.410,0.200
0.750,0.430,0.205
0.752,0.495,0.205
0.754,0.545,0.205
0.756,0.545,0.200
0.758,0.520,0.200
0.760,0.460,0.205
0.762,0.425,0.210
0.764,0.435,0.215
0.766,0.470,0.225
0.768,0.450,0.235
0.770,0.475,0.240
0.772,0.570,0.240
0.774,0.600,0.240
0.776,0.565,0.235
0.778,0.495,0.230
0.780,0.480,0.220
0.782,0.435,0.220
0.784,0.405,0.215
0.786,0.410,0.220
0.788,0.470,0.220
0.790,0.535,0.225
0.792,0.560,0.225
0.794,0.555,0.225
0.796,0.525,0.220
0.798,0.480,0.210
0.800,0.470,0.200
0.802,0.400,0.180
0.804,0.340,0.160
0.806,0.335,0.140
0.808,0.320,0.125
0.810,0.365,0.105
0.812,0.435,0.095
0.814,0.430,0.080
0.816,0.390,0.075
0.818,0.365,0.065
0.820,0.350,0.060
0.822,0.315,0.055
0.824,0.250,0.045
0.826,0.185,0.035
0.828,0.195,0.025
0.830,0.215,0.010
0.832,0.305,-0.005
0.834,0.330,-0.015
0.836,0.355,-0.025
0.838,0.265,-0.035
0.840,0.235,-0.035
0.842,0.175,-0.035
0.844,0.185,-0.030
0.846,0.135,-0.025
0.848,0.190,-0.020
0.850,0.265,-0.015
0.852,0.320,-0.020
0.854,0.330,-0.025
0.856,0.270,-0.035
0.858,0.225,-0.045
0.860,0.200,-0.050
0.862,0.165,-0.055
0.864,0.160,-0.060
0.866,0.150,-0.055
0.868,0.160,-0.050
0.870,0.225,-0.040
0.872,0.230,-0.035
0.874,0.295,-0.035
0.876,0.310,-0.035
0.878,0.295,-0.040
0.880,0.255,-0.045
0.882,0.085,-0.055
0.884,0.025,-0.065
0.886,0.110,-0.075
0.888,0.175,-0.080
0.890,0.240,-0.080
0.892,0.285,-0.080
0.894,0.220,-0.080
0.896,0.215,-0.075
0.898,0.230,-0.070
0.900,0.200,-0.070
0.902,0.155,-0.065
0.904,0.130,-0.060
0.906,0.105,-0.060
0.908,0.160,-0.055
0.910,0.240,-0.055
0.912,0.250,-0.055
0.914,0.270,-0.050
0.916,0.225,-0.050
0.918,0.250,-0.050
0.920,0.185,-0.045
0.922,0.180,-0.040
0.924,0.130,-0.035
0.926,0.160,-0.035
0.928,0.235,-0.030
0.930,0.255,-0.030
0.932,0.275,-0.035
0.934,0.280,-0.035
0.936,0.275,-0.040
0.938,0.240,-0.045
0.940,0.150,-0.050
0.942,0.140,-0.050
0.944,0.145,-0.050
0.946,0.155,-0.045
0.948,0.210,-0.045
0.950,0.280,-0.035
0.952,0.310,-0.030
0.954,0.305,-0.030
0.956,0.260,-0.025
0.958,0.215,-0.025
0.960,0.165,-0.030
0.962,0.130,-0.035
0.964,0.150,-0.040
0.966,0.165,-0.045
0.968,0.175,-0.045
0.970,0.200,-0.045
0.972,0.245,-0.045
0.974,0.335,-0.045
0.976,0.315,-0.040
0.978,0.240,-0.035
0.980,0.145,-0.035
0.982,0.115,-0.035
0.984,0.125,-0.030
0.986,0.150,-0.035
0.988,0.190,-0.035
0.990,0.240,-0.035
0.992,0.300,-0.040
0.994,0.330,-0.040
0.996,0.330,-0.040
0.998,0.200,-0.045
1.000,0.170,-0.045
1.002,0.155,-0.040
1.004,0.125,-0.040
1.006,0.110,-0.040
1.008,0.160,-0.040
1.010,0.265,-0.040
1.012,0.285,-0.040
1.014,0.295,-0.040
1.016,0.280,-0.040
1.018,0.225,-0.040
1.020,0.180,-0.045
1.022,0.125,-0.045
1.024,0.125,-0.045
1.026,0.145,-0.045
1.028,0.205,-0.045
1.030,0.255,-0.045
1.032,0.295,-0.045
1.034,0.305,-0.045
1.036,0.255,-0.050
1.038,0.210,-0.055
1.040,0.125,-0.060
1.042,0.110,-0.060
1.044,0.105,-0.065
1.046,0.155,-0.065
1.048,0.190,-0.060
1.050,0.260,-0.055
1.052,0.300,-0.050
1.054,0.275,-0.045
1.056,0.225,-0.040
1.058,0.205,-0.040
1.060,0.140,-0.045
1.062,0.085,-0.055
1.064,0.095,-0.060
1.066,0.160,-0.070
1.068,0.170,-0.080
1.070,0.235,-0.085
1.072,0.260,-0.080
1.074,0.270,-0.075
1.076,0.225,-0.065
1.078,0.195,-0.055
1.080,0.155,-0.045
1.082,0.110,-0.040
1.084,0.145,-0.035
1.086,0.170,-0.035
1.088,0.240,-0.040
1.090,0.210,-0.045
1.092,0.275,-0.050
1.094,0.285,-0.050
1.096,0.275,-0.050
1.098,0.205,-0.050
1.100,0.125,-0.045
1.102,0.130,-0.040
1.104,0.140,-0.035
1.106,0.150,-0.035
1.108,0.225,-0.035
1.110,0.230,-0.040
1.112,0.260,-0.045
1.114,0.290,-0.050
1.116,0.240,-0.055
1.118,0.165,-0.060
1.120,0.115,-0.065
1.122,0.065,-0.070
1.124,0.105,-0.070
1.126,0.165,-0.070
1.128,0.185,-0.070
1.130,0.255,-0.065
1.132,0.275,-0.060
1.134,0.215,-0.055
1.136,0.160,-0.050
1.138,0.190,-0.040
1.140,0.170,-0.035
1.142,0.150,-0.035
1.144,0.145,-0.035
1.146,0.170,-0.035
1.148,0.175,-0.035
1.150,0.220,-0.040
1.152,0.310,-0.040
1.154,0.325,-0.040
1.156,0.250,-0.040
1.158,0.175,-0.040
1.160,0.155,-0.040
1.162,0.095,-0.040
1.164,0.130,-0.040
1.166,0.135,-0.050
1.168,0.170,-0.055
1.170,0.210,-0.065
1.172,0.225,-0.075
1.174,0.245,-0.080
1.176,0.185,-0.080
1.178,0.170,-0.075
1.180,0.125,-0.070
1.182,0.115,-0.060
1.184,0.110,-0.055
1.186,0.165,-0.045
1.188,0.220,-0.040
1.190,0.250,-0.035
1.192,0.265,-0.035
1.194,0.275,-0.035
1.196,0.230,-0.035
1.198,0.190,-0.035
1.200,0.145,-0.035
1.202,0.100,-0.030
1.204,0.180,-0.030
1.206,0.175,-0.030
1.208,0.225,-0.030
1.210,0.280,-0.035
1.212,0.255,-0.040
1.214,0.285,-0.045
1.216,0.235,-0.045
1.218,0.205,-0.045
1.220,0.110,-0.040
1.222,0.105,-0.030
1.224,0.155,-0.015
1.226,0.240,0.000
1.228,0.280,0.010
1.230,0.290,0.025
1.232,0.350,0.030
1.234,0.375,0.025
1.236,0.330,0.025
1.238,0.195,0.015
1.240,0.165,0.005
1.242,0.180,0.000
1.244,0.135,-0.005
1.246,0.170,-0.005
1.248,0.270,-0.005
1.250,0.310,0.000
1.252,0.300,0.000
1.254,0.270,0.005
1.256,0.295,0.005
1.258,0.200,0.000
1.260,0.175,0.000
1.262,0.185,-0.005
1.264,0.170,-0.010
1.266,0.195,-0.015
1.268,0.240,-0.020
1.270,0.260,-0.025
1.272,0.255,-0.030
1.274,0.245,-0.035
1.276,0.190,-0.040
1.278,0.160,-0.045
1.280,0.120,-0.050
1.282,0.055,-0.050
1.284,0.160,-0.055
1.286,0.195,-0.055
1.288,0.190,-0.055
1.290,0.190,-0.060
1.292,0.240,-0.060
1.294,0.230,-0.065
1.296,0.165,-0.065
1.298,0.130,-0.070
1.300,0.130,-0.075
1.302,0.165,-0.075
1.304,0.125,-0.075
1.306,0.150,-0.070
1.308,0.170,-0.070
1.310,0.230,-0.070
1.312,0.230,-0.070
1.314,0.190,-0.070
1.316,0.185,-0.070
1.318,0.140,-0.075
1.320,0.085,-0.080
1.322,0.085,-0.085
1.324,0.110,-0.085
1.326,0.145,-0.080
1.328,0.215,-0.075
1.330,0.250,-0.070
1.332,0.235,-0.060
1.334,0.220,-0.055
1.336,0.205,-0.050
1.338,0.140,-0.055
1.340,0.150,-0.065
1.342,0.105,-0.075
1.344,0.050,-0.090
1.346,0.080,-0.105
1.348,0.175,-0.115
1.350,0.195,-0.120
1.352,0.215,-0.120
1.354,0.145,-0.110
1.356,0.125,-0.095
1.358,0.115,-0.070
1.360,0.170,-0.035
1.362,0.205,0.005
1.364,0.295,0.055
1.366,0.360,0.120
1.368,0.465,0.195
1.370,0.535,0.275
1.372,0.660,0.360
1.374,0.760,0.440
1.376,0.840,0.515
1.378,0.815,0.570
1.380,0.785,0.600
1.382,0.760,0.600
1.384,0.725,0.570
1.386,0.760,0.510
1.388,0.700,0.425
1.390,0.605,0.320
1.392,0.530,0.210
1.394,0.365,0.105
1.396,0.195,0.010
1.398,0.070,-0.065
1.400,-0.005,-0.115
1.402,-0.060,-0.145
1.404,0.060,-0.150
1.406,0.130,-0.140
1.408,0.160,-0.120
1.410,0.180,-0.095
1.412,0.245,-0.075
1.414,0.255,-0.060
1.416,0.195,-0.045
1.418,0.145,-0.040
1.420,0.105,-0.040
1.422,0.110,-0.045
1.424,0.175,-0.045
1.426,0.180,-0.045
1.428,0.235,-0.045
1.430,0.285,-0.040
1.432,0.285,-0.035
1.434,0.280,-0.030
1.436,0.200,-0.030
1.438,0.095,-0.030
1.440,0.095,-0.035
1.442,0.135,-0.045
1.444,0.130,-0.050
1.446,0.190,-0.060
1.448,0.225,-0.060
1.450,0.275,-0.060
1.452,0.305,-0.055
1.454,0.230,-0.050
1.456,0.125,-0.040
1.458,0.090,-0.030
1.460,0.130,-0.025
1.462,0.190,-0.020
1.464,0.220,-0.020
1.466,0.215,-0.020
1.468,0.230,-0.020
1.470,0.230,-0.020
1.472,0.265,-0.020
1.474,0.285,-0.020
1.476,0.220,-0.020
1.478,0.155,-0.015
1.480,0.115,-0.010
1.482,0.095,-0.010
1.484,0.175,-0.005
1.486,0.280,0.000
1.488,0.345,0.000
1.490,0.340,0.000
1.492,0.295,0.000
1.494,0.250,0.000
1.496,0.210,0.000
1.498,0.185,-0.005
1.500,0.140,-0.005
1.502,0.135,-0.010
1.504,0.200,-0.010
1.506,0.205,-0.010
1.508,0.280,-0.010
1.510,0.310,-0.005
1.512,0.320,0.005
1.514,0.275,0.010
1.516,0.205,0.020
1.518,0.205,0.030
1.520,0.230,0.035
1.522,0.215,0.035
1.524,0.175,0.030
1.526,0.250,0.025
1.528,0.345,0.020
1.530,0.310,0.015
1.532,0.335,0.010
1.534,0.285,0.015
1.536,0.235,0.020
1.538,0.225,0.035
1.540,0.200,0.050
1.542,0.270,0.065
1.544,0.280,0.085
1.546,0.315,0.095
1.548,0.360,0.105
1.550,0.455,0.110
1.552,0.430,0.115
1.554,0.370,0.115
1.556,0.295,0.115
1.558,0.265,0.120
1.560,0.290,0.120
1.562,0.295,0.125
1.564,0.330,0.135
1.566,0.390,0.140
1.568,0.470,0.150
1.570,0.490,0.155
1.572,0.425,0.165
1.574,0.405,0.170
1.576,0.390,0.180
1.578,0.365,0.185
1.580,0.405,0.195
1.582,0.400,0.200
1.584,0.410,0.205
1.586,0.470,0.210
1.588,0.480,0.210
1.590,0.420,0.210
1.592,0.475,0.205
1.594,0.500,0.205
1.596,0.425,0.205
1.598,0.385,0.205
1.600,0.400,0.210
1.602,0.410,0.215
1.604,0.435,0.225
1.606,0.500,0.230
1.608,0.555,0.235
1.610,0.540,0.240
1.612,0.560,0.240
1.614,0.480,0.235
1.616,0.340,0.225
1.618,0.350,0.210
1.620,0.370,0.200
1.622,0.385,0.190
1.624,0.445,0.180
1.626,0.495,0.175
1.628,0.470,0.170
1.630,0.460,0.165
1.632,0.415,0.160
1.634,0.385,0.155
1.636,0.310,0.145
1.638,0.265,0.135
1.640,0.290,0.115
1.642,0.245,0.095
1.644,0.300,0.075
1.646,0.330,0.050
1.648,0.310,0.035
1.650,0.325,0.020
1.652,0.305,0.010
1.654,0.275,0.010
1.656,0.195,0.010
1.658,0.120,0.010
1.660,0.195,0.010
1.662,0.185,0.010
1.664,0.210,0.005
1.666,0.265,0.000
1.668,0.270,-0.010
1.670,0.290,-0.020
1.672,0.230,-0.030
1.674,0.235,-0.035
1.676,0.170,-0.035
1.678,0.150,-0.035
1.680,0.120,-0.030
1.682,0.155,-0.030
1.684,0.170,-0.025
1.686,0.210,-0.030
1.688,0.250,-0.035
1.690,0.270,-0.040
1.692,0.280,-0.055
1.694,0.220,-0.065
1.696,0.080,-0.070
1.698,0.080,-0.075
1.700,0.095,-0.075
1.702,0.120,-0.070
1.704,0.190,-0.065
1.706,0.205,-0.060
1.708,0.260,-0.055
1.710,0.225,-0.055
1.712,0.215,-0.055
1.714,0.175,-0.065
1.716,0.100,-0.075
1.718,0.075,-0.080
1.720,0.080,-0.090
1.722,0.125,-0.090
1.724,0.195,-0.090
1.726,0.185,-0.085
1.728,0.220,-0.080
1.730,0.195,-0.070
1.732,0.215,-0.065
1.734,0.205,-0.065
1.736,0.090,-0.065
1.738,0.080,-0.070
1.740,0.100,-0.075
1.742,0.115,-0.080
1.744,0.185,-0.075
1.746,0.240,-0.070
1.748,0.250,-0.060
1.750,0.250,-0.050
1.752,0.205,-0.035
1.754,0.130,-0.025
1.756,0.150,-0.020
1.758,0.140,-0.020
1.760,0.130,-0.030
1.762,0.140,-0.040
1.764,0.205,-0.050
1.766,0.225,-0.060
1.768,0.250,-0.065
1.770,0.275,-0.065
1.772,0.200,-0.060
1.774,0.125,-0.050
1.776,0.150,-0.040
1.778,0.125,-0.030
1.780,0.120,-0.025
1.782,0.155,-0.025
1.784,0.170,-0.035
1.786,0.260,-0.045
1.788,0.265,-0.055
1.790,0.265,-0.065
1.792,0.195,-0.075
1.794,0.140,-0.075
1.796,0.095,-0.075
1.798,0.090,-0.065
1.800,0.130,-0.060
1.802,0.190,-0.050
1.804,0.245,-0.045
1.806,0.260,-0.040
1.808,0.245,-0.040
1.810,0.200,-0.045
1.812,0.185,-0.045
1.814,0.120,-0.050
1.816,0.105,-0.055
1.818,0.110,-0.055
1.820,0.120,-0.060
1.822,0.150,-0.065
1.824,0.220,-0.065
1.826,0.275,-0.070
1.828,0.215,-0.070
1.830,0.185,-0.070
1.832,0.145,-0.070
1.834,0.095,-0.060
1.836,0.085,-0.055
1.838,0.170,-0.045
1.840,0.190,-0.040
1.842,0.205,-0.035
1.844,0.210,-0.030
1.846,0.250,-0.035
1.848,0.230,-0.040
1.850,0.185,-0.050
1.852,0.165,-0.060
1.854,0.130,-0.065
1.856,0.120,-0.075
1.858,0.135,-0.075
1.860,0.140,-0.075
1.862,0.180,-0.070
1.864,0.170,-0.065
1.866,0.225,-0.055
1.868,0.265,-0.050
1.870,0.205,-0.045
1.872,0.185,-0.040
1.874,0.160,-0.035
1.876,0.140,-0.030
1.878,0.115,-0.030
1.880,0.130,-0.030
1.882,0.185,-0.035
1.884,0.275,-0.040
1.886,0.260,-0.045
1.888,0.225,-0.055
1.890,0.205,-0.070
1.892,0.175,-0.080
1.894,0.130,-0.090
1.896,0.050,-0.095
1.898,0.035,-0.100
1.900,0.070,-0.100
1.902,0.150,-0.095
1.904,0.190,-0.090
1.906,0.260,-0.080
1.908,0.235,-0.070
1.910,0.215,-0.060
1.912,0.210,-0.055
1.914,0.125,-0.055
1.916,0.070,-0.055
1.918,0.085,-0.060
1.920,0.105,-0.060
1.922,0.150,-0.065
1.924,0.215,-0.065
1.926,0.245,-0.060
1.928,0.240,-0.060
1.930,0.225,-0.055
1.932,0.210,-0.050
1.934,0.165,-0.050
1.936,0.105,-0.050
1.938,0.100,-0.055
1.940,0.090,-0.065
1.942,0.140,-0.075
1.944,0.205,-0.085
1.946,0.280,-0.090
1.948,0.225,-0.090
1.950,0.145,-0.090
1.952,0.130,-0.080
1.954,0.155,-0.065
1.956,0.145,-0.050
1.958,0.115,-0.040
1.960,0.155,-0.030
1.962,0.195,-0.025
1.964,0.230,-0.030
1.966,0.260,-0.035
1.968,0.265,-0.050
1.970,0.215,-0.060
1.972,0.105,-0.075
1.974,0.105,-0.080
1.976,0.090,-0.085
1.978,0.090,-0.080
1.980,0.140,-0.075
1.982,0.190,-0.065
1.984,0.270,-0.060
1.986,0.300,-0.050
1.988,0.240,-0.050
1.990,0.185,-0.050
1.992,0.115,-0.055
1.994,0.095,-0.055
1.996,0.085,-0.060
1.998,0.135,-0.060
2.000,0.165,-0.060
2.002,0.250,-0.055
2.004,0.290,-0.045
2.006,0.310,-0.040
2.008,0.245,-0.030
2.010,0.230,-0.025
2.012,0.175,-0.020
2.014,0.145,-0.020
2.016,0.130,-0.025
2.018,0.135,-0.025
2.020,0.165,-0.030
2.022,0.220,-0.030
2.024,0.240,-0.030
2.026,0.260,-0.030
2.028,0.290,-0.030
2.030,0.235,-0.025
2.032,0.170,-0.020
2.034,0.165,-0.020
2.036,0.170,-0.015
2.038,0.135,-0.015
2.040,0.170,-0.020
2.042,0.240,-0.020
2.044,0.280,-0.025
2.046,0.250,-0.030
2.048,0.205,-0.035
2.050,0.205,-0.035
2.052,0.195,-0.035
2.054,0.165,-0.035
2.056,0.195,-0.030
2.058,0.165,-0.025
2.060,0.140,-0.020
2.062,0.165,-0.015
2.064,0.230,-0.005
2.066,0.345,0.000
2.068,0.320,0.000
2.070,0.260,0.005
2.072,0.200,0.000
2.074,0.180,0.000
2.076,0.175,0.000
2.078,0.210,0.000
2.080,0.215,0.000
2.082,0.280,0.010
2.084,0.305,0.015
2.086,0.290,0.025
2.088,0.330,0.030
2.090,0.345,0.035
2.092,0.235,0.035
2.094,0.180,0.035
2.096,0.185,0.030
2.098,0.180,0.025
2.100,0.240,0.020
2.102,0.290,0.015
2.104,0.340,0.020
2.106,0.380,0.025
2.108,0.365,0.030
2.110,0.305,0.040
2.112,0.240,0.045
2.114,0.175,0.050
2.116,0.180,0.045
2.118,0.185,0.035
2.120,0.225,0.025
2.122,0.300,0.010
2.124,0.270,-0.010
2.126,0.280,-0.020
2.128,0.275,-0.035
2.130,0.205,-0.040
2.132,0.185,-0.040
2.134,0.155,-0.035
2.136,0.115,-0.030
2.138,0.100,-0.025
2.140,0.165,-0.020
2.142,0.285,-0.015
2.144,0.290,-0.015
2.146,0.275,-0.020
2.148,0.265,-0.025
2.150,0.265,-0.035
2.152,0.155,-0.040
2.154,0.120,-0.045
2.156,0.110,-0.050
2.158,0.155,-0.045
2.160,0.200,-0.045
2.162,0.260,-0.035
2.164,0.260,-0.030
2.166,0.255,-0.020
2.168,0.210,-0.015
2.170,0.220,-0.010
2.172,0.220,-0.010
2.174,0.175,-0.010
2.176,0.125,-0.015
2.178,0.140,-0.020
2.180,0.135,-0.030
2.182,0.255,-0.035
2.184,0.305,-0.035
2.186,0.290,-0.035
2.188,0.235,-0.030
2.190,0.205,-0.025
2.192,0.115,-0.020
2.194,0.130,-0.020
2.196,0.175,-0.025
2.198,0.195,-0.030
2.200,0.185,-0.045
2.202,0.240,-0.065
2.204,0.195,-0.080
2.206,0.135,-0.090
2.208,0.150,-0.095
2.210,0.110,-0.090
2.212,0.130,-0.075
2.214,0.090,-0.050
2.216,0.135,-0.020
2.218,0.265,0.025
2.220,0.375,0.070
2.222,0.425,0.130
2.224,0.485,0.190
2.226,0.535,0.255
2.228,0.590,0.330
2.230,0.645,0.405
2.232,0.695,0.480
2.234,0.785,0.540
2.236,0.810,0.590
2.238,0.805,0.610
2.240,0.795,0.600
2.242,0.820,0.560
2.244,0.775,0.485
2.246,0.695,0.385
2.248,0.545,0.270
2.250,0.360,0.155
2.252,0.155,0.040
2.254,0.025,-0.050
2.256,0.005,-0.115
2.258,0.010,-0.155
2.260,0.090,-0.165
2.262,0.140,-0.150
2.264,0.195,-0.120
2.266,0.190,-0.085
2.268,0.225,-0.055
2.270,0.230,-0.030
2.272,0.210,-0.015
2.274,0.160,-0.010
2.276,0.145,-0.015
2.278,0.070,-0.025
2.280,0.150,-0.040
2.282,0.230,-0.055
2.284,0.245,-0.065
2.286,0.250,-0.070
2.288,0.200,-0.070
2.290,0.155,-0.065
2.292,0.085,-0.060
2.294,0.100,-0.055
2.296,0.120,-0.050
2.298,0.175,-0.045
2.300,0.195,-0.045
2.302,0.220,-0.045
2.304,0.230,-0.045
2.306,0.225,-0.050
2.308,0.255,-0.050
2.310,0.180,-0.055
2.312,0.140,-0.050
2.314,0.140,-0.045
2.316,0.145,-0.035
2.318,0.130,-0.025
2.320,0.175,-0.015
2.322,0.325,-0.005
2.324,0.300,0.005
2.326,0.270,0.005
2.328,0.275,0.005
2.330,0.190,0.005
2.332,0.185,0.000
2.334,0.150,0.000
2.336,0.145,0.000
2.338,0.150,0.005
2.340,0.260,0.010
2.342,0.315,0.015
2.344,0.300,0.025
2.346,0.295,0.030
2.348,0.310,0.035
2.350,0.260,0.030
2.352,0.170,0.025
2.354,0.150,0.015
2.356,0.170,0.005
2.358,0.195,-0.005
2.360,0.235,-0.005
2.362,0.285,-0.005
2.364,0.300,0.005
2.366,0.300,0.020
2.368,0.350,0.035
2.370,0.240,0.050
2.372,0.175,0.060
2.374,0.195,0.065
2.376,0.210,0.065
2.378,0.225,0.060
2.380,0.290,0.050
2.382,0.330,0.040
2.384,0.330,0.030
2.386,0.325,0.020
2.388,0.320,0.015
2.390,0.195,0.020
2.392,0.105,0.030
2.394,0.140,0.040
2.396,0.260,0.055
2.398,0.245,0.070
2.400,0.350,0.080
2.402,0.410,0.090
2.404,0.410,0.095
2.406,0.370,0.100
2.408,0.285,0.100
2.410,0.280,0.105
2.412,0.270,0.110
2.414,0.230,0.110
2.416,0.300,0.115
2.418,0.320,0.120
2.420,0.390,0.125
2.422,0.420,0.130
2.424,0.430,0.135
2.426,0.435,0.140
2.428,0.405,0.145
2.430,0.365,0.150
2.432,0.340,0.160
2.434,0.270,0.170
2.436,0.345,0.175
2.438,0.390,0.185
2.440,0.430,0.190
2.442,0.475,0.195
2.444,0.510,0.195
2.446,0.460,0.200
2.448,0.445,0.200
2.450,0.375,0.200
2.452,0.355,0.205
2.454,0.375,0.215
2.456,0.385,0.220
2.458,0.425,0.230
2.460,0.515,0.240
2.462,0.505,0.245
2.464,0.520,0.245
2.466,0.500,0.240
2.468,0.490,0.230
2.470,0.385,0.220
2.472,0.350,0.210
2.474,0.345,0.200
2.476,0.380,0.195
2.478,0.425,0.190
2.480,0.475,0.190
2.482,0.500,0.190
2.484,0.465,0.190
2.486,0.415,0.185
2.488,0.370,0.175
2.490,0.300,0.165
2.492,0.245,0.145
2.494,0.240,0.125
2.496,0.285,0.105
2.498,0.290,0.090
2.500,0.345,0.075
2.502,0.345,0.070
2.504,0.300,0.060
2.506,0.315,0.055
2.508,0.260,0.050
2.510,0.170,0.040
2.512,0.090,0.030
2.514,0.145,0.015
2.516,0.230,0.000
2.518,0.270,-0.010
2.520,0.205,-0.025
2.522,0.190,-0.030
2.524,0.230,-0.035
2.526,0.230,-0.035
2.528,0.190,-0.035
2.530,0.115,-0.035
2.532,0.085,-0.040
2.534,0.095,-0.045
2.536,0.125,-0.055
2.538,0.100,-0.065
2.540,0.150,-0.075
2.542,0.205,-0.080
2.544,0.210,-0.080
2.546,0.170,-0.075
2.548,0.145,-0.065
2.550,0.045,-0.055
2.552,0.100,-0.040
2.554,0.100,-0.035
2.556,0.110,-0.030
2.558,0.205,-0.035
2.560,0.190,-0.045
2.562,0.190,-0.055
2.564,0.205,-0.070
2.566,0.155,-0.080
2.568,0.135,-0.085
2.570,0.110,-0.090
2.572,0.040,-0.090
2.574,-0.010,-0.085
2.576,0.035,-0.085
2.578,0.125,-0.085
2.580,0.215,-0.085
2.582,0.255,-0.085
2.584,0.190,-0.085
2.586,0.170,-0.085
2.588,0.125,-0.075
2.590,0.040,-0.065
2.592,0.045,-0.055
2.594,0.095,-0.045
2.596,0.115,-0.035
2.598,0.160,-0.030
2.600,0.205,-0.035
2.602,0.220,-0.040
2.604,0.200,-0.055
2.606,0.140,-0.065
2.608,0.070,-0.080
2.610,0.015,-0.090
2.612,-0.025,-0.095
2.614,0.055,-0.090
2.616,0.105,-0.085
2.618,0.180,-0.080
2.620,0.240,-0.070
2.622,0.240,-0.065
2.624,0.235,-0.060
2.626,0.100,-0.065
2.628,0.060,-0.065
2.630,0.040,-0.070
2.632,0.065,-0.070
2.634,0.065,-0.070
2.636,0.105,-0.065
2.638,0.180,-0.060
2.640,0.175,-0.055
2.642,0.235,-0.050
2.644,0.220,-0.045
2.646,0.175,-0.050
2.648,0.125,-0.055
2.650,0.090,-0.060
2.652,0.025,-0.070
2.654,0.035,-0.075
2.656,0.095,-0.075
2.658,0.170,-0.075
2.660,0.230,-0.070
2.662,0.225,-0.060
2.664,0.155,-0.050
2.666,0.140,-0.045
2.668,0.135,-0.045
2.670,0.070,-0.045
2.672,0.065,-0.050
2.674,0.065,-0.055
2.676,0.115,-0.065
2.678,0.185,-0.070
2.680,0.185,-0.070
2.682,0.190,-0.065
2.684,0.155,-0.060
2.686,0.185,-0.055
2.688,0.105,-0.045
2.690,0.070,-0.045
2.692,0.020,-0.045
2.694,0.055,-0.050
2.696,0.110,-0.055
2.698,0.190,-0.060
2.700,0.215,-0.065
2.702,0.220,-0.065
2.704,0.175,-0.060
2.706,0.140,-0.055
2.708,0.085,-0.045
2.710,0.035,-0.040
2.712,0.070,-0.035
2.714,0.095,-0.040
2.716,0.120,-0.045
2.718,0.175,-0.055
2.720,0.180,-0.065
2.722,0.160,-0.075
2.724,0.160,-0.080
2.726,0.130,-0.080
2.728,0.025,-0.075
2.730,0.045,-0.070
2.732,0.085,-0.065
2.734,0.080,-0.060
2.736,0.100,-0.055
2.738,0.145,-0.060
2.740,0.150,-0.065
2.742,0.190,-0.070
2.744,0.140,-0.080
2.746,0.120,-0.080
2.748,0.015,-0.080
2.750,0.010,-0.075
2.752,0.115,-0.065
2.754,0.085,-0.050
2.756,0.160,-0.040
2.758,0.175,-0.035
2.760,0.200,-0.035
2.762,0.165,-0.040
2.764,0.115,-0.050
2.766,0.080,-0.060
2.768,0.040,-0.065
2.770,0.055,-0.070
2.772,0.040,-0.070
2.774,0.100,-0.065
2.776,0.130,-0.060
2.778,0.155,-0.050
2.780,0.150,-0.050
2.782,0.145,-0.050
2.784,0.165,-0.055
2.786,0.125,-0.065
2.788,0.030,-0.075
2.790,0.055,-0.085
2.792,-0.025,-0.095
2.794,0.040,-0.095
2.796,0.105,-0.095
2.798,0.115,-0.095
2.800,0.135,-0.090
2.802,0.165,-0.085
2.804,0.165,-0.085
2.806,0.085,-0.080
2.808,0.000,-0.080
2.810,0.005,-0.080
2.812,0.020,-0.080
2.814,0.060,-0.075
2.816,0.135,-0.070
2.818,0.175,-0.065
2.820,0.205,-0.060
2.822,0.185,-0.055
2.824,0.110,-0.050
2.826,0.065,-0.050
2.828,0.020,-0.055
2.830,0.000,-0.065
2.832,0.030,-0.070
2.834,0.040,-0.080
2.836,0.105,-0.085
2.838,0.185,-0.085
2.840,0.225,-0.085
2.842,0.150,-0.080
2.844,0.105,-0.070
2.846,0.085,-0.065
2.848,0.035,-0.065
2.850,0.040,-0.060
2.852,0.005,-0.065
2.854,0.015,-0.070
2.856,0.115,-0.075
2.858,0.140,-0.080
2.860,0.145,-0.085
2.862,0.140,-0.085
2.864,0.115,-0.085
2.866,0.085,-0.080
2.868,0.025,-0.080
2.870,-0.005,-0.075
2.872,-0.015,-0.075
2.874,0.030,-0.070
2.876,0.100,-0.075
2.878,0.120,-0.075
2.880,0.140,-0.080
2.882,0.175,-0.085
2.884,0.095,-0.090
2.886,0.010,-0.090
2.888,0.005,-0.090
2.890,-0.010,-0.090
2.892,0.050,-0.085
2.894,0.030,-0.075
2.896,0.110,-0.070
2.898,0.130,-0.060
2.900,0.175,-0.055
2.902,0.190,-0.045
2.904,0.150,-0.045
2.906,0.070,-0.040
2.908,0.020,-0.045
2.910,-0.030,-0.050
2.912,0.005,-0.055
2.914,0.065,-0.065
2.916,0.130,-0.070
2.918,0.160,-0.075
2.920,0.130,-0.080
2.922,0.130,-0.080
2.924,0.095,-0.075
2.926,0.010,-0.070
2.928,0.050,-0.060
2.930,0.010,-0.055
2.932,0.030,-0.050
2.934,0.070,-0.050
2.936,0.135,-0.050
2.938,0.135,-0.055
2.940,0.130,-0.065
2.942,0.135,-0.070
2.944,0.120,-0.080
2.946,0.000,-0.080
2.948,0.015,-0.080
2.950,0.040,-0.075
2.952,-0.005,-0.065
2.954,0.035,-0.055
2.956,0.175,-0.045
2.958,0.165,-0.030
2.960,0.145,-0.025
2.962,0.180,-0.020
2.964,0.140,-0.025
2.966,0.065,-0.030
2.968,-0.005,-0.040
2.970,-0.025,-0.050
2.972,0.010,-0.060
2.974,0.050,-0.065
2.976,0.140,-0.060
2.978,0.165,-0.055
2.980,0.180,-0.045
2.982,0.165,-0.035
2.984,0.165,-0.020
2.986,0.085,-0.010
2.988,0.065,0.000
2.990,0.055,0.010
2.992,0.110,0.010
2.994,0.165,0.010
2.996,0.210,0.010
2.998,0.190,0.010
3.000,0.195,0.010
3.002,0.165,0.005
3.004,0.145,0.005
3.006,0.105,0.005
3.008,0.080,0.000
3.010,0.045,-0.005
3.012,0.055,-0.010
3.014,0.100,-0.020
3.016,0.130,-0.030
3.018,0.180,-0.040
3.020,0.110,-0.055
3.022,0.080,-0.060
3.024,0.070,-0.070
3.026,0.030,-0.075
3.028,0.025,-0.080
3.030,0.020,-0.080
3.032,-0.020,-0.080
3.034,0.005,-0.080
3.036,0.085,-0.080
3.038,0.095,-0.075
3.040,0.100,-0.070
3.042,0.110,-0.060
3.044,0.075,-0.055
3.046,0.020,-0.045
3.048,-0.010,-0.045
3.050,0.020,-0.045
3.052,0.040,-0.045
3.054,0.100,-0.055
3.056,0.100,-0.065
3.058,0.065,-0.075
3.060,0.095,-0.080
3.062,0.100,-0.090
3.064,0.035,-0.090
3.066,-0.025,-0.090
3.068,-0.030,-0.085
3.070,-0.065,-0.080
3.072,0.010,-0.080
3.074,0.040,-0.075
3.076,0.085,-0.075
3.078,0.135,-0.075
3.080,0.110,-0.075
3.082,0.090,-0.075
3.084,0.100,-0.070
3.086,0.050,-0.065
3.088,-0.040,-0.055
3.090,-0.030,-0.050
3.092,0.030,-0.050
3.094,0.065,-0.055
3.096,0.070,-0.060
3.098,0.080,-0.075
3.100,0.095,-0.090
3.102,0.050,-0.100
3.104,-0.015,-0.110
3.106,-0.030,-0.115
3.108,-0.105,-0.110
3.110,-0.040,-0.100
3.112,0.000,-0.075
3.114,0.070,-0.050
3.116,0.145,-0.010
3.118,0.250,0.030
3.120,0.330,0.085
3.122,0.345,0.145
3.124,0.305,0.215
3.126,0.265,0.290
3.128,0.360,0.370
3.130,0.585,0.450
3.132,0.670,0.520
3.134,0.745,0.565
3.136,0.770,0.585
3.138,0.760,0.575
3.140,0.685,0.530
3.142,0.575,0.455
3.144,0.395,0.355
3.146,0.260,0.245
3.148,0.140,0.135
3.150,0.085,0.035
3.152,-0.015,-0.045
3.154,-0.025,-0.100
3.156,-0.010,-0.130
3.158,0.045,-0.135
3.160,0.015,-0.130
3.162,0.025,-0.110
3.164,-0.030,-0.085
3.166,0.005,-0.065
3.168,-0.015,-0.050
3.170,-0.010,-0.040
3.172,0.025,-0.040
3.174,0.095,-0.040
3.176,0.140,-0.040
3.178,0.175,-0.040
3.180,0.130,-0.040
3.182,0.125,-0.040
3.184,0.025,-0.040
3.186,-0.075,-0.040
3.188,-0.060,-0.045
3.190,-0.005,-0.050
3.192,0.020,-0.055
3.194,0.085,-0.055
3.196,0.105,-0.055
3.198,0.140,-0.050
3.200,0.135,-0.045
3.202,0.125,-0.030
3.204,0.045,-0.015
3.206,0.045,0.000
3.208,-0.020,0.010
3.210,0.035,0.010
3.212,0.065,0.005
3.214,0.085,-0.005
3.216,0.110,-0.015
3.218,0.160,-0.030
3.220,0.115,-0.040
3.222,0.030,-0.050
3.224,0.025,-0.050
3.226,0.015,-0.040
3.228,0.045,-0.030
3.230,-0.020,-0.015
3.232,0.060,0.000
3.234,0.160,0.015
3.236,0.185,0.025
3.238,0.175,0.025
3.240,0.110,0.025
3.242,0.065,0.020
3.244,0.015,0.015
3.246,0.065,0.005
3.248,0.095,0.000
3.250,0.035,0.000
3.252,0.045,0.005
3.254,0.155,0.010
3.256,0.180,0.020
3.258,0.200,0.030
3.260,0.160,0.040
3.262,0.105,0.045
3.264,0.090,0.050
3.266,0.050,0.045
3.268,0.045,0.045
3.270,0.030,0.035
3.272,0.090,0.030
3.274,0.195,0.025
3.276,0.190,0.025
3.278,0.160,0.025
3.280,0.165,0.030
3.282,0.155,0.040
3.284,0.105,0.050
3.286,0.065,0.060
3.288,0.060,0.070
3.290,0.080,0.075
3.292,0.160,0.080
3.294,0.245,0.085
3.296,0.220,0.085
3.298,0.255,0.085
3.300,0.215,0.090
3.302,0.195,0.095
3.304,0.110,0.100
3.306,0.100,0.105
3.308,0.115,0.110
3.310,0.170,0.115
3.312,0.225,0.120
3.314,0.215,0.125
3.316,0.260,0.125
3.318,0.280,0.130
3.320,0.295,0.140
3.322,0.230,0.150
3.324,0.185,0.160
3.326,0.190,0.175
3.328,0.220,0.190
3.330,0.260,0.205
3.332,0.280,0.215
3.334,0.320,0.220
3.336,0.390,0.225
3.338,0.380,0.225
3.340,0.350,0.225
3.342,0.265,0.220
3.344,0.225,0.225
3.346,0.225,0.225
3.348,0.260,0.235
3.350,0.290,0.245
3.352,0.330,0.255
3.354,0.420,0.265
3.356,0.430,0.275
3.358,0.415,0.280
3.360,0.355,0.280
3.362,0.280,0.280
3.364,0.285,0.275
3.366,0.245,0.270
3.368,0.260,0.265
3.370,0.300,0.260
3.372,0.350,0.255
3.374,0.395,0.250
3.376,0.385,0.250
3.378,0.385,0.245
3.380,0.345,0.240
3.382,0.245,0.235
3.384,0.195,0.230
3.386,0.225,0.220
3.388,0.215,0.210
3.390,0.200,0.195
3.392,0.280,0.175
3.394,0.325,0.160
3.396,0.240,0.145
3.398,0.225,0.130
3.400,0.205,0.115
3.402,0.155,0.110
3.404,0.095,0.105
3.406,0.065,0.100
3.408,0.060,0.095
3.410,0.085,0.095
3.412,0.120,0.085
3.414,0.150,0.075
3.416,0.185,0.065
3.418,0.190,0.050
3.420,0.105,0.030
3.422,0.050,0.015
3.424,0.010,0.005
3.426,-0.045,-0.005
3.428,-0.020,-0.005
3.430,0.055,-0.005
3.432,0.090,0.005
3.434,0.125,0.010
3.436,0.120,0.015
3.438,0.135,0.015
3.440,0.095,0.010
3.442,0.025,0.005
3.444,-0.010,-0.010
3.446,-0.100,-0.020
3.448,-0.030,-0.035
3.450,-0.005,-0.040
3.452,0.060,-0.040
3.454,0.070,-0.040
3.456,0.055,-0.030
3.458,0.100,-0.020
3.460,0.045,-0.010
3.462,-0.015,-0.005
3.464,-0.020,-0.005
3.466,-0.020,-0.005
3.468,-0.030,-0.015
3.470,-0.010,-0.030
3.472,-0.015,-0.040
3.474,0.055,-0.050
3.476,0.100,-0.055
3.478,0.060,-0.055
3.480,0.005,-0.055
3.482,-0.035,-0.045
3.484,-0.035,-0.035
3.486,-0.035,-0.025
3.488,-0.020,-0.015
3.490,0.025,-0.015
3.492,0.055,-0.015
3.494,0.105,-0.015
3.496,0.060,-0.025
3.498,0.065,-0.030
3.500,0.060,-0.035
3.502,-0.030,-0.040
3.504,-0.045,-0.040
3.506,-0.070,-0.035
3.508,-0.025,-0.030
3.510,-0.040,-0.025
3.512,0.055,-0.020
3.514,0.100,-0.015
3.516,0.100,-0.015
3.518,0.060,-0.015
3.520,0.065,-0.020
3.522,-0.005,-0.020
3.524,-0.090,-0.025
3.526,-0.090,-0.025
3.528,-0.025,-0.025
3.530,0.000,-0.025
3.532,0.090,-0.025
3.534,0.095,-0.025
3.536,0.100,-0.025
3.538,0.045,-0.025
3.540,0.015,-0.025
3.542,-0.030,-0.025
3.544,-0.060,-0.030
3.546,-0.075,-0.030
3.548,-0.045,-0.035
3.550,0.000,-0.035
3.552,0.045,-0.035
3.554,0.070,-0.035
3.556,0.070,-0.035
3.558,0.050,-0.035
3.560,0.020,-0.035
3.562,-0.030,-0.030
3.564,-0.045,-0.030
3.566,-0.045,-0.025
3.568,-0.025,-0.025
3.570,0.050,-0.020
3.572,0.105,-0.015
3.574,0.070,-0.010
3.576,0.080,-0.010
3.578,0.045,-0.005
3.580,0.025,-0.005
3.582,-0.035,-0.010
3.584,-0.070,-0.015
3.586,-0.090,-0.020
3.588,-0.050,-0.030
3.590,0.035,-0.035
3.592,0.085,-0.040
3.594,0.040,-0.045
3.596,0.030,-0.045
3.598,0.020,-0.040
3.600,0.020,-0.035
3.602,-0.055,-0.025
3.604,-0.025,-0.020
3.606,-0.060,-0.015
3.608,-0.020,-0.015
3.610,0.035,-0.015
3.612,0.025,-0.015
3.614,0.090,-0.020
3.616,0.055,-0.025
3.618,0.015,-0.030
3.620,0.010,-0.030
3.622,-0.045,-0.035
3.624,-0.060,-0.040
3.626,-0.125,-0.045
3.628,-0.135,-0.050
3.630,-0.025,-0.055
3.632,0.060,-0.060
3.634,0.055,-0.065
3.636,0.055,-0.065
3.638,0.020,-0.065
3.640,-0.055,-0.060
3.642,-0.090,-0.055
3.644,-0.095,-0.050
3.646,-0.090,-0.045
3.648,-0.055,-0.045
3.650,-0.005,-0.045
3.652,0.060,-0.045
3.654,0.045,-0.045
3.656,0.040,-0.045
3.658,0.015,-0.050
3.660,0.010,-0.050
3.662,-0.060,-0.045
3.664,-0.125,-0.045
3.666,-0.130,-0.045
3.668,-0.055,-0.045
3.670,-0.025,-0.045
3.672,0.005,-0.045
3.674,0.025,-0.045
3.676,0.015,-0.050
3.678,0.030,-0.050
3.680,-0.065,-0.050
3.682,-0.070,-0.050
3.684,-0.095,-0.050
3.686,-0.085,-0.050
3.688,-0.050,-0.050
3.690,0.000,-0.055
3.692,0.000,-0.060
3.694,0.040,-0.060
3.696,0.030,-0.065
3.698,-0.030,-0.070
3.700,-0.075,-0.070
3.702,-0.125,-0.070
3.704,-0.160,-0.065
3.706,-0.125,-0.060
3.708,-0.065,-0.060
3.710,-0.010,-0.055
3.712,0.015,-0.055
3.714,0.025,-0.055
3.716,0.015,-0.060
3.718,-0.005,-0.065
3.720,-0.040,-0.070
3.722,-0.125,-0.075
3.724,-0.160,-0.075
3.726,-0.135,-0.075
3.728,-0.090,-0.075
3.730,-0.035,-0.070
3.732,0.035,-0.065
3.734,0.070,-0.060
3.736,0.055,-0.055
3.738,-0.015,-0.050
3.740,-0.090,-0.055
3.742,-0.155,-0.055
3.744,-0.150,-0.060
3.746,-0.140,-0.060
3.748,-0.070,-0.060
3.750,0.010,-0.065
3.752,0.035,-0.065
3.754,0.040,-0.065
3.756,-0.040,-0.060
3.758,-0.020,-0.060
3.760,-0.105,-0.065
3.762,-0.140,-0.065
3.764,-0.140,-0.065
3.766,-0.130,-0.065
3.768,-0.100,-0.065
3.770,-0.005,-0.060
3.772,0.030,-0.055
3.774,0.050,-0.050
3.776,0.055,-0.040
3.778,-0.015,-0.040
3.780,-0.090,-0.040
3.782,-0.120,-0.045
3.784,-0.160,-0.055
3.786,-0.130,-0.070
3.788,-0.115,-0.085
3.790,-0.080,-0.095
3.792,-0.025,-0.105
3.794,-0.005,-0.105
3.796,0.020,-0.100
3.798,-0.030,-0.090
3.800,-0.100,-0.075
3.802,-0.155,-0.060
3.804,-0.125,-0.045
3.806,-0.115,-0.035
3.808,-0.070,-0.035
3.810,-0.010,-0.040
3.812,0.020,-0.045
3.814,0.005,-0.060
3.816,-0.040,-0.070
3.818,-0.070,-0.075
3.820,-0.090,-0.080
3.822,-0.130,-0.080
3.824,-0.130,-0.075
3.826,-0.110,-0.065
3.828,-0.060,-0.060
3.830,-0.030,-0.050
3.832,0.035,-0.050
3.834,0.005,-0.055
3.836,-0.060,-0.060
3.838,-0.075,-0.065
3.840,-0.090,-0.070
3.842,-0.125,-0.075
3.844,-0.175,-0.080
3.846,-0.155,-0.075
3.848,-0.055,-0.075
3.850,-0.015,-0.070
3.852,-0.010,-0.065
3.854,0.005,-0.060
3.856,-0.050,-0.060
3.858,-0.080,-0.060
3.860,-0.125,-0.060
3.862,-0.145,-0.060
3.864,-0.145,-0.065
3.866,-0.115,-0.065
3.868,-0.055,-0.060
3.870,-0.020,-0.060
3.872,0.020,-0.055
3.874,0.015,-0.055
3.876,-0.035,-0.055
3.878,-0.110,-0.055
3.880,-0.145,-0.050
3.882,-0.135,-0.050
3.884,-0.085,-0.045
3.886,-0.060,-0.040
3.888,-0.010,-0.030
3.890,0.025,-0.020
3.892,0.020,-0.015
3.894,0.040,-0.005
3.896,0.025,0.000
3.898,-0.035,0.000
3.900,-0.080,-0.005
3.902,-0.150,-0.010
3.904,-0.085,-0.010
3.906,-0.060,-0.015
3.908,0.000,-0.015
3.910,0.035,-0.015
3.912,0.075,-0.010
3.914,0.045,-0.005
3.916,0.010,0.000
3.918,-0.025,0.005
3.920,-0.075,0.005
3.922,-0.090,0.000
3.924,-0.070,0.000
3.926,-0.040,-0.005
3.928,-0.105,-0.010
3.930,0.000,-0.015
3.932,0.065,-0.015
3.934,0.060,-0.015
3.936,0.015,-0.015
3.938,-0.035,-0.020
3.940,-0.075,-0.020
3.942,-0.135,-0.025
3.944,-0.140,-0.035
3.946,-0.115,-0.040
3.948,-0.060,-0.050
3.950,-0.020,-0.060
3.952,0.015,-0.065
3.954,-0.010,-0.070
3.956,-0.055,-0.070
3.958,-0.130,-0.065
3.960,-0.235,-0.065
3.962,-0.170,-0.060
3.964,-0.135,-0.055
3.966,-0.085,-0.050
3.968,0.005,-0.050
3.970,0.025,-0.045
3.972,-0.010,-0.050
3.974,-0.050,-0.050
3.976,-0.070,-0.055
3.978,-0.130,-0.060
3.980,-0.160,-0.070
3.982,-0.195,-0.080
3.984,-0.195,-0.085
3.986,-0.145,-0.090
3.988,-0.075,-0.095
3.990,-0.065,-0.100
3.992,-0.030,-0.100
3.994,-0.045,-0.095
3.996,-0.045,-0.090
3.998,-0.090,-0.080
4.000,-0.185,-0.075
4.002,-0.245,-0.070
4.004,-0.150,-0.060
4.006,-0.115,-0.055
4.008,-0.055,-0.055
4.010,-0.005,-0.055
4.012,-0.015,-0.060
4.014,-0.060,-0.065
4.016,-0.080,-0.075
4.018,-0.150,-0.085
4.020,-0.180,-0.100
4.022,-0.210,-0.110
4.024,-0.195,-0.120
4.026,-0.160,-0.125
4.028,-0.115,-0.125
4.030,-0.100,-0.115
4.032,-0.130,-0.100
4.034,-0.115,-0.080
4.036,-0.055,-0.050
4.038,-0.025,-0.020
4.040,-0.005,0.020
4.042,0.010,0.065
4.044,0.110,0.115
4.046,0.135,0.175
4.048,0.210,0.240
4.050,0.270,0.315
4.052,0.385,0.395
4.054,0.560,0.475
4.056,0.630,0.545
4.058,0.580,0.595
4.060,0.530,0.620
4.062,0.485,0.610
4.064,0.475,0.560
4.066,0.400,0.480
4.068,0.365,0.375
4.070,0.275,0.250
4.072,0.145,0.125
4.074,-0.015,0.010
4.076,-0.130,-0.080
4.078,-0.280,-0.145
4.080,-0.360,-0.180
4.082,-0.280,-0.190
4.084,-0.205,-0.175
4.086,-0.215,-0.150
4.088,-0.125,-0.120
4.090,-0.050,-0.095
4.092,-0.005,-0.070
4.094,0.000,-0.055
4.096,-0.060,-0.050
4.098,-0.110,-0.050
4.100,-0.145,-0.050
4.102,-0.180,-0.050
4.104,-0.145,-0.045
4.106,-0.090,-0.045
4.108,-0.040,-0.040
4.110,-0.035,-0.040
4.112,-0.025,-0.035
4.114,-0.065,-0.035
4.116,-0.035,-0.035
4.118,-0.120,-0.035
4.120,-0.165,-0.035
4.122,-0.145,-0.040
4.124,-0.145,-0.040
4.126,-0.065,-0.040
4.128,0.000,-0.045
4.130,-0.035,-0.045
4.132,-0.040,-0.045
4.134,-0.025,-0.050
4.136,-0.055,-0.045
4.138,-0.140,-0.045
4.140,-0.200,-0.040
4.142,-0.215,-0.030
4.144,-0.095,-0.025
4.146,-0.050,-0.020
4.148,-0.015,-0.015
4.150,-0.005,-0.015
4.152,-0.010,-0.015
4.154,-0.045,-0.020
4.156,-0.065,-0.025
4.158,-0.130,-0.030
4.160,-0.130,-0.035
4.162,-0.115,-0.030
4.164,-0.080,-0.025
4.166,-0.050,-0.015
4.168,0.010,0.000
4.170,0.010,0.010
4.172,0.030,0.015
4.174,0.000,0.020
4.176,-0.030,0.020
4.178,-0.095,0.015
4.180,-0.120,0.005
4.182,-0.110,-0.005
4.184,-0.125,-0.010
4.186,-0.075,-0.015
4.188,0.005,-0.015
4.190,0.020,-0.010
4.192,0.030,-0.005
4.194,0.035,0.000
4.196,-0.045,0.005
4.198,-0.080,0.010
4.200,-0.085,0.010
4.202,-0.125,0.010
4.204,-0.100,0.005
4.206,-0.030,0.005
4.208,0.000,0.010
4.210,0.045,0.015
4.212,0.075,0.020
4.214,0.020,0.030
4.216,0.000,0.040
4.218,-0.030,0.050
4.220,-0.065,0.060
4.222,-0.055,0.065
4.224,-0.010,0.070
4.226,0.010,0.075
4.228,0.070,0.075
4.230,0.135,0.080
4.232,0.110,0.085
4.234,0.085,0.090
4.236,0.025,0.095
4.238,0.020,0.105
4.240,-0.010,0.110
4.242,-0.015,0.120
4.244,0.010,0.125
4.246,0.080,0.130
4.248,0.155,0.140
4.250,0.210,0.145
4.252,0.170,0.155
4.254,0.155,0.165
4.256,0.145,0.175
4.258,0.120,0.185
4.260,0.085,0.195
4.262,0.060,0.200
4.264,0.095,0.205
4.266,0.155,0.205
4.268,0.235,0.205
4.270,0.225,0.205
4.272,0.250,0.205
4.274,0.180,0.205
4.276,0.110,0.210
4.278,0.070,0.220
4.280,0.115,0.230
4.282,0.160,0.240
4.284,0.180,0.245
4.286,0.205,0.250
4.288,0.200,0.255
4.290,0.265,0.250
4.292,0.255,0.240
4.294,0.170,0.230
4.296,0.140,0.220
4.298,0.105,0.210
4.300,0.075,0.200
4.302,0.085,0.195
4.304,0.080,0.195
4.306,0.165,0.195
4.308,0.205,0.195
4.310,0.185,0.190
4.312,0.180,0.190
4.314,0.150,0.185
4.316,0.070,0.175
4.318,0.025,0.165
4.320,0.015,0.150
4.322,0.035,0.135
4.324,0.025,0.115
4.326,0.035,0.100
4.328,0.075,0.085
4.330,0.055,0.070
4.332,0.090,0.055
4.334,0.030,0.045
4.336,-0.080,0.035
4.338,-0.110,0.025
4.340,-0.115,0.015
4.342,-0.080,0.005
4.344,-0.075,-0.005
4.346,-0.015,-0.015
4.348,-0.060,-0.020
4.350,-0.025,-0.030
4.352,-0.010,-0.030
4.354,-0.090,-0.030
4.356,-0.115,-0.030
4.358,-0.155,-0.025
4.360,-0.145,-0.020
4.362,-0.140,-0.015
4.364,-0.095,-0.010
4.366,-0.050,-0.010
4.368,0.005,-0.015
4.370,0.000,-0.020
4.372,-0.045,-0.030
4.374,-0.140,-0.040
4.376,-0.150,-0.045
4.378,-0.195,-0.050
4.380,-0.185,-0.050
4.382,-0.160,-0.050
4.384,-0.120,-0.045
4.386,-0.055,-0.040
4.388,-0.035,-0.035
4.390,-0.020,-0.035
4.392,-0.035,-0.040
4.394,-0.075,-0.040
4.396,-0.170,-0.045
4.398,-0.225,-0.050
4.400,-0.210,-0.050
4.402,-0.155,-0.050
4.404,-0.120,-0.050
4.406,-0.070,-0.045
4.408,-0.045,-0.035
4.410,-0.055,-0.035
4.412,-0.045,-0.030
4.414,-0.090,-0.035
4.416,-0.185,-0.040
4.418,-0.170,-0.045
4.420,-0.180,-0.055
4.422,-0.150,-0.060
4.424,-0.100,-0.060
4.426,-0.105,-0.055
4.428,-0.055,-0.050
4.430,0.000,-0.040
4.432,-0.015,-0.030
4.434,-0.080,-0.025
4.436,-0.150,-0.020
4.438,-0.180,-0.015
4.440,-0.160,-0.020
4.442,-0.155,-0.030
4.444,-0.125,-0.040
4.446,-0.055,-0.050
4.448,-0.010,-0.055
4.450,-0.040,-0.060
4.452,-0.070,-0.060
4.454,-0.120,-0.055
4.456,-0.145,-0.045
4.458,-0.190,-0.040
4.460,-0.165,-0.030
4.462,-0.155,-0.025
4.464,-0.090,-0.025
4.466,-0.060,-0.025
4.468,-0.050,-0.025
4.470,-0.050,-0.025
4.472,-0.040,-0.025
4.474,-0.095,-0.025
4.476,-0.110,-0.020
4.478,-0.150,-0.020
4.480,-0.165,-0.015
4.482,-0.170,-0.015
4.484,-0.085,-0.015
4.486,-0.065,-0.020
4.488,-0.005,-0.025
4.490,-0.015,-0.030
4.492,-0.095,-0.035
4.494,-0.110,-0.040
4.496,-0.155,-0.045
4.498,-0.170,-0.040
4.500,-0.185,-0.040
4.502,-0.140,-0.035
4.504,-0.085,-0.030
4.506,-0.045,-0.025
4.508,-0.040,-0.025
4.510,-0.040,-0.020
4.512,-0.075,-0.020
4.514,-0.095,-0.025
4.516,-0.135,-0.025
4.518,-0.160,-0.025
4.520,-0.190,-0.025
4.522,-0.145,-0.025
4.524,-0.115,-0.025
4.526,-0.040,-0.025
4.528,-0.005,-0.025
4.530,-0.045,-0.030
4.532,-0.100,-0.030
4.534,-0.150,-0.035
4.536,-0.175,-0.035
4.538,-0.140,-0.035
4.540,-0.165,-0.035
4.542,-0.135,-0.030
4.544,-0.120,-0.025
4.546,-0.045,-0.020
4.548,-0.025,-0.015
4.550,-0.035,-0.015
4.552,-0.090,-0.015
4.554,-0.135,-0.025
4.556,-0.160,-0.030
4.558,-0.195,-0.040
4.560,-0.150,-0.050
4.562,-0.145,-0.060
4.564,-0.105,-0.065
4.566,-0.065,-0.065
4.568,-0.045,-0.060
4.570,-0.065,-0.055
4.572,-0.100,-0.045
4.574,-0.115,-0.040
4.576,-0.170,-0.035
4.578,-0.205,-0.035
4.580,-0.195,-0.040
4.582,-0.165,-0.045
4.584,-0.110,-0.055
4.586,-0.065,-0.060
4.588,-0.015,-0.065
4.590,-0.015,-0.070
4.592,-0.170,-0.065
4.594,-0.185,-0.060
4.596,-0.160,-0.050
4.598,-0.170,-0.045
4.600,-0.140,-0.040
4.602,-0.130,-0.035
4.604,-0.090,-0.040
4.606,-0.060,-0.045
4.608,-0.045,-0.050
4.610,-0.115,-0.060
4.612,-0.130,-0.060
4.614,-0.140,-0.065
4.616,-0.155,-0.060
4.618,-0.160,-0.050
4.620,-0.160,-0.045
4.622,-0.110,-0.035
4.624,-0.080,-0.030
4.626,-0.055,-0.030
4.628,-0.010,-0.030
4.630,-0.040,-0.035
4.632,-0.130,-0.045
4.634,-0.160,-0.055
4.636,-0.235,-0.060
4.638,-0.220,-0.070
4.640,-0.200,-0.070
4.642,-0.190,-0.070
4.644,-0.100,-0.070
4.646,-0.030,-0.065
4.648,-0.065,-0.055
4.650,-0.090,-0.050
4.652,-0.110,-0.045
4.654,-0.160,-0.040
4.656,-0.185,-0.035
4.658,-0.195,-0.030
4.660,-0.180,-0.025
4.662,-0.100,-0.025
4.664,-0.055,-0.030
4.666,-0.065,-0.035
4.668,-0.035,-0.040
4.670,-0.070,-0.045
4.672,-0.130,-0.055
4.674,-0.220,-0.060
4.676,-0.225,-0.060
4.678,-0.200,-0.060
4.680,-0.145,-0.060
4.682,-0.110,-0.055
4.684,-0.080,-0.050
4.686,-0.065,-0.050
4.688,-0.080,-0.045
4.690,-0.095,-0.045
4.692,-0.120,-0.050
4.694,-0.155,-0.050
4.696,-0.200,-0.050
4.698,-0.190,-0.050
4.700,-0.160,-0.050
4.702,-0.155,-0.045
4.704,-0.050,-0.040
4.706,-0.030,-0.035
4.708,-0.025,-0.035
4.710,-0.095,-0.030
4.712,-0.100,-0.030
4.714,-0.175,-0.035
4.716,-0.210,-0.040
4.718,-0.205,-0.045
4.720,-0.170,-0.050
4.722,-0.115,-0.055
4.724,-0.090,-0.060
4.726,-0.075,-0.060
4.728,-0.055,-0.055
4.730,-0.080,-0.055
4.732,-0.145,-0.050
4.734,-0.200,-0.050
4.736,-0.200,-0.045
4.738,-0.165,-0.045
4.740,-0.150,-0.045
4.742,-0.145,-0.050
4.744,-0.090,-0.055
4.746,-0.040,-0.055
4.748,-0.025,-0.060
4.750,-0.120,-0.060
4.752,-0.140,-0.060
4.754,-0.160,-0.060
4.756,-0.170,-0.055
4.758,-0.155,-0.055
4.760,-0.180,-0.050
4.762,-0.130,-0.050
4.764,-0.095,-0.045
4.766,-0.075,-0.045
4.768,-0.085,-0.045
4.770,-0.065,-0.040
4.772,-0.065,-0.040
4.774,-0.170,-0.040
4.776,-0.180,-0.035
4.778,-0.205,-0.035
4.780,-0.145,-0.030
4.782,-0.065,-0.025
4.784,-0.020,-0.025
4.786,-0.015,-0.020
4.788,-0.025,-0.020
4.790,-0.095,-0.020
4.792,-0.115,-0.020
4.794,-0.145,-0.020
4.796,-0.165,-0.020
4.798,-0.170,-0.020
4.800,-0.135,-0.020
4.802,-0.075,-0.020
4.804,0.000,-0.015
4.806,-0.010,-0.010
4.808,-0.005,-0.005
4.810,-0.040,0.005
4.812,-0.090,0.010
4.814,-0.110,0.020
4.816,-0.115,0.025
4.818,-0.100,0.025
4.820,-0.065,0.030
4.822,-0.030,0.025
4.824,-0.060,0.020
4.826,-0.010,0.015
4.828,0.005,0.010
4.830,-0.040,0.005
4.832,-0.090,0.000
4.834,-0.120,-0.005
4.836,-0.140,-0.010
4.838,-0.180,-0.010
4.840,-0.185,-0.015
4.842,-0.100,-0.020
4.844,-0.015,-0.025
4.846,-0.045,-0.030
4.848,-0.050,-0.035
4.850,-0.080,-0.040
4.852,-0.155,-0.045
4.854,-0.195,-0.045
4.856,-0.190,-0.045
4.858,-0.180,-0.040
4.860,-0.150,-0.035
4.862,-0.095,-0.035
4.864,-0.070,-0.035
4.866,-0.055,-0.035
4.868,-0.070,-0.040
4.870,-0.125,-0.045
4.872,-0.160,-0.050
4.874,-0.165,-0.055
4.876,-0.195,-0.060
4.878,-0.175,-0.060
4.880,-0.165,-0.060
4.882,-0.105,-0.060
4.884,-0.035,-0.055
4.886,-0.080,-0.060
4.888,-0.090,-0.060
4.890,-0.115,-0.065
4.892,-0.170,-0.075
4.894,-0.245,-0.080
4.896,-0.240,-0.080
4.898,-0.195,-0.080
4.900,-0.160,-0.080
4.902,-0.115,-0.075
4.904,-0.095,-0.070
4.906,-0.070,-0.065
4.908,-0.050,-0.065
4.910,-0.100,-0.065
4.912,-0.215,-0.070
4.914,-0.240,-0.075
4.916,-0.240,-0.080
4.918,-0.185,-0.085
4.920,-0.155,-0.085
4.922,-0.125,-0.085
4.924,-0.090,-0.080
4.926,-0.080,-0.080
4.928,-0.120,-0.075
4.930,-0.165,-0.070
4.932,-0.210,-0.065
4.934,-0.215,-0.060
4.936,-0.185,-0.045
4.938,-0.130,-0.020
4.940,-0.025,0.015
4.942,0.100,0.065
4.944,0.130,0.135
4.946,0.200,0.215
4.948,0.270,0.300
4.950,0.330,0.390
4.952,0.395,0.470
4.954,0.430,0.530
4.956,0.465,0.570
4.958,0.475,0.580
4.960,0.490,0.555
4.962,0.480,0.505
4.964,0.385,0.425
4.966,0.295,0.330
4.968,0.200,0.220
4.970,0.040,0.115
4.972,-0.150,0.015
4.974,-0.305,-0.065
4.976,-0.345,-0.125
4.978,-0.270,-0.160
4.980,-0.220,-0.175
4.982,-0.165,-0.170
4.984,-0.140,-0.150
4.986,-0.115,-0.120
4.988,-0.085,-0.095
4.990,-0.080,-0.070
4.992,-0.185,-0.050
4.994,-0.245,-0.035
4.996,-0.240,-0.030
4.998,-0.140,-0.035
5.000,-0.090,-0.035
5.002,-0.055,-0.045
5.004,-0.045,-0.050
5.006,-0.065,-0.050
5.008,-0.100,-0.050
5.010,-0.105,-0.050
5.012,-0.195,-0.045
5.014,-0.230,-0.045
5.016,-0.160,-0.040
5.018,-0.145,-0.035
5.020,-0.105,-0.030
5.022,-0.075,-0.030
5.024,-0.090,-0.030
5.026,-0.050,-0.035
5.028,-0.065,-0.035
5.030,-0.110,-0.040
5.032,-0.185,-0.045
5.034,-0.195,-0.045
5.036,-0.165,-0.045
5.038,-0.120,-0.045
5.040,-0.065,-0.045
5.042,-0.055,-0.035
5.044,-0.035,-0.030
5.046,-0.020,-0.020
5.048,-0.040,-0.015
5.050,-0.080,-0.010
5.052,-0.125,-0.010
5.054,-0.155,-0.010
5.056,-0.195,-0.010
5.058,-0.215,-0.020
5.060,-0.105,-0.025
5.062,0.005,-0.030
5.064,0.050,-0.035
5.066,-0.020,-0.035
5.068,-0.025,-0.030
5.070,-0.145,-0.020
5.072,-0.160,-0.010
5.074,-0.155,0.000
5.076,-0.160,0.005
5.078,-0.080,0.015
5.080,-0.035,0.015
5.082,0.025,0.015
5.084,0.025,0.010
5.086,-0.055,0.005
5.088,-0.020,0.000
5.090,-0.075,0.000
5.092,-0.120,0.000
5.094,-0.165,0.000
5.096,-0.150,0.010
5.098,-0.050,0.020
5.100,0.025,0.030
5.102,0.050,0.045
5.104,0.030,0.050
5.106,-0.010,0.055
5.108,-0.020,0.060
5.110,0.010,0.060
5.112,-0.045,0.060
5.114,-0.055,0.060
5.116,-0.085,0.060
5.118,-0.050,0.060
5.120,0.045,0.070
5.122,0.080,0.075
5.124,0.100,0.085
5.126,0.075,0.095
5.128,-0.025,0.100
5.130,0.025,0.105
5.132,-0.025,0.105
5.134,-0.065,0.100
5.136,-0.015,0.100
5.138,0.000,0.095
5.140,0.070,0.100
5.142,0.125,0.105
5.144,0.120,0.115
5.146,0.130,0.125
5.148,0.095,0.140
5.150,0.095,0.150
5.152,0.030,0.160
5.154,-0.005,0.170
5.156,0.020,0.175
5.158,0.040,0.175
5.160,0.145,0.180
5.162,0.230,0.185
5.164,0.225,0.190
5.166,0.175,0.200
5.168,0.180,0.210
5.170,0.150,0.220
5.172,0.080,0.230
5.174,0.070,0.240
5.176,0.140,0.240
5.178,0.150,0.240
5.180,0.220,0.240
5.182,0.240,0.240
5.184,0.255,0.235
5.186,0.250,0.235
5.188,0.190,0.235
5.190,0.090,0.240
5.192,0.110,0.240
5.194,0.130,0.235
5.196,0.160,0.230
5.198,0.105,0.225
5.200,0.145,0.210
5.202,0.200,0.200
5.204,0.200,0.190
5.206,0.170,0.180
5.208,0.125,0.170
5.210,0.035,0.165
5.212,0.030,0.165
5.214,0.005,0.160
5.216,0.015,0.155
5.218,0.060,0.150
5.220,0.090,0.140
5.222,0.115,0.125
5.224,0.130,0.105
5.226,0.060,0.085
5.228,0.000,0.070
5.230,-0.080,0.050
5.232,-0.085,0.035
5.234,-0.120,0.025
5.236,-0.120,0.015
5.238,-0.065,0.010
5.240,-0.010,0.005
5.242,0.000,0.000
5.244,0.005,-0.005
5.246,0.000,-0.010
5.248,-0.095,-0.010
5.250,-0.110,-0.010
5.252,-0.135,-0.010
5.254,-0.155,-0.015
5.256,-0.145,-0.015
5.258,-0.115,-0.020
5.260,-0.065,-0.025
5.262,-0.040,-0.035
5.264,-0.020,-0.045
5.266,-0.060,-0.050
5.268,-0.085,-0.055
5.270,-0.170,-0.055
5.272,-0.200,-0.055
5.274,-0.165,-0.050
5.276,-0.115,-0.045
5.278,-0.100,-0.040
5.280,-0.100,-0.035
5.282,-0.045,-0.035
5.284,-0.035,-0.035
5.286,-0.050,-0.040
5.288,-0.055,-0.045
5.290,-0.165,-0.050
5.292,-0.225,-0.055
5.294,-0.195,-0.055
5.296,-0.135,-0.050
5.298,-0.110,-0.050
5.300,-0.050,-0.040
5.302,-0.030,-0.035
5.304,-0.065,-0.030
5.306,-0.045,-0.030
5.308,-0.105,-0.030
5.310,-0.130,-0.035
5.312,-0.170,-0.045
5.314,-0.215,-0.055
5.316,-0.170,-0.070
5.318,-0.115,-0.080
5.320,-0.055,-0.085
5.322,-0.090,-0.090
5.324,-0.085,-0.090
5.326,-0.095,-0.085
5.328,-0.130,-0.080
5.330,-0.165,-0.065
5.332,-0.200,-0.055
5.334,-0.145,-0.045
5.336,-0.130,-0.040
5.338,-0.090,-0.040
5.340,-0.060,-0.045
5.342,-0.010,-0.055
5.344,-0.095,-0.065
5.346,-0.100,-0.070
5.348,-0.135,-0.075
5.350,-0.175,-0.075
5.352,-0.190,-0.070
5.354,-0.170,-0.060
5.356,-0.175,-0.045
5.358,-0.080,-0.035
5.360,-0.005,-0.025
5.362,0.015,-0.025
5.364,-0.025,-0.025
5.366,-0.115,-0.030
5.368,-0.150,-0.035
5.370,-0.145,-0.040
5.372,-0.170,-0.045
5.374,-0.115,-0.040
5.376,-0.095,-0.035
5.378,-0.055,-0.025
5.380,-0.055,-0.015
5.382,-0.005,-0.010
5.384,-0.025,-0.010
5.386,-0.075,-0.015
5.388,-0.135,-0.025
5.390,-0.160,-0.035
5.392,-0.150,-0.050
5.394,-0.160,-0.060
5.396,-0.120,-0.065
5.398,-0.055,-0.060
5.400,-0.045,-0.050
5.402,-0.030,-0.040
5.404,-0.030,-0.025
5.406,-0.045,-0.015
5.408,-0.120,-0.005
5.410,-0.160,-0.005
5.412,-0.170,-0.015
5.414,-0.155,-0.030
5.416,-0.100,-0.045
5.418,-0.015,-0.060
5.420,-0.105,-0.070
5.422,-0.055,-0.075
5.424,-0.045,-0.070
5.426,-0.125,-0.065
5.428,-0.120,-0.055
5.430,-0.185,-0.045
5.432,-0.185,-0.040
5.434,-0.135,-0.035
5.436,-0.115,-0.030
5.438,-0.050,-0.035
5.440,-0.040,-0.035
5.442,-0.040,-0.035
5.444,0.000,-0.035
5.446,-0.065,-0.035
5.448,-0.175,-0.035
5.450,-0.180,-0.035
5.452,-0.185,-0.035
5.454,-0.160,-0.035
5.456,-0.145,-0.040
5.458,-0.075,-0.050
5.460,0.005,-0.055
5.462,-0.030,-0.060
5.464,-0.055,-0.060
5.466,-0.105,-0.060
5.468,-0.175,-0.050
5.470,-0.180,-0.040
5.472,-0.160,-0.030
5.474,-0.130,-0.025
5.476,-0.100,-0.020
5.478,-0.070,-0.025
5.480,-0.025,-0.030
5.482,-0.025,-0.040
5.484,-0.065,-0.055
5.486,-0.070,-0.065
5.488,-0.180,-0.075
5.490,-0.210,-0.080
5.492,-0.240,-0.080
5.494,-0.205,-0.080
5.496,-0.120,-0.070
5.498,-0.040,-0.065
5.500,-0.030,-0.060
5.502,-0.020,-0.055
5.504,-0.065,-0.050
5.506,-0.090,-0.050
5.508,-0.165,-0.055
5.510,-0.185,-0.060
5.512,-0.250,-0.065
5.514,-0.195,-0.070
5.516,-0.105,-0.070
5.518,-0.065,-0.070
5.520,-0.035,-0.065
5.522,-0.015,-0.060
5.524,-0.055,-0.055
5.526,-0.110,-0.050
5.528,-0.210,-0.045
5.530,-0.180,-0.040
5.532,-0.180,-0.040
5.534,-0.145,-0.040
5.536,-0.105,-0.040
5.538,-0.070,-0.045
5.540,-0.055,-0.045
5.542,-0.030,-0.050
5.544,-0.060,-0.050
5.546,-0.110,-0.050
5.548,-0.195,-0.045
5.550,-0.170,-0.045
5.552,-0.145,-0.045
5.554,-0.115,-0.045
5.556,-0.090,-0.045
5.558,-0.085,-0.050
5.560,-0.055,-0.050
5.562,-0.075,-0.055
5.564,-0.105,-0.060
5.566,-0.120,-0.065
5.568,-0.160,-0.065
5.570,-0.165,-0.065
5.572,-0.155,-0.060
5.574,-0.125,-0.060
5.576,-0.165,-0.060
5.578,-0.060,-0.060
5.580,-0.025,-0.060
5.582,-0.050,-0.060
5.584,-0.080,-0.065
5.586,-0.120,-0.065
5.588,-0.135,-0.065
5.590,-0.170,-0.065
5.592,-0.165,-0.060
5.594,-0.145,-0.055
5.596,-0.120,-0.050
5.598,-0.040,-0.040
5.600,-0.025,-0.035
5.602,-0.050,-0.035
5.604,-0.095,-0.035
5.606,-0.140,-0.040
5.608,-0.170,-0.045
5.610,-0.205,-0.055
5.612,-0.200,-0.060
5.614,-0.135,-0.060
5.616,-0.065,-0.060
5.618,-0.020,-0.060
5.620,-0.005,-0.055
5.622,-0.040,-0.050
5.624,-0.070,-0.045
5.626,-0.145,-0.040
5.628,-0.190,-0.040
5.630,-0.175,-0.040
5.632,-0.165,-0.045
5.634,-0.085,-0.050
5.636,0.010,-0.055
5.638,-0.060,-0.060
5.640,-0.100,-0.060
5.642,-0.065,-0.060
5.644,-0.070,-0.060
5.646,-0.145,-0.060
5.648,-0.200,-0.060
5.650,-0.225,-0.060
5.652,-0.190,-0.060
5.654,-0.130,-0.065
5.656,-0.105,-0.065
5.658,-0.040,-0.070
5.660,-0.035,-0.065
5.662,-0.045,-0.065
5.664,-0.070,-0.055
5.666,-0.135,-0.050
5.668,-0.190,-0.045
5.670,-0.170,-0.040
5.672,-0.135,-0.040
5.674,-0.135,-0.035
5.676,-0.065,-0.035
5.678,-0.025,-0.035
5.680,-0.025,-0.035
5.682,0.005,-0.035
5.684,-0.070,-0.035
5.686,-0.105,-0.030
5.688,-0.165,-0.025
5.690,-0.180,-0.025
5.692,-0.155,-0.020
5.694,-0.110,-0.020
5.696,-0.050,-0.015
5.698,-0.015,-0.015
5.700,0.035,-0.010
5.702,0.030,-0.005
5.704,-0.010,0.005
5.706,-0.075,0.015
5.708,-0.095,0.020
5.710,-0.135,0.030
5.712,-0.125,0.035
5.714,-0.040,0.035
5.716,0.010,0.030
5.718,0.045,0.025
5.720,0.060,0.015
5.722,-0.010,0.005
5.724,-0.105,-0.005
5.726,-0.100,-0.010
5.728,-0.130,-0.015
5.730,-0.145,-0.020
5.732,-0.105,-0.020
5.734,-0.100,-0.025
5.736,-0.040,-0.025
5.738,-0.035,-0.030
5.740,-0.030,-0.035
5.742,-0.075,-0.040
5.744,-0.085,-0.050
5.746,-0.130,-0.055
5.748,-0.155,-0.060
5.750,-0.190,-0.060
5.752,-0.160,-0.060
5.754,-0.150,-0.060
5.756,-0.065,-0.060
5.758,-0.055,-0.060
5.760,-0.015,-0.060
5.762,-0.010,-0.060
5.764,-0.105,-0.065
5.766,-0.185,-0.065
5.768,-0.215,-0.070
5.770,-0.205,-0.070
5.772,-0.155,-0.070
5.774,-0.105,-0.070
5.776,-0.065,-0.065
5.778,-0.035,-0.060
5.780,-0.055,-0.060
5.782,-0.095,-0.060
5.784,-0.115,-0.060
5.786,-0.190,-0.065
5.788,-0.185,-0.070
5.790,-0.190,-0.075
5.792,-0.150,-0.080
5.794,-0.105,-0.080
5.796,-0.070,-0.080
5.798,-0.090,-0.075
5.800,-0.070,-0.070
5.802,-0.065,-0.070
5.804,-0.110,-0.065
5.806,-0.170,-0.070
5.808,-0.185,-0.075
5.810,-0.255,-0.085
5.812,-0.185,-0.095
5.814,-0.120,-0.105
5.816,-0.065,-0.115
5.818,-0.055,-0.115
5.820,-0.110,-0.115
5.822,-0.150,-0.110
5.824,-0.175,-0.100
5.826,-0.205,-0.080
5.828,-0.200,-0.060
5.830,-0.140,-0.030
5.832,0.000,0.005
5.834,0.105,0.050
5.836,0.150,0.105
5.838,0.180,0.175
5.840,0.240,0.245
5.842,0.260,0.325
5.844,0.320,0.405
5.846,0.425,0.480
5.848,0.505,0.535
5.850,0.520,0.575
5.852,0.520,0.590
5.854,0.510,0.575
5.856,0.540,0.530
5.858,0.460,0.460
5.860,0.360,0.370
5.862,0.275,0.265
5.864,0.090,0.160
5.866,-0.080,0.065
5.868,-0.180,-0.020
5.870,-0.285,-0.085
5.872,-0.290,-0.130
5.874,-0.175,-0.150
5.876,-0.105,-0.155
5.878,-0.060,-0.140
5.880,-0.055,-0.120
5.882,-0.065,-0.095
5.884,-0.135,-0.070
5.886,-0.190,-0.050
5.888,-0.155,-0.035
5.890,-0.140,-0.030
5.892,-0.125,-0.025
5.894,-0.055,-0.030
5.896,-0.030,-0.035
5.898,-0.005,-0.035
5.900,-0.010,-0.035
5.902,-0.050,-0.030
5.904,-0.105,-0.025
5.906,-0.095,-0.020
5.908,-0.140,-0.010
5.910,-0.100,-0.010
5.912,-0.075,-0.010
5.914,-0.075,-0.015
5.916,-0.075,-0.025
5.918,-0.035,-0.035
5.920,-0.040,-0.045
5.922,-0.095,-0.050
5.924,-0.095,-0.055
5.926,-0.110,-0.055
5.928,-0.145,-0.045
5.930,-0.130,-0.035
5.932,-0.075,-0.020
5.934,-0.035,-0.005
5.936,-0.010,0.005
5.938,0.035,0.015
5.940,0.015,0.015
5.942,-0.005,0.015
5.944,-0.035,0.005
5.946,-0.080,-0.005
5.948,-0.160,-0.015
5.950,-0.135,-0.020
5.952,-0.080,-0.025
5.954,-0.040,-0.025
5.956,-0.015,-0.020
5.958,0.010,-0.015
5.960,-0.015,-0.005
5.962,-0.005,0.005
5.964,-0.045,0.015
5.966,-0.105,0.020
5.968,-0.160,0.020
5.970,-0.105,0.020
5.972,-0.040,0.020
5.974,0.020,0.015
5.976,0.050,0.015
5.978,0.040,0.010
5.980,0.010,0.010
5.982,-0.025,0.010
5.984,-0.055,0.010
5.986,-0.095,0.010
5.988,-0.075,0.015
5.990,-0.100,0.015
5.992,-0.135,0.015
5.994,-0.010,0.015
5.996,0.080,0.020
5.998,0.100,0.020
6.000,0.035,0.020
6.002,0.005,0.025
6.004,-0.025,0.030
6.006,-0.095,0.035
6.008,-0.105,0.045
6.010,-0.050,0.055
6.012,0.015,0.065
6.014,0.100,0.075
6.016,0.130,0.085
6.018,0.150,0.095
6.020,0.080,0.100
6.022,0.060,0.105
6.024,0.005,0.110
6.026,-0.015,0.110
6.028,0.020,0.110
6.030,0.020,0.110
6.032,0.060,0.115
6.034,0.110,0.115
6.036,0.190,0.125
6.038,0.210,0.135
6.040,0.140,0.145
6.042,0.120,0.160
6.044,0.080,0.170
6.046,0.060,0.180
6.048,0.085,0.190
6.050,0.110,0.195
6.052,0.135,0.200
6.054,0.190,0.200
6.056,0.230,0.205
6.058,0.230,0.205
6.060,0.210,0.210
6.062,0.210,0.220
6.064,0.150,0.230
6.066,0.125,0.235
6.068,0.145,0.245
6.070,0.160,0.250
6.072,0.155,0.255
6.074,0.250,0.255
6.076,0.255,0.250
6.078,0.275,0.245
6.080,0.240,0.240
6.082,0.175,0.230
6.084,0.150,0.225
6.086,0.125,0.225
6.088,0.110,0.225
6.090,0.125,0.225
6.092,0.205,0.225
6.094,0.265,0.220
6.096,0.295,0.220
6.098,0.200,0.210
6.100,0.130,0.200
6.102,0.135,0.190
6.104,0.080,0.180
6.106,0.065,0.165
6.108,0.020,0.155
6.110,0.045,0.150
6.112,0.110,0.140
6.114,0.155,0.130
6.116,0.140,0.120
6.118,0.075,0.110
6.120,0.035,0.090
6.122,-0.010,0.075
6.124,-0.055,0.055
6.126,-0.105,0.040
6.128,-0.075,0.025
6.130,-0.080,0.015
6.132,-0.060,0.010
6.134,0.040,0.010
6.136,0.095,0.015
6.138,0.055,0.020
6.140,-0.005,0.020
6.142,-0.085,0.020
6.144,-0.110,0.010
6.146,-0.165,-0.005
6.148,-0.170,-0.020
6.150,-0.145,-0.040
6.152,-0.075,-0.060
6.154,0.000,-0.070
6.156,-0.025,-0.075
6.158,-0.065,-0.075
6.160,-0.080,-0.070
6.162,-0.150,-0.065
6.164,-0.165,-0.055
6.166,-0.110,-0.050
6.168,-0.170,-0.045
6.170,-0.160,-0.050
6.172,-0.105,-0.055
6.174,-0.070,-0.065
6.176,-0.055,-0.075
6.178,-0.055,-0.080
6.180,-0.075,-0.085
6.182,-0.110,-0.085
6.184,-0.135,-0.075
6.186,-0.195,-0.070
6.188,-0.225,-0.060
6.190,-0.170,-0.055
6.192,-0.075,-0.050
6.194,0.005,-0.050
6.196,0.045,-0.050
6.198,-0.060,-0.055
6.200,-0.110,-0.055
6.202,-0.105,-0.055
6.204,-0.130,-0.055
6.206,-0.180,-0.050
6.208,-0.165,-0.050
6.210,-0.170,-0.045
6.212,-0.065,-0.050
6.214,-0.025,-0.050
6.216,-0.050,-0.055
6.218,-0.070,-0.060
6.220,-0.065,-0.065
6.222,-0.100,-0.065
6.224,-0.150,-0.065
6.226,-0.255,-0.065
6.228,-0.205,-0.065
6.230,-0.095,-0.060
6.232,-0.040,-0.060
6.234,-0.020,-0.065
6.236,0.010,-0.070
6.238,-0.110,-0.075
6.240,-0.140,-0.075
6.242,-0.140,-0.080
6.244,-0.190,-0.080
6.246,-0.190,-0.075
6.248,-0.180,-0.065
6.250,-0.120,-0.060
6.252,-0.045,-0.050
6.254,-0.010,-0.045
6.256,-0.025,-0.040
6.258,-0.075,-0.045
6.260,-0.090,-0.050
6.262,-0.135,-0.055
6.264,-0.205,-0.060
6.266,-0.210,-0.065
6.268,-0.140,-0.065
6.270,-0.100,-0.065
6.272,-0.035,-0.060
6.274,-0.015,-0.055
6.276,-0.020,-0.050
6.278,-0.080,-0.050
6.280,-0.100,-0.050
6.282,-0.165,-0.050
6.284,-0.195,-0.055
6.286,-0.175,-0.060
6.288,-0.170,-0.065
6.290,-0.120,-0.065
6.292,-0.065,-0.070
6.294,-0.040,-0.070
6.296,-0.025,-0.065
6.298,-0.050,-0.060
6.300,-0.095,-0.060
6.302,-0.160,-0.055
6.304,-0.175,-0.050
6.306,-0.190,-0.050
6.308,-0.175,-0.050
6.310,-0.125,-0.050
6.312,-0.060,-0.050
6.314,-0.035,-0.050
6.316,-0.025,-0.050
6.318,-0.020,-0.050
6.320,-0.095,-0.050
6.322,-0.170,-0.045
6.324,-0.150,-0.045
6.326,-0.170,-0.045
6.328,-0.190,-0.045
6.330,-0.110,-0.045
6.332,-0.055,-0.045
6.334,0.020,-0.045
6.336,-0.010,-0.040
6.338,-0.050,-0.040
6.340,-0.110,-0.040
6.342,-0.185,-0.045
6.344,-0.145,-0.050
6.346,-0.210,-0.060
6.348,-0.190,-0.070
6.350,-0.150,-0.075
6.352,-0.085,-0.080
6.354,-0.055,-0.085
6.356,-0.050,-0.090
6.358,-0.065,-0.085
6.360,-0.140,-0.085
6.362,-0.175,-0.080
6.364,-0.200,-0.075
6.366,-0.205,-0.075
6.368,-0.150,-0.075
6.370,-0.095,-0.075
6.372,-0.080,-0.075
6.374,-0.035,-0.080
6.376,-0.030,-0.080
6.378,-0.080,-0.075
6.380,-0.140,-0.070
6.382,-0.165,-0.065
6.384,-0.145,-0.055
6.386,-0.155,-0.050
6.388,-0.140,-0.045
6.390,-0.100,-0.045
6.392,-0.065,-0.045
6.394,-0.050,-0.045
6.396,-0.045,-0.050
6.398,-0.045,-0.055
6.400,-0.080,-0.060
6.402,-0.160,-0.060
6.404,-0.160,-0.065
6.406,-0.180,-0.065
6.408,-0.190,-0.070
6.410,-0.150,-0.080
6.412,-0.090,-0.085
6.414,-0.070,-0.090
6.416,-0.080,-0.095
6.418,-0.100,-0.100
6.420,-0.140,-0.095
6.422,-0.190,-0.090
6.424,-0.165,-0.085
6.426,-0.150,-0.075
6.428,-0.170,-0.065
6.430,-0.085,-0.055
6.432,-0.045,-0.045
6.434,0.000,-0.045
6.436,-0.020,-0.045
6.438,-0.080,-0.045
6.440,-0.135,-0.050
6.442,-0.195,-0.060
6.444,-0.180,-0.060
6.446,-0.160,-0.065
6.448,-0.160,-0.060
6.450,-0.070,-0.060
6.452,-0.030,-0.055
6.454,-0.030,-0.045
6.456,-0.025,-0.040
6.458,-0.045,-0.040
6.460,-0.100,-0.040
6.462,-0.135,-0.040
6.464,-0.135,-0.050
6.466,-0.185,-0.055
6.468,-0.195,-0.065
6.470,-0.105,-0.075
6.472,-0.075,-0.080
6.474,-0.040,-0.085
6.476,-0.040,-0.085
6.478,-0.105,-0.085
6.480,-0.140,-0.075
6.482,-0.155,-0.070
6.484,-0.180,-0.060
6.486,-0.185,-0.055
6.488,-0.145,-0.045
6.490,-0.070,-0.045
6.492,-0.030,-0.045
6.494,-0.020,-0.045
6.496,-0.050,-0.050
6.498,-0.105,-0.055
6.500,-0.145,-0.060
6.502,-0.160,-0.065
6.504,-0.170,-0.065
6.506,-0.165,-0.070
6.508,-0.140,-0.070
6.510,-0.065,-0.065
6.512,-0.070,-0.065
6.514,-0.045,-0.065
6.516,-0.035,-0.065
6.518,-0.095,-0.065
6.520,-0.135,-0.065
6.522,-0.155,-0.070
6.524,-0.160,-0.070
6.526,-0.155,-0.070
6.528,-0.130,-0.070
6.530,-0.090,-0.065
6.532,-0.045,-0.055
6.534,-0.055,-0.050
6.536,-0.020,-0.040
6.538,-0.040,-0.035
6.540,-0.090,-0.035
6.542,-0.115,-0.030
6.544,-0.160,-0.035
6.546,-0.145,-0.040
6.548,-0.140,-0.040
6.550,-0.085,-0.045
6.552,-0.025,-0.045
6.554,0.005,-0.045
6.556,0.050,-0.035
6.558,-0.045,-0.025
6.560,-0.085,-0.015
6.562,-0.100,-0.005
6.564,-0.105,0.005
6.566,-0.090,0.010
6.568,-0.070,0.010
6.570,-0.005,0.005
6.572,-0.010,-0.005
6.574,-0.015,-0.015
6.576,-0.030,-0.025
6.578,-0.005,-0.030
6.580,-0.115,-0.035
6.582,-0.155,-0.030
6.584,-0.155,-0.020
6.586,-0.115,-0.010
6.588,-0.030,0.000
6.590,0.010,0.010
6.592,-0.005,0.010
6.594,0.050,0.005
6.596,0.010,-0.005
6.598,-0.050,-0.025
6.600,-0.215,-0.045
6.602,-0.210,-0.065
6.604,-0.220,-0.080
6.606,-0.155,-0.085
6.608,-0.075,-0.090
6.610,-0.075,-0.085
6.612,-0.090,-0.075
6.614,-0.040,-0.060
6.616,-0.010,-0.050
6.618,-0.125,-0.040
6.620,-0.175,-0.040
6.622,-0.160,-0.040
6.624,-0.165,-0.045
6.626,-0.165,-0.050
6.628,-0.085,-0.060
6.630,-0.030,-0.070
6.632,-0.065,-0.075
6.634,-0.035,-0.075
6.636,-0.050,-0.075
6.638,-0.090,-0.070
6.640,-0.185,-0.065
6.642,-0.185,-0.060
6.644,-0.175,-0.050
6.646,-0.145,-0.050
6.648,-0.090,-0.045
6.650,-0.045,-0.050
6.652,-0.035,-0.050
6.654,-0.070,-0.055
6.656,-0.085,-0.065
6.658,-0.095,-0.070
6.660,-0.155,-0.075
6.662,-0.195,-0.075
6.664,-0.190,-0.075
6.666,-0.155,-0.075
6.668,-0.130,-0.075
6.670,-0.075,-0.075
6.672,-0.045,-0.075
6.674,-0.050,-0.080
6.676,-0.100,-0.085
6.678,-0.145,-0.090
6.680,-0.205,-0.095
6.682,-0.220,-0.100
6.684,-0.235,-0.100
6.686,-0.190,-0.090
6.688,-0.145,-0.080
6.690,-0.060,-0.055
6.692,0.050,-0.020
6.694,0.055,0.020
6.696,0.080,0.075
6.698,0.125,0.140
6.700,0.130,0.210
6.702,0.175,0.290
6.704,0.240,0.370
6.706,0.380,0.445
6.708,0.505,0.510
6.710,0.610,0.560
6.712,0.665,0.580
6.714,0.645,0.575
6.716,0.550,0.540
6.718,0.390,0.475
6.720,0.250,0.385
6.722,0.100,0.275
6.724,0.010,0.160
6.726,-0.070,0.050
6.728,-0.130,-0.045
6.730,-0.140,-0.120
6.732,-0.170,-0.170
6.734,-0.165,-0.190
6.736,-0.180,-0.190
6.738,-0.230,-0.175
6.740,-0.195,-0.145
6.742,-0.220,-0.110
6.744,-0.185,-0.080
6.746,-0.115,-0.055
6.748,-0.050,-0.035
6.750,-0.025,-0.025
6.752,-0.030,-0.020
6.754,-0.010,-0.015
6.756,-0.045,-0.020
6.758,-0.100,-0.020
6.760,-0.160,-0.025
6.762,-0.165,-0.030
6.764,-0.100,-0.035
6.766,-0.090,-0.040
6.768,-0.030,-0.045
6.770,-0.055,-0.050
6.772,-0.065,-0.050
6.774,-0.080,-0.050
6.776,-0.070,-0.045
6.778,-0.115,-0.040
6.780,-0.130,-0.030
6.782,-0.110,-0.015
6.784,-0.080,-0.005
6.786,-0.045,0.000
6.788,0.020,0.005
6.790,0.010,0.000
6.792,-0.040,-0.005
6.794,-0.055,-0.015
6.796,-0.065,-0.025
6.798,-0.080,-0.030
6.800,-0.125,-0.030
6.802,-0.155,-0.030
6.804,-0.110,-0.025
6.806,-0.085,-0.015
6.808,-0.005,-0.010
6.810,-0.010,-0.005
6.812,-0.030,0.000
6.814,-0.010,-0.005
6.816,-0.075,-0.010
6.818,-0.130,-0.020
6.820,-0.120,-0.025
6.822,-0.120,-0.025
6.824,-0.125,-0.020
6.826,-0.100,-0.015
6.828,0.010,0.000
6.830,0.070,0.015
6.832,0.055,0.030
6.834,0.035,0.040
6.836,-0.010,0.050
6.838,-0.035,0.050
6.840,-0.090,0.045
6.842,-0.105,0.035
6.844,-0.105,0.025
6.846,-0.065,0.020
6.848,0.030,0.015
6.850,0.070,0.010
6.852,0.075,0.015
6.854,0.030,0.025
6.856,-0.025,0.035
6.858,-0.075,0.045
6.860,-0.075,0.055
6.862,-0.075,0.060
6.864,-0.010,0.070
6.866,0.030,0.070
6.868,0.070,0.075
6.870,0.090,0.075
6.872,0.100,0.075
6.874,0.090,0.075
6.876,0.065,0.080
6.878,-0.020,0.085
6.880,-0.055,0.090
6.882,-0.010,0.095
6.884,0.030,0.100
6.886,0.060,0.110
6.888,0.145,0.115
6.890,0.130,0.115
6.892,0.090,0.120
6.894,0.020,0.125
6.896,0.055,0.125
6.898,0.030,0.130
6.900,0.055,0.135
6.902,0.055,0.140
6.904,0.070,0.150
6.906,0.065,0.155
6.908,0.145,0.165
6.910,0.200,0.175
6.912,0.210,0.180
6.914,0.175,0.185
6.916,0.120,0.190
6.918,0.075,0.190
6.920,0.095,0.195
6.922,0.105,0.200
6.924,0.140,0.200
6.926,0.185,0.210
6.928,0.265,0.220
6.930,0.280,0.230
6.932,0.270,0.240
6.934,0.235,0.250
6.936,0.180,0.260
6.938,0.090,0.265
6.940,0.135,0.265
6.942,0.130,0.265
6.944,0.165,0.255
6.946,0.225,0.250
6.948,0.240,0.240
6.950,0.245,0.230
6.952,0.245,0.220
6.954,0.225,0.220
6.956,0.155,0.215
6.958,0.065,0.215
6.960,0.070,0.210
6.962,0.070,0.205
6.964,0.110,0.195
6.966,0.125,0.180
6.968,0.155,0.165
6.970,0.190,0.145
6.972,0.155,0.125
6.974,0.125,0.110
6.976,-0.015,0.095
6.978,-0.065,0.085
6.980,-0.015,0.075
6.982,-0.035,0.065
6.984,-0.050,0.060
6.986,-0.045,0.050
6.988,0.025,0.040
6.990,0.030,0.025
6.992,0.010,0.010
6.994,0.005,-0.005
6.996,-0.095,-0.015
6.998,-0.115,-0.025
7.000,-0.135,-0.030
7.002,-0.120,-0.035
7.004,-0.100,-0.035
7.006,-0.050,-0.035
7.008,-0.020,-0.035
7.010,0.030,-0.035
7.012,-0.065,-0.035
7.014,-0.090,-0.035
7.016,-0.130,-0.035
7.018,-0.110,-0.030
7.020,-0.105,-0.030
7.022,-0.130,-0.020
7.024,-0.120,-0.015
7.026,-0.020,-0.010
7.028,-0.070,-0.010
7.030,-0.030,-0.010
7.032,0.015,-0.015
7.034,0.000,-0.020
7.036,-0.105,-0.030
7.038,-0.205,-0.040
7.040,-0.215,-0.050
7.042,-0.145,-0.055
7.044,-0.100,-0.060
7.046,-0.060,-0.060
7.048,-0.075,-0.060
7.050,-0.060,-0.055
7.052,-0.055,-0.045
7.054,-0.050,-0.040
7.056,-0.110,-0.030
7.058,-0.180,-0.020
7.060,-0.115,-0.015
7.062,-0.120,-0.010
7.064,-0.070,-0.010
7.066,-0.010,-0.010
7.068,-0.015,-0.020
7.070,-0.045,-0.030
7.072,-0.095,-0.045
7.074,-0.110,-0.055
7.076,-0.150,-0.065
7.078,-0.180,-0.070
7.080,-0.190,-0.070
7.082,-0.170,-0.060
7.084,-0.110,-0.055
7.086,-0.020,-0.045
7.088,0.005,-0.030
7.090,-0.040,-0.025
7.092,-0.115,-0.020
7.094,-0.090,-0.020
7.096,-0.095,-0.020
7.098,-0.110,-0.025
7.100,-0.165,-0.025
7.102,-0.155,-0.030
7.104,-0.115,-0.030
7.106,-0.010,-0.030
7.108,0.005,-0.025
7.110,-0.030,-0.025
7.112,-0.080,-0.025
7.114,-0.110,-0.030
7.116,-0.175,-0.035
7.118,-0.155,-0.045
7.120,-0.130,-0.050
7.122,-0.130,-0.055
7.124,-0.140,-0.060
7.126,-0.090,-0.055
7.128,-0.025,-0.045
7.130,0.005,-0.030
7.132,-0.045,-0.015
7.134,-0.040,0.000
7.136,-0.100,0.010
7.138,-0.150,0.020
7.140,-0.150,0.015
7.142,-0.130,0.010
7.144,-0.080,-0.005
7.146,-0.020,-0.020
7.148,-0.005,-0.030
7.150,-0.035,-0.045
7.152,-0.055,-0.050
7.154,-0.090,-0.050
7.156,-0.170,-0.045
7.158,-0.155,-0.035
7.160,-0.125,-0.030
7.162,-0.140,-0.020
7.164,-0.110,-0.020
7.166,-0.020,-0.015
7.168,-0.060,-0.020
7.170,0.020,-0.020
7.172,-0.055,-0.025
7.174,-0.105,-0.025
7.176,-0.160,-0.025
7.178,-0.120,-0.020
7.180,-0.150,-0.020
7.182,-0.090,-0.020
7.184,-0.110,-0.020
7.186,-0.050,-0.025
7.188,-0.040,-0.035
7.190,-0.030,-0.040
7.192,-0.040,-0.050
7.194,-0.090,-0.055
7.196,-0.170,-0.060
7.198,-0.205,-0.060
7.200,-0.175,-0.055
7.202,-0.220,-0.050
7.204,-0.100,-0.040
7.206,-0.045,-0.035
7.208,-0.025,-0.030
7.210,-0.035,-0.030
7.212,-0.035,-0.030
7.214,-0.100,-0.035
7.216,-0.170,-0.035
7.218,-0.180,-0.040
7.220,-0.205,-0.040
7.222,-0.135,-0.045
7.224,-0.090,-0.045
7.226,-0.055,-0.045
7.228,-0.050,-0.045
7.230,-0.045,-0.045
7.232,-0.120,-0.045
7.234,-0.135,-0.050
7.236,-0.125,-0.050
7.238,-0.140,-0.050
7.240,-0.140,-0.050
7.242,-0.165,-0.050
7.244,-0.115,-0.055
7.246,-0.065,-0.055
7.248,-0.045,-0.055
7.250,-0.055,-0.055
7.252,-0.080,-0.055
7.254,-0.090,-0.055
7.256,-0.195,-0.055
7.258,-0.160,-0.050
7.260,-0.150,-0.045
7.262,-0.115,-0.040
7.264,-0.110,-0.035
7.266,0.000,-0.035
7.268,-0.020,-0.035
7.270,-0.120,-0.040
7.272,-0.080,-0.050
7.274,-0.150,-0.055
7.276,-0.225,-0.065
7.278,-0.220,-0.075
7.280,-0.145,-0.080
7.282,-0.130,-0.075
7.284,-0.090,-0.070
7.286,-0.060,-0.060
7.288,-0.060,-0.050
7.290,-0.055,-0.040
7.292,-0.100,-0.030
7.294,-0.130,-0.030
7.296,-0.155,-0.030
7.298,-0.185,-0.035
7.300,-0.185,-0.045
7.302,-0.130,-0.055
7.304,-0.070,-0.065
7.306,-0.090,-0.070
7.308,-0.040,-0.070
7.310,-0.035,-0.070
7.312,-0.075,-0.065
7.314,-0.165,-0.055
7.316,-0.195,-0.050
7.318,-0.190,-0.045
7.320,-0.125,-0.040
7.322,-0.120,-0.040
7.324,-0.120,-0.045
7.326,-0.050,-0.050
7.328,-0.050,-0.055
7.330,-0.095,-0.055
7.332,-0.080,-0.055
7.334,-0.175,-0.055
7.336,-0.165,-0.050
7.338,-0.180,-0.045
7.340,-0.175,-0.040
7.342,-0.145,-0.035
7.344,-0.070,-0.040
7.346,-0.050,-0.045
7.348,-0.070,-0.050
7.350,-0.070,-0.055
7.352,-0.100,-0.060
7.354,-0.190,-0.065
7.356,-0.180,-0.065
7.358,-0.175,-0.060
7.360,-0.160,-0.050
7.362,-0.145,-0.040
7.364,-0.050,-0.035
7.366,-0.065,-0.025
7.368,-0.060,-0.025
7.370,-0.040,-0.025
7.372,-0.070,-0.025
7.374,-0.135,-0.030
7.376,-0.140,-0.030
7.378,-0.165,-0.030
7.380,-0.170,-0.030
7.382,-0.130,-0.030
7.384,-0.035,-0.025
7.386,-0.030,-0.020
7.388,0.030,-0.015
7.390,-0.010,-0.015
7.392,-0.095,-0.020
7.394,-0.205,-0.025
7.396,-0.175,-0.030
7.398,-0.205,-0.035
7.400,-0.140,-0.040
7.402,-0.090,-0.040
7.404,-0.025,-0.040
7.406,0.010,-0.040
7.408,-0.030,-0.035
7.410,-0.100,-0.030
7.412,-0.140,-0.025
7.414,-0.100,-0.020
7.416,-0.110,-0.020
7.418,-0.145,-0.020
7.420,-0.160,-0.020
7.422,-0.110,-0.025
7.424,-0.040,-0.025
7.426,0.010,-0.025
7.428,0.025,-0.025
7.430,-0.025,-0.025
7.432,-0.105,-0.025
7.434,-0.150,-0.025
7.436,-0.180,-0.030
7.438,-0.200,-0.035
7.440,-0.175,-0.040
7.442,-0.155,-0.050
7.444,-0.085,-0.060
7.446,-0.055,-0.070
7.448,-0.025,-0.075
7.450,-0.090,-0.085
7.452,-0.140,-0.085
7.454,-0.190,-0.090
7.456,-0.210,-0.085
7.458,-0.215,-0.085
7.460,-0.180,-0.080
7.462,-0.145,-0.075
7.464,-0.085,-0.070
7.466,-0.070,-0.070
7.468,-0.065,-0.065
7.470,-0.085,-0.065
7.472,-0.140,-0.065
7.474,-0.165,-0.065
7.476,-0.190,-0.065
7.478,-0.220,-0.065
7.480,-0.180,-0.065
7.482,-0.130,-0.065
7.484,-0.090,-0.065
7.486,-0.055,-0.070
7.488,-0.060,-0.070
7.490,-0.130,-0.075
7.492,-0.165,-0.075
7.494,-0.175,-0.080
7.496,-0.205,-0.080
7.498,-0.225,-0.080
7.500,-0.195,-0.080
7.502,-0.135,-0.080
7.504,-0.105,-0.075
7.506,-0.050,-0.075
7.508,-0.075,-0.075
7.510,-0.115,-0.075
7.512,-0.185,-0.080
7.514,-0.235,-0.085
7.516,-0.255,-0.095
7.518,-0.250,-0.105
7.520,-0.185,-0.110
7.522,-0.165,-0.115
7.524,-0.165,-0.110
7.526,-0.125,-0.095
7.528,-0.070,-0.070
7.530,-0.030,-0.030
7.532,-0.025,0.025
7.534,0.005,0.090
7.536,0.055,0.165
7.538,0.115,0.250
7.540,0.215,0.335
7.542,0.375,0.420
7.544,0.515,0.495
7.546,0.630,0.550
7.548,0.605,0.585
7.550,0.560,0.595
7.552,0.475,0.575
7.554,0.395,0.525
7.556,0.275,0.455
7.558,0.205,0.360
7.560,0.130,0.255
7.562,0.105,0.145
7.564,0.010,0.040
7.566,-0.080,-0.045
7.568,-0.155,-0.110
7.570,-0.235,-0.150
7.572,-0.275,-0.165
7.574,-0.295,-0.160
7.576,-0.250,-0.140
7.578,-0.185,-0.110
7.580,-0.145,-0.075
7.582,-0.060,-0.050
7.584,0.000,-0.030
7.586,0.015,-0.020
7.588,-0.025,-0.025
7.590,-0.080,-0.030
7.592,-0.180,-0.040
7.594,-0.215,-0.050
7.596,-0.210,-0.055
7.598,-0.185,-0.060
7.600,-0.155,-0.060
7.602,-0.040,-0.055
7.604,-0.045,-0.050
7.606,-0.050,-0.040
7.608,-0.085,-0.035
7.610,-0.085,-0.035
7.612,-0.130,-0.035
7.614,-0.160,-0.035
7.616,-0.165,-0.035
7.618,-0.185,-0.040
7.620,-0.125,-0.040
7.622,-0.070,-0.040
7.624,-0.045,-0.040
7.626,-0.050,-0.035
7.628,-0.040,-0.030
7.630,-0.055,-0.030
7.632,-0.090,-0.025
7.634,-0.180,-0.020
7.636,-0.140,-0.020
7.638,-0.125,-0.020
7.640,-0.150,-0.015
7.642,-0.070,-0.020
7.644,-0.050,-0.020
7.646,0.005,-0.020
7.648,-0.045,-0.025
7.650,-0.100,-0.025
7.652,-0.115,-0.025
7.654,-0.150,-0.025
7.656,-0.170,-0.025
7.658,-0.155,-0.020
7.660,-0.100,-0.015
7.662,-0.015,-0.010
7.664,0.030,-0.005
7.666,0.015,0.000
7.668,-0.030,0.000
7.670,-0.050,0.000
7.672,-0.140,0.000
7.674,-0.160,0.000
7.676,-0.130,0.000
7.678,-0.120,0.000
7.680,-0.090,0.000
7.682,-0.005,0.005
7.684,0.015,0.010
7.686,0.045,0.015
7.688,-0.025,0.020
7.690,-0.035,0.025
7.692,-0.100,0.030
7.694,-0.120,0.025
7.696,-0.120,0.025
7.698,-0.080,0.020
7.700,-0.025,0.015
7.702,0.030,0.015
7.704,0.050,0.020
7.706,-0.050,0.025
7.708,-0.020,0.040
7.710,0.000,0.055
7.712,0.005,0.070
7.714,-0.050,0.080
7.716,-0.065,0.090
7.718,-0.040,0.095
7.720,0.005,0.095
7.722,0.095,0.090
7.724,0.100,0.085
7.726,0.115,0.085
7.728,0.035,0.085
7.730,-0.005,0.085
7.732,-0.050,0.095
7.734,-0.075,0.105
7.736,0.050,0.115
7.738,0.095,0.125
7.740,0.040,0.140
7.742,0.125,0.150
7.744,0.190,0.160
7.746,0.190,0.170
7.748,0.140,0.180
7.750,0.120,0.195
7.752,0.060,0.205
7.754,0.085,0.215
7.756,0.070,0.220
7.758,0.120,0.225
7.760,0.175,0.230
7.762,0.190,0.225
7.764,0.215,0.220
7.766,0.170,0.215
7.768,0.170,0.210
7.770,0.165,0.210
7.772,0.085,0.210
7.774,0.065,0.220
7.776,0.090,0.230
7.778,0.135,0.240
7.780,0.245,0.255
7.782,0.270,0.260
7.784,0.295,0.260
7.786,0.235,0.255
7.788,0.175,0.245
7.790,0.130,0.230
7.792,0.075,0.210
7.794,0.045,0.190
7.796,-0.015,0.175
7.798,0.025,0.160
7.800,0.115,0.145
7.802,0.130,0.135
7.804,0.155,0.125
7.806,0.085,0.115
7.808,0.045,0.105
7.810,0.020,0.095
7.812,-0.035,0.085
7.814,-0.075,0.075
7.816,-0.070,0.065
7.818,-0.050,0.055
7.820,-0.005,0.045
7.822,0.015,0.035
7.824,0.055,0.025
7.826,-0.010,0.020
7.828,-0.035,0.010
7.830,-0.080,0.000
7.832,-0.140,-0.010
7.834,-0.155,-0.020
7.836,-0.135,-0.030
7.838,-0.190,-0.035
7.840,-0.090,-0.045
7.842,-0.045,-0.045
7.844,-0.010,-0.045
7.846,-0.065,-0.045
7.848,-0.095,-0.045
7.850,-0.110,-0.045
7.852,-0.175,-0.050
7.854,-0.185,-0.055
7.856,-0.170,-0.060
7.858,-0.175,-0.065
7.860,-0.120,-0.070
7.862,-0.055,-0.080
7.864,-0.085,-0.080
7.866,-0.100,-0.085
7.868,-0.085,-0.085
7.870,-0.150,-0.085
7.872,-0.250,-0.080
7.874,-0.270,-0.080
7.876,-0.210,-0.080
7.878,-0.160,-0.080
7.880,-0.080,-0.080
7.882,-0.075,-0.080
7.884,-0.050,-0.080
7.886,-0.065,-0.075
7.888,-0.130,-0.075
7.890,-0.205,-0.075
7.892,-0.225,-0.075
7.894,-0.215,-0.070
7.896,-0.175,-0.070
7.898,-0.135,-0.075
7.900,-0.075,-0.075
7.902,-0.090,-0.075
7.904,-0.050,-0.075
7.906,-0.105,-0.075
7.908,-0.130,-0.070
7.910,-0.185,-0.070
7.912,-0.245,-0.060
7.914,-0.260,-0.055
7.916,-0.160,-0.050
7.918,-0.050,-0.045
7.920,-0.060,-0.040
7.922,-0.040,-0.040
7.924,-0.065,-0.040
7.926,-0.055,-0.040
7.928,-0.080,-0.045
7.930,-0.120,-0.050
7.932,-0.140,-0.055
7.934,-0.215,-0.060
7.936,-0.235,-0.070
7.938,-0.175,-0.075
7.940,-0.095,-0.075
7.942,-0.045,-0.075
7.944,-0.040,-0.070
7.946,-0.060,-0.065
7.948,-0.095,-0.055
7.950,-0.155,-0.040
7.952,-0.215,-0.030
7.954,-0.155,-0.025
7.956,-0.125,-0.025
7.958,-0.125,-0.025
7.960,-0.070,-0.035
7.962,-0.050,-0.045
7.964,-0.070,-0.055
7.966,-0.075,-0.060
7.968,-0.095,-0.065
7.970,-0.170,-0.060
7.972,-0.170,-0.050
7.974,-0.190,-0.040
7.976,-0.150,-0.030
7.978,-0.085,-0.025
7.980,-0.005,-0.020
7.982,0.025,-0.020
7.984,-0.045,-0.020
7.986,-0.065,-0.030
7.988,-0.115,-0.035
7.990,-0.195,-0.040
7.992,-0.225,-0.045
7.994,-0.170,-0.045
7.996,-0.125,-0.040
7.998,-0.090,-0.040
8.000,-0.045,-0.035
8.002,-0.025,-0.035
8.004,-0.070,-0.035
8.006,-0.085,-0.040
8.008,-0.100,-0.045
8.010,-0.185,-0.055
8.012,-0.190,-0.060
8.014,-0.185,-0.060
8.016,-0.150,-0.060
8.018,-0.115,-0.055
8.020,-0.035,-0.050
8.022,-0.040,-0.040
8.024,-0.045,-0.035
8.026,-0.095,-0.030
8.028,-0.120,-0.035
8.030,-0.120,-0.040
8.032,-0.160,-0.050
8.034,-0.180,-0.060
8.036,-0.155,-0.075
8.038,-0.120,-0.085
8.040,-0.125,-0.090
8.042,-0.110,-0.095
8.044,-0.100,-0.090
8.046,-0.075,-0.085
8.048,-0.155,-0.075
8.050,-0.150,-0.070
8.052,-0.185,-0.060
8.054,-0.215,-0.055
8.056,-0.185,-0.055
8.058,-0.090,-0.055
8.060,-0.080,-0.060
8.062,-0.065,-0.060
8.064,-0.060,-0.065
8.066,-0.085,-0.065
8.068,-0.160,-0.060
8.070,-0.165,-0.055
8.072,-0.190,-0.045
8.074,-0.155,-0.040
8.076,-0.145,-0.035
8.078,-0.070,-0.030
8.080,-0.035,-0.035
8.082,-0.055,-0.040
8.084,-0.040,-0.050
8.086,-0.105,-0.060
8.088,-0.155,-0.075
8.090,-0.240,-0.085
8.092,-0.265,-0.090
8.094,-0.230,-0.095
8.096,-0.200,-0.095
8.098,-0.135,-0.095
8.100,-0.095,-0.090
8.102,-0.045,-0.090
8.104,-0.025,-0.085
8.106,-0.105,-0.085
8.108,-0.180,-0.085
8.110,-0.260,-0.085
8.112,-0.270,-0.080
8.114,-0.225,-0.080
8.116,-0.175,-0.080
8.118,-0.065,-0.075
8.120,-0.040,-0.070
8.122,-0.060,-0.065
8.124,-0.060,-0.060
8.126,-0.065,-0.060
8.128,-0.130,-0.060
8.130,-0.165,-0.060
8.132,-0.180,-0.065
8.134,-0.240,-0.070
8.136,-0.275,-0.075
8.138,-0.075,-0.075
8.140,-0.015,-0.080
8.142,-0.025,-0.080
8.144,-0.085,-0.075
8.146,-0.120,-0.075
8.148,-0.180,-0.070
8.150,-0.185,-0.065
8.152,-0.200,-0.065
8.154,-0.190,-0.065
8.156,-0.165,-0.065
8.158,-0.095,-0.070
8.160,-0.070,-0.070
8.162,-0.080,-0.070
8.164,-0.095,-0.070
8.166,-0.075,-0.070
8.168,-0.060,-0.065
8.170,-0.190,-0.060
8.172,-0.190,-0.055
8.174,-0.190,-0.055
8.176,-0.140,-0.055
8.178,-0.120,-0.065
8.180,-0.090,-0.075
8.182,-0.065,-0.085
8.184,-0.130,-0.090
8.186,-0.125,-0.095
8.188,-0.155,-0.095
8.190,-0.185,-0.090
8.192,-0.180,-0.080
8.194,-0.170,-0.070
8.196,-0.125,-0.055
8.198,-0.040,-0.045
8.200,-0.015,-0.040
8.202,-0.035,-0.040
8.204,-0.065,-0.045
8.206,-0.100,-0.050
8.208,-0.195,-0.055
8.210,-0.185,-0.060
8.212,-0.185,-0.060
8.214,-0.150,-0.060
8.216,-0.115,-0.055
8.218,-0.090,-0.050
8.220,-0.015,-0.040
8.222,-0.015,-0.035
8.224,-0.035,-0.030
8.226,-0.045,-0.020
8.228,-0.140,-0.015
8.230,-0.170,-0.010
8.232,-0.140,-0.005
8.234,-0.085,0.000
8.236,-0.045,0.000
8.238,-0.010,0.005
8.240,-0.020,0.000
8.242,0.020,-0.005
8.244,0.005,-0.010
8.246,-0.080,-0.020
8.248,-0.150,-0.030
8.250,-0.155,-0.035
8.252,-0.170,-0.040
8.254,-0.155,-0.045
8.256,-0.155,-0.045
8.258,-0.075,-0.050
8.260,-0.045,-0.055
8.262,-0.065,-0.060
8.264,-0.075,-0.070
8.266,-0.045,-0.080
8.268,-0.190,-0.095
8.270,-0.225,-0.105
8.272,-0.280,-0.110
8.274,-0.270,-0.110
8.276,-0.165,-0.100
8.278,-0.055,-0.090
8.280,-0.055,-0.080
8.282,-0.045,-0.065
8.284,-0.090,-0.055
8.286,-0.135,-0.050
8.288,-0.185,-0.050
8.290,-0.160,-0.055
8.292,-0.220,-0.065
8.294,-0.150,-0.075
8.296,-0.115,-0.085
8.298,-0.120,-0.090
8.300,-0.080,-0.095
8.302,-0.065,-0.095
8.304,-0.070,-0.095
8.306,-0.130,-0.095
8.308,-0.210,-0.095
8.310,-0.240,-0.095
8.312,-0.260,-0.095
8.314,-0.210,-0.100
8.316,-0.115,-0.100
8.318,-0.110,-0.100
8.320,-0.060,-0.100
8.322,-0.015,-0.095
8.324,-0.075,-0.095
8.326,-0.130,-0.090
8.328,-0.190,-0.095
8.330,-0.270,-0.100
8.332,-0.295,-0.105
8.334,-0.210,-0.120
8.336,-0.140,-0.130
8.338,-0.115,-0.140
8.340,-0.150,-0.145
8.342,-0.150,-0.140
8.344,-0.125,-0.130
8.346,-0.195,-0.110
8.348,-0.210,-0.075
8.350,-0.160,-0.035
8.352,-0.060,0.020
8.354,0.025,0.085
8.356,0.135,0.160
8.358,0.295,0.240
8.360,0.350,0.325
8.362,0.430,0.410
8.364,0.500,0.490
8.366,0.560,0.560
8.368,0.540,0.605
8.370,0.555,0.620
8.372,0.520,0.610
8.374,0.455,0.565
8.376,0.430,0.490
8.378,0.360,0.395
8.380,0.345,0.280
8.382,0.160,0.165
8.384,-0.010,0.060
8.386,-0.150,-0.035
8.388,-0.260,-0.105
8.390,-0.330,-0.150
8.392,-0.270,-0.175
8.394,-0.225,-0.175
8.396,-0.150,-0.165
8.398,-0.100,-0.145
8.400,-0.065,-0.120
8.402,-0.055,-0.095
8.404,-0.095,-0.080
8.406,-0.105,-0.065
8.408,-0.120,-0.055
8.410,-0.215,-0.050
8.412,-0.155,-0.050
8.414,-0.145,-0.050
8.416,-0.085,-0.050
8.418,-0.020,-0.050
8.420,-0.015,-0.050
8.422,-0.030,-0.045
8.424,-0.030,-0.045
8.426,-0.100,-0.040
8.428,-0.150,-0.040
8.430,-0.160,-0.035
8.432,-0.165,-0.035
8.434,-0.115,-0.035
8.436,-0.070,-0.040
8.438,-0.035,-0.045
8.440,-0.030,-0.050
8.442,-0.035,-0.055
8.444,-0.085,-0.060
8.446,-0.125,-0.065
8.448,-0.130,-0.060
8.450,-0.210,-0.060
8.452,-0.165,-0.055
8.454,-0.080,-0.045
8.456,-0.005,-0.040
8.458,-0.010,-0.035
8.460,-0.010,-0.030
8.462,0.000,-0.030
8.464,-0.070,-0.030
8.466,-0.115,-0.030
8.468,-0.120,-0.025
8.470,-0.100,-0.025
8.472,-0.105,-0.020
8.474,-0.095,-0.015
8.476,-0.010,-0.005
8.478,-0.010,0.000
8.480,0.025,0.000
8.482,-0.030,0.005
8.484,0.000,0.000
8.486,-0.050,0.000
8.488,-0.115,-0.005
8.490,-0.125,-0.005
8.492,-0.075,-0.005
8.494,-0.035,-0.005
8.496,0.015,0.000
8.498,0.015,0.005
8.500,0.060,0.010
8.502,0.015,0.020
8.504,-0.025,0.020
8.506,-0.050,0.025
8.508,-0.055,0.025
8.510,-0.050,0.025
8.512,-0.070,0.020
8.514,-0.115,0.020
8.516,0.010,0.015
8.518,0.060,0.020
8.520,0.055,0.020
8.522,0.025,0.025
8.524,0.030,0.030
8.526,-0.080,0.040
8.528,-0.085,0.045
8.530,-0.030,0.055
8.532,0.025,0.065
8.534,0.060,0.070
8.536,0.110,0.080
8.538,0.120,0.085
8.540,0.120,0.090
8.542,0.090,0.095
8.544,0.060,0.100
8.546,-0.010,0.100
8.548,-0.005,0.105
8.550,-0.010,0.110
8.552,0.030,0.115
8.554,0.145,0.125
8.556,0.215,0.135
8.558,0.175,0.145
8.560,0.180,0.160
8.562,0.125,0.170
8.564,0.145,0.180
8.566,0.085,0.190
8.568,0.040,0.195
8.570,0.125,0.200
8.572,0.115,0.200
8.574,0.160,0.200
8.576,0.220,0.205
8.578,0.270,0.205
8.580,0.240,0.210
8.582,0.250,0.210
8.584,0.195,0.215
8.586,0.145,0.220
8.588,0.140,0.225
8.590,0.160,0.230
8.592,0.160,0.235
8.594,0.200,0.240
8.596,0.245,0.240
8.598,0.225,0.240
8.600,0.300,0.235
8.602,0.265,0.230
8.604,0.235,0.220
8.606,0.105,0.215
8.608,0.040,0.210
8.610,0.070,0.200
8.612,0.145,0.195
8.614,0.175,0.190
8.616,0.225,0.185
8.618,0.240,0.180
8.620,0.190,0.175
8.622,0.170,0.170
8.624,0.070,0.160
8.626,0.085,0.150
8.628,0.055,0.140
8.630,0.005,0.125
8.632,-0.010,0.110
8.634,0.075,0.095
8.636,0.085,0.080
8.638,0.090,0.065
8.640,0.085,0.050
8.642,0.045,0.035
8.644,0.020,0.020
8.646,0.000,0.010
8.648,-0.120,0.005
8.650,-0.185,0.000
8.652,-0.130,0.000
8.654,0.020,0.000
8.656,0.030,0.005
8.658,0.065,0.005
8.660,0.065,0.005
8.662,0.000,0.005
8.664,-0.030,0.000
8.666,-0.090,-0.005
8.668,-0.160,-0.015
8.670,-0.150,-0.025
8.672,-0.105,-0.035
8.674,-0.065,-0.040
8.676,-0.020,-0.050
8.678,0.045,-0.055
8.680,0.005,-0.060
8.682,-0.080,-0.065
8.684,-0.185,-0.065
8.686,-0.220,-0.065
8.688,-0.165,-0.065
8.690,-0.115,-0.060
8.692,-0.070,-0.055
8.694,-0.010,-0.050
8.696,-0.005,-0.045
8.698,0.020,-0.040
8.700,-0.025,-0.035
8.702,-0.065,-0.030
8.704,-0.095,-0.030
8.706,-0.145,-0.035
8.708,-0.120,-0.040
8.710,-0.100,-0.045
8.712,-0.100,-0.050
8.714,-0.050,-0.055
8.716,-0.070,-0.060
8.718,-0.005,-0.060
8.720,-0.010,-0.055
8.722,-0.030,-0.050
8.724,-0.050,-0.045
8.726,-0.065,-0.040
8.728,-0.145,-0.035
8.730,-0.170,-0.035
8.732,-0.115,-0.035
8.734,-0.020,-0.040
8.736,-0.020,-0.040
8.738,0.005,-0.045
8.740,-0.010,-0.045
8.742,-0.050,-0.045
8.744,-0.115,-0.040
8.746,-0.110,-0.040
8.748,-0.130,-0.035
8.750,-0.170,-0.030
8.752,-0.070,-0.030
8.754,-0.035,-0.030
8.756,-0.005,-0.030
8.758,0.030,-0.030
8.760,0.030,-0.035
8.762,0.005,-0.035
8.764,-0.105,-0.035
8.766,-0.135,-0.030
8.768,-0.125,-0.030
8.770,-0.100,-0.025
8.772,-0.085,-0.020
8.774,0.035,-0.015
8.776,0.070,-0.010
8.778,0.070,-0.010
8.780,0.015,-0.015
8.782,-0.105,-0.020
8.784,-0.105,-0.025
8.786,-0.140,-0.030
8.788,-0.150,-0.035
8.790,-0.095,-0.035
8.792,-0.055,-0.035
8.794,-0.020,-0.030
8.796,-0.005,-0.030
8.798,0.045,-0.025
8.800,0.035,-0.020
8.802,-0.005,-0.020
8.804,-0.130,-0.020
8.806,-0.105,-0.020
8.808,-0.135,-0.025
8.810,-0.150,-0.025
8.812,-0.055,-0.030
8.814,0.050,-0.035
8.816,0.040,-0.035
8.818,0.025,-0.040
8.820,-0.065,-0.035
8.822,-0.080,-0.035
8.824,-0.135,-0.030
8.826,-0.095,-0.025
8.828,-0.110,-0.025
8.830,-0.095,-0.025
8.832,-0.030,-0.025
8.834,0.040,-0.025
8.836,0.030,-0.030
8.838,0.035,-0.030
8.840,-0.030,-0.035
8.842,-0.060,-0.035
8.844,-0.090,-0.040
8.846,-0.110,-0.040
8.848,-0.115,-0.040
8.850,-0.090,-0.040
8.852,-0.025,-0.035
8.854,-0.020,-0.035
8.856,0.020,-0.035
8.858,0.035,-0.035
8.860,-0.035,-0.035
8.862,-0.040,-0.035
8.864,-0.090,-0.035
8.866,-0.120,-0.035
8.868,-0.115,-0.035
8.870,-0.055,-0.035
8.872,-0.055,-0.035
8.874,-0.030,-0.035
8.876,0.015,-0.035
8.878,0.035,-0.035
8.880,0.015,-0.035
8.882,-0.005,-0.030
8.884,-0.095,-0.030
8.886,-0.135,-0.025
8.888,-0.105,-0.025
8.890,-0.080,-0.030
8.892,-0.055,-0.030
8.894,-0.015,-0.035
8.896,-0.015,-0.040
8.898,0.000,-0.040
8.900,-0.030,-0.035
8.902,-0.020,-0.030
8.904,-0.080,-0.025
8.906,-0.070,-0.015
8.908,-0.030,-0.005
8.910,-0.030,-0.005
8.912,-0.055,-0.005
8.914,-0.020,-0.015
8.916,-0.005,-0.025
8.918,0.030,-0.040
8.920,-0.025,-0.055
8.922,-0.095,-0.070
8.924,-0.175,-0.075
8.926,-0.160,-0.080
8.928,-0.125,-0.075
8.930,-0.060,-0.065
8.932,-0.030,-0.055
8.934,-0.035,-0.045
8.936,-0.010,-0.035
8.938,0.050,-0.030
8.940,-0.020,-0.035
8.942,-0.085,-0.040
8.944,-0.140,-0.045
8.946,-0.130,-0.055
8.948,-0.105,-0.060
8.950,-0.100,-0.060
8.952,-0.030,-0.060
8.954,-0.015,-0.060
8.956,0.070,-0.055
8.958,-0.045,-0.050
8.960,-0.090,-0.045
8.962,-0.085,-0.045
8.964,-0.110,-0.045
8.966,-0.110,-0.045
8.968,-0.120,-0.040
8.970,-0.090,-0.040
8.972,0.025,-0.040
8.974,0.025,-0.035
8.976,0.030,-0.035
8.978,0.035,-0.030
8.980,-0.040,-0.030
8.982,-0.065,-0.030
8.984,-0.100,-0.035
8.986,-0.085,-0.035
8.988,-0.105,-0.040
8.990,-0.105,-0.045
8.992,-0.040,-0.045
8.994,-0.020,-0.045
8.996,0.025,-0.045
8.998,0.005,-0.035
9.000,0.015,-0.030
9.002,-0.055,-0.015
9.004,-0.035,-0.005
9.006,-0.040,0.010
9.008,-0.040,0.015
9.010,0.005,0.025
9.012,0.020,0.025
9.014,0.055,0.020
9.016,0.060,0.015
9.018,0.075,0.005
9.020,0.035,-0.010
9.022,-0.075,-0.020
9.024,-0.085,-0.030
9.026,-0.140,-0.035
9.028,-0.100,-0.035
9.030,-0.025,-0.025
9.032,0.030,-0.015
9.034,0.115,0.000
9.036,0.085,0.015
9.038,0.045,0.025
9.040,0.035,0.030
9.042,-0.020,0.035
9.044,-0.055,0.030
9.046,-0.040,0.025
9.048,-0.060,0.020
9.050,-0.035,0.010
9.052,0.035,0.005
9.054,0.120,0.000
9.056,0.100,0.000
9.058,0.060,0.000
9.060,0.020,0.005
9.062,-0.035,0.005
9.064,-0.065,0.005
9.066,-0.105,0.005
9.068,-0.040,0.000
9.070,-0.005,-0.010
9.072,0.005,-0.015
9.074,0.005,-0.025
9.076,0.065,-0.035
9.078,0.005,-0.045
9.080,-0.085,-0.050
9.082,-0.140,-0.055
9.084,-0.130,-0.060
9.086,-0.085,-0.060
9.088,-0.090,-0.060
9.090,-0.090,-0.060
9.092,0.005,-0.055
9.094,0.050,-0.055
9.096,0.020,-0.050
9.098,-0.015,-0.050
9.100,-0.100,-0.055
9.102,-0.095,-0.055
9.104,-0.120,-0.060
9.106,-0.110,-0.065
9.108,-0.105,-0.070
9.110,-0.055,-0.075
9.112,-0.035,-0.070
9.114,-0.060,-0.070
9.116,-0.010,-0.060
9.118,0.030,-0.055
9.120,-0.025,-0.050
9.122,-0.095,-0.045
9.124,-0.130,-0.045
9.126,-0.160,-0.050
9.128,-0.110,-0.060
9.130,-0.035,-0.065
9.132,0.000,-0.070
9.134,-0.035,-0.075
9.136,0.005,-0.075
9.138,-0.015,-0.075
9.140,-0.040,-0.070
9.142,-0.045,-0.065
9.144,-0.090,-0.065
9.146,-0.185,-0.065
9.148,-0.175,-0.065
9.150,-0.115,-0.070
9.152,-0.005,-0.080
9.154,0.015,-0.085
9.156,-0.010,-0.085
9.158,-0.065,-0.085
9.160,-0.130,-0.070
9.162,-0.065,-0.050
9.164,-0.055,-0.015
9.166,0.000,0.030
9.168,0.055,0.090
9.170,0.165,0.165
9.172,0.305,0.245
9.174,0.410,0.340
9.176,0.550,0.430
9.178,0.635,0.520
9.180,0.670,0.595
9.182,0.660,0.650
9.184,0.600,0.675
9.186,0.620,0.670
9.188,0.570,0.630
9.190,0.585,0.560
9.192,0.515,0.460
9.194,0.435,0.350
9.196,0.305,0.230
9.198,0.130,0.115
9.200,-0.020,0.015
9.202,-0.185,-0.065
9.204,-0.250,-0.115
9.206,-0.235,-0.145
9.208,-0.160,-0.150
9.210,-0.070,-0.140
9.212,0.005,-0.120
9.214,0.015,-0.090
9.216,0.040,-0.065
9.218,-0.015,-0.045
9.220,-0.040,-0.035
9.222,-0.085,-0.030
9.224,-0.050,-0.025
9.226,-0.075,-0.030
9.228,-0.105,-0.030
9.230,-0.040,-0.035
9.232,0.085,-0.040
9.234,0.080,-0.040
9.236,0.035,-0.035
9.238,-0.045,-0.035
9.240,-0.110,-0.035
9.242,-0.085,-0.035
9.244,-0.110,-0.035
9.246,-0.090,-0.040
9.248,-0.085,-0.040
9.250,0.005,-0.045
9.252,0.020,-0.045
9.254,0.080,-0.045
9.256,0.030,-0.045
9.258,0.000,-0.040
9.260,-0.020,-0.040
9.262,-0.095,-0.035
9.264,-0.105,-0.035
9.266,-0.095,-0.030
9.268,-0.045,-0.030
9.270,0.020,-0.030
9.272,0.030,-0.025
9.274,0.040,-0.025
9.276,0.080,-0.020
9.278,0.065,-0.015
9.280,-0.015,-0.010
9.282,-0.055,-0.005
9.284,-0.050,0.000
9.286,-0.025,0.005
9.288,-0.010,0.010
9.290,0.030,0.010
9.292,0.070,0.005
9.294,0.095,0.000
9.296,0.100,-0.010
9.298,0.030,-0.020
9.300,-0.045,-0.025
9.302,-0.070,-0.025
9.304,-0.120,-0.025
9.306,-0.070,-0.020
9.308,-0.080,-0.015
9.310,0.050,-0.005
9.312,0.080,0.005
9.314,0.130,0.015
9.316,0.115,0.020
9.318,0.070,0.025
9.320,-0.015,0.025
9.322,-0.055,0.025
9.324,-0.050,0.020
9.326,0.010,0.015
9.328,0.015,0.015
9.330,0.075,0.015
9.332,0.135,0.020
9.334,0.120,0.025
9.336,0.100,0.030
9.338,0.110,0.040
9.340,-0.005,0.050
9.342,-0.025,0.060
9.344,0.030,0.070
9.346,0.035,0.080
9.348,0.110,0.085
9.350,0.155,0.095
9.352,0.195,0.100
9.354,0.195,0.105
9.356,0.160,0.110
9.358,0.120,0.110
9.360,0.070,0.110
9.362,0.040,0.110
9.364,0.015,0.110
9.366,0.055,0.105
9.368,0.130,0.105
9.370,0.185,0.110
9.372,0.260,0.115
9.374,0.210,0.120
9.376,0.195,0.135
9.378,0.175,0.150
9.380,0.160,0.170
9.382,0.145,0.185
9.384,0.155,0.200
9.386,0.175,0.210
9.388,0.265,0.220
9.390,0.255,0.225
9.392,0.265,0.225
9.394,0.335,0.220
9.396,0.310,0.220
9.398,0.240,0.215
9.400,0.155,0.220
9.402,0.160,0.220
9.404,0.190,0.230
9.406,0.215,0.240
9.408,0.245,0.250
9.410,0.330,0.260
9.412,0.375,0.270
9.414,0.365,0.275
9.416,0.360,0.275
9.418,0.280,0.270
9.420,0.205,0.255
9.422,0.150,0.240
9.424,0.155,0.225
9.426,0.200,0.205
9.428,0.215,0.185
9.430,0.235,0.170
9.432,0.220,0.155
9.434,0.230,0.145
9.436,0.205,0.140
9.438,0.175,0.140
9.440,0.120,0.135
9.442,0.065,0.135
9.444,0.090,0.130
9.446,0.120,0.120
9.448,0.120,0.110
9.450,0.125,0.095
9.452,0.115,0.080
9.454,0.110,0.060
9.456,0.130,0.040
9.458,0.055,0.020
9.460,-0.060,0.005
9.462,-0.065,-0.005
9.464,-0.065,-0.015
9.466,-0.030,-0.020
9.468,0.035,-0.025
9.470,0.045,-0.025
9.472,0.040,-0.030
9.474,0.035,-0.035
9.476,0.025,-0.040
9.478,-0.055,-0.045
9.480,-0.100,-0.055
9.482,-0.115,-0.060
9.484,-0.125,-0.070
9.486,-0.080,-0.075
9.488,-0.060,-0.075
9.490,0.030,-0.070
9.492,0.050,-0.070
9.494,0.020,-0.060
9.496,-0.005,-0.055
9.498,-0.090,-0.050
9.500,-0.070,-0.050
9.502,-0.110,-0.050
9.504,-0.105,-0.060
9.506,-0.130,-0.065
9.508,-0.040,-0.075
9.510,-0.035,-0.085
9.512,-0.010,-0.090
9.514,0.005,-0.095
9.516,-0.055,-0.095
9.518,-0.055,-0.090
9.520,-0.110,-0.085
9.522,-0.190,-0.080
9.524,-0.130,-0.075
9.526,-0.105,-0.075
9.528,0.005,-0.075
9.530,-0.030,-0.080
9.532,-0.020,-0.090
9.534,-0.040,-0.095
9.536,-0.060,-0.100
9.538,-0.080,-0.100
9.540,-0.130,-0.095
9.542,-0.135,-0.095
9.544,-0.080,-0.085
9.546,-0.070,-0.080
9.548,-0.035,-0.075
9.550,-0.020,-0.070
9.552,-0.030,-0.070
9.554,-0.035,-0.070
9.556,-0.075,-0.075
9.558,-0.050,-0.075
9.560,-0.080,-0.080
9.562,-0.095,-0.080
9.564,-0.095,-0.080
9.566,-0.120,-0.080
9.568,-0.090,-0.075
9.570,0.015,-0.075
9.572,0.040,-0.070
9.574,0.045,-0.070
9.576,0.000,-0.070
9.578,-0.090,-0.070
9.580,-0.125,-0.070
9.582,-0.105,-0.070
9.584,-0.140,-0.070
9.586,-0.075,-0.070
9.588,-0.015,-0.070
9.590,0.020,-0.075
9.592,0.040,-0.075
9.594,-0.020,-0.075
9.596,-0.070,-0.075
9.598,-0.095,-0.075
9.600,-0.115,-0.075
9.602,-0.085,-0.075
9.604,-0.090,-0.075
9.606,-0.080,-0.070
9.608,-0.090,-0.065
9.610,-0.015,-0.065
9.612,-0.005,-0.060
9.614,0.055,-0.055
9.616,0.005,-0.055
9.618,-0.070,-0.055
9.620,-0.130,-0.055
9.622,-0.115,-0.055
9.624,-0.075,-0.055
9.626,-0.050,-0.055
9.628,0.000,-0.055
9.630,0.020,-0.055
9.632,0.020,-0.055
9.634,0.005,-0.055
9.636,-0.030,-0.060
9.638,-0.105,-0.060
9.640,-0.170,-0.065
9.642,-0.150,-0.070
9.644,-0.120,-0.080
9.646,-0.030,-0.085
9.648,0.030,-0.090
9.650,0.005,-0.085
9.652,0.015,-0.085
9.654,0.000,-0.075
9.656,-0.060,-0.065
9.658,-0.130,-0.055
9.660,-0.120,-0.045
9.662,-0.135,-0.045
9.664,-0.105,-0.045
9.666,-0.010,-0.050
9.668,0.015,-0.060
9.670,0.055,-0.070
9.672,-0.005,-0.080
9.674,-0.035,-0.085
9.676,-0.070,-0.085
9.678,-0.180,-0.085
9.680,-0.095,-0.080
9.682,-0.120,-0.075
9.684,-0.095,-0.070
9.686,-0.060,-0.065
9.688,-0.030,-0.065
9.690,0.000,-0.065
9.692,0.005,-0.065
9.694,-0.010,-0.070
9.696,-0.080,-0.070
9.698,-0.130,-0.070
9.700,-0.110,-0.065
9.702,-0.110,-0.060
9.704,-0.085,-0.060
9.706,-0.050,-0.055
9.708,-0.075,-0.060
9.710,0.025,-0.065
9.712,0.015,-0.070
9.714,-0.030,-0.080
9.716,-0.095,-0.090
9.718,-0.135,-0.100
9.720,-0.160,-0.105
9.722,-0.150,-0.105
9.724,-0.105,-0.100
9.726,-0.045,-0.095
9.728,-0.015,-0.085
9.730,-0.025,-0.075
9.732,0.010,-0.070
9.734,-0.035,-0.065
9.736,-0.050,-0.065
9.738,-0.135,-0.065
9.740,-0.150,-0.070
9.742,-0.125,-0.075
9.744,-0.070,-0.075
9.746,-0.015,-0.075
9.748,-0.035,-0.075
9.750,-0.005,-0.075
9.752,0.050,-0.070
9.754,-0.030,-0.070
9.756,-0.060,-0.070
9.758,-0.150,-0.070
9.760,-0.190,-0.070
9.762,-0.125,-0.075
9.764,-0.085,-0.080
9.766,-0.035,-0.085
9.768,-0.020,-0.095
9.770,0.005,-0.095
9.772,0.000,-0.095
9.774,-0.030,-0.095
9.776,-0.110,-0.090
9.778,-0.130,-0.080
9.780,-0.120,-0.075
9.782,-0.130,-0.070
9.784,-0.110,-0.065
9.786,-0.050,-0.065
9.788,-0.020,-0.070
9.790,-0.010,-0.075
9.792,0.000,-0.085
9.794,-0.065,-0.090
9.796,-0.095,-0.095
9.798,-0.140,-0.100
9.800,-0.130,-0.095
9.802,-0.115,-0.090
9.804,-0.085,-0.080
9.806,-0.030,-0.070
9.808,0.005,-0.055
9.810,0.025,-0.045
9.812,0.010,-0.040
9.814,0.015,-0.035
9.816,-0.055,-0.035
9.818,-0.070,-0.035
9.820,-0.095,-0.040
9.822,-0.080,-0.045
9.824,-0.100,-0.050
9.826,-0.015,-0.055
9.828,0.030,-0.055
9.830,0.055,-0.050
9.832,0.065,-0.045
9.834,0.050,-0.035
9.836,-0.070,-0.030
9.838,-0.070,-0.025
9.840,-0.090,-0.020
9.842,-0.065,-0.020
9.844,-0.020,-0.025
9.846,-0.005,-0.030
9.848,0.035,-0.035
9.850,0.065,-0.040
9.852,0.025,-0.040
9.854,0.000,-0.040
9.856,-0.040,-0.030
9.858,-0.045,-0.025
9.860,-0.085,-0.015
9.862,-0.080,-0.015
9.864,-0.055,-0.015
9.866,-0.020,-0.025
9.868,0.050,-0.040
9.870,0.025,-0.055
9.872,-0.020,-0.075
9.874,-0.110,-0.095
9.876,-0.150,-0.105
9.878,-0.160,-0.110
9.880,-0.135,-0.105
9.882,-0.120,-0.095
9.884,-0.045,-0.080
9.886,0.000,-0.060
9.888,0.025,-0.050
9.890,0.035,-0.040
9.892,0.005,-0.040
9.894,-0.065,-0.050
9.896,-0.115,-0.060
9.898,-0.145,-0.075
9.900,-0.155,-0.090
9.902,-0.140,-0.105
9.904,-0.155,-0.110
9.906,-0.100,-0.110
9.908,-0.065,-0.110
9.910,0.010,-0.100
9.912,-0.015,-0.090
9.914,-0.080,-0.085
9.916,-0.110,-0.080
9.918,-0.130,-0.075
9.920,-0.130,-0.080
9.922,-0.115,-0.085
9.924,-0.110,-0.090
9.926,-0.060,-0.095
9.928,-0.070,-0.100
9.930,-0.075,-0.105
9.932,-0.050,-0.105
9.934,-0.090,-0.105
9.936,-0.135,-0.100
9.938,-0.150,-0.095
9.940,-0.180,-0.095
9.942,-0.160,-0.090
9.944,-0.135,-0.090
9.946,-0.025,-0.095
9.948,-0.040,-0.100
9.950,-0.050,-0.110
9.952,-0.115,-0.120
9.954,-0.125,-0.125
9.956,-0.175,-0.130
9.958,-0.200,-0.125
9.960,-0.175,-0.115
9.962,-0.145,-0.090
9.964,-0.065,-0.055
9.966,0.060,-0.005
9.968,0.160,0.060
9.970,0.255,0.140
9.972,0.285,0.235
9.974,0.330,0.335
9.976,0.390,0.435
9.978,0.465,0.535
9.980,0.610,0.615
9.982,0.705,0.680
9.984,0.730,0.710
9.986,0.780,0.705
9.988,0.735,0.665
9.990,0.670,0.585
9.992,0.540,0.480
9.994,0.340,0.360
9.996,0.135,0.230
9.998,-0.025,0.105
