'Elapsed time','ECG I','ECG I filtered'
'seconds','mV','mV'
0.000,1.195,-0.145
0.002,1.225,-0.085
0.004,1.240,-0.030
0.006,1.340,0.015
0.008,1.360,0.055
0.010,1.545,0.080
0.012,1.580,0.095
0.014,1.500,0.095
0.016,1.425,0.090
0.018,1.360,0.075
0.020,1.255,0.060
0.022,1.285,0.050
0.024,1.325,0.045
0.026,1.400,0.045
0.028,1.395,0.050
0.030,1.525,0.055
0.032,1.485,0.065
0.034,1.470,0.070
0.036,1.400,0.070
0.038,1.345,0.070
0.040,1.270,0.060
0.042,1.270,0.050
0.044,1.285,0.045
0.046,1.345,0.040
0.048,1.375,0.040
0.050,1.505,0.045
0.052,1.525,0.050
0.054,1.535,0.060
0.056,1.445,0.070
0.058,1.405,0.075
0.060,1.240,0.080
0.062,1.270,0.080
0.064,1.295,0.075
0.066,1.355,0.065
0.068,1.410,0.060
0.070,1.555,0.050
0.072,1.485,0.050
0.074,1.480,0.045
0.076,1.435,0.045
0.078,1.380,0.050
0.080,1.235,0.055
0.082,1.250,0.060
0.084,1.315,0.060
0.086,1.360,0.060
0.088,1.390,0.060
0.090,1.500,0.055
0.092,1.485,0.050
0.094,1.420,0.040
0.096,1.345,0.040
0.098,1.325,0.035
0.100,1.270,0.035
0.102,1.240,0.045
0.104,1.305,0.050
0.106,1.340,0.060
0.108,1.375,0.070
0.110,1.505,0.075
0.112,1.515,0.075
0.114,1.485,0.070
0.116,1.390,0.060
0.118,1.355,0.055
0.120,1.200,0.045
0.122,1.205,0.040
0.124,1.315,0.035
0.126,1.405,0.040
0.128,1.415,0.045
0.130,1.515,0.055
0.132,1.495,0.060
0.134,1.400,0.070
0.136,1.345,0.075
0.138,1.320,0.080
0.140,1.290,0.085
0.142,1.340,0.090
0.144,1.370,0.095
0.146,1.445,0.105
0.148,1.490,0.110
0.150,1.565,0.120
0.152,1.570,0.125
0.154,1.495,0.125
0.156,1.430,0.125
0.158,1.375,0.125
0.160,1.325,0.120
0.162,1.285,0.120
0.164,1.345,0.120
0.166,1.415,0.120
0.168,1.450,0.125
0.170,1.585,0.130
0.172,1.595,0.135
0.174,1.510,0.140
0.176,1.480,0.140
0.178,1.405,0.140
0.180,1.290,0.140
0.182,1.255,0.135
0.184,1.325,0.135
0.186,1.420,0.140
0.188,1.550,0.150
0.190,1.675,0.160
0.192,1.650,0.175
0.194,1.590,0.185
0.196,1.510,0.195
0.198,1.400,0.195
0.200,1.350,0.190
0.202,1.325,0.180
0.204,1.335,0.165
0.206,1.380,0.145
0.208,1.485,0.125
0.210,1.555,0.110
0.212,1.600,0.100
0.214,1.485,0.100
0.216,1.395,0.105
0.218,1.300,0.110
0.220,1.290,0.120
0.222,1.275,0.130
0.224,1.335,0.135
0.226,1.400,0.135
0.228,1.530,0.130
0.230,1.560,0.125
0.232,1.545,0.115
0.234,1.455,0.105
0.236,1.385,0.100
0.238,1.265,0.090
0.240,1.255,0.085
0.242,1.215,0.075
0.244,1.255,0.070
0.246,1.320,0.060
0.248,1.440,0.050
0.250,1.460,0.040
0.252,1.450,0.030
0.254,1.335,0.020
0.256,1.285,0.015
0.258,1.170,0.015
0.260,1.185,0.015
0.262,1.190,0.020
0.264,1.305,0.020
0.266,1.345,0.020
0.268,1.410,0.020
0.270,1.390,0.020
0.272,1.350,0.015
0.274,1.320,0.010
0.276,1.300,0.005
0.278,1.160,0.005
0.280,1.215,0.005
0.282,1.175,0.005
0.284,1.215,0.005
0.286,1.245,0.005
0.288,1.350,0.000
0.290,1.365,-0.010
0.292,1.370,-0.015
0.294,1.325,-0.025
0.296,1.270,-0.030
0.298,1.125,-0.030
0.300,1.115,-0.025
0.302,1.100,-0.020
0.304,1.215,-0.015
0.306,1.285,-0.010
0.308,1.430,-0.010
0.310,1.355,-0.020
0.312,1.375,-0.030
0.314,1.240,-0.045
0.316,1.180,-0.055
0.318,1.080,-0.060
0.320,1.070,-0.060
0.322,1.125,-0.045
0.324,1.165,-0.025
0.326,1.265,-0.005
0.328,1.435,0.015
0.330,1.440,0.025
0.332,1.395,0.025
0.334,1.295,0.020
0.336,1.220,0.000
0.338,1.075,-0.025
0.340,1.065,-0.045
0.342,1.080,-0.065
0.344,1.155,-0.070
0.346,1.255,-0.070
0.348,1.380,-0.055
0.350,1.345,-0.040
0.352,1.285,-0.025
0.354,1.260,-0.015
0.356,1.215,-0.010
0.358,1.085,-0.015
0.360,1.080,-0.030
0.362,1.120,-0.045
0.364,1.195,-0.065
0.366,1.185,-0.080
0.368,1.285,-0.090
0.370,1.295,-0.090
0.372,1.270,-0.080
0.374,1.215,-0.065
0.376,1.200,-0.050
0.378,1.055,-0.035
0.380,1.110,-0.025
0.382,1.115,-0.015
0.384,1.160,-0.015
0.386,1.210,-0.020
0.388,1.340,-0.025
0.390,1.295,-0.035
0.392,1.260,-0.040
0.394,1.270,-0.045
0.396,1.210,-0.045
0.398,1.090,-0.040
0.400,1.045,-0.035
0.402,1.095,-0.030
0.404,1.165,-0.030
0.406,1.215,-0.025
0.408,1.325,-0.025
0.410,1.375,-0.025
0.412,1.305,-0.025
0.414,1.215,-0.030
0.416,1.150,-0.030
0.418,1.070,-0.035
0.420,1.055,-0.035
0.422,1.125,-0.040
0.424,1.195,-0.040
0.426,1.200,-0.040
0.428,1.295,-0.040
0.430,1.340,-0.040
0.432,1.285,-0.040
0.434,1.165,-0.040
0.436,1.130,-0.035
0.438,1.025,-0.035
0.440,1.050,-0.040
0.442,1.115,-0.040
0.444,1.185,-0.045
0.446,1.175,-0.050
0.448,1.280,-0.055
0.450,1.305,-0.060
0.452,1.235,-0.060
0.454,1.195,-0.055
0.456,1.120,-0.045
0.458,1.030,-0.040
0.460,1.070,-0.030
0.462,1.075,-0.025
0.464,1.155,-0.025
0.466,1.230,-0.030
0.468,1.310,-0.040
0.470,1.310,-0.055
0.472,1.190,-0.075
0.474,1.120,-0.090
0.476,1.010,-0.100
0.478,0.965,-0.105
0.480,0.995,-0.100
0.482,1.045,-0.090
0.484,1.095,-0.075
0.486,1.225,-0.055
0.488,1.350,-0.040
0.490,1.355,-0.025
0.492,1.230,-0.015
0.494,1.145,-0.005
0.496,1.070,-0.005
0.498,1.070,-0.005
0.500,1.095,-0.010
0.502,1.145,-0.015
0.504,1.140,-0.025
0.506,1.225,-0.030
0.508,1.315,-0.040
0.510,1.270,-0.045
0.512,1.150,-0.055
0.514,1.120,-0.060
0.516,1.010,-0.060
0.518,0.990,-0.060
0.520,1.010,-0.060
0.522,1.120,-0.055
0.524,1.175,-0.050
0.526,1.235,-0.040
0.528,1.260,-0.035
0.530,1.255,-0.035
0.532,1.150,-0.035
0.534,1.160,-0.035
0.536,1.005,-0.035
0.538,1.035,-0.040
0.540,1.025,-0.040
0.542,1.055,-0.035
0.544,1.125,-0.030
0.546,1.280,-0.025
0.548,1.295,-0.020
0.550,1.295,-0.020
0.552,1.190,-0.015
0.554,1.155,-0.020
0.556,1.005,-0.030
0.558,0.965,-0.040
0.560,0.980,-0.055
0.562,1.030,-0.070
0.564,1.030,-0.080
0.566,1.215,-0.090
0.568,1.230,-0.090
0.570,1.220,-0.090
0.572,1.115,-0.080
0.574,1.060,-0.075
0.576,0.950,-0.065
0.578,0.975,-0.060
0.580,0.980,-0.055
0.582,1.080,-0.055
0.584,1.115,-0.055
0.586,1.195,-0.060
0.588,1.210,-0.065
0.590,1.175,-0.065
0.592,1.080,-0.065
0.594,1.100,-0.065
0.596,0.950,-0.060
0.598,0.960,-0.055
0.600,1.030,-0.045
0.602,1.085,-0.040
0.604,1.085,-0.040
0.606,1.245,-0.045
0.608,1.210,-0.050
0.610,1.145,-0.060
0.612,1.070,-0.065
0.614,1.040,-0.075
0.616,0.915,-0.075
0.618,0.930,-0.070
0.620,1.025,-0.065
0.622,1.090,-0.055
0.624,1.135,-0.045
0.626,1.220,-0.040
0.628,1.175,-0.035
0.630,1.130,-0.040
0.632,1.070,-0.045
0.634,1.065,-0.055
0.636,0.975,-0.065
0.638,0.955,-0.070
0.640,0.975,-0.075
0.642,1.030,-0.070
0.644,1.035,-0.065
0.646,1.175,-0.060
0.648,1.185,-0.055
0.650,1.140,-0.050
0.652,1.070,-0.050
0.654,1.065,-0.055
0.656,0.900,-0.065
0.658,0.935,-0.075
0.660,1.000,-0.085
0.662,1.090,-0.095
0.664,1.050,-0.095
0.666,1.100,-0.095
0.668,1.105,-0.090
0.670,1.110,-0.080
0.672,1.115,-0.065
0.674,1.080,-0.055
0.676,0.965,-0.050
0.678,0.910,-0.045
0.680,0.960,-0.045
0.682,1.010,-0.050
0.684,1.020,-0.055
0.686,1.170,-0.065
0.688,1.165,-0.070
0.690,1.105,-0.075
0.692,1.065,-0.075
0.694,1.035,-0.070
0.696,0.925,-0.065
0.698,0.925,-0.055
0.700,0.975,-0.050
0.702,1.015,-0.045
0.704,1.060,-0.045
0.706,1.170,-0.050
0.708,1.150,-0.060
0.710,1.070,-0.075
0.712,1.020,-0.085
0.714,0.990,-0.100
0.716,0.860,-0.110
0.718,0.835,-0.110
0.720,0.915,-0.110
0.722,0.980,-0.105
0.724,1.015,-0.095
0.726,1.125,-0.085
0.728,1.180,-0.075
0.730,1.080,-0.065
0.732,1.005,-0.060
0.734,0.990,-0.055
0.736,0.880,-0.050
0.738,0.855,-0.050
0.740,0.970,-0.050
0.742,1.080,-0.045
0.744,1.110,-0.040
0.746,1.140,-0.035
0.748,1.155,-0.030
0.750,1.135,-0.025
0.752,1.085,-0.020
0.754,1.005,-0.020
0.756,0.905,-0.020
0.758,0.870,-0.025
0.760,0.955,-0.025
0.762,1.010,-0.030
0.764,1.135,-0.035
0.766,1.230,-0.040
0.768,1.130,-0.040
0.770,1.055,-0.045
0.772,1.010,-0.045
0.774,0.930,-0.045
0.776,0.870,-0.045
0.778,0.900,-0.050
0.780,0.955,-0.050
0.782,1.005,-0.050
0.784,1.095,-0.050
0.786,1.135,-0.050
0.788,1.150,-0.055
0.790,1.040,-0.055
0.792,0.990,-0.055
0.794,0.915,-0.055
0.796,0.910,-0.055
0.798,0.925,-0.060
0.800,0.935,-0.060
0.802,1.010,-0.060
0.804,1.080,-0.060
0.806,1.090,-0.060
0.808,1.030,-0.060
0.810,0.980,-0.055
0.812,1.035,-0.050
0.814,0.955,-0.045
0.816,0.905,-0.040
0.818,0.905,-0.040
0.820,0.960,-0.040
0.822,1.000,-0.040
0.824,1.080,-0.045
0.826,1.060,-0.045
0.828,1.030,-0.050
0.830,1.030,-0.045
0.832,1.065,-0.045
0.834,0.930,-0.035
0.836,0.930,-0.025
0.838,0.890,-0.020
0.840,0.930,-0.010
0.842,1.030,-0.005
0.844,1.145,-0.005
0.846,1.145,-0.005
0.848,1.165,-0.005
0.850,1.065,-0.010
0.852,1.005,-0.015
0.854,0.890,-0.010
0.856,0.890,-0.005
0.858,0.880,0.005
0.860,0.975,0.015
0.862,1.085,0.025
0.864,1.190,0.035
0.866,1.210,0.040
0.868,1.240,0.040
0.870,1.105,0.035
0.872,1.025,0.030
0.874,0.860,0.020
0.876,0.855,0.015
0.878,0.865,0.005
0.880,0.990,0.000
0.882,1.065,0.000
0.884,1.180,-0.005
0.886,1.115,-0.005
0.888,1.080,-0.010
0.890,1.020,-0.015
0.892,0.990,-0.025
0.894,0.835,-0.035
0.896,0.815,-0.045
0.898,0.855,-0.050
0.900,0.975,-0.055
0.902,0.960,-0.055
0.904,1.075,-0.050
0.906,1.095,-0.050
0.908,1.035,-0.045
0.910,0.995,-0.045
0.912,0.990,-0.040
0.914,0.805,-0.045
0.916,0.790,-0.045
0.918,0.820,-0.050
0.920,0.920,-0.050
0.922,0.975,-0.050
0.924,1.080,-0.055
0.926,1.055,-0.055
0.928,1.040,-0.055
0.930,0.990,-0.055
0.932,0.925,-0.055
0.934,0.785,-0.060
0.936,0.855,-0.060
0.938,0.800,-0.060
0.940,0.855,-0.055
0.942,0.965,-0.050
0.944,1.085,-0.050
0.946,1.090,-0.045
0.948,1.010,-0.045
0.950,0.925,-0.045
0.952,0.920,-0.050
0.954,0.795,-0.060
0.956,0.755,-0.070
0.958,0.715,-0.080
0.960,0.845,-0.080
0.962,0.920,-0.080
0.964,1.050,-0.070
0.966,1.120,-0.055
0.968,1.050,-0.040
0.970,1.000,-0.020
0.972,0.935,-0.005
0.974,0.830,0.005
0.976,0.795,0.005
0.978,0.860,0.000
0.980,0.975,-0.010
0.982,1.020,-0.020
0.984,1.060,-0.025
0.986,1.075,-0.025
0.988,0.975,-0.015
0.990,0.970,0.005
0.992,0.965,0.030
0.994,0.875,0.050
0.996,0.945,0.065
0.998,0.970,0.070
1.000,0.975,0.065
1.002,1.015,0.040
1.004,1.100,0.010
1.006,1.035,-0.030
1.008,0.905,-0.070
1.010,0.815,-0.105
1.012,0.820,-0.125
1.014,0.700,-0.135
1.016,0.660,-0.135
1.018,0.720,-0.120
1.020,0.850,-0.095
1.022,0.930,-0.070
1.024,1.035,-0.050
1.026,1.045,-0.035
1.028,1.010,-0.025
1.030,0.925,-0.025
1.032,0.830,-0.030
1.034,0.750,-0.040
1.036,0.765,-0.045
1.038,0.790,-0.050
1.040,0.840,-0.055
1.042,0.950,-0.055
1.044,1.035,-0.055
1.046,1.040,-0.050
1.048,0.955,-0.050
1.050,0.910,-0.045
1.052,0.810,-0.045
1.054,0.735,-0.040
1.056,0.735,-0.040
1.058,0.815,-0.040
1.060,0.880,-0.035
1.062,0.995,-0.025
1.064,1.045,-0.020
1.066,1.040,-0.010
1.068,1.010,0.000
1.070,1.000,0.005
1.072,0.850,0.010
1.074,0.755,0.010
1.076,0.800,0.010
1.078,0.885,0.000
1.080,0.895,-0.005
1.082,0.945,-0.020
1.084,0.990,-0.025
1.086,1.035,-0.035
1.088,0.985,-0.035
1.090,0.900,-0.035
1.092,0.770,-0.035
1.094,0.765,-0.025
1.096,0.770,-0.015
1.098,0.865,-0.005
1.100,0.935,0.005
1.102,1.045,0.020
1.104,1.090,0.030
1.106,1.070,0.035
1.108,1.010,0.040
1.110,0.985,0.040
1.112,0.845,0.035
1.114,0.785,0.030
1.116,0.785,0.015
1.118,0.860,0.005
1.120,0.905,-0.010
1.122,0.995,-0.020
1.124,1.060,-0.020
1.126,0.995,-0.020
1.128,0.955,-0.015
1.130,0.955,0.000
1.132,0.775,0.015
1.134,0.710,0.030
1.136,0.820,0.045
1.138,0.955,0.055
1.140,0.960,0.060
1.142,1.100,0.060
1.144,1.130,0.060
1.146,1.055,0.055
1.148,0.950,0.045
1.150,0.910,0.040
1.152,0.775,0.040
1.154,0.795,0.035
1.156,0.855,0.035
1.158,0.940,0.040
1.160,0.970,0.045
1.162,1.075,0.050
1.164,1.060,0.055
1.166,1.080,0.065
1.168,0.975,0.075
1.170,0.945,0.085
1.172,0.825,0.095
1.174,0.875,0.105
1.176,0.890,0.110
1.178,0.960,0.110
1.180,0.995,0.110
1.182,1.155,0.110
1.184,1.095,0.105
1.186,1.085,0.105
1.188,1.050,0.105
1.190,1.040,0.105
1.192,0.880,0.105
1.194,0.865,0.110
1.196,0.860,0.110
1.198,0.925,0.115
1.200,0.965,0.115
1.202,1.135,0.120
1.204,1.190,0.130
1.206,1.125,0.140
1.208,1.070,0.155
1.210,1.095,0.170
1.212,0.950,0.180
1.214,0.905,0.195
1.216,0.980,0.200
1.218,1.110,0.200
1.220,1.050,0.190
1.222,1.135,0.175
1.224,1.170,0.160
1.226,1.135,0.145
1.228,1.010,0.135
1.230,0.955,0.130
1.232,0.865,0.135
1.234,0.885,0.145
1.236,0.950,0.160
1.238,1.020,0.170
1.240,1.085,0.180
1.242,1.200,0.185
1.244,1.140,0.175
1.246,1.100,0.160
1.248,1.030,0.135
1.250,0.970,0.110
1.252,0.800,0.085
1.254,0.740,0.065
1.256,0.795,0.055
1.258,0.930,0.045
1.260,1.020,0.045
1.262,1.075,0.045
1.264,1.030,0.050
1.266,0.970,0.050
1.268,0.910,0.050
1.270,0.820,0.050
1.272,0.735,0.045
1.274,0.755,0.040
1.276,0.805,0.035
1.278,0.895,0.030
1.280,0.945,0.030
1.282,1.050,0.025
1.284,1.025,0.020
1.286,0.930,0.020
1.288,0.820,0.015
1.290,0.785,0.010
1.292,0.750,0.005
1.294,0.730,-0.005
1.296,0.780,-0.010
1.298,0.810,-0.015
1.300,0.865,-0.020
1.302,0.955,-0.025
1.304,0.945,-0.030
1.306,0.905,-0.035
1.308,0.855,-0.040
1.310,0.805,-0.040
1.312,0.710,-0.045
1.314,0.615,-0.050
1.316,0.695,-0.050
1.318,0.805,-0.050
1.320,0.880,-0.045
1.322,0.970,-0.040
1.324,0.970,-0.040
1.326,0.890,-0.035
1.328,0.790,-0.035
1.330,0.720,-0.035
1.332,0.665,-0.035
1.334,0.640,-0.040
1.336,0.725,-0.040
1.338,0.810,-0.045
1.340,0.860,-0.040
1.342,0.965,-0.040
1.344,0.980,-0.030
1.346,0.920,-0.020
1.348,0.855,-0.010
1.350,0.725,0.000
1.352,0.725,0.005
1.354,0.740,0.005
1.356,0.770,0.000
1.358,0.795,-0.010
1.360,0.860,-0.025
1.362,0.930,-0.045
1.364,0.955,-0.060
1.366,0.875,-0.070
1.368,0.770,-0.080
1.370,0.620,-0.080
1.372,0.600,-0.070
1.374,0.650,-0.055
1.376,0.760,-0.040
1.378,0.870,-0.020
1.380,0.970,-0.010
1.382,1.015,0.000
1.384,1.005,0.005
1.386,0.880,0.000
1.388,0.785,-0.010
1.390,0.710,-0.020
1.392,0.695,-0.030
1.394,0.680,-0.040
1.396,0.740,-0.045
1.398,0.810,-0.045
1.400,0.910,-0.045
1.402,0.910,-0.045
1.404,0.915,-0.040
1.406,0.875,-0.040
1.408,0.800,-0.040
1.410,0.650,-0.045
1.412,0.660,-0.050
1.414,0.655,-0.055
1.416,0.700,-0.065
1.418,0.745,-0.070
1.420,0.845,-0.080
1.422,0.870,-0.085
1.424,0.860,-0.085
1.426,0.825,-0.080
1.428,0.780,-0.070
1.430,0.665,-0.055
1.432,0.715,-0.035
1.434,0.740,-0.015
1.436,0.810,0.005
1.438,0.820,0.020
1.440,0.970,0.030
1.442,0.980,0.030
1.444,0.955,0.025
1.446,0.890,0.015
1.448,0.775,-0.005
1.450,0.635,-0.025
1.452,0.700,-0.045
1.454,0.685,-0.060
1.456,0.760,-0.070
1.458,0.775,-0.080
1.460,0.800,-0.080
1.462,0.855,-0.075
1.464,0.890,-0.065
1.466,0.820,-0.060
1.468,0.810,-0.050
1.470,0.670,-0.045
1.472,0.635,-0.040
1.474,0.665,-0.035
1.476,0.770,-0.035
1.478,0.815,-0.030
1.480,0.955,-0.030
1.482,0.930,-0.030
1.484,0.930,-0.030
1.486,0.835,-0.035
1.488,0.725,-0.035
1.490,0.615,-0.035
1.492,0.640,-0.035
1.494,0.700,-0.040
1.496,0.785,-0.040
1.498,0.825,-0.040
1.500,0.940,-0.040
1.502,0.945,-0.035
1.504,0.860,-0.030
1.506,0.750,-0.025
1.508,0.755,-0.020
1.510,0.700,-0.015
1.512,0.705,-0.010
1.514,0.735,-0.005
1.516,0.805,-0.005
1.518,0.840,-0.005
1.520,0.950,-0.010
1.522,0.920,-0.010
1.524,0.900,-0.015
1.526,0.870,-0.015
1.528,0.835,-0.015
1.530,0.700,-0.015
1.532,0.645,-0.010
1.534,0.740,-0.005
1.536,0.815,-0.005
1.538,0.830,0.000
1.540,0.940,0.000
1.542,0.950,0.000
1.544,0.935,-0.005
1.546,0.870,-0.010
1.548,0.780,-0.020
1.550,0.655,-0.025
1.552,0.630,-0.035
1.554,0.690,-0.040
1.556,0.745,-0.045
1.558,0.800,-0.040
1.560,0.930,-0.035
1.562,0.945,-0.025
1.564,0.885,-0.015
1.566,0.875,0.000
1.568,0.805,0.010
1.570,0.735,0.020
1.572,0.725,0.030
1.574,0.775,0.030
1.576,0.820,0.035
1.578,0.890,0.030
1.580,1.015,0.025
1.582,1.005,0.020
1.584,0.880,0.010
1.586,0.790,0.000
1.588,0.715,-0.010
1.590,0.630,-0.015
1.592,0.695,-0.020
1.594,0.745,-0.025
1.596,0.785,-0.025
1.598,0.895,-0.020
1.600,0.965,-0.015
1.602,0.940,-0.010
1.604,0.900,-0.005
1.606,0.870,-0.005
1.608,0.780,-0.005
1.610,0.650,-0.010
1.612,0.615,-0.020
1.614,0.685,-0.025
1.616,0.780,-0.035
1.618,0.820,-0.040
1.620,0.945,-0.040
1.622,0.970,-0.035
1.624,0.950,-0.025
1.626,0.855,-0.010
1.628,0.775,0.005
1.630,0.710,0.020
1.632,0.730,0.025
1.634,0.770,0.030
1.636,0.825,0.020
1.638,0.895,0.010
1.640,0.970,-0.005
1.642,0.925,-0.025
1.644,0.835,-0.035
1.646,0.820,-0.040
1.648,0.695,-0.040
1.650,0.680,-0.030
1.652,0.670,-0.015
1.654,0.765,0.005
1.656,0.850,0.020
1.658,0.960,0.035
1.660,1.015,0.040
1.662,1.040,0.045
1.664,0.950,0.040
1.666,0.845,0.035
1.668,0.740,0.025
1.670,0.695,0.020
1.672,0.640,0.015
1.674,0.770,0.015
1.676,0.865,0.015
1.678,0.950,0.020
1.680,0.995,0.025
1.682,0.975,0.025
1.684,0.910,0.025
1.686,0.880,0.025
1.688,0.765,0.025
1.690,0.725,0.025
1.692,0.700,0.020
1.694,0.760,0.020
1.696,0.830,0.020
1.698,0.980,0.025
1.700,1.030,0.025
1.702,1.010,0.025
1.704,0.915,0.030
1.706,0.845,0.030
1.708,0.735,0.030
1.710,0.700,0.030
1.712,0.725,0.030
1.714,0.840,0.030
1.716,0.870,0.025
1.718,1.000,0.015
1.720,1.010,0.010
1.722,0.965,0.005
1.724,0.800,-0.005
1.726,0.750,-0.005
1.728,0.695,-0.005
1.730,0.720,0.000
1.732,0.775,0.005
1.734,0.850,0.015
1.736,0.860,0.020
1.738,1.000,0.025
1.740,0.970,0.025
1.742,0.945,0.025
1.744,0.860,0.020
1.746,0.800,0.020
1.748,0.740,0.020
1.750,0.765,0.025
1.752,0.730,0.030
1.754,0.840,0.040
1.756,0.905,0.055
1.758,1.070,0.060
1.760,1.035,0.065
1.762,0.990,0.060
1.764,0.930,0.050
1.766,0.875,0.035
1.768,0.710,0.020
1.770,0.670,0.010
1.772,0.685,0.000
1.774,0.795,0.000
1.776,0.895,0.010
1.778,1.005,0.025
1.780,1.065,0.040
1.782,1.025,0.050
1.784,0.920,0.060
1.786,0.835,0.065
1.788,0.700,0.060
1.790,0.750,0.055
1.792,0.820,0.050
1.794,0.890,0.045
1.796,0.905,0.040
1.798,0.980,0.040
1.800,0.980,0.045
1.802,0.980,0.050
1.804,0.945,0.060
1.806,0.930,0.065
1.808,0.810,0.070
1.810,0.800,0.075
1.812,0.825,0.080
1.814,0.860,0.090
1.816,0.890,0.095
1.818,1.065,0.105
1.820,1.090,0.115
1.822,1.065,0.125
1.824,1.005,0.130
1.826,0.980,0.135
1.828,0.850,0.140
1.830,0.830,0.140
1.832,0.835,0.135
1.834,0.915,0.130
1.836,0.975,0.125
1.838,1.075,0.115
1.840,1.085,0.105
1.842,1.030,0.095
1.844,0.960,0.090
1.846,0.900,0.080
1.848,0.750,0.070
1.850,0.800,0.060
1.852,0.780,0.055
1.854,0.775,0.050
1.856,0.905,0.045
1.858,1.070,0.045
1.860,1.050,0.045
1.862,0.970,0.050
1.864,0.915,0.055
1.866,0.855,0.065
1.868,0.805,0.070
1.870,0.815,0.080
1.872,0.885,0.090
1.874,0.940,0.095
1.876,0.985,0.100
1.878,1.020,0.105
1.880,1.045,0.105
1.882,1.045,0.100
1.884,0.965,0.095
1.886,0.880,0.085
1.888,0.800,0.075
1.890,0.760,0.060
1.892,0.800,0.055
1.894,0.880,0.050
1.896,0.890,0.050
1.898,1.045,0.055
1.900,1.040,0.060
1.902,1.000,0.075
1.904,0.920,0.085
1.906,0.850,0.095
1.908,0.865,0.100
1.910,0.810,0.105
1.912,0.885,0.110
1.914,0.950,0.110
1.916,1.030,0.105
1.918,1.085,0.110
1.920,1.095,0.115
1.922,1.085,0.120
1.924,1.005,0.130
1.926,0.890,0.140
1.928,0.820,0.150
1.930,0.865,0.160
1.932,0.955,0.165
1.934,1.005,0.170
1.936,1.140,0.165
1.938,1.205,0.160
1.940,1.140,0.155
1.942,1.040,0.140
1.944,0.940,0.125
1.946,0.830,0.100
1.948,0.755,0.075
1.950,0.735,0.040
1.952,0.820,0.010
1.954,0.810,-0.025
1.956,0.850,-0.060
1.958,0.865,-0.085
1.960,0.890,-0.105
1.962,0.840,-0.115
1.964,0.765,-0.110
1.966,0.625,-0.105
1.968,0.630,-0.090
1.970,0.695,-0.070
1.972,0.755,-0.050
1.974,0.775,-0.035
1.976,0.910,-0.020
1.978,0.960,-0.010
1.980,0.960,-0.005
1.982,0.895,0.005
1.984,0.885,0.015
1.986,0.770,0.025
1.988,0.775,0.040
1.990,0.750,0.050
1.992,0.880,0.055
1.994,0.905,0.060
1.996,1.040,0.060
1.998,1.050,0.050
2.000,0.975,0.040
2.002,0.900,0.025
2.004,0.840,0.015
2.006,0.735,0.005
2.008,0.730,0.005
2.010,0.775,0.010
2.012,0.855,0.020
2.014,0.900,0.035
2.016,1.060,0.055
2.018,1.085,0.070
2.020,1.050,0.080
2.022,0.935,0.085
2.024,0.895,0.080
2.026,0.795,0.070
2.028,0.765,0.055
2.030,0.720,0.040
2.032,0.840,0.020
2.034,0.900,0.010
2.036,1.020,0.000
2.038,0.995,-0.005
2.040,0.980,0.000
2.042,0.935,0.000
2.044,0.855,0.010
2.046,0.715,0.015
2.048,0.725,0.025
2.050,0.735,0.030
2.052,0.860,0.030
2.054,0.930,0.030
2.056,1.040,0.025
2.058,1.015,0.020
2.060,0.950,0.015
2.062,0.865,0.010
2.064,0.875,0.005
2.066,0.690,0.000
2.068,0.695,0.000
2.070,0.780,0.005
2.072,0.915,0.010
2.074,0.875,0.020
2.076,1.020,0.035
2.078,1.120,0.045
2.080,1.080,0.055
2.082,0.915,0.060
2.084,0.860,0.065
2.086,0.730,0.060
2.088,0.760,0.055
2.090,0.855,0.045
2.092,0.905,0.040
2.094,0.915,0.035
2.096,1.005,0.035
2.098,1.055,0.035
2.100,1.025,0.045
2.102,0.955,0.060
2.104,0.970,0.070
2.106,0.830,0.085
2.108,0.780,0.090
2.110,0.800,0.095
2.112,0.905,0.095
2.114,1.030,0.090
2.116,1.105,0.085
2.118,1.075,0.075
2.120,1.015,0.075
2.122,0.960,0.075
2.124,0.920,0.080
2.126,0.800,0.085
2.128,0.790,0.095
2.130,0.900,0.105
2.132,0.985,0.110
2.134,1.005,0.110
2.136,1.155,0.110
2.138,1.135,0.105
2.140,1.020,0.095
2.142,0.915,0.090
2.144,0.850,0.080
2.146,0.735,0.075
2.148,0.780,0.070
2.150,0.915,0.070
2.152,1.040,0.080
2.154,1.045,0.085
2.156,1.100,0.095
2.158,1.095,0.105
2.160,1.050,0.110
2.162,0.995,0.110
2.164,0.905,0.110
2.166,0.830,0.105
2.168,0.840,0.100
2.170,0.935,0.090
2.172,0.940,0.085
2.174,0.960,0.075
2.176,1.050,0.075
2.178,1.060,0.075
2.180,1.085,0.075
2.182,0.970,0.080
2.184,0.880,0.085
2.186,0.835,0.085
2.188,0.830,0.085
2.190,0.910,0.080
2.192,0.920,0.075
2.194,0.960,0.070
2.196,1.070,0.060
2.198,1.035,0.050
2.200,0.930,0.045
2.202,0.910,0.040
2.204,0.830,0.030
2.206,0.740,0.025
2.208,0.765,0.015
2.210,0.810,0.000
2.212,0.850,-0.015
2.214,0.885,-0.030
2.216,0.925,-0.050
2.218,0.900,-0.070
2.220,0.830,-0.085
2.222,0.755,-0.095
2.224,0.660,-0.105
2.226,0.570,-0.105
2.228,0.610,-0.100
2.230,0.750,-0.095
2.232,0.835,-0.085
2.234,0.890,-0.080
2.236,0.925,-0.070
2.238,0.930,-0.070
2.240,0.850,-0.070
2.242,0.800,-0.075
2.244,0.670,-0.080
2.246,0.590,-0.090
2.248,0.635,-0.100
2.250,0.715,-0.105
2.252,0.780,-0.110
2.254,0.850,-0.110
2.256,0.935,-0.100
2.258,0.935,-0.095
2.260,0.800,-0.080
2.262,0.765,-0.070
2.264,0.680,-0.055
2.266,0.720,-0.050
2.268,0.700,-0.045
2.270,0.750,-0.050
2.272,0.790,-0.055
2.274,0.855,-0.065
2.276,0.930,-0.070
2.278,0.900,-0.080
2.280,0.845,-0.080
2.282,0.795,-0.080
2.284,0.680,-0.075
2.286,0.630,-0.070
2.288,0.680,-0.065
2.290,0.795,-0.060
2.292,0.805,-0.065
2.294,0.880,-0.070
2.296,0.855,-0.080
2.298,0.870,-0.095
2.300,0.880,-0.105
2.302,0.820,-0.110
2.304,0.615,-0.115
2.306,0.600,-0.115
2.308,0.675,-0.110
2.310,0.720,-0.105
2.312,0.765,-0.100
2.314,0.895,-0.100
2.316,0.880,-0.105
2.318,0.855,-0.110
2.320,0.740,-0.120
2.322,0.655,-0.130
2.324,0.550,-0.135
2.326,0.625,-0.135
2.328,0.695,-0.125
2.330,0.745,-0.115
2.332,0.785,-0.100
2.334,0.920,-0.085
2.336,0.915,-0.070
2.338,0.910,-0.060
2.340,0.785,-0.055
2.342,0.690,-0.060
2.344,0.630,-0.065
2.346,0.725,-0.070
2.348,0.740,-0.075
2.350,0.815,-0.080
2.352,0.780,-0.080
2.354,0.900,-0.075
2.356,0.925,-0.070
2.358,0.915,-0.065
2.360,0.825,-0.060
2.362,0.810,-0.060
2.364,0.620,-0.065
2.366,0.665,-0.070
2.368,0.715,-0.070
2.370,0.760,-0.075
2.372,0.810,-0.070
2.374,0.925,-0.060
2.376,0.955,-0.045
2.378,0.940,-0.030
2.380,0.865,-0.020
2.382,0.885,-0.005
2.384,0.715,-0.005
2.386,0.670,-0.005
2.388,0.740,-0.015
2.390,0.855,-0.030
2.392,0.835,-0.050
2.394,0.920,-0.070
2.396,0.895,-0.080
2.398,0.845,-0.090
2.400,0.800,-0.090
2.402,0.770,-0.090
2.404,0.620,-0.080
2.406,0.630,-0.075
2.408,0.730,-0.065
2.410,0.835,-0.060
2.412,0.845,-0.055
2.414,0.945,-0.055
2.416,0.965,-0.055
2.418,0.870,-0.050
2.420,0.780,-0.050
2.422,0.750,-0.045
2.424,0.685,-0.045
2.426,0.710,-0.045
2.428,0.750,-0.050
2.430,0.845,-0.050
2.432,0.835,-0.055
2.434,0.915,-0.055
2.436,0.930,-0.050
2.438,0.895,-0.045
2.440,0.880,-0.040
2.442,0.815,-0.030
2.444,0.705,-0.025
2.446,0.660,-0.020
2.448,0.735,-0.020
2.450,0.815,-0.025
2.452,0.865,-0.030
2.454,0.955,-0.040
2.456,0.985,-0.045
2.458,0.875,-0.045
2.460,0.795,-0.040
2.462,0.745,-0.030
2.464,0.725,-0.020
2.466,0.775,-0.005
2.468,0.790,0.005
2.470,0.880,0.010
2.472,0.935,0.005
2.474,0.910,-0.010
2.476,0.885,-0.025
2.478,0.880,-0.045
2.480,0.760,-0.060
2.482,0.690,-0.070
2.484,0.680,-0.070
2.486,0.720,-0.065
2.488,0.780,-0.050
2.490,0.825,-0.040
2.492,0.885,-0.035
2.494,0.940,-0.030
2.496,0.935,-0.030
2.498,0.900,-0.035
2.500,0.835,-0.045
2.502,0.690,-0.050
2.504,0.595,-0.055
2.506,0.675,-0.050
2.508,0.740,-0.045
2.510,0.815,-0.040
2.512,0.915,-0.030
2.514,0.990,-0.025
2.516,0.955,-0.025
2.518,0.875,-0.025
2.520,0.810,-0.025
2.522,0.745,-0.025
2.524,0.680,-0.025
2.526,0.700,-0.015
2.528,0.750,0.000
2.530,0.815,0.015
2.532,0.960,0.035
2.534,1.005,0.045
2.536,1.055,0.050
2.538,1.035,0.045
2.540,0.975,0.030
2.542,0.775,0.005
2.544,0.630,-0.020
2.546,0.585,-0.050
2.548,0.675,-0.070
2.550,0.680,-0.085
2.552,0.780,-0.085
2.554,0.975,-0.080
2.556,0.965,-0.065
2.558,0.900,-0.050
2.560,0.835,-0.030
2.562,0.725,-0.020
2.564,0.690,-0.010
2.566,0.600,-0.010
2.568,0.725,-0.015
2.570,0.835,-0.025
2.572,0.955,-0.035
2.574,0.960,-0.045
2.576,0.935,-0.045
2.578,0.815,-0.045
2.580,0.780,-0.040
2.582,0.700,-0.035
2.584,0.690,-0.030
2.586,0.680,-0.025
2.588,0.740,-0.020
2.590,0.795,-0.020
2.592,0.950,-0.025
2.594,0.950,-0.030
2.596,0.905,-0.030
2.598,0.845,-0.030
2.600,0.785,-0.030
2.602,0.695,-0.025
2.604,0.730,-0.015
2.606,0.735,-0.005
2.608,0.725,0.005
2.610,0.785,0.015
2.612,0.975,0.015
2.614,0.970,0.010
2.616,0.925,0.000
2.618,0.835,-0.010
2.620,0.835,-0.020
2.622,0.715,-0.035
2.624,0.630,-0.040
2.626,0.655,-0.040
2.628,0.775,-0.040
2.630,0.775,-0.030
2.632,0.895,-0.025
2.634,0.920,-0.015
2.636,0.995,-0.005
2.638,0.850,0.000
2.640,0.855,0.000
2.642,0.710,0.000
2.644,0.630,-0.005
2.646,0.695,-0.010
2.648,0.810,-0.015
2.650,0.785,-0.015
2.652,0.930,-0.015
2.654,0.950,-0.015
2.656,0.920,-0.010
2.658,0.895,-0.005
2.660,0.785,-0.005
2.662,0.610,0.000
2.664,0.650,0.005
2.666,0.755,0.005
2.668,0.875,0.005
2.670,0.880,0.010
2.672,0.975,0.010
2.674,0.960,0.015
2.676,0.925,0.020
2.678,0.855,0.030
2.680,0.850,0.035
2.682,0.755,0.045
2.684,0.740,0.050
2.686,0.770,0.050
2.688,0.835,0.055
2.690,0.910,0.055
2.692,1.010,0.055
2.694,0.965,0.050
2.696,0.920,0.050
2.698,0.885,0.055
2.700,0.865,0.055
2.702,0.765,0.055
2.704,0.755,0.055
2.706,0.810,0.055
2.708,0.855,0.050
2.710,0.865,0.040
2.712,0.955,0.035
2.714,0.975,0.025
2.716,0.875,0.020
2.718,0.840,0.020
2.720,0.830,0.025
2.722,0.755,0.035
2.724,0.770,0.050
2.726,0.765,0.070
2.728,0.860,0.085
2.730,0.960,0.095
2.732,1.085,0.100
2.734,1.030,0.095
2.736,0.955,0.090
2.738,0.865,0.075
2.740,0.800,0.060
2.742,0.725,0.050
2.744,0.740,0.040
2.746,0.795,0.035
2.748,0.825,0.030
2.750,0.920,0.035
2.752,0.950,0.035
2.754,0.935,0.035
2.756,0.870,0.035
2.758,0.815,0.035
2.760,0.825,0.035
2.762,0.720,0.030
2.764,0.700,0.030
2.766,0.780,0.030
2.768,0.825,0.030
2.770,0.865,0.035
2.772,0.975,0.035
2.774,0.925,0.030
2.776,0.895,0.025
2.778,0.835,0.020
2.780,0.735,0.010
2.782,0.675,0.005
2.784,0.635,0.000
2.786,0.715,-0.005
2.788,0.795,0.000
2.790,0.870,0.000
2.792,0.980,0.005
2.794,0.975,0.010
2.796,0.875,0.005
2.798,0.780,-0.005
2.800,0.685,-0.015
2.802,0.650,-0.035
2.804,0.560,-0.050
2.806,0.565,-0.070
2.808,0.675,-0.080
2.810,0.855,-0.085
2.812,0.935,-0.085
2.814,0.885,-0.075
2.816,0.855,-0.065
2.818,0.755,-0.050
2.820,0.655,-0.040
2.822,0.620,-0.025
2.824,0.575,-0.020
2.826,0.685,-0.015
2.828,0.775,-0.010
2.830,0.925,-0.010
2.832,0.960,-0.010
2.834,0.900,-0.010
2.836,0.805,-0.010
2.838,0.780,-0.010
2.840,0.660,-0.010
2.842,0.595,-0.010
2.844,0.645,-0.010
2.846,0.720,-0.010
2.848,0.800,0.000
2.850,0.950,0.010
2.852,0.960,0.025
2.854,0.985,0.045
2.856,0.900,0.060
2.858,0.820,0.075
2.860,0.700,0.080
2.862,0.775,0.075
2.864,0.740,0.055
2.866,0.735,0.025
2.868,0.765,-0.020
2.870,0.870,-0.065
2.872,0.790,-0.105
2.874,0.680,-0.145
2.876,0.650,-0.165
2.878,0.670,-0.175
2.880,0.515,-0.175
2.882,0.450,-0.160
2.884,0.475,-0.140
2.886,0.610,-0.120
2.888,0.680,-0.100
2.890,0.855,-0.080
2.892,0.855,-0.070
2.894,0.815,-0.065
2.896,0.795,-0.060
2.898,0.730,-0.055
2.900,0.595,-0.055
2.902,0.585,-0.050
2.904,0.650,-0.055
2.906,0.690,-0.055
2.908,0.665,-0.065
2.910,0.815,-0.080
2.912,0.805,-0.100
2.914,0.745,-0.115
2.916,0.710,-0.130
2.918,0.670,-0.140
2.920,0.475,-0.140
2.922,0.495,-0.130
2.924,0.565,-0.115
2.926,0.675,-0.095
2.928,0.725,-0.070
2.930,0.865,-0.055
2.932,0.850,-0.045
2.934,0.800,-0.040
2.936,0.710,-0.040
2.938,0.715,-0.045
2.940,0.585,-0.050
2.942,0.590,-0.055
2.944,0.650,-0.055
2.946,0.700,-0.050
2.948,0.755,-0.040
2.950,0.870,-0.035
2.952,0.885,-0.030
2.954,0.845,-0.030
2.956,0.705,-0.030
2.958,0.675,-0.040
2.960,0.575,-0.045
2.962,0.605,-0.050
2.964,0.650,-0.050
2.966,0.665,-0.050
2.968,0.710,-0.040
2.970,0.890,-0.030
2.972,0.875,-0.025
2.974,0.815,-0.015
2.976,0.765,-0.015
2.978,0.690,-0.020
2.980,0.595,-0.030
2.982,0.575,-0.040
2.984,0.600,-0.050
2.986,0.645,-0.055
2.988,0.730,-0.055
2.990,0.895,-0.055
2.992,0.890,-0.045
2.994,0.770,-0.040
2.996,0.705,-0.030
2.998,0.715,-0.030
3.000,0.620,-0.025
3.002,0.630,-0.030
3.004,0.665,-0.035
3.006,0.690,-0.040
3.008,0.705,-0.050
3.010,0.830,-0.050
3.012,0.810,-0.050
3.014,0.755,-0.045
3.016,0.715,-0.040
3.018,0.710,-0.025
3.020,0.645,-0.015
3.022,0.630,-0.005
3.024,0.710,0.000
3.026,0.765,0.010
3.028,0.780,0.010
3.030,0.860,0.010
3.032,0.895,0.010
3.034,0.855,0.010
3.036,0.755,0.010
3.038,0.710,0.020
3.040,0.675,0.030
3.042,0.685,0.045
3.044,0.760,0.065
3.046,0.880,0.085
3.048,0.940,0.100
3.050,1.040,0.115
3.052,1.035,0.120
3.054,0.930,0.120
3.056,0.815,0.115
3.058,0.700,0.105
3.060,0.625,0.090
3.062,0.665,0.080
3.064,0.845,0.075
3.066,0.855,0.070
3.068,0.915,0.075
3.070,0.980,0.085
3.072,0.965,0.095
3.074,0.935,0.110
3.076,0.855,0.125
3.078,0.820,0.135
3.080,0.800,0.140
3.082,0.755,0.145
3.084,0.800,0.145
3.086,0.900,0.140
3.088,1.010,0.135
3.090,0.995,0.130
3.092,0.955,0.120
3.094,0.875,0.115
3.096,0.845,0.110
3.098,0.795,0.105
3.100,0.690,0.105
3.102,0.710,0.105
3.104,0.800,0.105
3.106,0.815,0.105
3.108,0.950,0.110
3.110,0.935,0.105
3.112,1.000,0.105
3.114,0.960,0.100
3.116,0.905,0.090
3.118,0.685,0.085
3.120,0.590,0.075
3.122,0.655,0.070
3.124,0.765,0.060
3.126,0.785,0.055
3.128,0.910,0.050
3.130,0.900,0.045
3.132,0.875,0.040
3.134,0.805,0.035
3.136,0.770,0.030
3.138,0.615,0.030
3.140,0.620,0.025
3.142,0.690,0.025
3.144,0.695,0.025
3.146,0.730,0.025
3.148,0.870,0.020
3.150,0.865,0.020
3.152,0.830,0.010
3.154,0.780,0.000
3.156,0.760,-0.015
3.158,0.570,-0.030
3.160,0.525,-0.045
3.162,0.560,-0.060
3.164,0.605,-0.075
3.166,0.585,-0.085
3.168,0.735,-0.090
3.170,0.775,-0.090
3.172,0.795,-0.090
3.174,0.710,-0.085
3.176,0.660,-0.080
3.178,0.525,-0.070
3.180,0.545,-0.055
3.182,0.520,-0.045
3.184,0.595,-0.035
3.186,0.660,-0.025
3.188,0.850,-0.020
3.190,0.895,-0.015
3.192,0.880,-0.020
3.194,0.735,-0.025
3.196,0.670,-0.030
3.198,0.475,-0.040
3.200,0.550,-0.050
3.202,0.600,-0.055
3.204,0.605,-0.060
3.206,0.600,-0.060
3.208,0.775,-0.060
3.210,0.830,-0.055
3.212,0.805,-0.055
3.214,0.685,-0.050
3.216,0.675,-0.050
3.218,0.505,-0.050
3.220,0.545,-0.050
3.222,0.575,-0.050
3.224,0.595,-0.055
3.226,0.635,-0.055
3.228,0.810,-0.060
3.230,0.775,-0.065
3.232,0.715,-0.070
3.234,0.690,-0.075
3.236,0.615,-0.075
3.238,0.460,-0.080
3.240,0.510,-0.080
3.242,0.505,-0.085
3.244,0.610,-0.085
3.246,0.655,-0.085
3.248,0.745,-0.085
3.250,0.750,-0.090
3.252,0.695,-0.090
3.254,0.620,-0.095
3.256,0.570,-0.100
3.258,0.455,-0.105
3.260,0.470,-0.110
3.262,0.500,-0.115
3.264,0.540,-0.115
3.266,0.585,-0.110
3.268,0.740,-0.105
3.270,0.735,-0.095
3.272,0.700,-0.085
3.274,0.660,-0.075
3.276,0.625,-0.065
3.278,0.495,-0.055
3.280,0.510,-0.050
3.282,0.640,-0.045
3.284,0.725,-0.040
3.286,0.685,-0.040
3.288,0.745,-0.040
3.290,0.795,-0.045
3.292,0.720,-0.050
3.294,0.660,-0.050
3.296,0.600,-0.055
3.298,0.510,-0.055
3.300,0.550,-0.050
3.302,0.570,-0.045
3.304,0.650,-0.040
3.306,0.740,-0.035
3.308,0.770,-0.030
3.310,0.800,-0.030
3.312,0.720,-0.035
3.314,0.645,-0.045
3.316,0.560,-0.060
3.318,0.440,-0.075
3.320,0.405,-0.090
3.322,0.535,-0.100
3.324,0.590,-0.105
3.326,0.665,-0.100
3.328,0.745,-0.085
3.330,0.775,-0.070
3.332,0.680,-0.050
3.334,0.690,-0.030
3.336,0.645,-0.020
3.338,0.575,-0.015
3.340,0.510,-0.020
3.342,0.540,-0.035
3.344,0.570,-0.055
3.346,0.665,-0.075
3.348,0.725,-0.095
3.350,0.700,-0.105
3.352,0.620,-0.105
3.354,0.610,-0.100
3.356,0.575,-0.085
3.358,0.540,-0.065
3.360,0.515,-0.050
3.362,0.570,-0.035
3.364,0.675,-0.025
3.366,0.715,-0.025
3.368,0.770,-0.035
3.370,0.745,-0.050
3.372,0.665,-0.065
3.374,0.575,-0.080
3.376,0.465,-0.085
3.378,0.455,-0.090
3.380,0.525,-0.085
3.382,0.610,-0.070
3.384,0.635,-0.055
3.386,0.720,-0.040
3.388,0.800,-0.030
3.390,0.765,-0.025
3.392,0.690,-0.030
3.394,0.635,-0.035
3.396,0.535,-0.050
3.398,0.435,-0.070
3.400,0.425,-0.085
3.402,0.485,-0.095
3.404,0.560,-0.100
3.406,0.695,-0.095
3.408,0.765,-0.080
3.410,0.735,-0.060
3.412,0.665,-0.035
3.414,0.725,-0.010
3.416,0.605,0.010
3.418,0.520,0.025
3.420,0.525,0.025
3.422,0.590,0.015
3.424,0.620,-0.005
3.426,0.815,-0.035
3.428,0.820,-0.060
3.430,0.730,-0.085
3.432,0.575,-0.095
3.434,0.525,-0.100
3.436,0.445,-0.090
3.438,0.465,-0.070
3.440,0.535,-0.045
3.442,0.635,-0.020
3.444,0.710,0.000
3.446,0.855,0.015
3.448,0.825,0.015
3.450,0.745,0.010
3.452,0.670,-0.005
3.454,0.590,-0.020
3.456,0.470,-0.035
3.458,0.530,-0.045
3.460,0.500,-0.050
3.462,0.590,-0.050
3.464,0.640,-0.050
3.466,0.775,-0.045
3.468,0.805,-0.045
3.470,0.745,-0.040
3.472,0.665,-0.040
3.474,0.595,-0.045
3.476,0.405,-0.045
3.478,0.460,-0.045
3.480,0.555,-0.045
3.482,0.610,-0.040
3.484,0.665,-0.035
3.486,0.815,-0.030
3.488,0.765,-0.025
3.490,0.675,-0.025
3.492,0.615,-0.030
3.494,0.600,-0.035
3.496,0.495,-0.040
3.498,0.530,-0.045
3.500,0.535,-0.045
3.502,0.580,-0.045
3.504,0.595,-0.040
3.506,0.740,-0.030
3.508,0.765,-0.020
3.510,0.750,-0.010
3.512,0.645,0.000
3.514,0.645,0.010
3.516,0.570,0.015
3.518,0.545,0.020
3.520,0.595,0.020
3.522,0.690,0.020
3.524,0.685,0.015
3.526,0.790,0.010
3.528,0.750,0.005
3.530,0.720,-0.005
3.532,0.725,-0.010
3.534,0.645,-0.015
3.536,0.495,-0.015
3.538,0.505,-0.020
3.540,0.500,-0.015
3.542,0.600,-0.010
3.544,0.670,-0.005
3.546,0.780,0.005
3.548,0.840,0.015
3.550,0.790,0.020
3.552,0.685,0.025
3.554,0.685,0.030
3.556,0.540,0.030
3.558,0.495,0.030
3.560,0.555,0.025
3.562,0.655,0.020
3.564,0.700,0.010
3.566,0.805,0.005
3.568,0.810,0.000
3.570,0.740,-0.005
3.572,0.655,-0.010
3.574,0.585,-0.010
3.576,0.515,-0.010
3.578,0.495,-0.010
3.580,0.550,-0.005
3.582,0.635,0.000
3.584,0.725,0.005
3.586,0.835,0.010
3.588,0.790,0.015
3.590,0.710,0.020
3.592,0.665,0.025
3.594,0.625,0.025
3.596,0.525,0.025
3.598,0.540,0.025
3.600,0.620,0.025
3.602,0.740,0.025
3.604,0.720,0.030
3.606,0.810,0.035
3.608,0.815,0.040
3.610,0.780,0.040
3.612,0.710,0.040
3.614,0.650,0.035
3.616,0.515,0.030
3.618,0.545,0.025
3.620,0.610,0.020
3.622,0.665,0.015
3.624,0.685,0.015
3.626,0.760,0.025
3.628,0.780,0.035
3.630,0.735,0.050
3.632,0.770,0.065
3.634,0.695,0.080
3.636,0.595,0.090
3.638,0.610,0.090
3.640,0.615,0.090
3.642,0.705,0.090
3.644,0.765,0.085
3.646,0.810,0.080
3.648,0.855,0.075
3.650,0.825,0.075
3.652,0.785,0.080
3.654,0.665,0.080
3.656,0.570,0.080
3.658,0.555,0.075
3.660,0.610,0.070
3.662,0.680,0.055
3.664,0.770,0.045
3.666,0.770,0.030
3.668,0.765,0.025
3.670,0.740,0.025
3.672,0.680,0.035
3.674,0.595,0.055
3.676,0.595,0.075
3.678,0.650,0.095
3.680,0.710,0.110
3.682,0.755,0.115
3.684,0.815,0.110
3.686,0.865,0.095
3.688,0.795,0.070
3.690,0.715,0.040
3.692,0.655,0.015
3.694,0.535,-0.005
3.696,0.455,-0.015
3.698,0.455,-0.020
3.700,0.560,-0.010
3.702,0.650,0.000
3.704,0.800,0.020
3.706,0.835,0.035
3.708,0.775,0.045
3.710,0.740,0.050
3.712,0.660,0.050
3.714,0.520,0.045
3.716,0.525,0.040
3.718,0.535,0.030
3.720,0.630,0.025
3.722,0.630,0.025
3.724,0.795,0.025
3.726,0.835,0.030
3.728,0.775,0.035
3.730,0.660,0.040
3.732,0.635,0.045
3.734,0.525,0.045
3.736,0.540,0.040
3.738,0.550,0.035
3.740,0.605,0.030
3.742,0.625,0.020
3.744,0.735,0.015
3.746,0.775,0.010
3.748,0.765,0.010
3.750,0.645,0.015
3.752,0.645,0.020
3.754,0.520,0.025
3.756,0.515,0.030
3.758,0.585,0.035
3.760,0.650,0.035
3.762,0.640,0.035
3.764,0.785,0.035
3.766,0.740,0.030
3.768,0.740,0.030
3.770,0.690,0.035
3.772,0.690,0.050
3.774,0.625,0.065
3.776,0.615,0.085
3.778,0.640,0.110
3.780,0.700,0.130
3.782,0.765,0.155
3.784,0.915,0.170
3.786,0.920,0.175
3.788,0.920,0.175
3.790,0.840,0.160
3.792,0.770,0.140
3.794,0.555,0.110
3.796,0.480,0.075
3.798,0.485,0.035
3.800,0.595,-0.005
3.802,0.610,-0.035
3.804,0.725,-0.065
3.806,0.675,-0.080
3.808,0.560,-0.085
3.810,0.510,-0.080
3.812,0.530,-0.060
3.814,0.440,-0.035
3.816,0.475,-0.005
3.818,0.595,0.020
3.820,0.645,0.045
3.822,0.670,0.060
3.824,0.770,0.070
3.826,0.785,0.065
3.828,0.745,0.060
3.830,0.695,0.045
3.832,0.655,0.040
3.834,0.495,0.035
3.836,0.520,0.035
3.838,0.575,0.040
3.840,0.650,0.055
3.842,0.670,0.065
3.844,0.840,0.075
3.846,0.845,0.075
3.848,0.760,0.075
3.850,0.640,0.060
3.852,0.605,0.050
3.854,0.465,0.035
3.856,0.455,0.020
3.858,0.565,0.015
3.860,0.640,0.020
3.862,0.660,0.035
3.864,0.770,0.050
3.866,0.830,0.070
3.868,0.820,0.090
3.870,0.775,0.105
3.872,0.685,0.115
3.874,0.525,0.115
3.876,0.465,0.110
3.878,0.610,0.100
3.880,0.695,0.090
3.882,0.730,0.080
3.884,0.850,0.075
3.886,0.815,0.070
3.888,0.715,0.065
3.890,0.685,0.070
3.892,0.625,0.070
3.894,0.520,0.070
3.896,0.525,0.070
3.898,0.600,0.070
3.900,0.630,0.070
3.902,0.690,0.070
3.904,0.775,0.065
3.906,0.830,0.065
3.908,0.770,0.065
3.910,0.670,0.060
3.912,0.585,0.060
3.914,0.455,0.060
3.916,0.510,0.055
3.918,0.575,0.055
3.920,0.665,0.055
3.922,0.730,0.055
3.924,0.795,0.055
3.926,0.775,0.060
3.928,0.735,0.060
3.930,0.665,0.065
3.932,0.570,0.070
3.934,0.525,0.070
3.936,0.540,0.065
3.938,0.605,0.065
3.940,0.630,0.060
3.942,0.685,0.060
3.944,0.790,0.060
3.946,0.800,0.065
3.948,0.725,0.070
3.950,0.670,0.080
3.952,0.615,0.095
3.954,0.590,0.105
3.956,0.565,0.110
3.958,0.625,0.115
3.960,0.675,0.110
3.962,0.800,0.105
3.964,0.805,0.095
3.966,0.740,0.085
3.968,0.705,0.080
3.970,0.655,0.080
3.972,0.595,0.090
3.974,0.595,0.105
3.976,0.590,0.125
3.978,0.670,0.150
3.980,0.720,0.170
3.982,0.860,0.180
3.984,0.885,0.185
3.986,0.905,0.185
3.988,0.815,0.175
3.990,0.725,0.160
3.992,0.585,0.145
3.994,0.540,0.135
3.996,0.570,0.130
3.998,0.660,0.130
4.000,0.760,0.140
4.002,0.895,0.155
4.004,0.890,0.175
4.006,0.930,0.195
4.008,0.860,0.210
4.010,0.805,0.225
4.012,0.615,0.230
4.014,0.670,0.225
4.016,0.705,0.215
4.018,0.775,0.205
4.020,0.770,0.190
4.022,0.870,0.180
4.024,0.885,0.170
4.026,0.895,0.165
4.028,0.750,0.165
4.030,0.695,0.165
4.032,0.570,0.165
4.034,0.615,0.165
4.036,0.640,0.165
4.038,0.680,0.155
4.040,0.715,0.140
4.042,0.825,0.125
4.044,0.775,0.100
4.046,0.770,0.080
4.048,0.675,0.060
4.050,0.625,0.045
4.052,0.485,0.040
4.054,0.445,0.040
4.056,0.490,0.045
4.058,0.550,0.055
4.060,0.595,0.060
4.062,0.755,0.065
4.064,0.785,0.060
4.066,0.720,0.050
4.068,0.660,0.035
4.070,0.615,0.020
4.072,0.400,0.000
4.074,0.385,-0.010
4.076,0.430,-0.015
4.078,0.565,-0.015
4.080,0.580,-0.010
4.082,0.710,-0.005
4.084,0.685,0.005
4.086,0.680,0.010
4.088,0.600,0.010
4.090,0.515,0.010
4.092,0.405,0.005
4.094,0.405,0.000
4.096,0.440,-0.005
4.098,0.555,-0.005
4.100,0.655,0.000
4.102,0.705,0.000
4.104,0.695,0.005
4.106,0.630,0.005
4.108,0.540,0.000
4.110,0.555,-0.005
4.112,0.425,-0.020
4.114,0.360,-0.030
4.116,0.420,-0.040
4.118,0.480,-0.050
4.120,0.520,-0.055
4.122,0.635,-0.050
4.124,0.665,-0.045
4.126,0.665,-0.040
4.128,0.585,-0.030
4.130,0.515,-0.025
4.132,0.380,-0.020
4.134,0.380,-0.020
4.136,0.405,-0.020
4.138,0.520,-0.025
4.140,0.550,-0.025
4.142,0.695,-0.025
4.144,0.680,-0.020
4.146,0.625,-0.015
4.148,0.535,-0.010
4.150,0.525,-0.005
4.152,0.410,-0.005
4.154,0.385,-0.005
4.156,0.430,-0.010
4.158,0.555,-0.020
4.160,0.575,-0.025
4.162,0.680,-0.035
4.164,0.690,-0.045
4.166,0.590,-0.050
4.168,0.470,-0.050
4.170,0.385,-0.050
4.172,0.370,-0.050
4.174,0.390,-0.045
4.176,0.445,-0.040
4.178,0.525,-0.030
4.180,0.570,-0.025
4.182,0.685,-0.015
4.184,0.720,-0.005
4.186,0.635,0.005
4.188,0.540,0.010
4.190,0.465,0.010
4.192,0.405,0.010
4.194,0.440,0.005
4.196,0.495,-0.005
4.198,0.515,-0.020
4.200,0.605,-0.030
4.202,0.670,-0.040
4.204,0.625,-0.045
4.206,0.585,-0.045
4.208,0.530,-0.040
4.210,0.445,-0.030
4.212,0.380,-0.020
4.214,0.430,-0.005
4.216,0.535,0.000
4.218,0.550,0.005
4.220,0.590,0.000
4.222,0.665,-0.010
4.224,0.660,-0.020
4.226,0.555,-0.035
4.228,0.505,-0.045
4.230,0.400,-0.055
4.232,0.380,-0.055
4.234,0.375,-0.055
4.236,0.440,-0.050
4.238,0.525,-0.045
4.240,0.620,-0.040
4.242,0.675,-0.035
4.244,0.685,-0.030
4.246,0.565,-0.030
4.248,0.530,-0.030
4.250,0.395,-0.035
4.252,0.365,-0.040
4.254,0.375,-0.045
4.256,0.445,-0.050
4.258,0.530,-0.050
4.260,0.585,-0.050
4.262,0.640,-0.050
4.264,0.640,-0.045
4.266,0.590,-0.035
4.268,0.540,-0.025
4.270,0.435,-0.015
4.272,0.415,-0.010
4.274,0.440,-0.005
4.276,0.525,0.000
4.278,0.525,-0.005
4.280,0.605,-0.010
4.282,0.685,-0.020
4.284,0.660,-0.030
4.286,0.565,-0.045
4.288,0.500,-0.055
4.290,0.355,-0.060
4.292,0.335,-0.065
4.294,0.345,-0.065
4.296,0.395,-0.065
4.298,0.455,-0.060
4.300,0.590,-0.060
4.302,0.645,-0.055
4.304,0.640,-0.055
4.306,0.535,-0.060
4.308,0.445,-0.060
4.310,0.335,-0.065
4.312,0.320,-0.065
4.314,0.365,-0.070
4.316,0.420,-0.070
4.318,0.475,-0.070
4.320,0.650,-0.065
4.322,0.640,-0.065
4.324,0.615,-0.060
4.326,0.565,-0.060
4.328,0.465,-0.060
4.330,0.295,-0.060
4.332,0.320,-0.060
4.334,0.405,-0.060
4.336,0.465,-0.060
4.338,0.495,-0.060
4.340,0.630,-0.060
4.342,0.615,-0.055
4.344,0.605,-0.055
4.346,0.505,-0.050
4.348,0.540,-0.050
4.350,0.375,-0.045
4.352,0.320,-0.045
4.354,0.375,-0.050
4.356,0.440,-0.055
4.358,0.450,-0.065
4.360,0.620,-0.075
4.362,0.650,-0.085
4.364,0.535,-0.090
4.366,0.495,-0.090
4.368,0.460,-0.085
4.370,0.320,-0.080
4.372,0.365,-0.070
4.374,0.425,-0.065
4.376,0.465,-0.060
4.378,0.455,-0.065
4.380,0.570,-0.070
4.382,0.585,-0.085
4.384,0.580,-0.095
4.386,0.480,-0.110
4.388,0.415,-0.120
4.390,0.310,-0.120
4.392,0.300,-0.110
4.394,0.360,-0.100
4.396,0.475,-0.080
4.398,0.495,-0.065
4.400,0.640,-0.050
4.402,0.615,-0.045
4.404,0.595,-0.045
4.406,0.540,-0.050
4.408,0.485,-0.065
4.410,0.325,-0.075
4.412,0.340,-0.085
4.414,0.405,-0.085
4.416,0.420,-0.085
4.418,0.490,-0.075
4.420,0.660,-0.060
4.422,0.640,-0.045
4.424,0.580,-0.030
4.426,0.525,-0.025
4.428,0.515,-0.025
4.430,0.410,-0.030
4.432,0.405,-0.035
4.434,0.415,-0.045
4.436,0.460,-0.055
4.438,0.480,-0.060
4.440,0.620,-0.065
4.442,0.590,-0.060
4.444,0.545,-0.055
4.446,0.520,-0.050
4.448,0.470,-0.045
4.450,0.400,-0.040
4.452,0.355,-0.045
4.454,0.420,-0.045
4.456,0.530,-0.055
4.458,0.565,-0.060
4.460,0.580,-0.065
4.462,0.590,-0.065
4.464,0.580,-0.065
4.466,0.445,-0.055
4.468,0.445,-0.045
4.470,0.485,-0.030
4.472,0.465,-0.015
4.474,0.475,-0.005
4.476,0.530,0.005
4.478,0.600,0.005
4.480,0.675,0.000
4.482,0.640,-0.010
4.484,0.600,-0.025
4.486,0.555,-0.040
4.488,0.445,-0.050
4.490,0.355,-0.055
4.492,0.365,-0.060
4.494,0.425,-0.055
4.496,0.520,-0.045
4.498,0.630,-0.030
4.500,0.700,-0.015
4.502,0.715,0.000
4.504,0.645,0.010
4.506,0.605,0.015
4.508,0.465,0.010
4.510,0.385,0.005
4.512,0.400,-0.005
4.514,0.430,-0.020
4.516,0.495,-0.035
4.518,0.600,-0.045
4.520,0.660,-0.055
4.522,0.645,-0.060
4.524,0.530,-0.060
4.526,0.480,-0.055
4.528,0.430,-0.050
4.530,0.425,-0.040
4.532,0.425,-0.025
4.534,0.495,-0.015
4.536,0.530,-0.005
4.538,0.630,0.000
4.540,0.710,0.005
4.542,0.685,0.005
4.544,0.580,0.000
4.546,0.620,-0.005
4.548,0.455,-0.010
4.550,0.375,-0.015
4.552,0.395,-0.020
4.554,0.465,-0.020
4.556,0.580,-0.020
4.558,0.695,-0.010
4.560,0.730,-0.005
4.562,0.690,0.005
4.564,0.570,0.010
4.566,0.540,0.015
4.568,0.450,0.010
4.570,0.400,0.000
4.572,0.400,-0.015
4.574,0.455,-0.030
4.576,0.515,-0.050
4.578,0.625,-0.070
4.580,0.620,-0.080
4.582,0.600,-0.090
4.584,0.535,-0.090
4.586,0.480,-0.085
4.588,0.355,-0.080
4.590,0.350,-0.075
4.592,0.370,-0.070
4.594,0.490,-0.065
4.596,0.550,-0.065
4.598,0.655,-0.070
4.600,0.600,-0.075
4.602,0.540,-0.085
4.604,0.455,-0.095
4.606,0.445,-0.100
4.608,0.335,-0.110
4.610,0.360,-0.115
4.612,0.335,-0.120
4.614,0.430,-0.120
4.616,0.460,-0.115
4.618,0.570,-0.110
4.620,0.640,-0.105
4.622,0.615,-0.095
4.624,0.525,-0.090
4.626,0.460,-0.085
4.628,0.330,-0.085
4.630,0.335,-0.090
4.632,0.345,-0.100
4.634,0.455,-0.110
4.636,0.460,-0.115
4.638,0.540,-0.115
4.640,0.585,-0.110
4.642,0.605,-0.100
4.644,0.590,-0.080
4.646,0.575,-0.060
4.648,0.400,-0.040
4.650,0.375,-0.025
4.652,0.410,-0.020
4.654,0.535,-0.020
4.656,0.600,-0.020
4.658,0.735,-0.025
4.660,0.700,-0.030
4.662,0.575,-0.030
4.664,0.495,-0.025
4.666,0.545,-0.010
4.668,0.485,0.000
4.670,0.465,0.015
4.672,0.535,0.015
4.674,0.600,0.010
4.676,0.555,-0.010
4.678,0.665,-0.040
4.680,0.700,-0.075
4.682,0.550,-0.115
4.684,0.385,-0.145
4.686,0.365,-0.170
4.688,0.260,-0.185
4.690,0.210,-0.190
4.692,0.300,-0.190
4.694,0.390,-0.180
4.696,0.440,-0.170
4.698,0.590,-0.160
4.700,0.645,-0.155
4.702,0.535,-0.150
4.704,0.380,-0.145
4.706,0.395,-0.135
4.708,0.355,-0.130
4.710,0.310,-0.115
4.712,0.350,-0.100
4.714,0.500,-0.085
4.716,0.590,-0.070
4.718,0.710,-0.055
4.720,0.695,-0.045
4.722,0.645,-0.040
4.724,0.545,-0.040
4.726,0.510,-0.045
4.728,0.380,-0.050
4.730,0.335,-0.055
4.732,0.390,-0.055
4.734,0.540,-0.060
4.736,0.620,-0.055
4.738,0.695,-0.055
4.740,0.700,-0.050
4.742,0.615,-0.050
4.744,0.485,-0.045
4.746,0.445,-0.045
4.748,0.430,-0.045
4.750,0.450,-0.040
4.752,0.490,-0.035
4.754,0.555,-0.030
4.756,0.625,-0.025
4.758,0.710,-0.015
4.760,0.730,-0.010
4.762,0.690,-0.005
4.764,0.595,0.000
4.766,0.555,0.000
4.768,0.465,-0.005
4.770,0.445,-0.010
4.772,0.480,-0.015
4.774,0.495,-0.020
4.776,0.555,-0.025
4.778,0.715,-0.025
4.780,0.740,-0.025
4.782,0.670,-0.025
4.784,0.585,-0.020
4.786,0.540,-0.020
4.788,0.500,-0.015
4.790,0.435,-0.020
4.792,0.480,-0.025
4.794,0.545,-0.030
4.796,0.645,-0.035
4.798,0.705,-0.045
4.800,0.675,-0.050
4.802,0.620,-0.050
4.804,0.560,-0.050
4.806,0.500,-0.050
4.808,0.465,-0.040
4.810,0.470,-0.030
4.812,0.560,-0.020
4.814,0.620,-0.005
4.816,0.665,0.005
4.818,0.730,0.015
4.820,0.695,0.020
4.822,0.620,0.025
4.824,0.660,0.025
4.826,0.585,0.020
4.828,0.515,0.020
4.830,0.510,0.015
4.832,0.570,0.015
4.834,0.635,0.015
4.836,0.680,0.015
4.838,0.725,0.020
4.840,0.735,0.025
4.842,0.700,0.025
4.844,0.685,0.030
4.846,0.580,0.030
4.848,0.520,0.035
4.850,0.545,0.035
4.852,0.610,0.035
4.854,0.650,0.040
4.856,0.725,0.045
4.858,0.805,0.055
4.860,0.820,0.065
4.862,0.735,0.080
4.864,0.770,0.090
4.866,0.670,0.100
4.868,0.590,0.110
4.870,0.560,0.115
4.872,0.635,0.120
4.874,0.705,0.120
4.876,0.850,0.115
4.878,0.870,0.115
4.880,0.880,0.110
4.882,0.780,0.105
4.884,0.740,0.100
4.886,0.620,0.095
4.888,0.585,0.085
4.890,0.585,0.080
4.892,0.645,0.075
4.894,0.650,0.070
4.896,0.780,0.065
4.898,0.785,0.065
4.900,0.865,0.070
4.902,0.820,0.080
4.904,0.775,0.090
4.906,0.675,0.105
4.908,0.610,0.115
4.910,0.580,0.125
4.912,0.695,0.130
4.914,0.700,0.125
4.916,0.860,0.120
4.918,0.905,0.105
4.920,0.855,0.090
4.922,0.755,0.075
4.924,0.695,0.060
4.926,0.585,0.045
4.928,0.540,0.040
4.930,0.565,0.030
4.932,0.640,0.030
4.934,0.670,0.025
4.936,0.735,0.025
4.938,0.765,0.025
4.940,0.785,0.020
4.942,0.720,0.020
4.944,0.615,0.020
4.946,0.455,0.015
4.948,0.560,0.015
4.950,0.625,0.010
4.952,0.650,0.010
4.954,0.625,0.005
4.956,0.760,0.005
4.958,0.790,0.000
4.960,0.745,-0.005
4.962,0.655,-0.010
4.964,0.595,-0.010
4.966,0.520,-0.010
4.968,0.505,-0.010
4.970,0.530,-0.010
4.972,0.655,-0.010
4.974,0.665,-0.005
4.976,0.765,-0.005
4.978,0.785,-0.005
4.980,0.715,-0.005
4.982,0.620,-0.005
4.984,0.615,-0.005
4.986,0.530,0.000
4.988,0.545,0.010
4.990,0.605,0.020
4.992,0.710,0.030
4.994,0.765,0.045
4.996,0.855,0.050
4.998,0.840,0.055
5.000,0.785,0.055
5.002,0.730,0.055
5.004,0.685,0.045
5.006,0.590,0.040
5.008,0.535,0.030
5.010,0.590,0.025
5.012,0.685,0.025
5.014,0.725,0.025
5.016,0.870,0.025
5.018,0.820,0.030
5.020,0.760,0.035
5.022,0.680,0.035
5.024,0.685,0.040
5.026,0.555,0.040
5.028,0.565,0.045
5.030,0.705,0.055
5.032,0.800,0.065
5.034,0.790,0.075
5.036,0.880,0.085
5.038,0.920,0.095
5.040,0.850,0.095
5.042,0.735,0.090
5.044,0.650,0.080
5.046,0.560,0.065
5.048,0.560,0.050
5.050,0.610,0.040
5.052,0.690,0.030
5.054,0.800,0.035
5.056,0.895,0.040
5.058,0.915,0.055
5.060,0.855,0.075
5.062,0.800,0.090
5.064,0.710,0.100
5.066,0.640,0.105
5.068,0.625,0.100
5.070,0.710,0.095
5.072,0.760,0.080
5.074,0.795,0.070
5.076,0.885,0.065
5.078,0.860,0.060
5.080,0.805,0.060
5.082,0.780,0.065
5.084,0.710,0.070
5.086,0.650,0.075
5.088,0.615,0.075
5.090,0.685,0.070
5.092,0.720,0.060
5.094,0.820,0.055
5.096,0.890,0.045
5.098,0.865,0.045
5.100,0.785,0.045
5.102,0.765,0.050
5.104,0.665,0.055
5.106,0.635,0.065
5.108,0.665,0.070
5.110,0.735,0.075
5.112,0.750,0.070
5.114,0.830,0.065
5.116,0.870,0.055
5.118,0.865,0.050
5.120,0.780,0.045
5.122,0.745,0.040
5.124,0.620,0.040
5.126,0.640,0.045
5.128,0.695,0.050
5.130,0.760,0.055
5.132,0.760,0.060
5.134,0.865,0.065
5.136,0.900,0.065
5.138,0.905,0.065
5.140,0.830,0.070
5.142,0.755,0.070
5.144,0.655,0.070
5.146,0.675,0.075
5.148,0.690,0.075
5.150,0.755,0.070
5.152,0.770,0.065
5.154,0.820,0.060
5.156,0.830,0.050
5.158,0.890,0.040
5.160,0.850,0.035
5.162,0.765,0.030
5.164,0.625,0.030
5.166,0.610,0.040
5.168,0.655,0.045
5.170,0.735,0.055
5.172,0.760,0.060
5.174,0.915,0.060
5.176,0.970,0.060
5.178,0.895,0.055
5.180,0.860,0.050
5.182,0.755,0.040
5.184,0.540,0.030
5.186,0.550,0.025
5.188,0.630,0.020
5.190,0.770,0.020
5.192,0.815,0.020
5.194,0.890,0.020
5.196,0.875,0.025
5.198,0.860,0.025
5.200,0.850,0.025
5.202,0.725,0.030
5.204,0.530,0.035
5.206,0.610,0.040
5.208,0.680,0.045
5.210,0.765,0.050
5.212,0.835,0.060
5.214,0.965,0.060
5.216,0.930,0.060
5.218,0.900,0.060
5.220,0.780,0.050
5.222,0.800,0.045
5.224,0.615,0.040
5.226,0.635,0.035
5.228,0.675,0.035
5.230,0.725,0.035
5.232,0.790,0.040
5.234,0.945,0.045
5.236,0.930,0.045
5.238,0.880,0.050
5.240,0.765,0.050
5.242,0.735,0.045
5.244,0.655,0.040
5.246,0.685,0.035
5.248,0.685,0.035
5.250,0.765,0.030
5.252,0.770,0.025
5.254,0.915,0.025
5.256,0.925,0.025
5.258,0.905,0.025
5.260,0.845,0.025
5.262,0.795,0.030
5.264,0.635,0.030
5.266,0.630,0.035
5.268,0.690,0.035
5.270,0.730,0.040
5.272,0.780,0.040
5.274,0.960,0.035
5.276,0.920,0.030
5.278,0.880,0.020
5.280,0.780,0.010
5.282,0.685,0.000
5.284,0.580,-0.010
5.286,0.575,-0.020
5.288,0.670,-0.020
5.290,0.745,-0.015
5.292,0.780,-0.005
5.294,0.895,0.010
5.296,0.955,0.020
5.298,0.915,0.035
5.300,0.815,0.045
5.302,0.715,0.050
5.304,0.660,0.050
5.306,0.680,0.050
5.308,0.715,0.045
5.310,0.795,0.045
5.312,0.895,0.045
5.314,0.935,0.045
5.316,0.975,0.045
5.318,0.910,0.050
5.320,0.855,0.055
5.322,0.770,0.055
5.324,0.615,0.060
5.326,0.650,0.060
5.328,0.790,0.065
5.330,0.845,0.070
5.332,0.950,0.075
5.334,1.030,0.075
5.336,1.015,0.080
5.338,0.955,0.085
5.340,0.875,0.085
5.342,0.795,0.080
5.344,0.690,0.075
5.346,0.705,0.065
5.348,0.750,0.055
5.350,0.795,0.045
5.352,0.880,0.035
5.354,0.965,0.030
5.356,0.950,0.025
5.358,0.875,0.025
5.360,0.825,0.025
5.362,0.750,0.030
5.364,0.675,0.030
5.366,0.705,0.030
5.368,0.765,0.025
5.370,0.790,0.020
5.372,0.830,0.010
5.374,0.900,0.000
5.376,0.935,-0.010
5.378,0.875,-0.020
5.380,0.815,-0.025
5.382,0.685,-0.030
5.384,0.535,-0.030
5.386,0.595,-0.030
5.388,0.730,-0.025
5.390,0.825,-0.015
5.392,0.920,-0.005
5.394,0.955,0.005
5.396,0.890,0.015
5.398,0.885,0.020
5.400,0.830,0.020
5.402,0.720,0.020
5.404,0.665,0.015
5.406,0.620,0.010
5.408,0.720,0.005
5.410,0.835,0.005
5.412,0.955,0.000
5.414,0.995,0.005
5.416,0.930,0.005
5.418,0.830,0.005
5.420,0.770,0.005
5.422,0.655,0.000
5.424,0.665,-0.010
5.426,0.700,-0.020
5.428,0.745,-0.025
5.430,0.765,-0.035
5.432,0.870,-0.035
5.434,0.910,-0.030
5.436,0.935,-0.020
5.438,0.825,-0.005
5.440,0.810,0.010
5.442,0.710,0.025
5.444,0.715,0.035
5.446,0.750,0.035
5.448,0.840,0.035
5.450,0.870,0.030
5.452,0.950,0.030
5.454,0.940,0.030
5.456,0.985,0.040
5.458,0.920,0.055
5.460,0.860,0.075
5.462,0.740,0.090
5.464,0.825,0.105
5.466,0.890,0.110
5.468,0.960,0.095
5.470,0.920,0.070
5.472,0.950,0.030
5.474,0.850,-0.015
5.476,0.735,-0.060
5.478,0.705,-0.105
5.480,0.745,-0.135
5.482,0.605,-0.155
5.484,0.555,-0.160
5.486,0.545,-0.155
5.488,0.635,-0.145
5.490,0.665,-0.125
5.492,0.840,-0.110
5.494,0.880,-0.095
5.496,0.840,-0.080
5.498,0.760,-0.070
5.500,0.775,-0.060
5.502,0.680,-0.050
5.504,0.645,-0.035
5.506,0.695,-0.025
5.508,0.820,-0.010
5.510,0.835,0.005
5.512,0.985,0.010
5.514,1.010,0.010
5.516,0.935,0.000
5.518,0.820,-0.010
5.520,0.750,-0.030
5.522,0.615,-0.050
5.524,0.650,-0.065
5.526,0.685,-0.075
5.528,0.765,-0.080
5.530,0.800,-0.075
5.532,0.905,-0.065
5.534,0.900,-0.055
5.536,0.890,-0.040
5.538,0.810,-0.025
5.540,0.790,-0.015
5.542,0.745,-0.005
5.544,0.725,0.000
5.546,0.785,0.000
5.548,0.860,-0.005
5.550,0.845,-0.010
5.552,0.960,-0.020
5.554,0.970,-0.025
5.556,0.945,-0.035
5.558,0.820,-0.040
5.560,0.710,-0.045
5.562,0.620,-0.050
5.564,0.665,-0.050
5.566,0.715,-0.050
5.568,0.795,-0.045
5.570,0.845,-0.045
5.572,0.975,-0.040
5.574,0.970,-0.035
5.576,0.925,-0.035
5.578,0.815,-0.030
5.580,0.750,-0.030
5.582,0.685,-0.025
5.584,0.710,-0.020
5.586,0.770,-0.015
5.588,0.845,-0.005
5.590,0.930,0.005
5.592,1.050,0.020
5.594,1.035,0.030
5.596,0.950,0.040
5.598,0.915,0.045
5.600,0.850,0.050
5.602,0.770,0.050
5.604,0.770,0.045
5.606,0.835,0.035
5.608,0.880,0.030
5.610,0.915,0.020
5.612,0.955,0.015
5.614,1.010,0.010
5.616,0.970,0.005
5.618,0.905,0.010
5.620,0.845,0.020
5.622,0.760,0.030
5.624,0.800,0.040
5.626,0.865,0.050
5.628,0.915,0.065
5.630,0.980,0.070
5.632,1.105,0.075
5.634,1.115,0.075
5.636,1.045,0.070
5.638,0.900,0.065
5.640,0.865,0.055
5.642,0.770,0.050
5.644,0.775,0.045
5.646,0.855,0.050
5.648,0.960,0.055
5.650,1.040,0.065
5.652,1.120,0.075
5.654,1.100,0.085
5.656,1.020,0.095
5.658,0.935,0.100
5.660,0.890,0.100
5.662,0.870,0.095
5.664,0.900,0.090
5.666,0.915,0.085
5.668,0.990,0.085
5.670,1.070,0.085
5.672,1.145,0.090
5.674,1.125,0.100
5.676,1.065,0.115
5.678,1.015,0.135
5.680,0.930,0.150
5.682,0.865,0.165
5.684,0.940,0.175
5.686,1.035,0.180
5.688,1.085,0.190
5.690,1.250,0.190
5.692,1.225,0.195
5.694,1.160,0.195
5.696,1.080,0.190
5.698,1.070,0.185
5.700,0.970,0.175
5.702,0.920,0.160
5.704,0.870,0.145
5.706,0.965,0.125
5.708,1.010,0.100
5.710,1.120,0.085
5.712,1.110,0.070
5.714,1.090,0.060
5.716,1.040,0.060
5.718,0.950,0.060
5.720,0.825,0.070
5.722,0.860,0.075
5.724,0.835,0.075
5.726,0.890,0.075
5.728,0.950,0.065
5.730,1.070,0.055
5.732,1.105,0.035
5.734,1.010,0.015
5.736,0.940,0.000
5.738,0.860,-0.015
5.740,0.765,-0.025
5.742,0.750,-0.030
5.744,0.795,-0.035
5.746,0.865,-0.035
5.748,0.870,-0.030
5.750,1.010,-0.025
5.752,1.050,-0.025
5.754,0.975,-0.020
5.756,0.875,-0.020
5.758,0.875,-0.025
5.760,0.755,-0.030
5.762,0.785,-0.035
5.764,0.775,-0.040
5.766,0.820,-0.045
5.768,0.795,-0.050
5.770,0.960,-0.050
5.772,1.035,-0.050
5.774,1.045,-0.050
5.776,0.935,-0.050
5.778,0.855,-0.050
5.780,0.740,-0.050
5.782,0.755,-0.055
5.784,0.705,-0.060
5.786,0.790,-0.075
5.788,0.825,-0.085
5.790,0.935,-0.100
5.792,0.950,-0.115
5.794,0.910,-0.125
5.796,0.865,-0.125
5.798,0.800,-0.125
5.800,0.680,-0.115
5.802,0.680,-0.105
5.804,0.735,-0.095
5.806,0.795,-0.085
5.808,0.865,-0.075
5.810,1.030,-0.075
5.812,0.990,-0.075
5.814,0.935,-0.080
5.816,0.850,-0.085
5.818,0.785,-0.095
5.820,0.635,-0.105
5.822,0.725,-0.110
5.824,0.735,-0.115
5.826,0.810,-0.120
5.828,0.855,-0.120
5.830,0.960,-0.125
5.832,0.915,-0.125
5.834,0.890,-0.125
5.836,0.815,-0.125
5.838,0.795,-0.125
5.840,0.675,-0.125
5.842,0.665,-0.130
5.844,0.730,-0.130
5.846,0.835,-0.135
5.848,0.845,-0.135
5.850,0.950,-0.135
5.852,0.965,-0.135
5.854,0.930,-0.125
5.856,0.860,-0.115
5.858,0.790,-0.105
5.860,0.695,-0.095
5.862,0.705,-0.085
5.864,0.800,-0.080
5.866,0.910,-0.080
5.868,0.930,-0.085
5.870,1.010,-0.095
5.872,0.975,-0.105
5.874,0.865,-0.120
5.876,0.770,-0.135
5.878,0.700,-0.140
5.880,0.635,-0.145
5.882,0.720,-0.145
5.884,0.785,-0.140
5.886,0.855,-0.130
5.888,0.895,-0.125
5.890,0.920,-0.120
5.892,0.935,-0.115
5.894,0.890,-0.115
5.896,0.860,-0.115
5.898,0.860,-0.115
5.900,0.725,-0.115
5.902,0.725,-0.115
5.904,0.755,-0.115
5.906,0.840,-0.110
5.908,0.910,-0.110
5.910,1.000,-0.110
5.912,1.005,-0.110
5.914,0.895,-0.110
5.916,0.825,-0.115
5.918,0.745,-0.125
5.920,0.670,-0.135
5.922,0.715,-0.145
5.924,0.790,-0.150
5.926,0.810,-0.155
5.928,0.880,-0.155
5.930,0.930,-0.150
5.932,0.890,-0.140
5.934,0.885,-0.130
5.936,0.900,-0.115
5.938,0.840,-0.095
5.940,0.785,-0.085
5.942,0.765,-0.075
5.944,0.835,-0.070
5.946,0.870,-0.075
5.948,0.945,-0.085
5.950,1.010,-0.100
5.952,1.000,-0.120
5.954,0.870,-0.140
5.956,0.790,-0.155
5.958,0.720,-0.165
5.960,0.710,-0.170
5.962,0.670,-0.165
5.964,0.765,-0.155
5.966,0.830,-0.140
5.968,0.930,-0.125
5.970,1.020,-0.110
5.972,1.000,-0.095
5.974,0.950,-0.090
5.976,0.880,-0.085
5.978,0.780,-0.090
5.980,0.765,-0.095
5.982,0.775,-0.105
5.984,0.835,-0.110
5.986,0.860,-0.115
5.988,0.955,-0.120
5.990,0.975,-0.120
5.992,0.960,-0.120
5.994,0.890,-0.120
5.996,0.845,-0.115
5.998,0.755,-0.115
6.000,0.775,-0.115
6.002,0.770,-0.115
6.004,0.845,-0.115
6.006,0.875,-0.115
6.008,1.000,-0.115
6.010,0.965,-0.115
6.012,0.990,-0.110
6.014,0.915,-0.105
6.016,0.875,-0.100
6.018,0.790,-0.095
6.020,0.805,-0.095
6.022,0.815,-0.100
6.024,0.835,-0.105
6.026,0.835,-0.110
6.028,0.950,-0.115
6.030,1.000,-0.120
6.032,0.985,-0.120
6.034,0.970,-0.115
6.036,0.950,-0.105
6.038,0.785,-0.090
6.040,0.800,-0.070
6.042,0.840,-0.055
6.044,0.955,-0.045
6.046,0.950,-0.035
6.048,1.065,-0.035
6.050,1.060,-0.040
6.052,1.075,-0.050
6.054,0.995,-0.065
6.056,0.905,-0.075
6.058,0.760,-0.080
6.060,0.790,-0.085
6.062,0.850,-0.080
6.064,0.885,-0.070
6.066,0.910,-0.055
6.068,1.095,-0.040
6.070,1.125,-0.025
6.072,1.155,-0.010
6.074,1.090,0.000
6.076,1.040,0.000
6.078,0.845,0.000
6.080,0.845,-0.010
6.082,0.905,-0.020
6.084,0.935,-0.025
6.086,0.925,-0.035
6.088,1.080,-0.045
6.090,1.160,-0.045
6.092,1.095,-0.045
6.094,0.995,-0.045
6.096,0.945,-0.040
6.098,0.845,-0.030
6.100,0.865,-0.020
6.102,0.900,-0.015
6.104,0.990,-0.010
6.106,1.055,-0.005
6.108,1.160,-0.005
6.110,1.135,-0.010
6.112,1.075,-0.015
6.114,0.980,-0.015
6.116,0.985,-0.020
6.118,0.860,-0.015
6.120,0.870,-0.015
6.122,0.960,-0.005
6.124,1.025,0.000
6.126,1.015,0.005
6.128,1.155,0.010
6.130,1.190,0.010
6.132,1.145,0.005
6.134,1.050,-0.005
6.136,0.995,-0.015
6.138,0.785,-0.025
6.140,0.840,-0.030
6.142,0.935,-0.025
6.144,0.975,-0.020
6.146,1.040,-0.005
6.148,1.210,0.005
6.150,1.200,0.015
6.152,1.125,0.025
6.154,1.025,0.025
6.156,1.010,0.020
6.158,0.875,0.010
6.160,0.900,0.000
6.162,0.945,-0.005
6.164,0.975,-0.010
6.166,1.085,-0.010
6.168,1.215,-0.005
6.170,1.205,0.005
6.172,1.140,0.015
6.174,1.075,0.020
6.176,0.985,0.020
6.178,0.875,0.020
6.180,0.890,0.010
6.182,0.960,0.005
6.184,1.040,-0.005
6.186,1.120,-0.010
6.188,1.165,-0.015
6.190,1.150,-0.010
6.192,1.110,-0.005
6.194,1.010,0.000
6.196,0.985,0.005
6.198,0.950,0.010
6.200,0.945,0.020
6.202,0.960,0.025
6.204,1.055,0.030
6.206,1.120,0.035
6.208,1.220,0.045
6.210,1.270,0.055
6.212,1.220,0.070
6.214,1.115,0.080
6.216,1.045,0.085
6.218,1.015,0.085
6.220,0.995,0.080
6.222,1.030,0.075
6.224,1.075,0.060
6.226,1.140,0.045
6.228,1.195,0.030
6.230,1.190,0.020
6.232,1.120,0.015
6.234,1.115,0.010
6.236,0.955,0.015
6.238,0.905,0.020
6.240,0.960,0.030
6.242,1.060,0.040
6.244,1.085,0.045
6.246,1.210,0.055
6.248,1.270,0.060
6.250,1.230,0.065
6.252,1.200,0.065
6.254,1.145,0.070
6.256,1.030,0.070
6.258,0.975,0.075
6.260,1.000,0.075
6.262,1.090,0.075
6.264,1.140,0.075
6.266,1.180,0.070
6.268,1.245,0.070
6.270,1.230,0.065
6.272,1.215,0.070
6.274,1.200,0.070
6.276,1.055,0.080
6.278,0.975,0.085
6.280,1.010,0.095
6.282,1.105,0.100
6.284,1.150,0.095
6.286,1.255,0.090
6.288,1.290,0.080
6.290,1.255,0.065
6.292,1.155,0.050
6.294,1.125,0.040
6.296,0.930,0.035
6.298,0.910,0.030
6.300,1.010,0.040
6.302,1.145,0.045
6.304,1.185,0.055
6.306,1.260,0.060
6.308,1.235,0.060
6.310,1.165,0.055
6.312,1.130,0.040
6.314,1.080,0.020
6.316,0.970,0.000
6.318,0.965,-0.015
6.320,0.935,-0.025
6.322,0.990,-0.025
6.324,1.080,-0.020
6.326,1.215,-0.005
6.328,1.235,0.010
6.330,1.205,0.020
6.332,1.100,0.030
6.334,1.070,0.030
6.336,0.975,0.025
6.338,0.960,0.010
6.340,0.980,0.000
6.342,1.015,-0.010
6.344,1.020,-0.020
6.346,1.180,-0.020
6.348,1.155,-0.020
6.350,1.220,-0.015
6.352,1.105,-0.010
6.354,1.060,-0.010
6.356,0.935,-0.010
6.358,0.945,-0.010
6.360,0.990,-0.015
6.362,1.045,-0.015
6.364,1.040,-0.015
6.366,1.140,-0.010
6.368,1.190,0.000
6.370,1.245,0.010
6.372,1.205,0.025
6.374,1.130,0.040
6.376,1.015,0.050
6.378,1.000,0.055
6.380,1.015,0.055
6.382,1.100,0.055
6.384,1.120,0.050
6.386,1.260,0.045
6.388,1.315,0.045
6.390,1.250,0.045
6.392,1.135,0.050
6.394,1.170,0.055
6.396,1.000,0.055
6.398,0.965,0.050
6.400,0.965,0.040
6.402,1.065,0.015
6.404,1.075,-0.020
6.406,1.175,-0.060
6.408,1.165,-0.100
6.410,1.060,-0.135
6.412,1.005,-0.170
6.414,0.930,-0.190
6.416,0.670,-0.195
6.418,0.675,-0.190
6.420,0.785,-0.175
6.422,0.945,-0.155
6.424,1.000,-0.135
6.426,1.175,-0.115
6.428,1.175,-0.100
6.430,1.050,-0.095
6.432,1.040,-0.095
6.434,0.945,-0.100
6.436,0.785,-0.115
6.438,0.785,-0.125
6.440,0.865,-0.140
6.442,0.955,-0.150
6.444,0.985,-0.155
6.446,1.085,-0.160
6.448,1.120,-0.160
6.450,1.035,-0.155
6.452,0.960,-0.150
6.454,0.895,-0.145
6.456,0.815,-0.140
6.458,0.795,-0.135
6.460,0.865,-0.135
6.462,1.010,-0.130
6.464,1.050,-0.130
6.466,1.120,-0.130
6.468,1.100,-0.130
6.470,1.050,-0.130
6.472,0.950,-0.130
6.474,0.895,-0.125
6.476,0.835,-0.125
6.478,0.815,-0.115
6.480,0.900,-0.110
6.482,1.020,-0.100
6.484,1.085,-0.090
6.486,1.180,-0.080
6.488,1.180,-0.075
6.490,1.135,-0.070
6.492,1.030,-0.065
6.494,0.955,-0.065
6.496,0.900,-0.065
6.498,0.890,-0.065
6.500,0.965,-0.060
6.502,1.045,-0.060
6.504,1.095,-0.055
6.506,1.175,-0.050
6.508,1.230,-0.045
6.510,1.185,-0.040
6.512,1.060,-0.040
6.514,0.985,-0.040
6.516,0.900,-0.045
6.518,0.895,-0.045
6.520,0.970,-0.050
6.522,1.110,-0.050
6.524,1.210,-0.045
6.526,1.225,-0.035
6.528,1.195,-0.025
6.530,1.145,-0.005
6.532,1.075,0.010
6.534,1.080,0.030
6.536,1.055,0.045
6.538,1.075,0.055
6.540,1.130,0.060
6.542,1.155,0.060
6.544,1.220,0.060
6.546,1.275,0.060
6.548,1.260,0.055
6.550,1.200,0.060
6.552,1.175,0.060
6.554,1.095,0.065
6.556,1.055,0.075
6.558,1.080,0.080
6.560,1.125,0.085
6.562,1.225,0.090
6.564,1.335,0.090
6.566,1.325,0.085
6.568,1.310,0.080
6.570,1.260,0.075
6.572,1.210,0.065
6.574,1.070,0.060
6.576,1.045,0.060
6.578,1.015,0.060
6.580,1.095,0.065
6.582,1.195,0.070
6.584,1.350,0.085
6.586,1.410,0.100
6.588,1.360,0.115
6.590,1.265,0.130
6.592,1.230,0.145
6.594,1.130,0.155
6.596,1.135,0.165
6.598,1.200,0.170
6.600,1.245,0.165
6.602,1.270,0.160
6.604,1.405,0.155
6.606,1.380,0.150
6.608,1.405,0.145
6.610,1.340,0.145
6.612,1.270,0.145
6.614,1.115,0.155
6.616,1.155,0.165
6.618,1.205,0.175
6.620,1.280,0.190
6.622,1.330,0.205
6.624,1.450,0.215
6.626,1.475,0.220
6.628,1.435,0.225
6.630,1.355,0.225
6.632,1.315,0.220
6.634,1.180,0.215
6.636,1.210,0.210
6.638,1.235,0.200
6.640,1.300,0.190
6.642,1.295,0.180
6.644,1.385,0.165
6.646,1.350,0.155
6.648,1.385,0.145
6.650,1.335,0.140
6.652,1.260,0.135
6.654,1.105,0.135
6.656,1.135,0.135
6.658,1.145,0.135
6.660,1.205,0.135
6.662,1.245,0.130
6.664,1.360,0.120
6.666,1.365,0.110
6.668,1.315,0.095
6.670,1.235,0.080
6.672,1.165,0.060
6.674,1.010,0.045
6.676,1.020,0.035
6.678,1.030,0.025
6.680,1.140,0.025
6.682,1.165,0.025
6.684,1.260,0.030
6.686,1.300,0.035
6.688,1.320,0.040
6.690,1.225,0.040
6.692,1.145,0.040
6.694,1.000,0.035
6.696,1.005,0.030
6.698,1.030,0.025
6.700,1.135,0.025
6.702,1.165,0.025
6.704,1.320,0.025
6.706,1.335,0.025
6.708,1.200,0.030
6.710,1.110,0.035
6.712,1.115,0.035
6.714,0.995,0.030
6.716,1.000,0.030
6.718,1.100,0.020
6.720,1.180,0.015
6.722,1.165,0.005
6.724,1.235,0.005
6.726,1.265,0.000
6.728,1.230,0.005
6.730,1.120,0.005
6.732,1.090,0.010
6.734,0.990,0.015
6.736,1.010,0.020
6.738,1.120,0.020
6.740,1.125,0.015
6.742,1.140,0.010
6.744,1.220,0.000
6.746,1.250,-0.010
6.748,1.240,-0.015
6.750,1.180,-0.020
6.752,1.065,-0.020
6.754,0.945,-0.015
6.756,0.960,-0.010
6.758,1.000,0.000
6.760,1.075,0.005
6.762,1.160,0.015
6.764,1.280,0.020
6.766,1.340,0.020
6.768,1.255,0.015
6.770,1.125,0.005
6.772,1.065,0.000
6.774,0.965,-0.010
6.776,0.940,-0.020
6.778,1.015,-0.025
6.780,1.135,-0.025
6.782,1.135,-0.025
6.784,1.195,-0.025
6.786,1.200,-0.020
6.788,1.185,-0.020
6.790,1.105,-0.015
6.792,1.035,-0.015
6.794,1.020,-0.010
6.796,1.040,-0.010
6.798,1.040,-0.010
6.800,1.075,-0.005
6.802,1.135,-0.005
6.804,1.250,0.000
6.806,1.250,0.000
6.808,1.215,0.000
6.810,1.110,-0.005
6.812,1.005,-0.015
6.814,0.945,-0.020
6.816,0.960,-0.030
6.818,1.025,-0.035
6.820,1.080,-0.035
6.822,1.140,-0.030
6.824,1.200,-0.025
6.826,1.235,-0.010
6.828,1.190,0.005
6.830,1.230,0.020
6.832,1.070,0.025
6.834,0.970,0.030
6.836,0.915,0.020
6.838,1.025,0.005
6.840,1.100,-0.015
6.842,1.195,-0.040
6.844,1.215,-0.060
6.846,1.135,-0.075
6.848,1.100,-0.075
6.850,1.080,-0.070
6.852,0.995,-0.050
6.854,0.960,-0.030
6.856,0.920,-0.005
6.858,1.090,0.020
6.860,1.185,0.035
6.862,1.245,0.040
6.864,1.250,0.040
6.866,1.240,0.030
6.868,1.200,0.020
6.870,1.130,0.005
6.872,0.945,0.000
6.874,0.910,-0.005
6.876,1.020,0.000
6.878,1.160,0.005
6.880,1.175,0.010
6.882,1.230,0.020
6.884,1.260,0.020
6.886,1.205,0.020
6.888,1.155,0.015
6.890,1.110,0.010
6.892,0.990,0.005
6.894,1.015,0.000
6.896,0.985,-0.005
6.898,1.075,-0.005
6.900,1.090,-0.005
6.902,1.165,-0.005
6.904,1.245,-0.005
6.906,1.260,-0.005
6.908,1.165,-0.005
6.910,1.100,-0.010
6.912,0.960,-0.010
6.914,0.940,-0.015
6.916,0.940,-0.010
6.918,1.035,-0.010
6.920,1.055,-0.005
6.922,1.245,0.005
6.924,1.275,0.010
6.926,1.240,0.020
6.928,1.125,0.025
6.930,1.130,0.030
6.932,0.960,0.030
6.934,0.995,0.030
6.936,1.010,0.030
6.938,1.060,0.025
6.940,1.155,0.015
6.942,1.275,0.005
6.944,1.205,-0.005
6.946,1.155,-0.010
6.948,1.065,-0.015
6.950,1.020,-0.015
6.952,0.940,-0.010
6.954,0.995,0.000
6.956,1.040,0.010
6.958,1.075,0.020
6.960,1.155,0.030
6.962,1.255,0.035
6.964,1.270,0.035
6.966,1.195,0.030
6.968,1.120,0.025
6.970,1.125,0.015
6.972,0.955,0.005
6.974,0.935,0.000
6.976,0.915,0.000
6.978,1.045,0.005
6.980,1.115,0.015
6.982,1.235,0.025
6.984,1.300,0.030
6.986,1.255,0.035
6.988,1.155,0.030
6.990,1.100,0.025
6.992,0.950,0.015
6.994,0.855,0.000
6.996,0.905,-0.005
6.998,1.045,-0.010
7.000,1.085,-0.010
7.002,1.255,0.000
7.004,1.280,0.010
7.006,1.215,0.025
7.008,1.110,0.035
7.010,1.070,0.040
7.012,0.925,0.035
7.014,0.900,0.020
7.016,0.915,0.005
7.018,1.000,-0.015
7.020,1.050,-0.035
7.022,1.225,-0.045
7.024,1.225,-0.050
7.026,1.065,-0.050
7.028,1.020,-0.035
7.030,1.025,-0.020
7.032,0.925,-0.005
7.034,0.930,0.010
7.036,1.010,0.015
7.038,1.060,0.015
7.040,1.075,0.010
7.042,1.180,0.000
7.044,1.240,-0.010
7.046,1.150,-0.015
7.048,1.055,-0.020
7.050,0.970,-0.015
7.052,0.895,-0.005
7.054,0.970,0.005
7.056,0.990,0.015
7.058,1.050,0.025
7.060,1.085,0.030
7.062,1.190,0.030
7.064,1.215,0.025
7.066,1.155,0.015
7.068,1.050,0.005
7.070,0.995,0.000
7.072,0.915,-0.005
7.074,0.905,-0.010
7.076,0.980,-0.010
7.078,1.055,-0.010
7.080,1.105,-0.010
7.082,1.185,-0.005
7.084,1.170,-0.010
7.086,1.075,-0.010
7.088,0.975,-0.010
7.090,0.895,-0.010
7.092,0.905,-0.010
7.094,0.950,-0.010
7.096,1.015,-0.005
7.098,1.090,0.000
7.100,1.170,0.000
7.102,1.215,0.000
7.104,1.110,-0.005
7.106,1.000,-0.010
7.108,0.965,-0.020
7.110,0.875,-0.030
7.112,0.835,-0.035
7.114,0.875,-0.040
7.116,0.945,-0.040
7.118,1.045,-0.035
7.120,1.135,-0.025
7.122,1.225,-0.010
7.124,1.140,0.005
7.126,1.005,0.015
7.128,1.020,0.025
7.130,0.920,0.030
7.132,0.910,0.030
7.134,0.930,0.025
7.136,0.980,0.020
7.138,1.040,0.010
7.140,1.135,0.005
7.142,1.150,0.000
7.144,1.085,-0.005
7.146,1.085,-0.005
7.148,1.030,-0.005
7.150,0.880,-0.005
7.152,0.850,0.000
7.154,0.905,0.000
7.156,0.960,0.000
7.158,1.010,0.000
7.160,1.130,0.000
7.162,1.125,0.000
7.164,1.085,0.005
7.166,0.980,0.005
7.168,1.000,0.005
7.170,0.900,0.005
7.172,0.900,0.005
7.174,0.905,0.005
7.176,0.950,0.000
7.178,0.955,0.000
7.180,1.090,0.000
7.182,1.120,0.000
7.184,1.095,0.000
7.186,1.070,0.005
7.188,1.030,0.010
7.190,0.890,0.010
7.192,0.845,0.010
7.194,0.865,0.010
7.196,0.935,0.010
7.198,1.000,0.005
7.200,1.125,0.005
7.202,1.080,0.010
7.204,1.080,0.015
7.206,1.115,0.025
7.208,1.075,0.035
7.210,0.905,0.050
7.212,0.885,0.060
7.214,0.870,0.070
7.216,0.985,0.070
7.218,1.085,0.075
7.220,1.185,0.070
7.222,1.185,0.065
7.224,1.120,0.060
7.226,1.070,0.055
7.228,1.025,0.050
7.230,0.880,0.045
7.232,0.810,0.040
7.234,0.855,0.035
7.236,0.960,0.025
7.238,0.980,0.020
7.240,1.110,0.015
7.242,1.175,0.010
7.244,1.080,0.010
7.246,0.975,0.005
7.248,0.915,0.005
7.250,0.745,0.005
7.252,0.810,0.005
7.254,0.820,0.005
7.256,0.935,0.005
7.258,0.980,0.005
7.260,1.080,0.005
7.262,1.090,0.005
7.264,1.080,0.010
7.266,0.975,0.010
7.268,0.950,0.015
7.270,0.735,0.020
7.272,0.790,0.020
7.274,0.865,0.020
7.276,0.940,0.015
7.278,0.965,0.010
7.280,1.075,0.005
7.282,1.050,-0.005
7.284,0.965,-0.005
7.286,0.910,-0.005
7.288,0.925,-0.005
7.290,0.795,0.005
7.292,0.805,0.015
7.294,0.835,0.025
7.296,0.900,0.030
7.298,1.000,0.035
7.300,1.125,0.035
7.302,1.115,0.030
7.304,0.970,0.020
7.306,0.850,0.010
7.308,0.845,0.000
7.310,0.770,-0.005
7.312,0.715,-0.005
7.314,0.800,0.000
7.316,0.910,0.010
7.318,1.000,0.025
7.320,1.095,0.045
7.322,1.095,0.065
7.324,1.010,0.090
7.326,1.015,0.110
7.328,0.980,0.125
7.330,0.875,0.135
7.332,0.830,0.140
7.334,0.920,0.140
7.336,1.010,0.135
7.338,1.080,0.125
7.340,1.145,0.115
7.342,1.095,0.110
7.344,1.040,0.100
7.346,0.980,0.090
7.348,0.880,0.085
7.350,0.765,0.075
7.352,0.775,0.060
7.354,0.835,0.045
7.356,0.905,0.025
7.358,0.915,0.000
7.360,0.985,-0.030
7.362,0.935,-0.060
7.364,0.810,-0.085
7.366,0.700,-0.100
7.368,0.630,-0.110
7.370,0.600,-0.105
7.372,0.650,-0.090
7.374,0.750,-0.060
7.376,0.795,-0.025
7.378,0.955,0.010
7.380,1.090,0.040
7.382,1.055,0.065
7.384,0.980,0.075
7.386,0.855,0.075
7.388,0.770,0.060
7.390,0.710,0.040
7.392,0.690,0.020
7.394,0.775,0.000
7.396,0.835,-0.015
7.398,0.885,-0.015
7.400,0.955,-0.010
7.402,0.955,0.010
7.404,0.885,0.030
7.406,0.880,0.050
7.408,0.820,0.070
7.410,0.740,0.080
7.412,0.715,0.080
7.414,0.825,0.075
7.416,0.885,0.065
7.418,0.910,0.050
7.420,0.995,0.035
7.422,0.925,0.020
7.424,0.845,0.010
7.426,0.780,0.005
7.428,0.710,0.000
7.430,0.670,0.000
7.432,0.615,0.005
7.434,0.725,0.005
7.436,0.830,0.010
7.438,0.925,0.015
7.440,0.975,0.020
7.442,0.900,0.030
7.444,0.870,0.040
7.446,0.870,0.055
7.448,0.725,0.065
7.450,0.680,0.075
7.452,0.720,0.080
7.454,0.810,0.080
7.456,0.875,0.075
7.458,0.970,0.065
7.460,0.960,0.050
7.462,0.845,0.035
7.464,0.740,0.025
7.466,0.750,0.020
7.468,0.675,0.020
7.470,0.670,0.030
7.472,0.655,0.035
7.474,0.695,0.045
7.476,0.770,0.055
7.478,0.930,0.060
7.480,0.935,0.060
7.482,0.905,0.060
7.484,0.820,0.055
7.486,0.775,0.055
7.488,0.625,0.055
7.490,0.635,0.060
7.492,0.660,0.065
7.494,0.765,0.075
7.496,0.835,0.080
7.498,0.930,0.085
7.500,0.960,0.085
7.502,0.945,0.080
7.504,0.830,0.075
7.506,0.760,0.065
7.508,0.585,0.055
7.510,0.585,0.055
7.512,0.635,0.055
7.514,0.750,0.060
7.516,0.790,0.075
7.518,0.925,0.085
7.520,0.920,0.100
7.522,0.925,0.110
7.524,0.840,0.110
7.526,0.780,0.110
7.528,0.625,0.100
7.530,0.570,0.090
7.532,0.610,0.080
7.534,0.675,0.070
7.536,0.795,0.070
7.538,0.925,0.075
7.540,0.960,0.090
7.542,0.865,0.105
7.544,0.825,0.125
7.546,0.810,0.140
7.548,0.645,0.150
7.550,0.645,0.155
7.552,0.680,0.155
7.554,0.760,0.155
7.556,0.775,0.145
7.558,0.915,0.140
7.560,1.020,0.140
7.562,0.925,0.140
7.564,0.770,0.145
7.566,0.730,0.150
7.568,0.610,0.155
7.570,0.620,0.165
7.572,0.670,0.170
7.574,0.840,0.170
7.576,0.860,0.170
7.578,0.935,0.165
7.580,0.905,0.160
7.582,0.845,0.150
7.584,0.755,0.140
7.586,0.730,0.135
7.588,0.570,0.125
7.590,0.520,0.120
7.592,0.625,0.115
7.594,0.680,0.110
7.596,0.720,0.105
7.598,0.835,0.100
7.600,0.830,0.095
7.602,0.780,0.095
7.604,0.685,0.090
7.606,0.645,0.085
7.608,0.510,0.080
7.610,0.510,0.075
7.612,0.575,0.070
7.614,0.610,0.060
7.616,0.650,0.055
7.618,0.725,0.045
7.620,0.750,0.035
7.622,0.675,0.020
7.624,0.615,0.010
7.626,0.500,0.005
7.628,0.385,-0.005
7.630,0.385,-0.010
7.632,0.445,-0.010
7.634,0.520,-0.010
7.636,0.550,-0.005
7.638,0.680,0.000
7.640,0.670,0.000
7.642,0.655,0.000
7.644,0.615,-0.005
7.646,0.410,-0.010
7.648,0.335,-0.025
7.650,0.340,-0.040
7.652,0.380,-0.050
7.654,0.475,-0.065
7.656,0.495,-0.070
7.658,0.590,-0.075
7.660,0.580,-0.070
7.662,0.440,-0.060
7.664,0.480,-0.045
7.666,0.410,-0.030
7.668,0.355,-0.020
7.670,0.330,-0.010
7.672,0.415,-0.005
7.674,0.480,-0.005
7.676,0.525,-0.010
7.678,0.565,-0.020
7.680,0.555,-0.025
7.682,0.485,-0.035
7.684,0.435,-0.040
7.686,0.340,-0.045
7.688,0.270,-0.045
7.690,0.315,-0.045
7.692,0.410,-0.045
7.694,0.410,-0.045
7.696,0.495,-0.050
7.698,0.545,-0.055
7.700,0.515,-0.060
7.702,0.415,-0.060
7.704,0.325,-0.065
7.706,0.310,-0.065
7.708,0.295,-0.065
7.710,0.240,-0.060
7.712,0.335,-0.060
7.714,0.430,-0.055
7.716,0.485,-0.055
7.718,0.445,-0.055
7.720,0.430,-0.055
7.722,0.435,-0.050
7.724,0.385,-0.050
7.726,0.285,-0.045
7.728,0.250,-0.040
7.730,0.210,-0.030
7.732,0.325,-0.025
7.734,0.415,-0.020
7.736,0.460,-0.020
7.738,0.485,-0.025
7.740,0.500,-0.030
7.742,0.405,-0.035
7.744,0.320,-0.045
7.746,0.180,-0.055
7.748,0.175,-0.060
7.750,0.160,-0.065
7.752,0.260,-0.070
7.754,0.360,-0.075
7.756,0.470,-0.075
7.758,0.425,-0.075
7.760,0.375,-0.080
7.762,0.335,-0.085
7.764,0.250,-0.090
7.766,0.080,-0.095
7.768,0.105,-0.100
7.770,0.145,-0.100
7.772,0.235,-0.095
7.774,0.295,-0.090
7.776,0.420,-0.080
7.778,0.420,-0.070
7.780,0.330,-0.055
7.782,0.265,-0.045
7.784,0.285,-0.035
7.786,0.165,-0.030
7.788,0.140,-0.030
7.790,0.190,-0.030
7.792,0.250,-0.040
7.794,0.265,-0.045
7.796,0.395,-0.055
7.798,0.425,-0.065
7.800,0.350,-0.075
7.802,0.205,-0.085
7.804,0.100,-0.095
7.806,-0.020,-0.100
7.808,0.045,-0.100
7.810,0.120,-0.100
7.812,0.230,-0.090
7.814,0.240,-0.080
7.816,0.360,-0.065
7.818,0.395,-0.050
7.820,0.380,-0.030
7.822,0.310,-0.020
7.824,0.190,-0.010
7.826,0.090,-0.005
7.828,0.080,-0.005
7.830,0.090,-0.010
7.832,0.180,-0.015
7.834,0.240,-0.025
7.836,0.385,-0.035
7.838,0.370,-0.040
7.840,0.330,-0.050
7.842,0.225,-0.060
7.844,0.160,-0.065
7.846,-0.015,-0.070
7.848,-0.035,-0.080
7.850,-0.030,-0.085
7.852,0.095,-0.085
7.854,0.190,-0.085
7.856,0.275,-0.080
7.858,0.310,-0.075
7.860,0.250,-0.065
7.862,0.140,-0.055
7.864,0.140,-0.050
7.866,0.010,-0.045
7.868,-0.045,-0.045
7.870,0.025,-0.050
7.872,0.150,-0.055
7.874,0.145,-0.060
7.876,0.225,-0.070
7.878,0.290,-0.070
7.880,0.265,-0.075
7.882,0.140,-0.075
7.884,0.035,-0.075
7.886,-0.105,-0.080
7.888,-0.095,-0.085
7.890,-0.005,-0.090
7.892,0.090,-0.100
7.894,0.065,-0.110
7.896,0.130,-0.115
7.898,0.110,-0.115
7.900,0.090,-0.110
7.902,0.115,-0.100
7.904,0.080,-0.090
7.906,-0.075,-0.075
7.908,-0.065,-0.065
7.910,0.015,-0.055
7.912,0.085,-0.055
7.914,0.085,-0.060
7.916,0.170,-0.070
7.918,0.140,-0.085
7.920,0.110,-0.095
7.922,0.045,-0.105
7.924,-0.065,-0.105
7.926,-0.135,-0.105
7.928,-0.130,-0.100
7.930,-0.100,-0.090
7.932,-0.005,-0.085
7.934,0.070,-0.080
7.936,0.105,-0.085
7.938,0.105,-0.090
7.940,0.035,-0.100
7.942,-0.030,-0.110
7.944,-0.085,-0.120
7.946,-0.170,-0.120
7.948,-0.190,-0.120
7.950,-0.095,-0.115
7.952,-0.070,-0.110
7.954,0.000,-0.100
7.956,0.115,-0.090
7.958,0.045,-0.085
7.960,0.050,-0.080
7.962,0.040,-0.085
7.964,-0.080,-0.090
7.966,-0.210,-0.100
7.968,-0.205,-0.110
7.970,-0.175,-0.115
7.972,-0.100,-0.125
7.974,0.005,-0.130
7.976,0.040,-0.130
7.978,-0.015,-0.130
7.980,-0.065,-0.130
7.982,-0.110,-0.125
7.984,-0.200,-0.115
7.986,-0.200,-0.105
7.988,-0.160,-0.095
7.990,-0.105,-0.080
7.992,-0.120,-0.065
7.994,0.005,-0.050
7.996,0.115,-0.040
7.998,0.095,-0.035
8.000,-0.005,-0.035
8.002,-0.100,-0.045
8.004,-0.215,-0.060
8.006,-0.275,-0.085
8.008,-0.285,-0.105
8.010,-0.205,-0.125
8.012,-0.185,-0.140
8.014,-0.085,-0.145
8.016,-0.005,-0.140
8.018,-0.025,-0.125
8.020,-0.065,-0.110
8.022,-0.115,-0.095
8.024,-0.305,-0.080
8.026,-0.305,-0.075
8.028,-0.225,-0.075
8.030,-0.195,-0.085
8.032,-0.185,-0.100
8.034,-0.080,-0.115
8.036,-0.070,-0.130
8.038,-0.070,-0.130
8.040,-0.145,-0.130
8.042,-0.260,-0.120
8.044,-0.345,-0.105
8.046,-0.275,-0.085
8.048,-0.280,-0.075
8.050,-0.230,-0.065
8.052,-0.160,-0.060
8.054,-0.050,-0.065
8.056,-0.050,-0.070
8.058,-0.110,-0.080
8.060,-0.170,-0.085
8.062,-0.160,-0.095
8.064,-0.320,-0.095
8.066,-0.335,-0.095
8.068,-0.325,-0.095
8.070,-0.250,-0.095
8.072,-0.230,-0.095
8.074,-0.130,-0.095
8.076,-0.090,-0.095
8.078,-0.090,-0.095
8.080,-0.185,-0.095
8.082,-0.260,-0.090
8.084,-0.385,-0.090
8.086,-0.375,-0.085
8.088,-0.325,-0.085
8.090,-0.275,-0.085
8.092,-0.275,-0.090
8.094,-0.150,-0.090
8.096,-0.145,-0.090
8.098,-0.160,-0.090
8.100,-0.275,-0.080
8.102,-0.290,-0.070
8.104,-0.370,-0.055
8.106,-0.315,-0.045
8.108,-0.295,-0.035
8.110,-0.265,-0.030
8.112,-0.270,-0.035
8.114,-0.135,-0.050
8.116,-0.150,-0.065
8.118,-0.205,-0.090
8.120,-0.305,-0.110
8.122,-0.355,-0.125
8.124,-0.495,-0.140
8.126,-0.485,-0.145
8.128,-0.465,-0.140
8.130,-0.385,-0.135
8.132,-0.325,-0.130
8.134,-0.215,-0.120
8.136,-0.245,-0.115
8.138,-0.315,-0.115
8.140,-0.340,-0.110
8.142,-0.330,-0.105
8.144,-0.485,-0.100
8.146,-0.435,-0.095
8.148,-0.415,-0.090
8.150,-0.370,-0.080
8.152,-0.325,-0.075
8.154,-0.215,-0.075
8.156,-0.235,-0.080
8.158,-0.300,-0.085
8.160,-0.365,-0.100
8.162,-0.420,-0.110
8.164,-0.540,-0.120
8.166,-0.525,-0.120
8.168,-0.450,-0.115
8.170,-0.395,-0.105
8.172,-0.320,-0.090
8.174,-0.225,-0.070
8.176,-0.250,-0.055
8.178,-0.260,-0.045
8.180,-0.335,-0.040
8.182,-0.430,-0.045
8.184,-0.525,-0.060
8.186,-0.570,-0.075
8.188,-0.480,-0.090
8.190,-0.390,-0.100
8.192,-0.380,-0.110
8.194,-0.270,-0.110
8.196,-0.260,-0.100
8.198,-0.360,-0.090
8.200,-0.375,-0.070
8.202,-0.445,-0.055
8.204,-0.580,-0.040
8.206,-0.550,-0.030
8.208,-0.410,-0.020
8.210,-0.285,-0.015
8.212,-0.295,-0.005
8.214,-0.250,0.005
8.216,-0.225,0.015
8.218,-0.200,0.030
8.220,-0.285,0.045
8.222,-0.405,0.060
8.224,-0.495,0.070
8.226,-0.430,0.070
8.228,-0.375,0.070
8.230,-0.290,0.060
8.232,-0.270,0.045
8.234,-0.215,0.025
8.236,-0.230,0.000
8.238,-0.380,-0.020
8.240,-0.450,-0.040
8.242,-0.585,-0.060
8.244,-0.650,-0.075
8.246,-0.600,-0.090
8.248,-0.560,-0.105
8.250,-0.530,-0.120
8.252,-0.480,-0.130
8.254,-0.470,-0.135
8.256,-0.470,-0.140
8.258,-0.500,-0.130
8.260,-0.485,-0.120
8.262,-0.550,-0.100
8.264,-0.605,-0.075
8.266,-0.575,-0.050
8.268,-0.530,-0.025
8.270,-0.490,-0.010
8.272,-0.390,0.000
8.274,-0.290,0.000
8.276,-0.325,-0.005
8.278,-0.440,-0.015
8.280,-0.475,-0.030
8.282,-0.555,-0.035
8.284,-0.600,-0.040
8.286,-0.610,-0.040
8.288,-0.600,-0.035
8.290,-0.575,-0.025
8.292,-0.420,-0.015
8.294,-0.380,-0.005
8.296,-0.325,-0.005
8.298,-0.405,0.000
8.300,-0.475,-0.005
8.302,-0.565,-0.010
8.304,-0.620,-0.015
8.306,-0.675,-0.015
8.308,-0.575,-0.015
8.310,-0.495,-0.010
8.312,-0.390,-0.005
8.314,-0.370,0.005
8.316,-0.390,0.010
8.318,-0.440,0.015
8.320,-0.470,0.015
8.322,-0.580,0.015
8.324,-0.595,0.015
8.326,-0.610,0.010
8.328,-0.570,0.005
8.330,-0.620,0.005
8.332,-0.440,0.000
8.334,-0.395,0.005
8.336,-0.410,0.005
8.338,-0.465,0.005
8.340,-0.505,0.005
8.342,-0.655,0.005
8.344,-0.680,0.005
8.346,-0.645,0.000
8.348,-0.560,0.000
8.350,-0.520,-0.005
8.352,-0.445,0.000
8.354,-0.415,0.005
8.356,-0.420,0.010
8.358,-0.530,0.020
8.360,-0.540,0.025
8.362,-0.640,0.035
8.364,-0.635,0.035
8.366,-0.645,0.035
8.368,-0.610,0.030
8.370,-0.605,0.025
8.372,-0.440,0.015
8.374,-0.495,0.010
8.376,-0.450,0.005
8.378,-0.460,0.005
8.380,-0.545,0.015
8.382,-0.720,0.025
8.384,-0.705,0.035
8.386,-0.645,0.050
8.388,-0.590,0.060
8.390,-0.495,0.075
8.392,-0.360,0.080
8.394,-0.355,0.085
8.396,-0.440,0.085
8.398,-0.535,0.085
8.400,-0.555,0.080
8.402,-0.660,0.080
8.404,-0.675,0.080
8.406,-0.680,0.080
8.408,-0.575,0.080
8.410,-0.515,0.085
8.412,-0.400,0.090
8.414,-0.325,0.095
8.416,-0.420,0.105
8.418,-0.515,0.115
8.420,-0.570,0.120
8.422,-0.680,0.130
8.424,-0.635,0.135
8.426,-0.605,0.145
8.428,-0.515,0.150
8.430,-0.505,0.160
8.432,-0.320,0.165
8.434,-0.300,0.170
8.436,-0.385,0.175
8.438,-0.440,0.175
8.440,-0.500,0.180
8.442,-0.680,0.180
8.444,-0.670,0.185
8.446,-0.530,0.190
8.448,-0.440,0.195
8.450,-0.465,0.205
8.452,-0.310,0.215
8.454,-0.300,0.225
8.456,-0.405,0.235
8.458,-0.435,0.245
8.460,-0.450,0.250
8.462,-0.555,0.255
8.464,-0.545,0.255
8.466,-0.520,0.255
8.468,-0.405,0.250
8.470,-0.440,0.245
8.472,-0.345,0.245
8.474,-0.300,0.240
8.476,-0.380,0.235
8.478,-0.470,0.235
8.480,-0.510,0.230
8.482,-0.645,0.225
8.484,-0.665,0.215
8.486,-0.580,0.210
8.488,-0.515,0.205
8.490,-0.490,0.195
8.492,-0.390,0.195
8.494,-0.390,0.190
8.496,-0.450,0.190
8.498,-0.555,0.185
8.500,-0.615,0.185
8.502,-0.700,0.175
8.504,-0.700,0.165
8.506,-0.660,0.155
8.508,-0.570,0.135
8.510,-0.545,0.120
8.512,-0.460,0.105
8.514,-0.515,0.095
8.516,-0.625,0.090
8.518,-0.745,0.085
8.520,-0.745,0.085
8.522,-0.800,0.090
8.524,-0.805,0.095
8.526,-0.705,0.095
8.528,-0.600,0.095
8.530,-0.575,0.095
8.532,-0.510,0.090
8.534,-0.520,0.085
8.536,-0.610,0.085
8.538,-0.705,0.085
8.540,-0.765,0.085
8.542,-0.825,0.090
8.544,-0.815,0.095
8.546,-0.775,0.095
8.548,-0.710,0.095
8.550,-0.555,0.095
8.552,-0.520,0.095
8.554,-0.570,0.090
8.556,-0.670,0.085
8.558,-0.715,0.080
8.560,-0.790,0.080
8.562,-0.820,0.085
8.564,-0.795,0.090
8.566,-0.720,0.090
8.568,-0.660,0.095
8.570,-0.615,0.095
8.572,-0.585,0.095
8.574,-0.635,0.085
8.576,-0.660,0.075
8.578,-0.755,0.065
8.580,-0.910,0.055
8.582,-0.940,0.050
8.584,-0.840,0.050
8.586,-0.730,0.055
8.588,-0.710,0.065
8.590,-0.615,0.080
8.592,-0.610,0.090
8.594,-0.625,0.100
8.596,-0.610,0.105
8.598,-0.730,0.105
8.600,-0.885,0.095
8.602,-0.940,0.080
8.604,-0.865,0.065
8.606,-0.805,0.045
8.608,-0.785,0.030
8.610,-0.685,0.025
8.612,-0.680,0.020
8.614,-0.695,0.025
8.616,-0.785,0.030
8.618,-0.810,0.040
8.620,-0.905,0.055
8.622,-0.895,0.065
8.624,-0.855,0.075
8.626,-0.805,0.085
8.628,-0.760,0.090
8.630,-0.635,0.095
8.632,-0.600,0.100
8.634,-0.630,0.105
8.636,-0.710,0.110
8.638,-0.750,0.110
8.640,-0.855,0.110
8.642,-0.895,0.105
8.644,-0.925,0.100
8.646,-0.860,0.090
8.648,-0.790,0.080
8.650,-0.645,0.075
8.652,-0.685,0.075
8.654,-0.620,0.075
8.656,-0.730,0.080
8.658,-0.770,0.090
8.660,-0.845,0.100
8.662,-0.880,0.110
8.664,-0.875,0.110
8.666,-0.785,0.110
8.668,-0.755,0.100
8.670,-0.660,0.085
8.672,-0.695,0.070
8.674,-0.765,0.055
8.676,-0.805,0.050
8.678,-0.805,0.045
8.680,-0.965,0.050
8.682,-1.010,0.055
8.684,-0.925,0.070
8.686,-0.775,0.080
8.688,-0.760,0.090
8.690,-0.665,0.100
8.692,-0.675,0.100
8.694,-0.745,0.100
8.696,-0.765,0.095
8.698,-0.805,0.095
8.700,-0.920,0.090
8.702,-0.930,0.085
8.704,-0.920,0.080
8.706,-0.820,0.075
8.708,-0.815,0.075
8.710,-0.725,0.070
8.712,-0.695,0.065
8.714,-0.760,0.065
8.716,-0.875,0.065
8.718,-0.860,0.065
8.720,-0.925,0.070
8.722,-0.950,0.075
8.724,-0.935,0.085
8.726,-0.860,0.095
8.728,-0.815,0.105
8.730,-0.665,0.110
8.732,-0.645,0.115
8.734,-0.700,0.110
8.736,-0.805,0.105
8.738,-0.885,0.100
8.740,-1.010,0.090
8.742,-0.965,0.080
8.744,-0.910,0.075
8.746,-0.860,0.075
8.748,-0.785,0.075
8.750,-0.680,0.075
8.752,-0.705,0.080
8.754,-0.755,0.080
8.756,-0.885,0.085
8.758,-0.920,0.080
8.760,-1.005,0.080
8.762,-0.995,0.080
8.764,-0.915,0.080
8.766,-0.835,0.075
8.768,-0.810,0.080
8.770,-0.740,0.080
8.772,-0.710,0.080
8.774,-0.770,0.080
8.776,-0.870,0.080
8.778,-0.985,0.075
8.780,-1.035,0.070
8.782,-0.995,0.065
8.784,-0.965,0.060
8.786,-0.890,0.055
8.788,-0.825,0.050
8.790,-0.800,0.050
8.792,-0.785,0.055
8.794,-0.860,0.060
8.796,-0.880,0.065
8.798,-0.920,0.070
8.800,-0.995,0.080
8.802,-0.955,0.085
8.804,-0.955,0.085
8.806,-0.890,0.085
8.808,-0.830,0.080
8.810,-0.750,0.070
8.812,-0.775,0.060
8.814,-0.855,0.050
8.816,-0.985,0.035
8.818,-1.070,0.025
8.820,-1.110,0.015
8.822,-1.070,0.010
8.824,-0.985,0.010
8.826,-0.935,0.015
8.828,-0.870,0.020
8.830,-0.810,0.025
8.832,-0.820,0.035
8.834,-0.855,0.045
8.836,-0.910,0.050
8.838,-0.960,0.055
8.840,-1.045,0.060
8.842,-1.075,0.065
8.844,-0.985,0.065
8.846,-0.895,0.065
8.848,-0.815,0.065
8.850,-0.775,0.060
8.852,-0.790,0.055
8.854,-0.920,0.045
8.856,-1.015,0.035
8.858,-1.100,0.025
8.860,-1.110,0.020
8.862,-1.060,0.015
8.864,-0.970,0.015
8.866,-0.970,0.020
8.868,-0.865,0.025
8.870,-0.785,0.035
8.872,-0.795,0.045
8.874,-0.840,0.050
8.876,-0.905,0.050
8.878,-1.115,0.045
8.880,-1.125,0.035
8.882,-1.100,0.025
8.884,-0.990,0.010
8.886,-0.985,0.000
8.888,-0.920,-0.010
8.890,-0.885,-0.015
8.892,-0.885,-0.015
8.894,-0.925,-0.010
8.896,-0.975,-0.005
8.898,-1.130,-0.005
8.900,-1.200,0.000
8.902,-1.135,-0.005
8.904,-1.060,-0.005
8.906,-1.005,-0.010
8.908,-0.890,-0.015
8.910,-0.840,-0.020
8.912,-0.920,-0.020
8.914,-1.010,-0.020
8.916,-1.055,-0.020
8.918,-1.195,-0.015
8.920,-1.130,-0.015
8.922,-1.095,-0.020
8.924,-1.080,-0.020
8.926,-1.070,-0.025
8.928,-0.945,-0.030
8.930,-0.945,-0.030
8.932,-0.935,-0.030
8.934,-0.985,-0.030
8.936,-0.960,-0.020
8.938,-1.120,-0.015
8.940,-1.185,-0.005
8.942,-1.160,0.000
8.944,-1.135,0.000
8.946,-1.065,0.000
8.948,-0.925,-0.005
8.950,-0.900,-0.015
8.952,-0.910,-0.030
8.954,-1.015,-0.045
8.956,-1.075,-0.055
8.958,-1.220,-0.065
8.960,-1.205,-0.070
8.962,-1.255,-0.070
8.964,-1.195,-0.070
8.966,-1.150,-0.065
8.968,-0.910,-0.060
8.970,-0.910,-0.055
8.972,-0.970,-0.050
8.974,-1.080,-0.050
8.976,-1.125,-0.055
8.978,-1.230,-0.060
8.980,-1.225,-0.070
8.982,-1.240,-0.075
8.984,-1.130,-0.085
8.986,-1.130,-0.090
8.988,-1.005,-0.090
8.990,-1.015,-0.090
8.992,-0.980,-0.085
8.994,-1.040,-0.075
8.996,-1.110,-0.065
8.998,-1.265,-0.055
9.000,-1.220,-0.050
9.002,-1.155,-0.045
9.004,-1.095,-0.055
9.006,-1.090,-0.065
9.008,-1.005,-0.085
9.010,-0.975,-0.105
9.012,-1.085,-0.125
9.014,-1.150,-0.140
9.016,-1.200,-0.150
9.018,-1.400,-0.150
9.020,-1.345,-0.140
9.022,-1.220,-0.125
9.024,-1.130,-0.110
9.026,-1.095,-0.090
9.028,-1.020,-0.075
9.030,-1.005,-0.070
9.032,-1.020,-0.065
9.034,-1.100,-0.070
9.036,-1.150,-0.080
9.038,-1.285,-0.090
9.040,-1.280,-0.105
9.042,-1.285,-0.110
9.044,-1.225,-0.115
9.046,-1.135,-0.110
9.048,-0.995,-0.105
9.050,-0.985,-0.095
9.052,-1.080,-0.085
9.054,-1.185,-0.080
9.056,-1.170,-0.070
9.058,-1.250,-0.070
9.060,-1.265,-0.070
9.062,-1.255,-0.070
9.064,-1.175,-0.070
9.066,-1.050,-0.075
9.068,-0.975,-0.075
9.070,-1.005,-0.075
9.072,-1.085,-0.075
9.074,-1.115,-0.075
9.076,-1.180,-0.070
9.078,-1.265,-0.070
9.080,-1.275,-0.070
9.082,-1.230,-0.075
9.084,-1.175,-0.075
9.086,-1.100,-0.080
9.088,-1.020,-0.085
9.090,-1.030,-0.090
9.092,-1.095,-0.090
9.094,-1.165,-0.090
9.096,-1.260,-0.090
9.098,-1.325,-0.090
9.100,-1.290,-0.090
9.102,-1.170,-0.085
9.104,-1.135,-0.085
9.106,-1.095,-0.085
9.108,-1.060,-0.090
9.110,-1.085,-0.095
9.112,-1.125,-0.100
9.114,-1.155,-0.110
9.116,-1.265,-0.115
9.118,-1.285,-0.115
9.120,-1.290,-0.115
9.122,-1.240,-0.110
9.124,-1.160,-0.100
9.126,-1.080,-0.090
9.128,-1.015,-0.085
9.130,-0.990,-0.075
9.132,-1.095,-0.075
9.134,-1.115,-0.075
9.136,-1.275,-0.075
9.138,-1.295,-0.080
9.140,-1.280,-0.080
9.142,-1.205,-0.075
9.144,-1.105,-0.070
9.146,-0.985,-0.055
9.148,-0.945,-0.040
9.150,-0.980,-0.030
9.152,-1.075,-0.015
9.154,-1.115,-0.015
9.156,-1.185,-0.015
9.158,-1.210,-0.025
9.160,-1.285,-0.045
9.162,-1.215,-0.060
9.164,-1.145,-0.080
9.166,-1.040,-0.090
9.168,-1.055,-0.095
9.170,-1.070,-0.095
9.172,-1.110,-0.090
9.174,-1.130,-0.085
9.176,-1.260,-0.085
9.178,-1.310,-0.085
9.180,-1.340,-0.095
9.182,-1.260,-0.110
9.184,-1.230,-0.130
9.186,-1.155,-0.150
9.188,-1.070,-0.170
9.190,-1.150,-0.180
9.192,-1.295,-0.180
9.194,-1.235,-0.170
9.196,-1.305,-0.155
9.198,-1.370,-0.140
9.200,-1.290,-0.125
9.202,-1.215,-0.115
9.204,-1.205,-0.115
9.206,-1.120,-0.120
9.208,-1.105,-0.130
9.210,-1.075,-0.145
9.212,-1.215,-0.160
9.214,-1.275,-0.170
9.216,-1.385,-0.175
9.218,-1.365,-0.170
9.220,-1.400,-0.160
9.222,-1.285,-0.145
9.224,-1.195,-0.130
9.226,-1.050,-0.115
9.228,-1.005,-0.105
9.230,-1.055,-0.100
9.232,-1.175,-0.095
9.234,-1.205,-0.100
9.236,-1.330,-0.105
9.238,-1.360,-0.110
9.240,-1.315,-0.115
9.242,-1.245,-0.120
9.244,-1.230,-0.125
9.246,-1.070,-0.125
9.248,-1.065,-0.130
9.250,-1.115,-0.130
9.252,-1.220,-0.125
9.254,-1.250,-0.120
9.256,-1.315,-0.110
9.258,-1.300,-0.100
9.260,-1.295,-0.090
9.262,-1.230,-0.075
9.264,-1.175,-0.065
9.266,-0.985,-0.055
9.268,-1.030,-0.055
9.270,-1.055,-0.055
9.272,-1.065,-0.060
9.274,-1.105,-0.070
9.276,-1.285,-0.085
9.278,-1.375,-0.100
9.280,-1.380,-0.120
9.282,-1.345,-0.145
9.284,-1.335,-0.170
9.286,-1.115,-0.195
9.288,-1.115,-0.215
9.290,-1.235,-0.230
9.292,-1.350,-0.240
9.294,-1.390,-0.245
9.296,-1.465,-0.240
9.298,-1.460,-0.225
9.300,-1.390,-0.210
9.302,-1.255,-0.195
9.304,-1.210,-0.180
9.306,-1.155,-0.175
9.308,-1.195,-0.175
9.310,-1.230,-0.185
9.312,-1.310,-0.190
9.314,-1.350,-0.200
9.316,-1.420,-0.205
9.318,-1.400,-0.200
9.320,-1.365,-0.185
9.322,-1.245,-0.165
9.324,-1.140,-0.140
9.326,-1.075,-0.120
9.328,-1.025,-0.100
9.330,-1.110,-0.090
9.332,-1.235,-0.090
9.334,-1.270,-0.100
9.336,-1.370,-0.120
9.338,-1.435,-0.145
9.340,-1.345,-0.170
9.342,-1.240,-0.190
9.344,-1.220,-0.200
9.346,-1.170,-0.205
9.348,-1.140,-0.205
9.350,-1.205,-0.195
9.352,-1.295,-0.185
9.354,-1.365,-0.175
9.356,-1.450,-0.170
9.358,-1.410,-0.165
9.360,-1.300,-0.170
9.362,-1.265,-0.175
9.364,-1.245,-0.185
9.366,-1.160,-0.190
9.368,-1.140,-0.195
9.370,-1.230,-0.195
9.372,-1.315,-0.190
9.374,-1.320,-0.180
9.376,-1.400,-0.170
9.378,-1.450,-0.165
9.380,-1.375,-0.160
9.382,-1.255,-0.160
9.384,-1.190,-0.160
9.386,-1.135,-0.170
9.388,-1.110,-0.175
9.390,-1.220,-0.180
9.392,-1.310,-0.180
9.394,-1.390,-0.180
9.396,-1.475,-0.175
9.398,-1.420,-0.170
9.400,-1.315,-0.165
9.402,-1.230,-0.160
9.404,-1.175,-0.155
9.406,-1.135,-0.155
9.408,-1.120,-0.155
9.410,-1.155,-0.155
9.412,-1.235,-0.150
9.414,-1.380,-0.145
9.416,-1.395,-0.140
9.418,-1.365,-0.125
9.420,-1.275,-0.110
9.422,-1.210,-0.095
9.424,-1.080,-0.085
9.426,-1.005,-0.080
9.428,-1.050,-0.080
9.430,-1.170,-0.085
9.432,-1.260,-0.100
9.434,-1.375,-0.115
9.436,-1.435,-0.130
9.438,-1.405,-0.145
9.440,-1.275,-0.150
9.442,-1.235,-0.150
9.444,-1.150,-0.140
9.446,-1.075,-0.125
9.448,-1.100,-0.105
9.450,-1.195,-0.085
9.452,-1.205,-0.065
9.454,-1.270,-0.055
9.456,-1.310,-0.055
9.458,-1.285,-0.060
9.460,-1.225,-0.065
9.462,-1.175,-0.075
9.464,-1.100,-0.085
9.466,-1.080,-0.090
9.468,-1.090,-0.085
9.470,-1.150,-0.075
9.472,-1.175,-0.060
9.474,-1.245,-0.040
9.476,-1.210,-0.020
9.478,-1.235,0.000
9.480,-1.165,0.010
9.482,-1.085,0.020
9.484,-0.955,0.020
9.486,-0.970,0.025
9.488,-0.985,0.025
9.490,-1.080,0.030
9.492,-1.115,0.035
9.494,-1.200,0.050
9.496,-1.160,0.065
9.498,-1.105,0.080
9.500,-1.050,0.095
9.502,-1.070,0.100
9.504,-0.880,0.105
9.506,-0.885,0.100
9.508,-0.985,0.090
9.510,-1.065,0.080
9.512,-1.065,0.070
9.514,-1.165,0.060
9.516,-1.170,0.060
9.518,-1.170,0.065
9.520,-1.085,0.075
9.522,-1.025,0.085
9.524,-0.890,0.095
9.526,-0.895,0.100
9.528,-0.950,0.105
9.530,-1.045,0.100
9.532,-1.060,0.085
9.534,-1.205,0.075
9.536,-1.215,0.055
9.538,-1.180,0.045
9.540,-1.120,0.035
9.542,-1.125,0.025
9.544,-1.000,0.025
9.546,-0.945,0.020
9.548,-0.990,0.020
9.550,-1.085,0.015
9.552,-1.170,0.010
9.554,-1.305,0.000
9.556,-1.280,-0.015
9.558,-1.290,-0.030
9.560,-1.220,-0.040
9.562,-1.170,-0.050
9.564,-1.035,-0.055
9.566,-1.040,-0.050
9.568,-1.140,-0.045
9.570,-1.155,-0.030
9.572,-1.110,-0.015
9.574,-1.240,0.000
9.576,-1.235,0.010
9.578,-1.230,0.015
9.580,-1.185,0.015
9.582,-1.160,0.010
9.584,-1.010,0.000
9.586,-0.980,-0.015
9.588,-1.095,-0.025
9.590,-1.170,-0.035
9.592,-1.200,-0.040
9.594,-1.320,-0.040
9.596,-1.325,-0.040
9.598,-1.210,-0.035
9.600,-1.120,-0.025
9.602,-1.140,-0.025
9.604,-1.030,-0.020
9.606,-1.060,-0.020
9.608,-1.085,-0.025
9.610,-1.145,-0.030
9.612,-1.220,-0.040
9.614,-1.330,-0.045
9.616,-1.350,-0.050
9.618,-1.290,-0.050
9.620,-1.160,-0.055
9.622,-1.160,-0.055
9.624,-1.095,-0.055
9.626,-1.030,-0.050
9.628,-1.040,-0.045
9.630,-1.150,-0.035
9.632,-1.260,-0.030
9.634,-1.330,-0.015
9.636,-1.290,-0.005
9.638,-1.215,0.005
9.640,-1.095,0.010
9.642,-1.050,0.015
9.644,-1.020,0.015
9.646,-1.030,0.005
9.648,-1.090,0.000
9.650,-1.165,-0.015
9.652,-1.230,-0.020
9.654,-1.345,-0.030
9.656,-1.275,-0.030
9.658,-1.205,-0.030
9.660,-1.175,-0.025
9.662,-1.130,-0.015
9.664,-1.025,-0.010
9.666,-1.025,-0.005
9.668,-1.050,0.000
9.670,-1.120,0.000
9.672,-1.250,0.000
9.674,-1.345,-0.005
9.676,-1.360,-0.005
9.678,-1.215,-0.005
9.680,-1.150,-0.005
9.682,-1.055,-0.005
9.684,-0.985,0.000
9.686,-1.005,0.005
9.688,-1.090,0.010
9.690,-1.105,0.010
9.692,-1.250,0.010
9.694,-1.330,0.010
9.696,-1.305,0.005
9.698,-1.230,0.005
9.700,-1.170,0.000
9.702,-1.020,0.000
9.704,-0.945,0.005
9.706,-1.005,0.010
9.708,-1.110,0.015
9.710,-1.140,0.020
9.712,-1.250,0.025
9.714,-1.290,0.025
9.716,-1.270,0.025
9.718,-1.165,0.025
9.720,-1.125,0.020
9.722,-1.105,0.015
9.724,-0.975,0.015
9.726,-0.955,0.015
9.728,-1.055,0.015
9.730,-1.145,0.025
9.732,-1.255,0.035
9.734,-1.350,0.050
9.736,-1.275,0.065
9.738,-1.130,0.075
9.740,-1.030,0.085
9.742,-0.945,0.085
9.744,-0.925,0.085
9.746,-0.960,0.080
9.748,-1.080,0.065
9.750,-1.130,0.055
9.752,-1.280,0.040
9.754,-1.305,0.025
9.756,-1.260,0.015
9.758,-1.175,0.005
9.760,-1.145,0.000
9.762,-1.050,0.000
9.764,-1.035,0.000
9.766,-1.055,0.005
9.768,-1.080,0.010
9.770,-1.150,0.015
9.772,-1.270,0.020
9.774,-1.280,0.020
9.776,-1.240,0.025
9.778,-1.210,0.025
9.780,-1.175,0.025
9.782,-1.030,0.025
9.784,-0.975,0.025
9.786,-0.980,0.020
9.788,-1.100,0.020
9.790,-1.160,0.020
9.792,-1.300,0.020
9.794,-1.275,0.020
9.796,-1.290,0.015
9.798,-1.215,0.015
9.800,-1.170,0.015
9.802,-1.030,0.010
9.804,-1.035,0.015
9.806,-1.025,0.015
9.808,-1.085,0.020
9.810,-1.120,0.030
9.812,-1.280,0.035
9.814,-1.290,0.045
9.816,-1.280,0.050
9.818,-1.145,0.055
9.820,-1.115,0.050
9.822,-1.000,0.040
9.824,-1.010,0.030
9.826,-1.050,0.015
9.828,-1.110,0.005
9.830,-1.150,-0.005
9.832,-1.320,-0.005
9.834,-1.355,0.000
9.836,-1.315,0.010
9.838,-1.185,0.030
9.840,-1.055,0.050
9.842,-0.890,0.070
9.844,-0.865,0.085
9.846,-0.975,0.090
9.848,-1.110,0.090
9.850,-1.195,0.085
9.852,-1.285,0.075
9.854,-1.255,0.065
9.856,-1.220,0.065
9.858,-1.095,0.065
9.860,-1.070,0.075
9.862,-0.955,0.095
9.864,-0.855,0.115
9.866,-0.960,0.140
9.868,-1.005,0.160
9.870,-0.980,0.180
9.872,-1.155,0.190
9.874,-1.155,0.195
9.876,-1.070,0.195
9.878,-0.990,0.190
9.880,-0.975,0.190
9.882,-0.860,0.185
9.884,-0.860,0.185
9.886,-0.925,0.185
9.888,-0.955,0.190
9.890,-1.015,0.190
9.892,-1.115,0.195
9.894,-1.140,0.195
9.896,-1.095,0.190
9.898,-1.025,0.185
9.900,-1.000,0.180
9.902,-0.875,0.170
9.904,-0.870,0.170
9.906,-0.945,0.170
9.908,-0.995,0.175
9.910,-0.990,0.180
9.912,-1.120,0.190
9.914,-1.175,0.200
9.916,-1.075,0.205
9.918,-0.940,0.205
9.920,-0.920,0.200
9.922,-0.845,0.190
9.924,-0.890,0.180
9.926,-0.975,0.165
9.928,-1.010,0.155
9.930,-1.120,0.145
9.932,-1.205,0.140
9.934,-1.150,0.145
9.936,-1.130,0.150
9.938,-1.025,0.160
9.940,-0.920,0.170
9.942,-0.890,0.180
9.944,-0.860,0.185
9.946,-0.865,0.190
9.948,-0.980,0.190
9.950,-1.050,0.190
9.952,-1.145,0.190
9.954,-1.155,0.185
9.956,-1.060,0.185
9.958,-1.025,0.185
9.960,-0.955,0.180
9.962,-0.875,0.180
9.964,-0.850,0.180
9.966,-0.890,0.180
9.968,-0.990,0.175
9.970,-1.110,0.175
9.972,-1.185,0.175
9.974,-1.225,0.175
9.976,-1.120,0.175
9.978,-1.025,0.180
9.980,-0.915,0.185
9.982,-0.830,0.190
9.984,-0.780,0.195
9.986,-0.865,0.200
9.988,-0.990,0.200
9.990,-1.070,0.195
9.992,-1.150,0.190
9.994,-1.135,0.185
9.996,-1.060,0.175
9.998,-1.050,0.165
