'Elapsed time','ECG I','ECG I filtered'
'seconds','mV','mV'
0.000,0.025,-0.085
0.002,0.030,-0.075
0.004,0.055,-0.060
0.006,0.060,-0.050
0.008,0.110,-0.040
0.010,0.090,-0.025
0.012,0.120,-0.015
0.014,0.150,-0.005
0.016,0.140,0.005
0.018,0.095,0.015
0.020,0.075,0.025
0.022,0.075,0.030
0.024,0.145,0.035
0.026,0.145,0.035
0.028,0.155,0.035
0.030,0.140,0.025
0.032,0.160,0.020
0.034,0.125,0.010
0.036,0.090,0.000
0.038,0.065,-0.005
0.040,0.060,-0.010
0.042,0.090,-0.010
0.044,0.120,0.000
0.046,0.165,0.010
0.048,0.220,0.030
0.050,0.220,0.045
0.052,0.215,0.060
0.054,0.205,0.075
0.056,0.200,0.085
0.058,0.165,0.090
0.060,0.130,0.085
0.062,0.140,0.080
0.064,0.145,0.075
0.066,0.160,0.065
0.068,0.200,0.065
0.070,0.245,0.070
0.072,0.280,0.075
0.074,0.270,0.090
0.076,0.250,0.105
0.078,0.195,0.125
0.080,0.205,0.140
0.082,0.225,0.150
0.084,0.205,0.160
0.086,0.255,0.160
0.088,0.320,0.160
0.090,0.330,0.160
0.092,0.315,0.160
0.094,0.290,0.160
0.096,0.265,0.160
0.098,0.220,0.165
0.100,0.250,0.170
0.102,0.255,0.175
0.104,0.275,0.180
0.106,0.300,0.180
0.108,0.335,0.180
0.110,0.300,0.175
0.112,0.280,0.170
0.114,0.305,0.170
0.116,0.260,0.165
0.118,0.265,0.165
0.120,0.255,0.165
0.122,0.260,0.165
0.124,0.265,0.170
0.126,0.245,0.170
0.128,0.285,0.165
0.130,0.300,0.160
0.132,0.290,0.150
0.134,0.240,0.135
0.136,0.245,0.125
0.138,0.190,0.110
0.140,0.190,0.100
0.142,0.155,0.085
0.144,0.165,0.080
0.146,0.190,0.075
0.148,0.200,0.070
0.150,0.190,0.065
0.152,0.190,0.060
0.154,0.175,0.055
0.156,0.165,0.050
0.158,0.135,0.040
0.160,0.105,0.030
0.162,0.080,0.020
0.164,0.070,0.010
0.166,0.090,0.000
0.168,0.155,-0.010
0.170,0.145,-0.015
0.172,0.110,-0.020
0.174,0.110,-0.020
0.176,0.115,-0.020
0.178,0.090,-0.020
0.180,0.035,-0.015
0.182,0.060,-0.015
0.184,0.045,-0.015
0.186,0.115,-0.015
0.188,0.110,-0.020
0.190,0.115,-0.020
0.192,0.100,-0.025
0.194,0.070,-0.030
0.196,0.075,-0.030
0.198,0.055,-0.030
0.200,0.060,-0.030
0.202,0.085,-0.030
0.204,0.100,-0.025
0.206,0.120,-0.025
0.208,0.100,-0.025
0.210,0.085,-0.025
0.212,0.075,-0.030
0.214,0.110,-0.035
0.216,0.065,-0.040
0.218,0.010,-0.045
0.220,0.055,-0.045
0.222,0.090,-0.045
0.224,0.065,-0.045
0.226,0.065,-0.040
0.228,0.100,-0.035
0.230,0.090,-0.035
0.232,0.070,-0.035
0.234,0.050,-0.040
0.236,0.010,-0.045
0.238,0.020,-0.055
0.240,0.060,-0.060
0.242,0.080,-0.070
0.244,0.045,-0.070
0.246,0.065,-0.070
0.248,0.085,-0.065
0.250,0.100,-0.060
0.252,0.095,-0.050
0.254,0.060,-0.040
0.256,0.045,-0.035
0.258,0.040,-0.030
0.260,0.095,-0.025
0.262,0.060,-0.030
0.264,0.060,-0.030
0.266,0.100,-0.035
0.268,0.120,-0.035
0.270,0.135,-0.040
0.272,0.110,-0.040
0.274,0.100,-0.040
0.276,0.055,-0.035
0.278,0.040,-0.035
0.280,0.005,-0.030
0.282,0.070,-0.030
0.284,0.070,-0.030
0.286,0.115,-0.025
0.288,0.110,-0.025
0.290,0.170,-0.020
0.292,0.130,-0.020
0.294,0.080,-0.020
0.296,0.045,-0.020
0.298,0.075,-0.020
0.300,0.080,-0.025
0.302,0.110,-0.030
0.304,0.085,-0.030
0.306,0.110,-0.035
0.308,0.135,-0.035
0.310,0.135,-0.030
0.312,0.095,-0.030
0.314,0.100,-0.025
0.316,0.030,-0.020
0.318,0.055,-0.020
0.320,0.045,-0.020
0.322,0.090,-0.020
0.324,0.105,-0.025
0.326,0.105,-0.030
0.328,0.090,-0.035
0.330,0.105,-0.040
0.332,0.110,-0.040
0.334,0.070,-0.045
0.336,0.005,-0.045
0.338,0.035,-0.045
0.340,0.080,-0.045
0.342,0.060,-0.040
0.344,0.085,-0.040
0.346,0.110,-0.035
0.348,0.145,-0.035
0.350,0.140,-0.030
0.352,0.075,-0.030
0.354,0.085,-0.025
0.356,0.040,-0.025
0.358,0.040,-0.020
0.360,0.035,-0.020
0.362,0.060,-0.025
0.364,0.085,-0.025
0.366,0.105,-0.030
0.368,0.130,-0.035
0.370,0.120,-0.040
0.372,0.075,-0.040
0.374,0.055,-0.045
0.376,0.045,-0.045
0.378,0.040,-0.050
0.380,0.025,-0.045
0.382,0.055,-0.045
0.384,0.070,-0.045
0.386,0.070,-0.040
0.388,0.060,-0.040
0.390,0.110,-0.035
0.392,0.140,-0.035
0.394,0.090,-0.030
0.396,0.055,-0.030
0.398,0.060,-0.030
0.400,0.055,-0.025
0.402,0.045,-0.025
0.404,0.085,-0.025
0.406,0.105,-0.030
0.408,0.080,-0.035
0.410,0.090,-0.040
0.412,0.065,-0.050
0.414,0.000,-0.055
0.416,0.025,-0.065
0.418,0.025,-0.070
0.420,0.040,-0.075
0.422,0.070,-0.080
0.424,0.090,-0.075
0.426,0.100,-0.075
0.428,0.100,-0.065
0.430,0.085,-0.060
0.432,0.090,-0.050
0.434,0.070,-0.040
0.436,0.015,-0.035
0.438,0.040,-0.030
0.440,0.085,-0.030
0.442,0.100,-0.030
0.444,0.135,-0.030
0.446,0.115,-0.030
0.448,0.085,-0.025
0.450,0.085,-0.025
0.452,0.105,-0.020
0.454,0.085,-0.020
0.456,0.070,-0.015
0.458,0.055,-0.015
0.460,0.050,-0.015
0.462,0.070,-0.020
0.464,0.120,-0.020
0.466,0.165,-0.025
0.468,0.155,-0.025
0.470,0.115,-0.020
0.472,0.120,-0.015
0.474,0.090,-0.010
0.476,0.050,-0.005
0.478,0.060,0.000
0.480,0.115,0.000
0.482,0.105,0.000
0.484,0.125,-0.005
0.486,0.135,-0.010
0.488,0.150,-0.010
0.490,0.085,-0.010
0.492,0.100,-0.010
0.494,0.125,0.000
0.496,0.140,0.015
0.498,0.125,0.030
0.500,0.165,0.040
0.502,0.150,0.045
0.504,0.145,0.045
0.506,0.155,0.035
0.508,0.170,0.020
0.510,0.175,0.000
0.512,0.090,-0.020
0.514,0.010,-0.035
0.516,0.030,-0.045
0.518,0.010,-0.045
0.520,0.085,-0.045
0.522,0.130,-0.035
0.524,0.120,-0.025
0.526,0.090,-0.020
0.528,0.125,-0.015
0.530,0.120,-0.015
0.532,0.065,-0.020
0.534,0.015,-0.025
0.536,0.045,-0.035
0.538,0.055,-0.045
0.540,0.050,-0.050
0.542,0.085,-0.055
0.544,0.110,-0.055
0.546,0.095,-0.050
0.548,0.085,-0.050
0.550,0.075,-0.045
0.552,0.075,-0.040
0.554,0.040,-0.040
0.556,0.050,-0.035
0.558,0.040,-0.040
0.560,0.050,-0.040
0.562,0.100,-0.045
0.564,0.125,-0.045
0.566,0.065,-0.050
0.568,0.105,-0.050
0.570,0.090,-0.055
0.572,0.040,-0.055
0.574,0.010,-0.055
0.576,0.030,-0.055
0.578,0.030,-0.055
0.580,0.035,-0.055
0.582,0.055,-0.055
0.584,0.110,-0.055
0.586,0.115,-0.055
0.588,0.070,-0.055
0.590,0.080,-0.050
0.592,0.065,-0.050
0.594,0.075,-0.050
0.596,0.085,-0.050
0.598,0.015,-0.045
0.600,0.010,-0.045
0.602,0.050,-0.045
0.604,0.165,-0.040
0.606,0.095,-0.030
0.608,0.120,-0.025
0.610,0.105,-0.010
0.612,0.085,0.000
0.614,0.120,0.015
0.616,0.110,0.030
0.618,0.105,0.040
0.620,0.100,0.050
0.622,0.175,0.055
0.624,0.245,0.050
0.626,0.235,0.045
0.628,0.185,0.035
0.630,0.115,0.030
0.632,0.070,0.025
0.634,0.070,0.030
0.636,0.150,0.040
0.638,0.175,0.060
0.640,0.220,0.080
0.642,0.295,0.100
0.644,0.305,0.115
0.646,0.280,0.125
0.648,0.250,0.115
0.650,0.170,0.095
0.652,0.095,0.060
0.654,0.030,0.010
0.656,0.070,-0.045
0.658,0.005,-0.100
0.660,-0.035,-0.150
0.662,-0.065,-0.190
0.664,-0.085,-0.215
0.666,-0.095,-0.225
0.668,-0.075,-0.215
0.670,-0.115,-0.195
0.672,-0.110,-0.165
0.674,-0.050,-0.130
0.676,0.070,-0.095
0.678,0.075,-0.065
0.680,0.075,-0.040
0.682,0.090,-0.025
0.684,0.140,-0.015
0.686,0.145,-0.010
0.688,0.125,-0.015
0.690,0.115,-0.020
0.692,0.065,-0.025
0.694,0.025,-0.030
0.696,0.040,-0.035
0.698,0.075,-0.040
0.700,0.065,-0.040
0.702,0.100,-0.040
0.704,0.135,-0.035
0.706,0.120,-0.035
0.708,0.110,-0.030
0.710,0.130,-0.030
0.712,0.070,-0.025
0.714,0.045,-0.025
0.716,0.060,-0.025
0.718,0.055,-0.025
0.720,0.035,-0.025
0.722,0.100,-0.025
0.724,0.145,-0.025
0.726,0.180,-0.025
0.728,0.195,-0.020
0.730,0.130,-0.015
0.732,0.040,-0.015
0.734,0.005,-0.010
0.736,0.050,-0.010
0.738,0.125,-0.010
0.740,0.085,-0.005
0.742,0.140,-0.005
0.744,0.205,-0.005
0.746,0.165,0.000
0.748,0.155,0.005
0.750,0.155,0.005
0.752,0.095,0.010
0.754,0.055,0.010
0.756,0.080,0.010
0.758,0.120,0.005
0.760,0.105,0.000
0.762,0.155,-0.005
0.764,0.140,-0.010
0.766,0.165,-0.010
0.768,0.150,-0.010
0.770,0.140,-0.010
0.772,0.060,-0.005
0.774,0.065,0.000
0.776,0.090,0.000
0.778,0.125,0.005
0.780,0.120,0.005
0.782,0.160,0.005
0.784,0.140,0.010
0.786,0.165,0.015
0.788,0.150,0.020
0.790,0.205,0.030
0.792,0.145,0.040
0.794,0.120,0.050
0.796,0.100,0.060
0.798,0.185,0.065
0.800,0.160,0.065
0.802,0.195,0.065
0.804,0.215,0.060
0.806,0.185,0.055
0.808,0.190,0.050
0.810,0.175,0.050
0.812,0.120,0.050
0.814,0.135,0.055
0.816,0.160,0.065
0.818,0.180,0.075
0.820,0.185,0.085
0.822,0.225,0.095
0.824,0.235,0.100
0.826,0.275,0.105
0.828,0.250,0.105
0.830,0.200,0.105
0.832,0.150,0.105
0.834,0.175,0.105
0.836,0.200,0.105
0.838,0.245,0.110
0.840,0.250,0.115
0.842,0.285,0.120
0.844,0.290,0.125
0.846,0.295,0.130
0.848,0.265,0.135
0.850,0.255,0.145
0.852,0.245,0.150
0.854,0.245,0.155
0.856,0.235,0.165
0.858,0.275,0.175
0.860,0.300,0.185
0.862,0.340,0.195
0.864,0.395,0.200
0.866,0.385,0.205
0.868,0.315,0.205
0.870,0.260,0.200
0.872,0.260,0.195
0.874,0.265,0.190
0.876,0.265,0.185
0.878,0.305,0.185
0.880,0.320,0.190
0.882,0.365,0.195
0.884,0.375,0.205
0.886,0.410,0.215
0.888,0.360,0.220
0.890,0.300,0.220
0.892,0.275,0.215
0.894,0.285,0.205
0.896,0.255,0.190
0.898,0.250,0.175
0.900,0.300,0.160
0.902,0.335,0.150
0.904,0.335,0.140
0.906,0.305,0.135
0.908,0.220,0.130
0.910,0.185,0.125
0.912,0.145,0.120
0.914,0.195,0.105
0.916,0.175,0.090
0.918,0.185,0.075
0.920,0.170,0.060
0.922,0.200,0.045
0.924,0.195,0.040
0.926,0.220,0.040
0.928,0.190,0.040
0.930,0.140,0.045
0.932,0.085,0.050
0.934,0.115,0.045
0.936,0.115,0.040
0.938,0.105,0.030
0.940,0.115,0.010
0.942,0.160,-0.010
0.944,0.135,-0.025
0.946,0.100,-0.040
0.948,0.065,-0.045
0.950,0.060,-0.045
0.952,0.035,-0.040
0.954,0.075,-0.030
0.956,0.070,-0.015
0.958,0.080,-0.005
0.960,0.135,0.000
0.962,0.145,0.000
0.964,0.130,-0.005
0.966,0.130,-0.015
0.968,0.100,-0.025
0.970,0.055,-0.035
0.972,0.000,-0.035
0.974,0.025,-0.040
0.976,0.045,-0.035
0.978,0.060,-0.025
0.980,0.160,-0.020
0.982,0.175,-0.010
0.984,0.095,-0.010
0.986,0.070,-0.010
0.988,0.130,-0.015
0.990,0.095,-0.025
0.992,0.045,-0.035
0.994,-0.045,-0.045
0.996,0.020,-0.055
0.998,0.040,-0.060
1.000,0.105,-0.065
1.002,0.130,-0.060
1.004,0.120,-0.060
1.006,0.115,-0.055
1.008,0.100,-0.050
1.010,0.015,-0.050
1.012,-0.010,-0.045
1.014,0.035,-0.050
1.016,0.085,-0.050
1.018,0.055,-0.055
1.020,0.070,-0.055
1.022,0.100,-0.060
1.024,0.120,-0.060
1.026,0.080,-0.060
1.028,0.070,-0.055
1.030,0.055,-0.050
1.032,0.035,-0.050
1.034,0.030,-0.045
1.036,0.040,-0.040
1.038,0.050,-0.035
1.040,0.110,-0.035
1.042,0.120,-0.030
1.044,0.100,-0.030
1.046,0.105,-0.030
1.048,0.070,-0.030
1.050,0.095,-0.030
1.052,0.070,-0.030
1.054,0.070,-0.030
1.056,0.065,-0.025
1.058,0.055,-0.025
1.060,0.100,-0.020
1.062,0.115,-0.020
1.064,0.135,-0.020
1.066,0.115,-0.015
1.068,0.100,-0.015
1.070,0.070,-0.015
1.072,0.070,-0.010
1.074,0.085,-0.010
1.076,0.160,-0.010
1.078,0.110,-0.010
1.080,0.110,-0.010
1.082,0.120,-0.010
1.084,0.130,-0.015
1.086,0.120,-0.015
1.088,0.120,-0.015
1.090,0.065,-0.015
1.092,0.065,-0.015
1.094,0.070,-0.015
1.096,0.115,-0.015
1.098,0.110,-0.010
1.100,0.110,-0.010
1.102,0.125,-0.005
1.104,0.145,-0.005
1.106,0.140,-0.010
1.108,0.105,-0.010
1.110,0.055,-0.015
1.112,0.030,-0.020
1.114,0.050,-0.025
1.116,0.070,-0.030
1.118,0.065,-0.035
1.120,0.115,-0.040
1.122,0.140,-0.045
1.124,0.110,-0.045
1.126,0.115,-0.050
1.128,0.075,-0.050
1.130,0.000,-0.050
1.132,0.015,-0.050
1.134,0.030,-0.045
1.136,0.085,-0.040
1.138,0.130,-0.035
1.140,0.135,-0.035
1.142,0.125,-0.030
1.144,0.125,-0.025
1.146,0.115,-0.025
1.148,0.085,-0.025
1.150,0.040,-0.025
1.152,0.045,-0.025
1.154,0.040,-0.025
1.156,0.080,-0.030
1.158,0.075,-0.030
1.160,0.160,-0.030
1.162,0.165,-0.030
1.164,0.125,-0.035
1.166,0.060,-0.035
1.168,0.040,-0.035
1.170,0.030,-0.035
1.172,0.055,-0.035
1.174,0.085,-0.035
1.176,0.120,-0.030
1.178,0.120,-0.030
1.180,0.145,-0.025
1.182,0.130,-0.020
1.184,0.075,-0.015
1.186,0.060,-0.015
1.188,0.105,-0.010
1.190,0.130,-0.005
1.192,0.110,-0.005
1.194,0.085,0.000
1.196,0.145,0.005
1.198,0.165,0.010
1.200,0.200,0.015
1.202,0.150,0.020
1.204,0.180,0.025
1.206,0.145,0.025
1.208,0.085,0.025
1.210,0.090,0.020
1.212,0.095,0.015
1.214,0.090,0.010
1.216,0.140,0.010
1.218,0.190,0.005
1.220,0.190,0.005
1.222,0.180,0.010
1.224,0.180,0.015
1.226,0.160,0.015
1.228,0.135,0.020
1.230,0.100,0.020
1.232,0.075,0.015
1.234,0.090,0.010
1.236,0.100,0.005
1.238,0.110,-0.005
1.240,0.145,-0.015
1.242,0.150,-0.020
1.244,0.120,-0.025
1.246,0.090,-0.030
1.248,0.050,-0.035
1.250,0.035,-0.040
1.252,0.050,-0.045
1.254,0.055,-0.045
1.256,0.075,-0.050
1.258,0.045,-0.055
1.260,0.095,-0.055
1.262,0.130,-0.050
1.264,0.150,-0.045
1.266,0.130,-0.045
1.268,0.080,-0.040
1.270,0.040,-0.040
1.272,0.020,-0.040
1.274,0.020,-0.045
1.276,0.050,-0.050
1.278,0.105,-0.055
1.280,0.110,-0.060
1.282,0.085,-0.065
1.284,0.095,-0.060
1.286,0.115,-0.060
1.288,0.070,-0.055
1.290,0.030,-0.050
1.292,0.055,-0.050
1.294,0.040,-0.050
1.296,0.065,-0.060
1.298,0.060,-0.065
1.300,0.060,-0.075
1.302,0.075,-0.080
1.304,0.055,-0.080
1.306,0.055,-0.075
1.308,0.050,-0.065
1.310,0.110,-0.055
1.312,0.085,-0.045
1.314,0.070,-0.035
1.316,0.065,-0.030
1.318,0.095,-0.030
1.320,0.105,-0.035
1.322,0.100,-0.045
1.324,0.050,-0.055
1.326,0.055,-0.060
1.328,0.045,-0.065
1.330,0.060,-0.060
1.332,0.090,-0.045
1.334,0.155,-0.030
1.336,0.100,-0.015
1.338,0.155,0.005
1.340,0.175,0.020
1.342,0.190,0.035
1.344,0.175,0.040
1.346,0.155,0.035
1.348,0.100,0.030
1.350,0.080,0.020
1.352,0.120,0.010
1.354,0.135,0.000
1.356,0.105,-0.005
1.358,0.100,-0.005
1.360,0.140,0.005
1.362,0.220,0.025
1.364,0.225,0.045
1.366,0.260,0.075
1.368,0.250,0.095
1.370,0.265,0.115
1.372,0.220,0.120
1.374,0.170,0.105
1.376,0.145,0.080
1.378,0.200,0.040
1.380,0.100,-0.010
1.382,0.115,-0.065
1.384,0.015,-0.120
1.386,-0.030,-0.165
1.388,-0.110,-0.195
1.390,-0.165,-0.215
1.392,-0.165,-0.215
1.394,-0.055,-0.205
1.396,-0.020,-0.185
1.398,0.015,-0.160
1.400,0.075,-0.130
1.402,0.090,-0.105
1.404,0.110,-0.085
1.406,0.085,-0.065
1.408,0.090,-0.050
1.410,0.070,-0.035
1.412,0.030,-0.030
1.414,0.100,-0.020
1.416,0.120,-0.020
1.418,0.130,-0.020
1.420,0.120,-0.025
1.422,0.120,-0.030
1.424,0.100,-0.040
1.426,0.040,-0.045
1.428,0.015,-0.050
1.430,0.070,-0.045
1.432,0.095,-0.040
1.434,0.095,-0.035
1.436,0.105,-0.025
1.438,0.170,-0.015
1.440,0.135,-0.015
1.442,0.120,-0.015
1.444,0.135,-0.020
1.446,0.055,-0.030
1.448,0.085,-0.040
1.450,0.110,-0.045
1.452,0.060,-0.045
1.454,0.075,-0.045
1.456,0.150,-0.035
1.458,0.140,-0.020
1.460,0.120,-0.005
1.462,0.165,0.005
1.464,0.140,0.015
1.466,0.125,0.015
1.468,0.085,0.015
1.470,0.075,0.005
1.472,0.075,-0.010
1.474,0.100,-0.020
1.476,0.145,-0.030
1.478,0.170,-0.035
1.480,0.175,-0.035
1.482,0.105,-0.035
1.484,0.100,-0.025
1.486,0.065,-0.020
1.488,0.065,-0.015
1.490,0.110,-0.010
1.492,0.145,-0.010
1.494,0.140,-0.010
1.496,0.140,-0.015
1.498,0.165,-0.020
1.500,0.170,-0.020
1.502,0.160,-0.015
1.504,0.155,-0.015
1.506,0.090,-0.005
1.508,0.045,0.000
1.510,0.120,0.005
1.512,0.145,0.010
1.514,0.155,0.015
1.516,0.165,0.015
1.518,0.170,0.015
1.520,0.175,0.015
1.522,0.195,0.020
1.524,0.175,0.020
1.526,0.145,0.025
1.528,0.115,0.030
1.530,0.115,0.030
1.532,0.150,0.035
1.534,0.170,0.035
1.536,0.210,0.035
1.538,0.260,0.035
1.540,0.240,0.035
1.542,0.220,0.040
1.544,0.165,0.040
1.546,0.155,0.045
1.548,0.120,0.050
1.550,0.150,0.060
1.552,0.155,0.065
1.554,0.215,0.070
1.556,0.260,0.075
1.558,0.280,0.080
1.560,0.280,0.085
1.562,0.280,0.095
1.564,0.250,0.100
1.566,0.220,0.110
1.568,0.210,0.125
1.570,0.280,0.135
1.572,0.305,0.145
1.574,0.295,0.150
1.576,0.325,0.150
1.578,0.325,0.150
1.580,0.305,0.150
1.582,0.290,0.145
1.584,0.295,0.145
1.586,0.290,0.150
1.588,0.290,0.155
1.590,0.265,0.165
1.592,0.255,0.175
1.594,0.315,0.190
1.596,0.400,0.200
1.598,0.410,0.210
1.600,0.425,0.215
1.602,0.370,0.210
1.604,0.330,0.205
1.606,0.310,0.200
1.608,0.310,0.190
1.610,0.305,0.180
1.612,0.300,0.175
1.614,0.285,0.170
1.616,0.315,0.170
1.618,0.350,0.170
1.620,0.360,0.165
1.622,0.340,0.165
1.624,0.295,0.165
1.626,0.255,0.160
1.628,0.260,0.150
1.630,0.250,0.145
1.632,0.250,0.135
1.634,0.250,0.125
1.636,0.265,0.115
1.638,0.255,0.105
1.640,0.245,0.090
1.642,0.225,0.080
1.644,0.215,0.065
1.646,0.155,0.055
1.648,0.185,0.040
1.650,0.135,0.030
1.652,0.140,0.020
1.654,0.180,0.010
1.656,0.170,0.010
1.658,0.145,0.005
1.660,0.175,0.005
1.662,0.195,0.000
1.664,0.175,0.000
1.666,0.150,0.000
1.668,0.095,-0.005
1.670,0.010,-0.005
1.672,0.115,-0.010
1.674,0.145,-0.015
1.676,0.185,-0.025
1.678,0.170,-0.030
1.680,0.130,-0.040
1.682,0.100,-0.045
1.684,0.100,-0.050
1.686,0.085,-0.055
1.688,0.090,-0.055
1.690,0.075,-0.055
1.692,0.095,-0.050
1.694,0.115,-0.045
1.696,0.180,-0.040
1.698,0.160,-0.030
1.700,0.135,-0.025
1.702,0.095,-0.020
1.704,0.115,-0.025
1.706,0.115,-0.025
1.708,0.095,-0.035
1.710,0.065,-0.040
1.712,0.130,-0.050
1.714,0.105,-0.055
1.716,0.145,-0.060
1.718,0.145,-0.060
1.720,0.105,-0.060
1.722,0.120,-0.055
1.724,0.125,-0.050
1.726,0.055,-0.045
1.728,0.075,-0.045
1.730,0.080,-0.045
1.732,0.090,-0.050
1.734,0.085,-0.050
1.736,0.115,-0.055
1.738,0.125,-0.060
1.740,0.150,-0.060
1.742,0.100,-0.060
1.744,0.080,-0.055
1.746,0.090,-0.045
1.748,0.135,-0.040
1.750,0.075,-0.030
1.752,0.065,-0.025
1.754,0.180,-0.025
1.756,0.185,-0.025
1.758,0.110,-0.030
1.760,0.135,-0.035
1.762,0.145,-0.040
1.764,0.110,-0.045
1.766,0.125,-0.040
1.768,0.140,-0.040
1.770,0.105,-0.035
1.772,0.115,-0.030
1.774,0.160,-0.025
1.776,0.155,-0.025
1.778,0.110,-0.025
1.780,0.140,-0.030
1.782,0.170,-0.035
1.784,0.120,-0.040
1.786,0.090,-0.045
1.788,0.095,-0.045
1.790,0.110,-0.040
1.792,0.115,-0.030
1.794,0.185,-0.020
1.796,0.200,-0.010
1.798,0.220,0.000
1.800,0.180,0.005
1.802,0.145,0.000
1.804,0.105,-0.005
1.806,0.085,-0.015
1.808,0.105,-0.025
1.810,0.145,-0.035
1.812,0.120,-0.040
1.814,0.125,-0.045
1.816,0.165,-0.050
1.818,0.165,-0.050
1.820,0.170,-0.045
1.822,0.155,-0.040
1.824,0.115,-0.040
1.826,0.095,-0.035
1.828,0.105,-0.030
1.830,0.120,-0.025
1.832,0.155,-0.025
1.834,0.170,-0.020
1.836,0.200,-0.020
1.838,0.185,-0.020
1.840,0.140,-0.020
1.842,0.130,-0.020
1.844,0.160,-0.025
1.846,0.090,-0.025
1.848,0.070,-0.025
1.850,0.135,-0.030
1.852,0.140,-0.025
1.854,0.190,-0.025
1.856,0.165,-0.025
1.858,0.185,-0.025
1.860,0.160,-0.025
1.862,0.155,-0.030
1.864,0.100,-0.035
1.866,0.100,-0.040
1.868,0.075,-0.045
1.870,0.115,-0.050
1.872,0.090,-0.055
1.874,0.150,-0.055
1.876,0.175,-0.055
1.878,0.190,-0.050
1.880,0.180,-0.045
1.882,0.145,-0.045
1.884,0.080,-0.040
1.886,0.070,-0.040
1.888,0.085,-0.040
1.890,0.125,-0.040
1.892,0.135,-0.040
1.894,0.160,-0.040
1.896,0.180,-0.035
1.898,0.185,-0.030
1.900,0.200,-0.030
1.902,0.170,-0.025
1.904,0.100,-0.025
1.906,0.120,-0.020
1.908,0.085,-0.020
1.910,0.105,-0.015
1.912,0.140,-0.010
1.914,0.215,-0.005
1.916,0.235,0.000
1.918,0.215,0.005
1.920,0.175,0.010
1.922,0.220,0.010
1.924,0.145,0.010
1.926,0.105,0.010
1.928,0.115,0.000
1.930,0.165,-0.005
1.932,0.185,-0.010
1.934,0.220,-0.010
1.936,0.215,-0.010
1.938,0.235,-0.010
1.940,0.205,-0.005
1.942,0.170,-0.005
1.944,0.115,-0.005
1.946,0.125,-0.005
1.948,0.175,-0.005
1.950,0.155,-0.010
1.952,0.110,-0.015
1.954,0.175,-0.015
1.956,0.230,-0.010
1.958,0.260,0.000
1.960,0.270,0.015
1.962,0.195,0.030
1.964,0.190,0.045
1.966,0.205,0.055
1.968,0.190,0.060
1.970,0.235,0.060
1.972,0.225,0.050
1.974,0.195,0.035
1.976,0.245,0.020
1.978,0.230,0.005
1.980,0.175,-0.010
1.982,0.135,-0.025
1.984,0.100,-0.035
1.986,0.085,-0.040
1.988,0.085,-0.045
1.990,0.095,-0.050
1.992,0.145,-0.055
1.994,0.200,-0.055
1.996,0.150,-0.060
1.998,0.165,-0.060
2.000,0.175,-0.060
2.002,0.150,-0.055
2.004,0.095,-0.045
2.006,0.120,-0.040
2.008,0.115,-0.030
2.010,0.155,-0.030
2.012,0.145,-0.030
2.014,0.195,-0.030
2.016,0.185,-0.040
2.018,0.150,-0.045
2.020,0.110,-0.055
2.022,0.105,-0.060
2.024,0.105,-0.065
2.026,0.115,-0.065
2.028,0.135,-0.065
2.030,0.120,-0.060
2.032,0.150,-0.060
2.034,0.180,-0.055
2.036,0.155,-0.055
2.038,0.145,-0.060
2.040,0.125,-0.065
2.042,0.100,-0.065
2.044,0.090,-0.070
2.046,0.100,-0.075
2.048,0.120,-0.075
2.050,0.115,-0.070
2.052,0.135,-0.070
2.054,0.185,-0.065
2.056,0.185,-0.060
2.058,0.150,-0.055
2.060,0.135,-0.050
2.062,0.115,-0.045
2.064,0.130,-0.045
2.066,0.125,-0.040
2.068,0.105,-0.035
2.070,0.135,-0.025
2.072,0.225,-0.015
2.074,0.250,0.000
2.076,0.240,0.015
2.078,0.260,0.030
2.080,0.245,0.045
2.082,0.255,0.055
2.084,0.220,0.060
2.086,0.195,0.060
2.088,0.220,0.055
2.090,0.205,0.050
2.092,0.225,0.045
2.094,0.235,0.040
2.096,0.205,0.045
2.098,0.265,0.055
2.100,0.315,0.070
2.102,0.335,0.085
2.104,0.320,0.105
2.106,0.280,0.115
2.108,0.245,0.115
2.110,0.225,0.100
2.112,0.240,0.070
2.114,0.220,0.025
2.116,0.180,-0.030
2.118,0.155,-0.085
2.120,0.060,-0.140
2.122,-0.020,-0.180
2.124,-0.065,-0.200
2.126,-0.040,-0.205
2.128,-0.020,-0.195
2.130,-0.020,-0.170
2.132,0.040,-0.135
2.134,0.165,-0.105
2.136,0.180,-0.080
2.138,0.135,-0.060
2.140,0.165,-0.050
2.142,0.135,-0.045
2.144,0.125,-0.050
2.146,0.125,-0.055
2.148,0.135,-0.055
2.150,0.160,-0.055
2.152,0.210,-0.050
2.154,0.195,-0.045
2.156,0.160,-0.040
2.158,0.150,-0.035
2.160,0.160,-0.035
2.162,0.120,-0.035
2.164,0.120,-0.040
2.166,0.140,-0.045
2.168,0.165,-0.050
2.170,0.145,-0.050
2.172,0.190,-0.055
2.174,0.195,-0.050
2.176,0.175,-0.050
2.178,0.175,-0.045
2.180,0.170,-0.040
2.182,0.100,-0.035
2.184,0.135,-0.030
2.186,0.155,-0.025
2.188,0.180,-0.020
2.190,0.155,-0.015
2.192,0.230,-0.015
2.194,0.210,-0.010
2.196,0.235,-0.010
2.198,0.195,-0.015
2.200,0.150,-0.020
2.202,0.145,-0.025
2.204,0.130,-0.030
2.206,0.105,-0.035
2.208,0.145,-0.040
2.210,0.185,-0.035
2.212,0.240,-0.030
2.214,0.230,-0.020
2.216,0.245,-0.010
2.218,0.205,0.000
2.220,0.185,0.005
2.222,0.180,0.010
2.224,0.170,0.010
2.226,0.165,0.010
2.228,0.195,0.005
2.230,0.190,0.000
2.232,0.235,-0.005
2.234,0.230,-0.010
2.236,0.240,-0.005
2.238,0.265,-0.005
2.240,0.240,0.000
2.242,0.155,0.010
2.244,0.170,0.015
2.246,0.190,0.015
2.248,0.200,0.020
2.250,0.240,0.020
2.252,0.260,0.015
2.254,0.230,0.015
2.256,0.235,0.015
2.258,0.205,0.010
2.260,0.210,0.010
2.262,0.190,0.005
2.264,0.200,0.005
2.266,0.210,0.005
2.268,0.230,0.010
2.270,0.225,0.015
2.272,0.260,0.020
2.274,0.265,0.030
2.276,0.310,0.040
2.278,0.265,0.050
2.280,0.225,0.060
2.282,0.185,0.070
2.284,0.240,0.070
2.286,0.235,0.070
2.288,0.260,0.070
2.290,0.315,0.065
2.292,0.350,0.065
2.294,0.305,0.065
2.296,0.330,0.075
2.298,0.325,0.090
2.300,0.315,0.105
2.302,0.280,0.125
2.304,0.305,0.140
2.306,0.300,0.155
2.308,0.365,0.165
2.310,0.385,0.170
2.312,0.455,0.170
2.314,0.430,0.165
2.316,0.380,0.160
2.318,0.355,0.155
2.320,0.345,0.155
2.322,0.390,0.160
2.324,0.390,0.165
2.326,0.335,0.175
2.328,0.385,0.180
2.330,0.420,0.190
2.332,0.445,0.190
2.334,0.440,0.195
2.336,0.420,0.190
2.338,0.415,0.190
2.340,0.365,0.185
2.342,0.350,0.185
2.344,0.335,0.185
2.346,0.380,0.185
2.348,0.395,0.185
2.350,0.415,0.185
2.352,0.440,0.185
2.354,0.415,0.180
2.356,0.395,0.175
2.358,0.390,0.165
2.360,0.325,0.155
2.362,0.300,0.145
2.364,0.295,0.140
2.366,0.270,0.130
2.368,0.290,0.125
2.370,0.400,0.120
2.372,0.385,0.115
2.374,0.365,0.110
2.376,0.310,0.100
2.378,0.275,0.095
2.380,0.245,0.085
2.382,0.215,0.075
2.384,0.205,0.065
2.386,0.245,0.055
2.388,0.260,0.045
2.390,0.280,0.035
2.392,0.280,0.030
2.394,0.275,0.020
2.396,0.200,0.015
2.398,0.200,0.010
2.400,0.245,0.005
2.402,0.180,0.005
2.404,0.170,0.005
2.406,0.180,0.000
2.408,0.180,0.000
2.410,0.215,0.000
2.412,0.235,-0.005
2.414,0.240,-0.010
2.416,0.225,-0.015
2.418,0.210,-0.020
2.420,0.155,-0.025
2.422,0.140,-0.030
2.424,0.125,-0.035
2.426,0.150,-0.035
2.428,0.160,-0.040
2.430,0.220,-0.040
2.432,0.220,-0.040
2.434,0.195,-0.040
2.436,0.190,-0.040
2.438,0.215,-0.045
2.440,0.150,-0.045
2.442,0.135,-0.045
2.444,0.130,-0.045
2.446,0.170,-0.045
2.448,0.140,-0.045
2.450,0.200,-0.040
2.452,0.240,-0.040
2.454,0.205,-0.035
2.456,0.180,-0.030
2.458,0.210,-0.025
2.460,0.185,-0.025
2.462,0.185,-0.025
2.464,0.115,-0.025
2.466,0.180,-0.030
2.468,0.180,-0.035
2.470,0.210,-0.040
2.472,0.190,-0.045
2.474,0.230,-0.050
2.476,0.190,-0.050
2.478,0.140,-0.055
2.480,0.130,-0.055
2.482,0.145,-0.050
2.484,0.135,-0.050
2.486,0.175,-0.045
2.488,0.155,-0.040
2.490,0.235,-0.035
2.492,0.270,-0.025
2.494,0.235,-0.020
2.496,0.200,-0.015
2.498,0.195,-0.015
2.500,0.140,-0.010
2.502,0.180,-0.010
2.504,0.155,-0.015
2.506,0.200,-0.015
2.508,0.230,-0.020
2.510,0.255,-0.025
2.512,0.225,-0.030
2.514,0.230,-0.035
2.516,0.180,-0.035
2.518,0.135,-0.035
2.520,0.130,-0.035
2.522,0.180,-0.035
2.524,0.140,-0.035
2.526,0.160,-0.030
2.528,0.215,-0.030
2.530,0.280,-0.030
2.532,0.240,-0.030
2.534,0.230,-0.030
2.536,0.225,-0.030
2.538,0.200,-0.035
2.540,0.150,-0.035
2.542,0.135,-0.035
2.544,0.145,-0.035
2.546,0.190,-0.030
2.548,0.220,-0.030
2.550,0.265,-0.030
2.552,0.270,-0.030
2.554,0.260,-0.030
2.556,0.190,-0.035
2.558,0.115,-0.035
2.560,0.115,-0.035
2.562,0.170,-0.035
2.564,0.160,-0.035
2.566,0.205,-0.035
2.568,0.215,-0.030
2.570,0.230,-0.030
2.572,0.195,-0.025
2.574,0.225,-0.025
2.576,0.200,-0.025
2.578,0.185,-0.030
2.580,0.150,-0.030
2.582,0.140,-0.035
2.584,0.155,-0.040
2.586,0.215,-0.040
2.588,0.220,-0.040
2.590,0.205,-0.040
2.592,0.190,-0.035
2.594,0.150,-0.030
2.596,0.200,-0.025
2.598,0.180,-0.020
2.600,0.170,-0.015
2.602,0.215,-0.010
2.604,0.195,-0.010
2.606,0.210,-0.010
2.608,0.225,-0.010
2.610,0.255,-0.015
2.612,0.215,-0.020
2.614,0.190,-0.020
2.616,0.205,-0.030
2.618,0.185,-0.035
2.620,0.120,-0.040
2.622,0.115,-0.045
2.624,0.175,-0.045
2.626,0.210,-0.045
2.628,0.220,-0.040
2.630,0.225,-0.035
2.632,0.245,-0.030
2.634,0.225,-0.025
2.636,0.235,-0.020
2.638,0.175,-0.020
2.640,0.140,-0.020
2.642,0.135,-0.025
2.644,0.180,-0.030
2.646,0.180,-0.035
2.648,0.225,-0.045
2.650,0.275,-0.045
2.652,0.225,-0.050
2.654,0.175,-0.045
2.656,0.180,-0.040
2.658,0.155,-0.030
2.660,0.215,-0.020
2.662,0.200,-0.015
2.664,0.180,-0.010
2.666,0.205,-0.010
2.668,0.240,-0.010
2.670,0.255,-0.010
2.672,0.280,-0.015
2.674,0.245,-0.015
2.676,0.190,-0.015
2.678,0.185,-0.015
2.680,0.195,-0.010
2.682,0.165,-0.010
2.684,0.205,-0.005
2.686,0.230,-0.005
2.688,0.260,-0.005
2.690,0.275,-0.010
2.692,0.250,-0.010
2.694,0.225,-0.015
2.696,0.205,-0.015
2.698,0.205,-0.010
2.700,0.200,-0.010
2.702,0.185,-0.005
2.704,0.220,0.000
2.706,0.220,0.005
2.708,0.240,0.010
2.710,0.320,0.015
2.712,0.335,0.025
2.714,0.265,0.030
2.716,0.285,0.035
2.718,0.240,0.045
2.720,0.260,0.050
2.722,0.260,0.055
2.724,0.290,0.055
2.726,0.275,0.050
2.728,0.310,0.045
2.730,0.305,0.035
2.732,0.320,0.025
2.734,0.245,0.010
2.736,0.195,0.000
2.738,0.145,-0.010
2.740,0.160,-0.020
2.742,0.195,-0.030
2.744,0.210,-0.035
2.746,0.190,-0.035
2.748,0.225,-0.040
2.750,0.255,-0.040
2.752,0.245,-0.040
2.754,0.220,-0.035
2.756,0.195,-0.035
2.758,0.185,-0.030
2.760,0.210,-0.025
2.762,0.175,-0.020
2.764,0.210,-0.015
2.766,0.225,-0.015
2.768,0.225,-0.020
2.770,0.215,-0.025
2.772,0.180,-0.030
2.774,0.175,-0.040
2.776,0.180,-0.050
2.778,0.155,-0.060
2.780,0.165,-0.065
2.782,0.165,-0.065
2.784,0.185,-0.065
2.786,0.195,-0.060
2.788,0.230,-0.050
2.790,0.190,-0.045
2.792,0.255,-0.040
2.794,0.190,-0.040
2.796,0.145,-0.040
2.798,0.130,-0.045
2.800,0.160,-0.050
2.802,0.200,-0.050
2.804,0.230,-0.055
2.806,0.210,-0.050
2.808,0.235,-0.050
2.810,0.220,-0.045
2.812,0.200,-0.035
2.814,0.175,-0.035
2.816,0.215,-0.030
2.818,0.185,-0.030
2.820,0.145,-0.035
2.822,0.125,-0.040
2.824,0.195,-0.040
2.826,0.235,-0.040
2.828,0.270,-0.030
2.830,0.295,-0.015
2.832,0.310,0.000
2.834,0.305,0.025
2.836,0.290,0.040
2.838,0.265,0.055
2.840,0.275,0.060
2.842,0.255,0.060
2.844,0.285,0.050
2.846,0.280,0.040
2.848,0.245,0.030
2.850,0.245,0.025
2.852,0.285,0.030
2.854,0.310,0.040
2.856,0.330,0.065
2.858,0.380,0.085
2.860,0.380,0.110
2.862,0.355,0.125
2.864,0.330,0.120
2.866,0.340,0.105
2.868,0.295,0.070
2.870,0.220,0.025
2.872,0.180,-0.030
2.874,0.140,-0.085
2.876,0.145,-0.130
2.878,0.060,-0.165
2.880,0.005,-0.190
2.882,0.025,-0.195
2.884,0.035,-0.190
2.886,0.035,-0.170
2.888,0.100,-0.150
2.890,0.185,-0.125
2.892,0.195,-0.105
2.894,0.220,-0.085
2.896,0.185,-0.065
2.898,0.125,-0.050
2.900,0.120,-0.035
2.902,0.215,-0.025
2.904,0.215,-0.015
2.906,0.265,-0.010
2.908,0.260,-0.005
2.910,0.255,-0.005
2.912,0.245,-0.010
2.914,0.195,-0.015
2.916,0.190,-0.020
2.918,0.170,-0.025
2.920,0.160,-0.030
2.922,0.215,-0.030
2.924,0.250,-0.030
2.926,0.250,-0.030
2.928,0.260,-0.025
2.930,0.225,-0.020
2.932,0.195,-0.020
2.934,0.230,-0.015
2.936,0.230,-0.015
2.938,0.180,-0.020
2.940,0.175,-0.025
2.942,0.185,-0.025
2.944,0.210,-0.030
2.946,0.230,-0.030
2.948,0.245,-0.030
2.950,0.260,-0.030
2.952,0.270,-0.030
2.954,0.245,-0.030
2.956,0.190,-0.030
2.958,0.160,-0.030
2.960,0.165,-0.030
2.962,0.190,-0.035
2.964,0.230,-0.035
2.966,0.285,-0.040
2.968,0.245,-0.040
2.970,0.255,-0.040
2.972,0.250,-0.035
2.974,0.215,-0.035
2.976,0.170,-0.035
2.978,0.180,-0.035
2.980,0.180,-0.030
2.982,0.180,-0.030
2.984,0.180,-0.030
2.986,0.240,-0.030
2.988,0.270,-0.025
2.990,0.295,-0.020
2.992,0.280,-0.015
2.994,0.275,-0.005
2.996,0.195,0.000
2.998,0.190,0.005
3.000,0.210,0.005
3.002,0.270,0.005
3.004,0.240,0.000
3.006,0.240,-0.005
3.008,0.265,-0.005
3.010,0.305,-0.005
3.012,0.275,0.000
3.014,0.250,0.005
3.016,0.275,0.015
3.018,0.220,0.025
3.020,0.255,0.035
3.022,0.275,0.045
3.024,0.295,0.050
3.026,0.320,0.050
3.028,0.315,0.050
3.030,0.315,0.050
3.032,0.315,0.050
3.034,0.290,0.050
3.036,0.235,0.055
3.038,0.285,0.060
3.040,0.280,0.070
3.042,0.285,0.075
3.044,0.295,0.080
3.046,0.350,0.080
3.048,0.370,0.080
3.050,0.380,0.080
3.052,0.355,0.080
3.054,0.345,0.085
3.056,0.295,0.090
3.058,0.305,0.100
3.060,0.335,0.110
3.062,0.335,0.125
3.064,0.390,0.140
3.066,0.485,0.155
3.068,0.480,0.160
3.070,0.420,0.165
3.072,0.385,0.170
3.074,0.390,0.170
3.076,0.350,0.165
3.078,0.385,0.165
3.080,0.435,0.170
3.082,0.425,0.170
3.084,0.430,0.175
3.086,0.480,0.180
3.088,0.485,0.185
3.090,0.445,0.190
3.092,0.435,0.190
3.094,0.440,0.185
3.096,0.395,0.185
3.098,0.410,0.175
3.100,0.420,0.170
3.102,0.405,0.165
3.104,0.435,0.160
3.106,0.480,0.160
3.108,0.430,0.155
3.110,0.395,0.155
3.112,0.370,0.155
3.114,0.370,0.150
3.116,0.365,0.150
3.118,0.410,0.145
3.120,0.420,0.140
3.122,0.370,0.135
3.124,0.345,0.130
3.126,0.380,0.120
3.128,0.365,0.110
3.130,0.350,0.100
3.132,0.315,0.090
3.134,0.300,0.075
3.136,0.255,0.065
3.138,0.245,0.050
3.140,0.295,0.035
3.142,0.285,0.020
3.144,0.265,0.010
3.146,0.275,-0.005
3.148,0.300,-0.010
3.150,0.240,-0.015
3.152,0.220,-0.015
3.154,0.245,-0.010
3.156,0.225,-0.010
3.158,0.210,-0.005
3.160,0.225,0.000
3.162,0.230,-0.005
3.164,0.220,-0.010
3.166,0.235,-0.015
3.168,0.240,-0.025
3.170,0.200,-0.035
3.172,0.215,-0.045
3.174,0.200,-0.050
3.176,0.205,-0.050
3.178,0.195,-0.050
3.180,0.160,-0.045
3.182,0.185,-0.035
3.184,0.260,-0.030
3.186,0.275,-0.030
3.188,0.265,-0.030
3.190,0.215,-0.035
3.192,0.200,-0.045
3.194,0.205,-0.050
3.196,0.155,-0.055
3.198,0.170,-0.060
3.200,0.195,-0.060
3.202,0.220,-0.055
3.204,0.265,-0.050
3.206,0.270,-0.040
3.208,0.255,-0.035
3.210,0.215,-0.030
3.212,0.190,-0.030
3.214,0.150,-0.030
3.216,0.170,-0.035
3.218,0.195,-0.040
3.220,0.235,-0.045
3.222,0.215,-0.050
3.224,0.265,-0.055
3.226,0.240,-0.055
3.228,0.220,-0.055
3.230,0.205,-0.055
3.232,0.205,-0.050
3.234,0.185,-0.050
3.236,0.160,-0.045
3.238,0.165,-0.045
3.240,0.205,-0.040
3.242,0.220,-0.040
3.244,0.230,-0.040
3.246,0.280,-0.035
3.248,0.275,-0.035
3.250,0.225,-0.035
3.252,0.240,-0.035
3.254,0.185,-0.035
3.256,0.175,-0.035
3.258,0.165,-0.035
3.260,0.185,-0.040
3.262,0.235,-0.040
3.264,0.265,-0.035
3.266,0.270,-0.035
3.268,0.255,-0.030
3.270,0.275,-0.025
3.272,0.230,-0.015
3.274,0.170,-0.015
3.276,0.195,-0.010
3.278,0.215,-0.010
3.280,0.240,-0.015
3.282,0.260,-0.020
3.284,0.285,-0.025
3.286,0.260,-0.025
3.288,0.195,-0.030
3.290,0.220,-0.030
3.292,0.240,-0.030
3.294,0.220,-0.025
3.296,0.200,-0.020
3.298,0.205,-0.015
3.300,0.215,-0.015
3.302,0.260,-0.010
3.304,0.275,-0.010
3.306,0.265,-0.015
3.308,0.240,-0.015
3.310,0.235,-0.020
3.312,0.215,-0.025
3.314,0.190,-0.025
3.316,0.185,-0.025
3.318,0.180,-0.025
3.320,0.225,-0.020
3.322,0.230,-0.015
3.324,0.285,-0.015
3.326,0.280,-0.015
3.328,0.305,-0.020
3.330,0.320,-0.025
3.332,0.200,-0.035
3.334,0.140,-0.040
3.336,0.140,-0.045
3.338,0.165,-0.045
3.340,0.185,-0.045
3.342,0.255,-0.040
3.344,0.270,-0.035
3.346,0.255,-0.030
3.348,0.275,-0.025
3.350,0.270,-0.020
3.352,0.220,-0.020
3.354,0.180,-0.020
3.356,0.215,-0.025
3.358,0.175,-0.025
3.360,0.200,-0.030
3.362,0.230,-0.030
3.364,0.280,-0.030
3.366,0.275,-0.030
3.368,0.285,-0.025
3.370,0.270,-0.020
3.372,0.235,-0.020
3.374,0.195,-0.020
3.376,0.210,-0.020
3.378,0.165,-0.025
3.380,0.200,-0.025
3.382,0.225,-0.030
3.384,0.255,-0.035
3.386,0.275,-0.035
3.388,0.250,-0.035
3.390,0.225,-0.035
3.392,0.220,-0.035
3.394,0.220,-0.030
3.396,0.205,-0.030
3.398,0.210,-0.030
3.400,0.230,-0.030
3.402,0.195,-0.030
3.404,0.275,-0.030
3.406,0.270,-0.030
3.408,0.280,-0.030
3.410,0.240,-0.025
3.412,0.200,-0.020
3.414,0.180,-0.020
3.416,0.175,-0.015
3.418,0.240,-0.010
3.420,0.270,-0.005
3.422,0.280,-0.005
3.424,0.310,-0.005
3.426,0.275,-0.005
3.428,0.265,-0.005
3.430,0.245,-0.005
3.432,0.250,-0.005
3.434,0.215,-0.005
3.436,0.230,-0.005
3.438,0.240,-0.005
3.440,0.260,0.000
3.442,0.290,0.005
3.444,0.315,0.005
3.446,0.295,0.015
3.448,0.300,0.020
3.450,0.260,0.025
3.452,0.260,0.025
3.454,0.285,0.030
3.456,0.290,0.035
3.458,0.255,0.035
3.460,0.290,0.035
3.462,0.340,0.035
3.464,0.360,0.040
3.466,0.340,0.040
3.468,0.350,0.045
3.470,0.335,0.050
3.472,0.290,0.050
3.474,0.245,0.050
3.476,0.225,0.045
3.478,0.280,0.040
3.480,0.270,0.030
3.482,0.285,0.015
3.484,0.310,0.000
3.486,0.260,-0.010
3.488,0.230,-0.020
3.490,0.240,-0.030
3.492,0.250,-0.035
3.494,0.205,-0.035
3.496,0.205,-0.035
3.498,0.220,-0.035
3.500,0.215,-0.040
3.502,0.245,-0.045
3.504,0.245,-0.050
3.506,0.240,-0.055
3.508,0.235,-0.060
3.510,0.235,-0.065
3.512,0.165,-0.065
3.514,0.140,-0.065
3.516,0.170,-0.055
3.518,0.215,-0.050
3.520,0.245,-0.045
3.522,0.255,-0.040
3.524,0.280,-0.035
3.526,0.265,-0.035
3.528,0.210,-0.035
3.530,0.215,-0.040
3.532,0.185,-0.045
3.534,0.185,-0.045
3.536,0.205,-0.050
3.538,0.200,-0.055
3.540,0.210,-0.055
3.542,0.250,-0.055
3.544,0.240,-0.050
3.546,0.245,-0.050
3.548,0.210,-0.045
3.550,0.210,-0.040
3.552,0.200,-0.035
3.554,0.195,-0.030
3.556,0.195,-0.025
3.558,0.225,-0.020
3.560,0.245,-0.020
3.562,0.245,-0.025
3.564,0.285,-0.025
3.566,0.270,-0.030
3.568,0.235,-0.035
3.570,0.190,-0.035
3.572,0.200,-0.035
3.574,0.215,-0.025
3.576,0.260,-0.010
3.578,0.280,0.010
3.580,0.260,0.025
3.582,0.345,0.040
3.584,0.335,0.050
3.586,0.375,0.055
3.588,0.370,0.050
3.590,0.320,0.040
3.592,0.220,0.025
3.594,0.205,0.020
3.596,0.205,0.020
3.598,0.245,0.025
3.600,0.325,0.045
3.602,0.410,0.070
3.604,0.470,0.100
3.606,0.535,0.130
3.608,0.470,0.145
3.610,0.390,0.150
3.612,0.300,0.135
3.614,0.280,0.105
3.616,0.250,0.055
3.618,0.230,0.000
3.620,0.210,-0.060
3.622,0.205,-0.115
3.624,0.145,-0.165
3.626,0.085,-0.195
3.628,0.045,-0.210
3.630,0.025,-0.215
3.632,0.020,-0.205
3.634,0.040,-0.185
3.636,0.090,-0.160
3.638,0.180,-0.140
3.640,0.215,-0.120
3.642,0.250,-0.100
3.644,0.250,-0.085
3.646,0.240,-0.075
3.648,0.210,-0.070
3.650,0.195,-0.060
3.652,0.175,-0.055
3.654,0.200,-0.050
3.656,0.205,-0.045
3.658,0.215,-0.040
3.660,0.205,-0.040
3.662,0.250,-0.035
3.664,0.270,-0.035
3.666,0.275,-0.035
3.668,0.260,-0.030
3.670,0.245,-0.030
3.672,0.190,-0.025
3.674,0.225,-0.020
3.676,0.220,-0.015
3.678,0.215,-0.010
3.680,0.270,-0.010
3.682,0.285,-0.010
3.684,0.285,-0.010
3.686,0.270,-0.010
3.688,0.250,-0.015
3.690,0.210,-0.015
3.692,0.175,-0.020
3.694,0.205,-0.020
3.696,0.255,-0.025
3.698,0.270,-0.025
3.700,0.275,-0.025
3.702,0.285,-0.025
3.704,0.285,-0.020
3.706,0.265,-0.020
3.708,0.270,-0.015
3.710,0.260,-0.010
3.712,0.210,-0.010
3.714,0.200,-0.005
3.716,0.240,-0.005
3.718,0.260,-0.005
3.720,0.280,-0.005
3.722,0.310,-0.010
3.724,0.270,-0.015
3.726,0.260,-0.015
3.728,0.255,-0.015
3.730,0.265,-0.015
3.732,0.245,-0.010
3.734,0.225,0.000
3.736,0.215,0.010
3.738,0.295,0.015
3.740,0.285,0.020
3.742,0.290,0.025
3.744,0.335,0.020
3.746,0.330,0.015
3.748,0.270,0.010
3.750,0.245,0.000
3.752,0.250,0.000
3.754,0.245,-0.005
3.756,0.260,0.000
3.758,0.320,0.005
3.760,0.310,0.015
3.762,0.300,0.025
3.764,0.345,0.035
3.766,0.300,0.040
3.768,0.275,0.040
3.770,0.280,0.040
3.772,0.270,0.035
3.774,0.270,0.030
3.776,0.310,0.025
3.778,0.305,0.025
3.780,0.325,0.025
3.782,0.355,0.030
3.784,0.335,0.040
3.786,0.335,0.050
3.788,0.355,0.065
3.790,0.330,0.080
3.792,0.310,0.090
3.794,0.300,0.100
3.796,0.340,0.110
3.798,0.375,0.110
3.800,0.395,0.110
3.802,0.395,0.110
3.804,0.445,0.110
3.806,0.450,0.110
3.808,0.450,0.115
3.810,0.355,0.120
3.812,0.340,0.125
3.814,0.370,0.135
3.816,0.430,0.145
3.818,0.420,0.160
3.820,0.465,0.170
3.822,0.515,0.180
3.824,0.485,0.185
3.826,0.460,0.190
3.828,0.450,0.190
3.830,0.430,0.185
3.832,0.435,0.185
3.834,0.435,0.180
3.836,0.415,0.175
3.838,0.430,0.170
3.840,0.470,0.170
3.842,0.475,0.165
3.844,0.460,0.165
3.846,0.425,0.170
3.848,0.470,0.170
3.850,0.430,0.170
3.852,0.370,0.170
3.854,0.345,0.170
3.856,0.430,0.170
3.858,0.455,0.165
3.860,0.460,0.160
3.862,0.465,0.155
3.864,0.475,0.145
3.866,0.415,0.140
3.868,0.380,0.130
3.870,0.320,0.120
3.872,0.345,0.110
3.874,0.340,0.100
3.876,0.325,0.095
3.878,0.350,0.085
3.880,0.350,0.075
3.882,0.365,0.065
3.884,0.375,0.050
3.886,0.315,0.040
3.888,0.285,0.030
3.890,0.230,0.020
3.892,0.265,0.010
3.894,0.235,0.000
3.896,0.230,-0.005
3.898,0.275,-0.010
3.900,0.315,-0.010
3.902,0.295,-0.010
3.904,0.285,-0.010
3.906,0.255,-0.010
3.908,0.260,-0.010
3.910,0.225,-0.010
3.912,0.220,-0.015
3.914,0.210,-0.015
3.916,0.245,-0.020
3.918,0.285,-0.025
3.920,0.305,-0.030
3.922,0.275,-0.035
3.924,0.265,-0.040
3.926,0.240,-0.045
3.928,0.230,-0.045
3.930,0.180,-0.040
3.932,0.210,-0.040
3.934,0.195,-0.035
3.936,0.240,-0.035
3.938,0.255,-0.035
3.940,0.275,-0.040
3.942,0.285,-0.045
3.944,0.270,-0.050
3.946,0.205,-0.060
3.948,0.180,-0.070
3.950,0.165,-0.075
3.952,0.195,-0.080
3.954,0.155,-0.085
3.956,0.175,-0.080
3.958,0.235,-0.080
3.960,0.265,-0.075
3.962,0.270,-0.070
3.964,0.270,-0.065
3.966,0.245,-0.060
3.968,0.230,-0.055
3.970,0.225,-0.055
3.972,0.175,-0.050
3.974,0.150,-0.050
3.976,0.150,-0.050
3.978,0.185,-0.050
3.980,0.270,-0.055
3.982,0.285,-0.055
3.984,0.295,-0.055
3.986,0.240,-0.055
3.988,0.175,-0.055
3.990,0.160,-0.055
3.992,0.185,-0.050
3.994,0.190,-0.050
3.996,0.220,-0.045
3.998,0.245,-0.045
4.000,0.275,-0.045
4.002,0.290,-0.045
4.004,0.235,-0.045
4.006,0.200,-0.050
4.008,0.200,-0.055
4.010,0.195,-0.060
4.012,0.155,-0.065
4.014,0.155,-0.070
4.016,0.210,-0.065
4.018,0.260,-0.060
4.020,0.285,-0.050
4.022,0.320,-0.040
4.024,0.315,-0.025
4.026,0.265,-0.015
4.028,0.210,-0.010
4.030,0.210,-0.005
4.032,0.230,-0.010
4.034,0.260,-0.020
4.036,0.230,-0.030
4.038,0.200,-0.045
4.040,0.290,-0.060
4.042,0.270,-0.065
4.044,0.215,-0.070
4.046,0.200,-0.065
4.048,0.175,-0.055
4.050,0.220,-0.040
4.052,0.255,-0.020
4.054,0.260,-0.005
4.056,0.270,0.010
4.058,0.310,0.015
4.060,0.310,0.015
4.062,0.300,0.015
4.064,0.260,0.005
4.066,0.265,-0.010
4.068,0.235,-0.020
4.070,0.210,-0.035
4.072,0.180,-0.040
4.074,0.205,-0.045
4.076,0.200,-0.050
4.078,0.270,-0.045
4.080,0.270,-0.045
4.082,0.250,-0.045
4.084,0.255,-0.045
4.086,0.265,-0.050
4.088,0.180,-0.050
4.090,0.140,-0.055
4.092,0.170,-0.060
4.094,0.215,-0.060
4.096,0.210,-0.060
4.098,0.270,-0.055
4.100,0.300,-0.050
4.102,0.305,-0.040
4.104,0.270,-0.035
4.106,0.245,-0.025
4.108,0.185,-0.020
4.110,0.200,-0.015
4.112,0.205,-0.015
4.114,0.215,-0.015
4.116,0.235,-0.015
4.118,0.300,-0.015
4.120,0.320,-0.020
4.122,0.300,-0.020
4.124,0.285,-0.025
4.126,0.240,-0.025
4.128,0.150,-0.030
4.130,0.170,-0.030
4.132,0.220,-0.030
4.134,0.295,-0.025
4.136,0.290,-0.020
4.138,0.325,-0.015
4.140,0.285,-0.010
4.142,0.300,0.000
4.144,0.290,0.005
4.146,0.255,0.015
4.148,0.260,0.015
4.150,0.290,0.020
4.152,0.275,0.015
4.154,0.265,0.015
4.156,0.290,0.010
4.158,0.325,0.005
4.160,0.305,0.005
4.162,0.310,0.005
4.164,0.305,0.010
4.166,0.320,0.015
4.168,0.280,0.020
4.170,0.280,0.025
4.172,0.265,0.030
4.174,0.260,0.025
4.176,0.265,0.020
4.178,0.265,0.010
4.180,0.245,0.000
4.182,0.255,-0.015
4.184,0.260,-0.025
4.186,0.255,-0.035
4.188,0.200,-0.045
4.190,0.185,-0.050
4.192,0.190,-0.050
4.194,0.195,-0.045
4.196,0.250,-0.040
4.198,0.280,-0.040
4.200,0.275,-0.035
4.202,0.300,-0.035
4.204,0.230,-0.040
4.206,0.185,-0.045
4.208,0.195,-0.050
4.210,0.220,-0.060
4.212,0.160,-0.065
4.214,0.165,-0.070
4.216,0.215,-0.075
4.218,0.250,-0.080
4.220,0.235,-0.075
4.222,0.230,-0.075
4.224,0.230,-0.070
4.226,0.205,-0.065
4.228,0.165,-0.060
4.230,0.185,-0.055
4.232,0.155,-0.055
4.234,0.195,-0.055
4.236,0.215,-0.055
4.238,0.285,-0.055
4.240,0.255,-0.055
4.242,0.260,-0.055
4.244,0.230,-0.055
4.246,0.185,-0.055
4.248,0.135,-0.055
4.250,0.185,-0.055
4.252,0.205,-0.060
4.254,0.195,-0.060
4.256,0.200,-0.065
4.258,0.220,-0.065
4.260,0.235,-0.070
4.262,0.265,-0.070
4.264,0.230,-0.070
4.266,0.215,-0.070
4.268,0.190,-0.065
4.270,0.185,-0.065
4.272,0.210,-0.060
4.274,0.190,-0.050
4.276,0.235,-0.045
4.278,0.300,-0.035
4.280,0.275,-0.025
4.282,0.250,-0.010
4.284,0.275,0.000
4.286,0.285,0.010
4.288,0.275,0.015
4.290,0.285,0.015
4.292,0.270,0.010
4.294,0.255,0.000
4.296,0.270,-0.010
4.298,0.215,-0.015
4.300,0.275,-0.020
4.302,0.300,-0.015
4.304,0.325,0.005
4.306,0.335,0.030
4.308,0.340,0.060
4.310,0.385,0.085
4.312,0.395,0.110
4.314,0.375,0.120
4.316,0.360,0.110
4.318,0.355,0.085
4.320,0.305,0.045
4.322,0.270,-0.010
4.324,0.225,-0.065
4.326,0.140,-0.125
4.328,0.050,-0.175
4.330,-0.005,-0.210
4.332,-0.020,-0.225
4.334,0.005,-0.230
4.336,0.100,-0.215
4.338,0.130,-0.195
4.340,0.130,-0.165
4.342,0.185,-0.135
4.344,0.205,-0.105
4.346,0.200,-0.080
4.348,0.220,-0.060
4.350,0.195,-0.045
4.352,0.220,-0.035
4.354,0.235,-0.030
4.356,0.265,-0.025
4.358,0.275,-0.025
4.360,0.255,-0.030
4.362,0.260,-0.030
4.364,0.240,-0.035
4.366,0.195,-0.040
4.368,0.175,-0.040
4.370,0.205,-0.040
4.372,0.200,-0.040
4.374,0.195,-0.040
4.376,0.260,-0.035
4.378,0.280,-0.035
4.380,0.250,-0.040
4.382,0.265,-0.045
4.384,0.240,-0.050
4.386,0.165,-0.055
4.388,0.130,-0.060
4.390,0.165,-0.060
4.392,0.205,-0.060
4.394,0.220,-0.055
4.396,0.275,-0.045
4.398,0.275,-0.035
4.400,0.290,-0.025
4.402,0.305,-0.015
4.404,0.280,-0.010
4.406,0.215,-0.005
4.408,0.185,-0.005
4.410,0.180,-0.010
4.412,0.230,-0.015
4.414,0.260,-0.025
4.416,0.295,-0.030
4.418,0.270,-0.040
4.420,0.270,-0.045
4.422,0.255,-0.045
4.424,0.240,-0.045
4.426,0.225,-0.045
4.428,0.210,-0.040
4.430,0.195,-0.035
4.432,0.220,-0.035
4.434,0.265,-0.030
4.436,0.285,-0.025
4.438,0.245,-0.020
4.440,0.300,-0.015
4.442,0.285,-0.015
4.444,0.275,-0.010
4.446,0.215,-0.005
4.448,0.230,0.000
4.450,0.220,0.000
4.452,0.265,0.005
4.454,0.275,0.005
4.456,0.335,0.005
4.458,0.305,0.005
4.460,0.305,0.005
4.462,0.275,0.010
4.464,0.275,0.015
4.466,0.235,0.020
4.468,0.285,0.030
4.470,0.305,0.040
4.472,0.305,0.050
4.474,0.310,0.055
4.476,0.365,0.055
4.478,0.385,0.055
4.480,0.335,0.050
4.482,0.325,0.045
4.484,0.290,0.045
4.486,0.280,0.045
4.488,0.310,0.045
4.490,0.300,0.055
4.492,0.320,0.065
4.494,0.365,0.075
4.496,0.405,0.090
4.498,0.440,0.100
4.500,0.445,0.115
4.502,0.395,0.125
4.504,0.390,0.130
4.506,0.350,0.135
4.508,0.365,0.135
4.510,0.370,0.135
4.512,0.375,0.140
4.514,0.430,0.145
4.516,0.490,0.150
4.518,0.490,0.160
4.520,0.500,0.170
4.522,0.420,0.180
4.524,0.420,0.190
4.526,0.450,0.195
4.528,0.455,0.200
4.530,0.435,0.200
4.532,0.430,0.200
4.534,0.470,0.195
4.536,0.535,0.195
4.538,0.495,0.190
4.540,0.495,0.190
4.542,0.485,0.190
4.544,0.450,0.195
4.546,0.395,0.205
4.548,0.440,0.210
4.550,0.460,0.220
4.552,0.470,0.225
4.554,0.500,0.225
4.556,0.540,0.220
4.558,0.520,0.215
4.560,0.495,0.205
4.562,0.450,0.195
4.564,0.380,0.185
4.566,0.340,0.175
4.568,0.405,0.165
4.570,0.420,0.155
4.572,0.400,0.145
4.574,0.405,0.140
4.576,0.420,0.130
4.578,0.380,0.120
4.580,0.400,0.110
4.582,0.370,0.095
4.584,0.300,0.085
4.586,0.275,0.070
4.588,0.295,0.060
4.590,0.290,0.045
4.592,0.285,0.035
4.594,0.320,0.025
4.596,0.295,0.015
4.598,0.320,0.010
4.600,0.275,0.005
4.602,0.240,0.000
4.604,0.240,-0.005
4.606,0.265,-0.005
4.608,0.220,-0.005
4.610,0.240,-0.005
4.612,0.245,-0.005
4.614,0.285,-0.005
4.616,0.290,-0.010
4.618,0.290,-0.005
4.620,0.285,-0.005
4.622,0.260,-0.010
4.624,0.215,-0.010
4.626,0.220,-0.010
4.628,0.210,-0.015
4.630,0.250,-0.020
4.632,0.205,-0.020
4.634,0.230,-0.025
4.636,0.260,-0.025
4.638,0.270,-0.025
4.640,0.260,-0.025
4.642,0.250,-0.020
4.644,0.255,-0.015
4.646,0.215,-0.015
4.648,0.190,-0.015
4.650,0.240,-0.015
4.652,0.225,-0.020
4.654,0.260,-0.030
4.656,0.220,-0.035
4.658,0.275,-0.040
4.660,0.275,-0.040
4.662,0.225,-0.040
4.664,0.190,-0.035
4.666,0.200,-0.025
4.668,0.185,-0.020
4.670,0.255,-0.010
4.672,0.225,-0.005
4.674,0.265,-0.005
4.676,0.300,-0.005
4.678,0.290,-0.010
4.680,0.240,-0.015
4.682,0.235,-0.020
4.684,0.195,-0.025
4.686,0.225,-0.025
4.688,0.230,-0.020
4.690,0.235,-0.020
4.692,0.230,-0.015
4.694,0.270,-0.015
4.696,0.240,-0.015
4.698,0.260,-0.020
4.700,0.275,-0.025
4.702,0.290,-0.025
4.704,0.230,-0.030
4.706,0.210,-0.030
4.708,0.205,-0.025
4.710,0.240,-0.020
4.712,0.270,-0.015
4.714,0.250,-0.010
4.716,0.250,0.000
4.718,0.270,0.000
4.720,0.320,0.005
4.722,0.285,0.005
4.724,0.200,0.005
4.726,0.220,0.000
4.728,0.265,0.000
4.730,0.265,-0.005
4.732,0.255,-0.005
4.734,0.265,-0.010
4.736,0.270,-0.010
4.738,0.295,-0.010
4.740,0.275,-0.010
4.742,0.230,-0.010
4.744,0.200,-0.010
4.746,0.195,-0.010
4.748,0.235,-0.010
4.750,0.275,-0.010
4.752,0.275,-0.010
4.754,0.290,-0.010
4.756,0.310,-0.010
4.758,0.285,-0.010
4.760,0.260,-0.010
4.762,0.205,-0.010
4.764,0.160,-0.005
4.766,0.205,-0.005
4.768,0.215,-0.005
4.770,0.270,-0.005
4.772,0.260,-0.005
4.774,0.320,-0.010
4.776,0.300,-0.015
4.778,0.250,-0.025
4.780,0.220,-0.030
4.782,0.200,-0.035
4.784,0.185,-0.035
4.786,0.220,-0.030
4.788,0.250,-0.025
4.790,0.255,-0.020
4.792,0.230,-0.010
4.794,0.255,-0.005
4.796,0.305,0.000
4.798,0.325,0.000
4.800,0.260,-0.005
4.802,0.210,-0.010
4.804,0.200,-0.020
4.806,0.165,-0.030
4.808,0.190,-0.040
4.810,0.230,-0.045
4.812,0.270,-0.045
4.814,0.295,-0.040
4.816,0.265,-0.035
4.818,0.250,-0.025
4.820,0.245,-0.020
4.822,0.230,-0.015
4.824,0.205,-0.010
4.826,0.205,-0.015
4.828,0.190,-0.015
4.830,0.220,-0.020
4.832,0.270,-0.025
4.834,0.335,-0.025
4.836,0.280,-0.025
4.838,0.265,-0.020
4.840,0.255,-0.015
4.842,0.225,-0.005
4.844,0.235,0.000
4.846,0.260,0.005
4.848,0.230,0.010
4.850,0.245,0.010
4.852,0.275,0.010
4.854,0.265,0.010
4.856,0.300,0.005
4.858,0.280,0.010
4.860,0.260,0.010
4.862,0.265,0.015
4.864,0.230,0.025
4.866,0.270,0.030
4.868,0.295,0.040
4.870,0.305,0.045
4.872,0.305,0.045
4.874,0.335,0.050
4.876,0.315,0.050
4.878,0.260,0.045
4.880,0.305,0.045
4.882,0.290,0.045
4.884,0.250,0.045
4.886,0.250,0.045
4.888,0.280,0.050
4.890,0.295,0.050
4.892,0.340,0.055
4.894,0.385,0.055
4.896,0.345,0.055
4.898,0.335,0.055
4.900,0.325,0.050
4.902,0.280,0.045
4.904,0.250,0.035
4.906,0.190,0.025
4.908,0.200,0.015
4.910,0.230,0.005
4.912,0.245,-0.005
4.914,0.290,-0.015
4.916,0.290,-0.020
4.918,0.260,-0.025
4.920,0.225,-0.025
4.922,0.180,-0.030
4.924,0.150,-0.030
4.926,0.165,-0.030
4.928,0.230,-0.030
4.930,0.235,-0.035
4.932,0.240,-0.035
4.934,0.240,-0.040
4.936,0.240,-0.050
4.938,0.225,-0.055
4.940,0.210,-0.055
4.942,0.185,-0.060
4.944,0.115,-0.060
4.946,0.145,-0.060
4.948,0.195,-0.055
4.950,0.190,-0.050
4.952,0.265,-0.045
4.954,0.230,-0.045
4.956,0.200,-0.040
4.958,0.210,-0.040
4.960,0.260,-0.040
4.962,0.255,-0.045
4.964,0.155,-0.045
4.966,0.165,-0.045
4.968,0.175,-0.045
4.970,0.185,-0.040
4.972,0.250,-0.040
4.974,0.260,-0.035
4.976,0.255,-0.035
4.978,0.220,-0.030
4.980,0.245,-0.030
4.982,0.185,-0.035
4.984,0.185,-0.035
4.986,0.175,-0.035
4.988,0.205,-0.035
4.990,0.190,-0.035
4.992,0.240,-0.030
4.994,0.230,-0.030
4.996,0.290,-0.020
4.998,0.265,-0.015
5.000,0.235,-0.010
5.002,0.190,0.000
5.004,0.200,0.010
5.006,0.225,0.025
5.008,0.260,0.035
5.010,0.310,0.045
5.012,0.390,0.050
5.014,0.380,0.055
5.016,0.360,0.050
5.018,0.310,0.050
5.020,0.270,0.045
5.022,0.200,0.040
5.024,0.205,0.035
5.026,0.225,0.040
5.028,0.270,0.050
5.030,0.350,0.065
5.032,0.460,0.090
5.034,0.460,0.110
5.036,0.460,0.130
5.038,0.420,0.140
5.040,0.340,0.135
5.042,0.260,0.115
5.044,0.215,0.080
5.046,0.175,0.030
5.048,0.215,-0.030
5.050,0.190,-0.085
5.052,0.140,-0.140
5.054,0.090,-0.180
5.056,0.070,-0.200
5.058,0.050,-0.205
5.060,0.040,-0.195
5.062,0.030,-0.170
5.064,0.105,-0.140
5.066,0.090,-0.110
5.068,0.180,-0.085
5.070,0.230,-0.065
5.072,0.265,-0.050
5.074,0.210,-0.045
5.076,0.240,-0.045
5.078,0.205,-0.045
5.080,0.170,-0.045
5.082,0.195,-0.040
5.084,0.210,-0.030
5.086,0.220,-0.020
5.088,0.185,-0.010
5.090,0.240,-0.005
5.092,0.260,0.000
5.094,0.260,-0.005
5.096,0.265,-0.010
5.098,0.255,-0.020
5.100,0.200,-0.030
5.102,0.130,-0.040
5.104,0.150,-0.050
5.106,0.175,-0.055
5.108,0.195,-0.055
5.110,0.225,-0.055
5.112,0.250,-0.050
5.114,0.270,-0.045
5.116,0.265,-0.040
5.118,0.245,-0.035
5.120,0.210,-0.030
5.122,0.190,-0.025
5.124,0.205,-0.020
5.126,0.200,-0.015
5.128,0.220,-0.010
5.130,0.225,-0.005
5.132,0.275,0.000
5.134,0.285,0.000
5.136,0.270,0.000
5.138,0.225,-0.005
5.140,0.185,-0.015
5.142,0.165,-0.020
5.144,0.165,-0.025
5.146,0.160,-0.030
5.148,0.230,-0.025
5.150,0.310,-0.015
5.152,0.310,-0.005
5.154,0.270,0.005
5.156,0.275,0.020
5.158,0.270,0.030
5.160,0.240,0.035
5.162,0.215,0.035
5.164,0.240,0.030
5.166,0.265,0.025
5.168,0.235,0.015
5.170,0.270,0.010
5.172,0.310,0.005
5.174,0.330,0.005
5.176,0.285,0.005
5.178,0.280,0.010
5.180,0.245,0.015
5.182,0.205,0.020
5.184,0.180,0.020
5.186,0.215,0.015
5.188,0.225,0.015
5.190,0.275,0.010
5.192,0.325,0.015
5.194,0.330,0.015
5.196,0.300,0.025
5.198,0.285,0.035
5.200,0.275,0.050
5.202,0.315,0.060
5.204,0.255,0.070
5.206,0.265,0.070
5.208,0.305,0.070
5.210,0.340,0.065
5.212,0.315,0.055
5.214,0.310,0.050
5.216,0.320,0.045
5.218,0.295,0.045
5.220,0.295,0.050
5.222,0.305,0.065
5.224,0.320,0.075
5.226,0.360,0.095
5.228,0.350,0.110
5.230,0.355,0.125
5.232,0.400,0.135
5.234,0.390,0.145
5.236,0.420,0.155
5.238,0.450,0.160
5.240,0.390,0.165
5.242,0.360,0.170
5.244,0.350,0.175
5.246,0.410,0.175
5.248,0.385,0.175
5.250,0.440,0.175
5.252,0.485,0.175
5.254,0.470,0.180
5.256,0.425,0.180
5.258,0.425,0.185
5.260,0.390,0.190
5.262,0.410,0.195
5.264,0.375,0.205
5.266,0.445,0.210
5.268,0.450,0.215
5.270,0.490,0.215
5.272,0.485,0.210
5.274,0.480,0.205
5.276,0.470,0.200
5.278,0.410,0.190
5.280,0.365,0.185
5.282,0.375,0.175
5.284,0.385,0.175
5.286,0.400,0.170
5.288,0.415,0.165
5.290,0.440,0.165
5.292,0.420,0.160
5.294,0.400,0.150
5.296,0.415,0.140
5.298,0.345,0.130
5.300,0.315,0.115
5.302,0.315,0.105
5.304,0.270,0.095
5.306,0.305,0.085
5.308,0.350,0.075
5.310,0.365,0.070
5.312,0.350,0.060
5.314,0.335,0.055
5.316,0.310,0.050
5.318,0.255,0.045
5.320,0.200,0.035
5.322,0.190,0.030
5.324,0.195,0.020
5.326,0.240,0.010
5.328,0.255,0.000
5.330,0.270,-0.005
5.332,0.250,-0.015
5.334,0.230,-0.025
5.336,0.230,-0.030
5.338,0.215,-0.035
5.340,0.170,-0.035
5.342,0.175,-0.035
5.344,0.145,-0.035
5.346,0.195,-0.035
5.348,0.200,-0.030
5.350,0.255,-0.035
5.352,0.255,-0.035
5.354,0.245,-0.035
5.356,0.190,-0.040
5.358,0.210,-0.045
5.360,0.130,-0.045
5.362,0.160,-0.040
5.364,0.170,-0.035
5.366,0.180,-0.030
5.368,0.185,-0.025
5.370,0.240,-0.020
5.372,0.250,-0.020
5.374,0.250,-0.020
5.376,0.220,-0.020
5.378,0.215,-0.025
5.380,0.160,-0.030
5.382,0.140,-0.035
5.384,0.175,-0.040
5.386,0.225,-0.045
5.388,0.215,-0.045
5.390,0.195,-0.040
5.392,0.225,-0.040
5.394,0.235,-0.040
5.396,0.210,-0.040
5.398,0.170,-0.040
5.400,0.160,-0.045
5.402,0.160,-0.050
5.404,0.170,-0.055
5.406,0.160,-0.055
5.408,0.190,-0.055
5.410,0.175,-0.055
5.412,0.240,-0.055
5.414,0.255,-0.050
5.416,0.220,-0.045
5.418,0.155,-0.045
5.420,0.140,-0.040
5.422,0.190,-0.040
5.424,0.175,-0.040
5.426,0.160,-0.040
5.428,0.150,-0.045
5.430,0.220,-0.045
5.432,0.250,-0.045
5.434,0.245,-0.045
5.436,0.245,-0.045
5.438,0.185,-0.040
5.440,0.170,-0.040
5.442,0.165,-0.040
5.444,0.190,-0.040
5.446,0.180,-0.040
5.448,0.205,-0.035
5.450,0.255,-0.035
5.452,0.235,-0.035
5.454,0.230,-0.030
5.456,0.215,-0.030
5.458,0.205,-0.025
5.460,0.210,-0.020
5.462,0.180,-0.015
5.464,0.175,-0.015
5.466,0.220,-0.015
5.468,0.250,-0.015
5.470,0.250,-0.020
5.472,0.255,-0.025
5.474,0.220,-0.030
5.476,0.185,-0.035
5.478,0.180,-0.040
5.480,0.190,-0.040
5.482,0.165,-0.040
5.484,0.195,-0.035
5.486,0.220,-0.030
5.488,0.235,-0.025
5.490,0.215,-0.025
5.492,0.240,-0.025
5.494,0.230,-0.025
5.496,0.205,-0.030
5.498,0.200,-0.035
5.500,0.180,-0.045
5.502,0.115,-0.050
5.504,0.185,-0.050
5.506,0.160,-0.050
5.508,0.200,-0.050
5.510,0.240,-0.045
5.512,0.230,-0.040
5.514,0.185,-0.040
5.516,0.230,-0.040
5.518,0.195,-0.040
5.520,0.120,-0.050
5.522,0.145,-0.055
5.524,0.170,-0.065
5.526,0.135,-0.070
5.528,0.190,-0.070
5.530,0.230,-0.065
5.532,0.250,-0.060
5.534,0.265,-0.055
5.536,0.210,-0.045
5.538,0.155,-0.040
5.540,0.135,-0.035
5.542,0.105,-0.040
5.544,0.135,-0.040
5.546,0.200,-0.045
5.548,0.220,-0.050
5.550,0.245,-0.050
5.552,0.290,-0.050
5.554,0.225,-0.045
5.556,0.195,-0.035
5.558,0.165,-0.030
5.560,0.180,-0.025
5.562,0.160,-0.025
5.564,0.190,-0.030
5.566,0.185,-0.040
5.568,0.230,-0.050
5.570,0.220,-0.060
5.572,0.230,-0.070
5.574,0.160,-0.080
5.576,0.145,-0.080
5.578,0.130,-0.075
5.580,0.155,-0.065
5.582,0.180,-0.050
5.584,0.190,-0.040
5.586,0.230,-0.025
5.588,0.270,-0.015
5.590,0.235,-0.010
5.592,0.250,-0.010
5.594,0.230,-0.015
5.596,0.210,-0.025
5.598,0.165,-0.035
5.600,0.185,-0.045
5.602,0.130,-0.050
5.604,0.160,-0.050
5.606,0.195,-0.050
5.608,0.270,-0.045
5.610,0.260,-0.040
5.612,0.230,-0.030
5.614,0.205,-0.025
5.616,0.190,-0.020
5.618,0.160,-0.020
5.620,0.150,-0.020
5.622,0.190,-0.020
5.624,0.255,-0.020
5.626,0.260,-0.025
5.628,0.240,-0.020
5.630,0.210,-0.020
5.632,0.200,-0.010
5.634,0.225,0.000
5.636,0.275,0.010
5.638,0.265,0.020
5.640,0.280,0.030
5.642,0.245,0.040
5.644,0.215,0.045
5.646,0.285,0.045
5.648,0.295,0.045
5.650,0.275,0.040
5.652,0.285,0.030
5.654,0.280,0.020
5.656,0.250,0.010
5.658,0.165,0.005
5.660,0.195,-0.005
5.662,0.190,-0.005
5.664,0.245,-0.005
5.666,0.255,-0.005
5.668,0.265,-0.005
5.670,0.275,0.000
5.672,0.260,-0.005
5.674,0.230,-0.005
5.676,0.170,-0.015
5.678,0.145,-0.030
5.680,0.145,-0.040
5.682,0.150,-0.055
5.684,0.110,-0.070
5.686,0.175,-0.080
5.688,0.245,-0.080
5.690,0.220,-0.080
5.692,0.205,-0.070
5.694,0.195,-0.055
5.696,0.205,-0.045
5.698,0.185,-0.035
5.700,0.165,-0.025
5.702,0.175,-0.025
5.704,0.175,-0.030
5.706,0.170,-0.035
5.708,0.225,-0.045
5.710,0.210,-0.055
5.712,0.200,-0.065
5.714,0.180,-0.070
5.716,0.175,-0.070
5.718,0.145,-0.070
5.720,0.155,-0.060
5.722,0.140,-0.055
5.724,0.150,-0.050
5.726,0.195,-0.050
5.728,0.240,-0.050
5.730,0.255,-0.055
5.732,0.205,-0.060
5.734,0.185,-0.070
5.736,0.105,-0.075
5.738,0.095,-0.080
5.740,0.125,-0.080
5.742,0.155,-0.080
5.744,0.175,-0.075
5.746,0.215,-0.065
5.748,0.225,-0.060
5.750,0.240,-0.050
5.752,0.240,-0.050
5.754,0.205,-0.045
5.756,0.135,-0.050
5.758,0.125,-0.050
5.760,0.105,-0.055
5.762,0.135,-0.055
5.764,0.185,-0.050
5.766,0.220,-0.040
5.768,0.305,-0.025
5.770,0.300,-0.005
5.772,0.280,0.010
5.774,0.285,0.030
5.776,0.265,0.045
5.778,0.250,0.050
5.780,0.250,0.050
5.782,0.260,0.045
5.784,0.270,0.040
5.786,0.255,0.030
5.788,0.285,0.025
5.790,0.295,0.025
5.792,0.255,0.035
5.794,0.290,0.050
5.796,0.355,0.070
5.798,0.370,0.090
5.800,0.315,0.105
5.802,0.325,0.115
5.804,0.315,0.105
5.806,0.305,0.090
5.808,0.265,0.055
5.810,0.230,0.010
5.812,0.205,-0.040
5.814,0.165,-0.090
5.816,0.060,-0.135
5.818,0.010,-0.170
5.820,-0.005,-0.195
5.822,0.010,-0.205
5.824,-0.010,-0.200
5.826,0.065,-0.190
5.828,0.120,-0.170
5.830,0.155,-0.145
5.832,0.145,-0.120
5.834,0.145,-0.100
5.836,0.140,-0.080
5.838,0.180,-0.065
5.840,0.130,-0.050
5.842,0.195,-0.040
5.844,0.175,-0.030
5.846,0.220,-0.030
5.848,0.225,-0.030
5.850,0.220,-0.030
5.852,0.230,-0.035
5.854,0.200,-0.040
5.856,0.140,-0.045
5.858,0.160,-0.045
5.860,0.140,-0.045
5.862,0.170,-0.045
5.864,0.250,-0.040
5.866,0.250,-0.035
5.868,0.180,-0.030
5.870,0.240,-0.025
5.872,0.210,-0.020
5.874,0.175,-0.020
5.876,0.160,-0.020
5.878,0.185,-0.025
5.880,0.180,-0.025
5.882,0.175,-0.025
5.884,0.190,-0.025
5.886,0.255,-0.025
5.888,0.240,-0.025
5.890,0.235,-0.025
5.892,0.255,-0.030
5.894,0.205,-0.030
5.896,0.135,-0.030
5.898,0.170,-0.030
5.900,0.170,-0.030
5.902,0.185,-0.030
5.904,0.180,-0.025
5.906,0.240,-0.025
5.908,0.250,-0.020
5.910,0.245,-0.020
5.912,0.250,-0.020
5.914,0.200,-0.025
5.916,0.125,-0.030
5.918,0.140,-0.030
5.920,0.210,-0.030
5.922,0.205,-0.030
5.924,0.205,-0.020
5.926,0.235,-0.015
5.928,0.285,-0.010
5.930,0.270,-0.005
5.932,0.250,-0.005
5.934,0.200,-0.010
5.936,0.200,-0.015
5.938,0.200,-0.025
5.940,0.145,-0.040
5.942,0.170,-0.045
5.944,0.205,-0.050
5.946,0.240,-0.050
5.948,0.255,-0.045
5.950,0.260,-0.030
5.952,0.260,-0.015
5.954,0.220,-0.005
5.956,0.190,0.010
5.958,0.195,0.015
5.960,0.200,0.020
5.962,0.240,0.015
5.964,0.285,0.015
5.966,0.300,0.010
5.968,0.315,0.010
5.970,0.255,0.010
5.972,0.260,0.015
5.974,0.220,0.025
5.976,0.205,0.035
5.978,0.245,0.040
5.980,0.260,0.045
5.982,0.275,0.050
5.984,0.280,0.050
5.986,0.300,0.050
5.988,0.320,0.050
5.990,0.330,0.050
5.992,0.320,0.060
5.994,0.305,0.070
5.996,0.300,0.080
5.998,0.320,0.095
6.000,0.330,0.110
6.002,0.305,0.120
6.004,0.395,0.130
6.006,0.420,0.135
6.008,0.445,0.135
6.010,0.355,0.135
6.012,0.375,0.135
6.014,0.340,0.135
6.016,0.360,0.140
6.018,0.325,0.150
6.020,0.375,0.155
6.022,0.405,0.165
6.024,0.445,0.175
6.026,0.430,0.175
6.028,0.455,0.175
6.030,0.445,0.175
6.032,0.420,0.170
6.034,0.365,0.165
6.036,0.355,0.165
6.038,0.325,0.160
6.040,0.370,0.160
6.042,0.375,0.160
6.044,0.390,0.160
6.046,0.430,0.160
6.048,0.425,0.155
6.050,0.410,0.150
6.052,0.400,0.145
6.054,0.320,0.135
6.056,0.295,0.125
6.058,0.280,0.110
6.060,0.300,0.100
6.062,0.290,0.090
6.064,0.305,0.080
6.066,0.355,0.070
6.068,0.390,0.065
6.070,0.305,0.055
6.072,0.265,0.045
6.074,0.250,0.035
6.076,0.250,0.025
6.078,0.205,0.015
6.080,0.155,0.005
6.082,0.190,0.000
6.084,0.255,-0.010
6.086,0.245,-0.015
6.088,0.260,-0.015
6.090,0.245,-0.015
6.092,0.205,-0.020
6.094,0.155,-0.020
6.096,0.100,-0.025
6.098,0.095,-0.030
6.100,0.205,-0.035
6.102,0.175,-0.040
6.104,0.195,-0.050
6.106,0.250,-0.055
6.108,0.230,-0.060
6.110,0.180,-0.060
6.112,0.155,-0.060
6.114,0.160,-0.060
6.116,0.110,-0.060
6.118,0.110,-0.060
6.120,0.160,-0.060
6.122,0.185,-0.060
6.124,0.190,-0.065
6.126,0.165,-0.075
6.128,0.170,-0.080
6.130,0.145,-0.090
6.132,0.145,-0.095
6.134,0.105,-0.100
6.136,0.100,-0.100
6.138,0.065,-0.095
6.140,0.130,-0.090
6.142,0.165,-0.085
6.144,0.195,-0.075
6.146,0.150,-0.065
6.148,0.210,-0.060
6.150,0.210,-0.055
6.152,0.170,-0.055
6.154,0.125,-0.060
6.156,0.130,-0.065
6.158,0.100,-0.070
6.160,0.095,-0.075
6.162,0.150,-0.080
6.164,0.205,-0.080
6.166,0.200,-0.075
6.168,0.190,-0.070
6.170,0.190,-0.060
6.172,0.150,-0.050
6.174,0.105,-0.045
6.176,0.160,-0.040
6.178,0.140,-0.040
6.180,0.125,-0.050
6.182,0.160,-0.060
6.184,0.200,-0.070
6.186,0.190,-0.080
6.188,0.190,-0.085
6.190,0.165,-0.085
6.192,0.125,-0.085
6.194,0.140,-0.080
6.196,0.130,-0.070
6.198,0.120,-0.060
6.200,0.160,-0.055
6.202,0.200,-0.050
6.204,0.215,-0.055
6.206,0.170,-0.060
6.208,0.145,-0.065
6.210,0.150,-0.075
6.212,0.115,-0.080
6.214,0.125,-0.080
6.216,0.125,-0.080
6.218,0.135,-0.075
6.220,0.130,-0.065
6.222,0.195,-0.050
6.224,0.230,-0.040
6.226,0.235,-0.030
6.228,0.215,-0.025
6.230,0.185,-0.025
6.232,0.160,-0.030
6.234,0.130,-0.035
6.236,0.115,-0.045
6.238,0.125,-0.050
6.240,0.115,-0.060
6.242,0.180,-0.065
6.244,0.200,-0.065
6.246,0.200,-0.065
6.248,0.175,-0.060
6.250,0.180,-0.055
6.252,0.140,-0.050
6.254,0.085,-0.045
6.256,0.155,-0.045
6.258,0.170,-0.045
6.260,0.140,-0.045
6.262,0.170,-0.050
6.264,0.180,-0.055
6.266,0.140,-0.065
6.268,0.125,-0.070
6.270,0.190,-0.075
6.272,0.180,-0.080
6.274,0.115,-0.080
6.276,0.085,-0.085
6.278,0.100,-0.080
6.280,0.115,-0.080
6.282,0.200,-0.075
6.284,0.205,-0.070
6.286,0.200,-0.060
6.288,0.190,-0.055
6.290,0.170,-0.050
6.292,0.125,-0.045
6.294,0.125,-0.045
6.296,0.120,-0.045
6.298,0.130,-0.045
6.300,0.165,-0.050
6.302,0.210,-0.055
6.304,0.205,-0.060
6.306,0.195,-0.060
6.308,0.185,-0.060
6.310,0.150,-0.060
6.312,0.130,-0.055
6.314,0.110,-0.055
6.316,0.095,-0.050
6.318,0.130,-0.050
6.320,0.120,-0.050
6.322,0.230,-0.050
6.324,0.235,-0.050
6.326,0.245,-0.050
6.328,0.160,-0.050
6.330,0.155,-0.050
6.332,0.175,-0.050
6.334,0.160,-0.045
6.336,0.110,-0.045
6.338,0.130,-0.050
6.340,0.140,-0.055
6.342,0.195,-0.060
6.344,0.165,-0.065
6.346,0.215,-0.070
6.348,0.160,-0.075
6.350,0.150,-0.075
6.352,0.090,-0.070
6.354,0.105,-0.060
6.356,0.145,-0.050
6.358,0.150,-0.045
6.360,0.130,-0.035
6.362,0.240,-0.035
6.364,0.220,-0.035
6.366,0.230,-0.035
6.368,0.165,-0.040
6.370,0.165,-0.045
6.372,0.125,-0.045
6.374,0.140,-0.045
6.376,0.130,-0.045
6.378,0.165,-0.040
6.380,0.195,-0.035
6.382,0.215,-0.035
6.384,0.185,-0.035
6.386,0.210,-0.040
6.388,0.145,-0.045
6.390,0.140,-0.045
6.392,0.155,-0.040
6.394,0.175,-0.035
6.396,0.175,-0.025
6.398,0.220,-0.015
6.400,0.225,0.000
6.402,0.255,0.015
6.404,0.265,0.025
6.406,0.300,0.030
6.408,0.245,0.030
6.410,0.245,0.030
6.412,0.190,0.020
6.414,0.140,0.010
6.416,0.175,0.000
6.418,0.175,-0.015
6.420,0.170,-0.025
6.422,0.170,-0.030
6.424,0.190,-0.035
6.426,0.195,-0.040
6.428,0.210,-0.040
6.430,0.175,-0.040
6.432,0.155,-0.040
6.434,0.135,-0.040
6.436,0.100,-0.035
6.438,0.130,-0.035
6.440,0.185,-0.030
6.442,0.200,-0.030
6.444,0.200,-0.030
6.446,0.185,-0.035
6.448,0.160,-0.040
6.450,0.125,-0.045
6.452,0.090,-0.055
6.454,0.105,-0.060
6.456,0.095,-0.070
6.458,0.090,-0.075
6.460,0.140,-0.075
6.462,0.205,-0.075
6.464,0.190,-0.070
6.466,0.180,-0.060
6.468,0.140,-0.055
6.470,0.155,-0.045
6.472,0.140,-0.035
6.474,0.125,-0.030
6.476,0.140,-0.030
6.478,0.145,-0.030
6.480,0.160,-0.035
6.482,0.175,-0.045
6.484,0.145,-0.055
6.486,0.160,-0.070
6.488,0.160,-0.075
6.490,0.100,-0.085
6.492,0.075,-0.085
6.494,0.080,-0.080
6.496,0.110,-0.070
6.498,0.160,-0.060
6.500,0.195,-0.050
6.502,0.200,-0.040
6.504,0.195,-0.035
6.506,0.160,-0.035
6.508,0.145,-0.040
6.510,0.120,-0.050
6.512,0.135,-0.060
6.514,0.080,-0.070
6.516,0.045,-0.075
6.518,0.115,-0.075
6.520,0.160,-0.070
6.522,0.175,-0.055
6.524,0.225,-0.035
6.526,0.210,-0.015
6.528,0.200,0.005
6.530,0.185,0.020
6.532,0.195,0.030
6.534,0.230,0.035
6.536,0.225,0.035
6.538,0.235,0.025
6.540,0.270,0.015
6.542,0.245,0.010
6.544,0.170,0.010
6.546,0.160,0.015
6.548,0.205,0.030
6.550,0.185,0.050
6.552,0.270,0.080
6.554,0.355,0.110
6.556,0.365,0.135
6.558,0.340,0.145
6.560,0.345,0.145
6.562,0.315,0.130
6.564,0.270,0.095
6.566,0.210,0.050
6.568,0.155,-0.005
6.570,0.110,-0.060
6.572,0.045,-0.115
6.574,-0.040,-0.155
6.576,-0.035,-0.180
6.578,-0.045,-0.190
6.580,0.040,-0.185
6.582,0.040,-0.170
6.584,0.055,-0.150
6.586,0.110,-0.125
6.588,0.080,-0.100
6.590,0.100,-0.080
6.592,0.105,-0.065
6.594,0.095,-0.055
6.596,0.150,-0.045
6.598,0.170,-0.040
6.600,0.200,-0.030
6.602,0.165,-0.025
6.604,0.190,-0.020
6.606,0.185,-0.020
6.608,0.170,-0.020
6.610,0.140,-0.020
6.612,0.095,-0.030
6.614,0.060,-0.040
6.616,0.105,-0.050
6.618,0.100,-0.060
6.620,0.145,-0.065
6.622,0.190,-0.065
6.624,0.210,-0.060
6.626,0.170,-0.050
6.628,0.165,-0.040
6.630,0.100,-0.030
6.632,0.090,-0.020
6.634,0.125,-0.010
6.636,0.145,-0.010
6.638,0.125,-0.010
6.640,0.190,-0.010
6.642,0.195,-0.010
6.644,0.240,-0.015
6.646,0.215,-0.015
6.648,0.160,-0.015
6.650,0.145,-0.010
6.652,0.125,-0.005
6.654,0.130,0.000
6.656,0.165,0.000
6.658,0.185,0.000
6.660,0.210,0.000
6.662,0.220,0.000
6.664,0.245,-0.005
6.666,0.160,-0.010
6.668,0.150,-0.015
6.670,0.130,-0.015
6.672,0.135,-0.020
6.674,0.125,-0.020
6.676,0.120,-0.015
6.678,0.135,-0.015
6.680,0.210,-0.010
6.682,0.220,-0.005
6.684,0.220,0.000
6.686,0.210,0.005
6.688,0.200,0.010
6.690,0.165,0.015
6.692,0.160,0.020
6.694,0.140,0.025
6.696,0.160,0.025
6.698,0.210,0.025
6.700,0.235,0.025
6.702,0.210,0.025
6.704,0.205,0.025
6.706,0.190,0.025
6.708,0.175,0.030
6.710,0.155,0.035
6.712,0.175,0.040
6.714,0.185,0.045
6.716,0.225,0.050
6.718,0.240,0.055
6.720,0.245,0.060
6.722,0.210,0.065
6.724,0.245,0.070
6.726,0.230,0.070
6.728,0.245,0.075
6.730,0.225,0.075
6.732,0.200,0.080
6.734,0.200,0.080
6.736,0.200,0.085
6.738,0.255,0.090
6.740,0.285,0.095
6.742,0.300,0.095
6.744,0.335,0.100
6.746,0.275,0.105
6.748,0.265,0.110
6.750,0.235,0.115
6.752,0.235,0.120
6.754,0.270,0.125
6.756,0.290,0.130
6.758,0.310,0.140
6.760,0.355,0.145
6.762,0.365,0.150
6.764,0.365,0.160
6.766,0.380,0.165
6.768,0.305,0.170
6.770,0.290,0.175
6.772,0.315,0.185
6.774,0.315,0.190
6.776,0.375,0.200
6.778,0.410,0.210
6.780,0.425,0.220
6.782,0.400,0.225
6.784,0.365,0.230
6.786,0.390,0.235
6.788,0.340,0.230
6.790,0.320,0.225
6.792,0.315,0.220
6.794,0.320,0.210
6.796,0.335,0.200
6.798,0.340,0.190
6.800,0.375,0.180
6.802,0.355,0.175
6.804,0.360,0.175
6.806,0.375,0.175
6.808,0.325,0.180
6.810,0.305,0.185
6.812,0.325,0.185
6.814,0.300,0.185
6.816,0.280,0.180
6.818,0.315,0.165
6.820,0.350,0.150
6.822,0.320,0.135
6.824,0.290,0.115
6.826,0.275,0.095
6.828,0.180,0.080
6.830,0.185,0.070
6.832,0.195,0.065
6.834,0.230,0.060
6.836,0.190,0.060
6.838,0.220,0.065
6.840,0.240,0.065
6.842,0.275,0.065
6.844,0.255,0.060
6.846,0.190,0.055
6.848,0.120,0.050
6.850,0.090,0.040
6.852,0.130,0.035
6.854,0.150,0.030
6.856,0.170,0.025
6.858,0.160,0.020
6.860,0.175,0.015
6.862,0.195,0.010
6.864,0.165,0.010
6.866,0.155,0.005
6.868,0.160,0.000
6.870,0.120,0.000
6.872,0.085,-0.005
6.874,0.090,-0.005
6.876,0.110,0.000
6.878,0.180,0.005
6.880,0.240,0.010
6.882,0.215,0.020
6.884,0.175,0.025
6.886,0.125,0.025
6.888,0.075,0.025
6.890,0.145,0.020
6.892,0.090,0.010
6.894,0.130,0.000
6.896,0.095,-0.010
6.898,0.165,-0.020
6.900,0.165,-0.025
6.902,0.145,-0.025
6.904,0.120,-0.025
6.906,0.150,-0.020
6.908,0.085,-0.015
6.910,0.070,-0.005
6.912,0.090,0.000
6.914,0.110,0.005
6.916,0.130,0.010
6.918,0.150,0.010
6.920,0.155,0.010
6.922,0.135,0.005
6.924,0.175,0.005
6.926,0.155,0.000
6.928,0.060,0.000
6.930,0.050,-0.005
6.932,0.050,-0.005
6.934,0.125,-0.005
6.936,0.115,-0.005
6.938,0.185,0.000
6.940,0.175,0.005
6.942,0.190,0.010
6.944,0.145,0.015
6.946,0.145,0.020
6.948,0.110,0.025
6.950,0.120,0.030
6.952,0.110,0.030
6.954,0.115,0.030
6.956,0.155,0.025
6.958,0.175,0.025
6.960,0.150,0.020
6.962,0.130,0.020
6.964,0.190,0.020
6.966,0.160,0.025
6.968,0.125,0.025
6.970,0.120,0.030
6.972,0.090,0.035
6.974,0.095,0.035
6.976,0.120,0.035
6.978,0.190,0.035
6.980,0.230,0.030
6.982,0.200,0.025
6.984,0.190,0.025
6.986,0.150,0.020
6.988,0.120,0.020
6.990,0.105,0.020
6.992,0.070,0.020
6.994,0.095,0.020
6.996,0.095,0.020
6.998,0.190,0.020
7.000,0.220,0.020
7.002,0.190,0.020
7.004,0.160,0.020
7.006,0.140,0.020
7.008,0.115,0.025
7.010,0.105,0.030
7.012,0.110,0.035
7.014,0.165,0.040
7.016,0.215,0.045
7.018,0.220,0.055
7.020,0.180,0.060
7.022,0.190,0.060
7.024,0.190,0.060
7.026,0.140,0.060
7.028,0.115,0.055
7.030,0.145,0.050
7.032,0.105,0.045
7.034,0.105,0.045
7.036,0.215,0.040
7.038,0.175,0.040
7.040,0.170,0.040
7.042,0.180,0.045
7.044,0.155,0.045
7.046,0.130,0.050
7.048,0.085,0.050
7.050,0.100,0.050
7.052,0.115,0.050
7.054,0.140,0.050
7.056,0.195,0.045
7.058,0.260,0.040
7.060,0.185,0.035
7.062,0.170,0.030
7.064,0.110,0.030
7.066,0.095,0.025
7.068,0.100,0.025
7.070,0.125,0.030
7.072,0.105,0.030
7.074,0.115,0.035
7.076,0.160,0.035
7.078,0.180,0.035
7.080,0.170,0.030
7.082,0.175,0.030
7.084,0.160,0.025
7.086,0.090,0.020
7.088,0.085,0.015
7.090,0.090,0.010
7.092,0.075,0.015
7.094,0.110,0.015
7.096,0.145,0.020
7.098,0.165,0.030
7.100,0.210,0.035
7.102,0.195,0.040
7.104,0.150,0.045
7.106,0.110,0.050
7.108,0.110,0.055
7.110,0.100,0.055
7.112,0.115,0.055
7.114,0.160,0.060
7.116,0.195,0.065
7.118,0.205,0.070
7.120,0.220,0.075
7.122,0.205,0.080
7.124,0.220,0.085
7.126,0.155,0.085
7.128,0.150,0.085
7.130,0.130,0.085
7.132,0.140,0.085
7.134,0.150,0.085
7.136,0.180,0.085
7.138,0.240,0.090
7.140,0.275,0.095
7.142,0.225,0.100
7.144,0.240,0.110
7.146,0.205,0.115
7.148,0.170,0.120
7.150,0.130,0.120
7.152,0.155,0.115
7.154,0.200,0.105
7.156,0.200,0.095
7.158,0.165,0.080
7.160,0.170,0.065
7.162,0.195,0.050
7.164,0.200,0.040
7.166,0.110,0.035
7.168,0.080,0.040
7.170,0.085,0.040
7.172,0.135,0.050
7.174,0.135,0.060
7.176,0.125,0.065
7.178,0.130,0.070
7.180,0.205,0.070
7.182,0.185,0.065
7.184,0.150,0.060
7.186,0.070,0.055
7.188,0.120,0.050
7.190,0.095,0.045
7.192,0.105,0.040
7.194,0.080,0.040
7.196,0.120,0.045
7.198,0.150,0.050
7.200,0.225,0.050
7.202,0.185,0.055
7.204,0.180,0.055
7.206,0.100,0.055
7.208,0.105,0.050
7.210,0.055,0.045
7.212,0.075,0.040
7.214,0.105,0.040
7.216,0.165,0.040
7.218,0.170,0.045
7.220,0.195,0.050
7.222,0.175,0.055
7.224,0.145,0.060
7.226,0.060,0.060
7.228,0.095,0.065
7.230,0.135,0.060
7.232,0.110,0.055
7.234,0.100,0.050
7.236,0.140,0.045
7.238,0.145,0.045
7.240,0.165,0.040
7.242,0.145,0.040
7.244,0.105,0.040
7.246,0.080,0.040
7.248,0.095,0.040
7.250,0.060,0.040
7.252,0.070,0.040
7.254,0.105,0.040
7.256,0.190,0.045
7.258,0.165,0.055
7.260,0.175,0.065
7.262,0.195,0.085
7.264,0.155,0.105
7.266,0.145,0.130
7.268,0.210,0.145
7.270,0.260,0.160
7.272,0.255,0.160
7.274,0.190,0.155
7.276,0.185,0.145
7.278,0.195,0.130
7.280,0.145,0.115
7.282,0.170,0.110
7.284,0.165,0.115
7.286,0.180,0.130
7.288,0.265,0.155
7.290,0.290,0.185
7.292,0.350,0.210
7.294,0.320,0.230
7.296,0.310,0.230
7.298,0.270,0.215
7.300,0.210,0.185
7.302,0.165,0.135
7.304,0.065,0.080
7.306,0.050,0.015
7.308,0.035,-0.040
7.310,-0.050,-0.090
7.312,-0.105,-0.120
7.314,-0.065,-0.135
7.316,-0.030,-0.135
7.318,-0.010,-0.125
7.320,-0.010,-0.100
7.322,0.020,-0.070
7.324,0.025,-0.035
7.326,0.025,-0.005
7.328,0.090,0.020
7.330,0.145,0.040
7.332,0.100,0.060
7.334,0.140,0.070
7.336,0.170,0.075
7.338,0.155,0.075
7.340,0.120,0.070
7.342,0.110,0.070
7.344,0.075,0.065
7.346,0.115,0.060
7.348,0.105,0.055
7.350,0.120,0.055
7.352,0.120,0.055
7.354,0.140,0.060
7.356,0.150,0.065
7.358,0.110,0.065
7.360,0.140,0.070
7.362,0.150,0.070
7.364,0.155,0.070
7.366,0.105,0.070
7.368,0.095,0.070
7.370,0.095,0.075
7.372,0.125,0.080
7.374,0.140,0.085
7.376,0.185,0.095
7.378,0.160,0.105
7.380,0.210,0.110
7.382,0.215,0.115
7.384,0.155,0.115
7.386,0.135,0.115
7.388,0.125,0.110
7.390,0.135,0.105
7.392,0.155,0.100
7.394,0.175,0.100
7.396,0.200,0.100
7.398,0.215,0.100
7.400,0.165,0.105
7.402,0.155,0.105
7.404,0.125,0.110
7.406,0.120,0.110
7.408,0.115,0.110
7.410,0.140,0.110
7.412,0.165,0.105
7.414,0.190,0.105
7.416,0.170,0.100
7.418,0.180,0.095
7.420,0.180,0.095
7.422,0.170,0.090
7.424,0.115,0.085
7.426,0.115,0.080
7.428,0.110,0.070
7.430,0.085,0.060
7.432,0.055,0.040
7.434,0.040,0.025
7.436,0.035,0.005
7.438,0.015,-0.010
7.440,0.005,-0.025
7.442,-0.005,-0.035
7.444,-0.025,-0.040
7.446,0.005,-0.040
7.448,0.005,-0.040
7.450,0.005,-0.035
7.452,0.010,-0.035
7.454,0.030,-0.030
7.456,0.025,-0.030
7.458,0.035,-0.030
7.460,0.020,-0.030
7.462,-0.015,-0.030
7.464,-0.015,-0.035
7.466,0.000,-0.035
7.468,-0.010,-0.035
7.470,-0.005,-0.035
7.472,0.020,-0.035
7.474,0.035,-0.040
7.476,0.020,-0.040
7.478,0.020,-0.040
7.480,0.000,-0.040
7.482,0.000,-0.035
7.484,-0.025,-0.030
7.486,-0.005,-0.025
7.488,0.010,-0.015
7.490,0.055,-0.005
7.492,0.070,0.005
7.494,0.100,0.015
7.496,0.070,0.025
7.498,0.080,0.030
7.500,0.090,0.035
7.502,0.085,0.040
7.504,0.060,0.040
7.506,0.035,0.040
7.508,0.015,0.045
7.510,0.075,0.050
7.512,0.100,0.055
7.514,0.115,0.065
7.516,0.160,0.070
7.518,0.180,0.080
7.520,0.160,0.090
7.522,0.130,0.095
7.524,0.075,0.095
7.526,0.100,0.095
7.528,0.085,0.090
7.530,0.070,0.090
7.532,0.090,0.085
7.534,0.140,0.080
7.536,0.125,0.080
7.538,0.135,0.075
7.540,0.125,0.075
7.542,0.090,0.075
7.544,0.055,0.070
7.546,0.075,0.065
7.548,0.060,0.055
7.550,0.025,0.045
7.552,0.030,0.030
7.554,0.080,0.020
7.556,0.080,0.005
7.558,0.050,-0.005
7.560,0.040,-0.015
7.562,-0.005,-0.025
7.564,-0.045,-0.030
7.566,-0.035,-0.035
7.568,-0.040,-0.040
7.570,-0.060,-0.050
7.572,-0.055,-0.055
7.574,-0.070,-0.065
7.576,-0.055,-0.075
7.578,-0.005,-0.090
7.580,0.000,-0.100
7.582,-0.080,-0.105
7.584,-0.140,-0.110
7.586,-0.135,-0.115
7.588,-0.115,-0.115
7.590,-0.080,-0.115
7.592,-0.065,-0.115
7.594,-0.070,-0.110
7.596,-0.060,-0.110
7.598,-0.030,-0.110
7.600,-0.055,-0.110
7.602,-0.135,-0.115
7.604,-0.145,-0.115
7.606,-0.110,-0.120
7.608,-0.115,-0.125
7.610,-0.120,-0.125
7.612,-0.080,-0.130
7.614,-0.060,-0.135
7.616,-0.040,-0.140
7.618,-0.085,-0.140
7.620,-0.150,-0.140
7.622,-0.145,-0.140
7.624,-0.135,-0.135
7.626,-0.140,-0.130
7.628,-0.095,-0.130
7.630,-0.100,-0.125
7.632,-0.120,-0.125
7.634,-0.095,-0.130
7.636,-0.095,-0.140
7.638,-0.100,-0.145
7.640,-0.110,-0.155
7.642,-0.175,-0.165
7.644,-0.180,-0.170
7.646,-0.190,-0.170
7.648,-0.140,-0.170
7.650,-0.140,-0.165
7.652,-0.160,-0.160
7.654,-0.135,-0.155
7.656,-0.090,-0.150
7.658,-0.080,-0.150
7.660,-0.065,-0.150
7.662,-0.110,-0.150
7.664,-0.135,-0.155
7.666,-0.175,-0.155
7.668,-0.175,-0.150
7.670,-0.175,-0.145
7.672,-0.100,-0.135
7.674,-0.040,-0.130
7.676,-0.035,-0.120
7.678,-0.065,-0.115
7.680,-0.090,-0.110
7.682,-0.165,-0.110
7.684,-0.150,-0.115
7.686,-0.150,-0.125
7.688,-0.145,-0.130
7.690,-0.150,-0.135
7.692,-0.110,-0.135
7.694,-0.055,-0.135
7.696,-0.045,-0.130
7.698,-0.065,-0.125
7.700,-0.070,-0.115
7.702,-0.120,-0.110
7.704,-0.145,-0.105
7.706,-0.160,-0.100
7.708,-0.115,-0.105
7.710,-0.100,-0.105
7.712,-0.085,-0.110
7.714,-0.055,-0.115
7.716,-0.050,-0.120
7.718,-0.050,-0.125
7.720,-0.065,-0.125
7.722,-0.130,-0.125
7.724,-0.175,-0.125
7.726,-0.175,-0.120
7.728,-0.130,-0.115
7.730,-0.135,-0.115
7.732,-0.025,-0.110
7.734,-0.045,-0.105
7.736,-0.045,-0.100
7.738,-0.080,-0.100
7.740,-0.090,-0.095
7.742,-0.135,-0.095
7.744,-0.105,-0.095
7.746,-0.115,-0.100
7.748,-0.095,-0.105
7.750,-0.105,-0.115
7.752,-0.065,-0.120
7.754,-0.090,-0.125
7.756,-0.070,-0.130
7.758,-0.085,-0.130
7.760,-0.075,-0.125
7.762,-0.100,-0.120
7.764,-0.105,-0.115
7.766,-0.130,-0.110
7.768,-0.115,-0.105
7.770,-0.115,-0.105
7.772,-0.085,-0.105
7.774,-0.055,-0.105
7.776,-0.030,-0.110
7.778,-0.075,-0.115
7.780,-0.115,-0.120
7.782,-0.115,-0.120
7.784,-0.115,-0.120
7.786,-0.155,-0.115
7.788,-0.105,-0.115
7.790,-0.110,-0.115
7.792,-0.140,-0.115
7.794,-0.110,-0.115
7.796,-0.045,-0.120
7.798,-0.020,-0.120
7.800,-0.070,-0.125
7.802,-0.130,-0.125
7.804,-0.155,-0.120
7.806,-0.170,-0.115
7.808,-0.105,-0.110
7.810,-0.070,-0.100
7.812,-0.045,-0.095
7.814,-0.065,-0.090
7.816,-0.080,-0.085
7.818,-0.095,-0.085
7.820,-0.120,-0.090
7.822,-0.145,-0.095
7.824,-0.095,-0.100
7.826,-0.070,-0.105
7.828,-0.110,-0.105
7.830,-0.085,-0.100
7.832,-0.025,-0.095
7.834,-0.035,-0.090
7.836,-0.010,-0.080
7.838,-0.045,-0.075
7.840,-0.110,-0.070
7.842,-0.135,-0.070
7.844,-0.150,-0.075
7.846,-0.095,-0.080
7.848,-0.095,-0.085
7.850,-0.075,-0.090
7.852,-0.035,-0.090
7.854,-0.030,-0.090
7.856,-0.010,-0.085
7.858,-0.035,-0.080
7.860,-0.085,-0.075
7.862,-0.115,-0.065
7.864,-0.095,-0.060
7.866,-0.085,-0.055
7.868,-0.055,-0.055
7.870,-0.030,-0.050
7.872,0.000,-0.050
7.874,-0.005,-0.050
7.876,0.020,-0.045
7.878,-0.025,-0.040
7.880,-0.065,-0.035
7.882,-0.120,-0.030
7.884,-0.085,-0.030
7.886,-0.025,-0.025
7.888,-0.010,-0.025
7.890,0.035,-0.025
7.892,0.010,-0.030
7.894,-0.015,-0.035
7.896,0.010,-0.045
7.898,0.000,-0.050
7.900,-0.065,-0.060
7.902,-0.140,-0.065
7.904,-0.165,-0.075
7.906,-0.170,-0.080
7.908,-0.135,-0.090
7.910,-0.070,-0.100
7.912,-0.020,-0.105
7.914,-0.035,-0.110
7.916,-0.090,-0.115
7.918,-0.110,-0.115
7.920,-0.120,-0.105
7.922,-0.115,-0.100
7.924,-0.125,-0.090
7.926,-0.075,-0.080
7.928,-0.085,-0.070
7.930,-0.070,-0.070
7.932,-0.090,-0.070
7.934,-0.095,-0.075
7.936,-0.030,-0.085
7.938,-0.050,-0.095
7.940,-0.120,-0.110
7.942,-0.120,-0.115
7.944,-0.180,-0.120
7.946,-0.140,-0.120
7.948,-0.115,-0.115
7.950,-0.050,-0.105
7.952,-0.040,-0.095
7.954,-0.060,-0.080
7.956,-0.095,-0.075
7.958,-0.075,-0.070
7.960,-0.105,-0.065
7.962,-0.115,-0.070
7.964,-0.115,-0.075
7.966,-0.070,-0.080
7.968,-0.100,-0.090
7.970,-0.085,-0.095
7.972,-0.045,-0.100
7.974,-0.080,-0.100
7.976,-0.070,-0.100
7.978,-0.100,-0.095
7.980,-0.110,-0.085
7.982,-0.085,-0.075
7.984,-0.095,-0.065
7.986,-0.095,-0.055
7.988,-0.085,-0.050
7.990,-0.020,-0.045
7.992,-0.010,-0.040
7.994,-0.015,-0.045
7.996,-0.035,-0.045
7.998,-0.075,-0.050
8.000,-0.110,-0.050
8.002,-0.090,-0.050
8.004,-0.095,-0.040
8.006,-0.010,-0.030
8.008,0.020,-0.020
8.010,0.070,-0.005
8.012,0.065,0.005
8.014,0.055,0.010
8.016,0.000,0.010
8.018,-0.005,0.010
8.020,-0.030,0.000
8.022,-0.095,0.000
8.024,-0.115,0.000
8.026,-0.025,0.005
8.028,0.060,0.020
8.030,0.105,0.040
8.032,0.190,0.065
8.034,0.245,0.090
8.036,0.155,0.110
8.038,0.090,0.115
8.040,0.060,0.105
8.042,-0.015,0.080
8.044,-0.065,0.040
8.046,-0.095,-0.005
8.048,-0.070,-0.060
8.050,-0.050,-0.110
8.052,-0.070,-0.155
8.054,-0.140,-0.185
8.056,-0.225,-0.205
8.058,-0.285,-0.210
8.060,-0.255,-0.200
8.062,-0.235,-0.180
8.064,-0.220,-0.155
8.066,-0.125,-0.130
8.068,-0.050,-0.105
8.070,-0.015,-0.085
8.072,-0.025,-0.065
8.074,0.010,-0.055
8.076,-0.025,-0.045
8.078,-0.060,-0.045
8.080,-0.090,-0.045
8.082,-0.115,-0.045
8.084,-0.095,-0.050
8.086,-0.085,-0.055
8.088,-0.065,-0.060
8.090,-0.040,-0.060
8.092,-0.050,-0.060
8.094,-0.030,-0.060
8.096,-0.060,-0.055
8.098,-0.025,-0.055
8.100,-0.030,-0.050
8.102,-0.080,-0.050
8.104,-0.115,-0.050
8.106,-0.135,-0.055
8.108,-0.050,-0.060
8.110,-0.025,-0.065
8.112,-0.055,-0.065
8.114,-0.010,-0.065
8.116,0.010,-0.060
8.118,-0.045,-0.055
8.120,-0.095,-0.045
8.122,-0.105,-0.035
8.124,-0.050,-0.020
8.126,-0.045,-0.015
8.128,0.000,-0.010
8.130,0.015,-0.005
8.132,0.015,-0.010
8.134,0.005,-0.015
8.136,0.010,-0.025
8.138,-0.065,-0.030
8.140,-0.070,-0.030
8.142,-0.050,-0.030
8.144,-0.030,-0.025
8.146,-0.020,-0.015
8.148,0.045,-0.010
8.150,0.050,0.000
8.152,0.010,0.000
8.154,0.005,0.005
8.156,-0.005,0.005
8.158,0.005,0.000
8.160,-0.005,-0.005
8.162,-0.055,-0.005
8.164,-0.025,-0.005
8.166,0.000,-0.005
8.168,0.020,0.000
8.170,0.050,0.005
8.172,0.040,0.010
8.174,0.020,0.010
8.176,0.010,0.010
8.178,-0.010,0.010
8.180,0.000,0.010
8.182,0.025,0.010
8.184,-0.015,0.010
8.186,0.015,0.010
8.188,0.040,0.015
8.190,0.030,0.020
8.192,0.050,0.025
8.194,0.050,0.025
8.196,0.070,0.030
8.198,-0.005,0.035
8.200,0.005,0.035
8.202,0.040,0.040
8.204,0.020,0.040
8.206,0.040,0.040
8.208,0.065,0.045
8.210,0.085,0.045
8.212,0.100,0.050
8.214,0.060,0.050
8.216,0.075,0.055
8.218,0.055,0.060
8.220,0.025,0.065
8.222,0.020,0.070
8.224,0.075,0.080
8.226,0.075,0.085
8.228,0.085,0.095
8.230,0.100,0.105
8.232,0.175,0.115
8.234,0.155,0.125
8.236,0.165,0.130
8.238,0.120,0.140
8.240,0.105,0.145
8.242,0.075,0.150
8.244,0.130,0.155
8.246,0.175,0.160
8.248,0.205,0.165
8.250,0.195,0.170
8.252,0.230,0.175
8.254,0.230,0.180
8.256,0.190,0.185
8.258,0.160,0.185
8.260,0.145,0.185
8.262,0.120,0.185
8.264,0.165,0.185
8.266,0.170,0.185
8.268,0.230,0.185
8.270,0.230,0.190
8.272,0.230,0.195
8.274,0.215,0.200
8.276,0.180,0.205
8.278,0.105,0.210
8.280,0.180,0.210
8.282,0.170,0.205
8.284,0.180,0.200
8.286,0.175,0.195
8.288,0.195,0.190
8.290,0.220,0.185
8.292,0.205,0.180
8.294,0.200,0.180
8.296,0.185,0.175
8.298,0.125,0.165
8.300,0.095,0.155
8.302,0.070,0.145
8.304,0.065,0.130
8.306,0.075,0.110
8.308,0.120,0.095
8.310,0.095,0.080
8.312,0.105,0.065
8.314,0.080,0.060
8.316,0.030,0.060
8.318,-0.015,0.060
8.320,0.035,0.060
8.322,0.020,0.060
8.324,-0.005,0.055
8.326,0.015,0.045
8.328,0.030,0.030
8.330,0.005,0.015
8.332,0.050,0.000
8.334,0.015,-0.015
8.336,0.010,-0.020
8.338,-0.050,-0.025
8.340,-0.090,-0.025
8.342,-0.080,-0.020
8.344,-0.030,-0.015
8.346,0.000,-0.010
8.348,0.040,-0.005
8.350,0.000,-0.005
8.352,0.030,-0.005
8.354,0.015,-0.010
8.356,-0.040,-0.015
8.358,-0.110,-0.020
8.360,-0.060,-0.020
8.362,-0.040,-0.025
8.364,-0.040,-0.025
8.366,0.005,-0.025
8.368,0.010,-0.020
8.370,0.005,-0.020
8.372,0.000,-0.025
8.374,-0.040,-0.025
8.376,-0.055,-0.030
8.378,-0.055,-0.035
8.380,-0.045,-0.035
8.382,-0.050,-0.040
8.384,-0.030,-0.040
8.386,0.000,-0.040
8.388,-0.030,-0.040
8.390,-0.060,-0.040
8.392,-0.045,-0.040
8.394,-0.020,-0.040
8.396,-0.030,-0.040
8.398,-0.095,-0.040
8.400,-0.085,-0.040
8.402,-0.075,-0.045
8.404,-0.065,-0.045
8.406,-0.045,-0.045
8.408,-0.020,-0.050
8.410,0.025,-0.045
8.412,0.030,-0.045
8.414,0.000,-0.045
8.416,-0.105,-0.040
8.418,-0.120,-0.035
8.420,-0.060,-0.030
8.422,-0.040,-0.030
8.424,-0.045,-0.025
8.426,-0.020,-0.020
8.428,0.030,-0.020
8.430,0.015,-0.015
8.432,-0.005,-0.015
8.434,-0.015,-0.015
8.436,-0.030,-0.015
8.438,-0.055,-0.020
8.440,-0.050,-0.020
8.442,-0.025,-0.025
8.444,-0.020,-0.025
8.446,-0.005,-0.025
8.448,0.025,-0.030
8.450,-0.020,-0.030
8.452,-0.015,-0.030
8.454,-0.030,-0.025
8.456,0.000,-0.025
8.458,-0.040,-0.020
8.460,-0.045,-0.015
8.462,-0.030,-0.010
8.464,-0.035,-0.005
8.466,0.030,0.000
8.468,0.070,0.005
8.470,0.035,0.005
8.472,0.035,0.005
8.474,0.010,0.005
8.476,-0.070,0.000
8.478,-0.055,-0.005
8.480,-0.070,-0.005
8.482,-0.020,-0.010
8.484,-0.015,-0.015
8.486,0.050,-0.015
8.488,0.010,-0.015
8.490,0.015,-0.015
8.492,0.030,-0.010
8.494,-0.005,-0.005
8.496,-0.020,0.000
8.498,-0.025,0.000
8.500,-0.040,0.005
8.502,-0.045,0.000
8.504,-0.045,0.000
8.506,0.010,-0.005
8.508,0.015,-0.010
8.510,0.000,-0.020
8.512,-0.020,-0.025
8.514,-0.025,-0.030
8.516,-0.030,-0.035
8.518,-0.055,-0.035
8.520,-0.050,-0.035
8.522,-0.060,-0.035
8.524,-0.050,-0.035
8.526,-0.025,-0.035
8.528,0.005,-0.035
8.530,0.030,-0.035
8.532,0.030,-0.035
8.534,0.030,-0.030
8.536,-0.055,-0.025
8.538,-0.060,-0.015
8.540,-0.095,-0.005
8.542,-0.035,0.000
8.544,0.025,0.010
8.546,0.045,0.010
8.548,0.015,0.005
8.550,0.030,0.000
8.552,0.040,-0.010
8.554,0.005,-0.020
8.556,-0.050,-0.030
8.558,-0.075,-0.035
8.560,-0.065,-0.035
8.562,-0.060,-0.030
8.564,-0.005,-0.020
8.566,0.025,-0.005
8.568,0.090,0.005
8.570,0.080,0.015
8.572,0.005,0.020
8.574,0.035,0.020
8.576,-0.035,0.010
8.578,-0.055,0.000
8.580,-0.095,-0.015
8.582,-0.060,-0.030
8.584,-0.020,-0.040
8.586,0.020,-0.045
8.588,-0.010,-0.045
8.590,0.020,-0.040
8.592,0.010,-0.035
8.594,-0.055,-0.030
8.596,-0.070,-0.025
8.598,-0.050,-0.025
8.600,-0.080,-0.025
8.602,-0.060,-0.025
8.604,0.015,-0.025
8.606,0.060,-0.020
8.608,0.030,-0.015
8.610,0.060,-0.005
8.612,0.020,0.005
8.614,-0.005,0.015
8.616,-0.065,0.025
8.618,0.010,0.030
8.620,-0.025,0.025
8.622,-0.030,0.020
8.624,0.005,0.010
8.626,0.065,0.000
8.628,0.030,-0.010
8.630,0.020,-0.010
8.632,0.020,-0.005
8.634,-0.040,0.000
8.636,-0.030,0.015
8.638,0.020,0.030
8.640,0.020,0.045
8.642,0.030,0.055
8.644,0.035,0.060
8.646,0.095,0.060
8.648,0.085,0.055
8.650,0.100,0.045
8.652,0.100,0.045
8.654,0.050,0.040
8.656,-0.050,0.045
8.658,0.000,0.055
8.660,0.080,0.070
8.662,0.075,0.085
8.664,0.085,0.095
8.666,0.130,0.105
8.668,0.140,0.105
8.670,0.120,0.100
8.672,0.080,0.090
8.674,0.045,0.080
8.676,0.015,0.060
8.678,0.005,0.045
8.680,0.010,0.030
8.682,0.015,0.020
8.684,0.040,0.010
8.686,0.035,0.000
8.688,-0.020,-0.005
8.690,-0.035,-0.010
8.692,-0.005,-0.010
8.694,0.005,-0.010
8.696,-0.005,-0.005
8.698,-0.010,0.000
8.700,-0.010,0.005
8.702,0.000,0.010
8.704,0.045,0.015
8.706,0.050,0.020
8.708,0.065,0.025
8.710,0.040,0.025
8.712,0.005,0.020
8.714,-0.030,0.015
8.716,-0.005,0.010
8.718,-0.050,0.000
8.720,-0.055,-0.010
8.722,-0.040,-0.015
8.724,0.025,-0.020
8.726,0.050,-0.025
8.728,0.005,-0.025
8.730,-0.020,-0.020
8.732,-0.025,-0.015
8.734,-0.005,-0.010
8.736,0.020,-0.005
8.738,-0.040,0.000
8.740,-0.035,0.000
8.742,-0.020,0.005
8.744,0.030,0.000
8.746,0.035,0.000
8.748,0.020,-0.005
8.750,0.045,-0.005
8.752,0.000,-0.005
8.754,-0.050,0.000
8.756,-0.030,0.005
8.758,-0.035,0.010
8.760,0.000,0.015
8.762,0.025,0.015
8.764,0.055,0.015
8.766,0.045,0.010
8.768,0.030,0.010
8.770,0.025,0.005
8.772,0.030,0.005
8.774,0.050,0.010
8.776,-0.025,0.015
8.778,-0.020,0.030
8.780,0.020,0.045
8.782,0.090,0.065
8.784,0.150,0.080
8.786,0.170,0.090
8.788,0.185,0.095
8.790,0.140,0.095
8.792,0.110,0.095
8.794,0.020,0.085
8.796,0.010,0.080
8.798,0.010,0.080
8.800,0.040,0.085
8.802,0.080,0.095
8.804,0.175,0.115
8.806,0.250,0.135
8.808,0.295,0.160
8.810,0.255,0.180
8.812,0.170,0.190
8.814,0.085,0.185
8.816,0.045,0.165
8.818,0.035,0.130
8.820,0.050,0.080
8.822,0.020,0.025
8.824,0.025,-0.035
8.826,-0.010,-0.090
8.828,-0.080,-0.135
8.830,-0.165,-0.165
8.832,-0.205,-0.180
8.834,-0.215,-0.175
8.836,-0.195,-0.160
8.838,-0.150,-0.130
8.840,-0.095,-0.095
8.842,-0.005,-0.055
8.844,0.060,-0.020
8.846,0.060,0.005
8.848,0.105,0.025
8.850,0.060,0.035
8.852,0.020,0.035
8.854,-0.005,0.025
8.856,0.000,0.015
8.858,-0.045,0.005
8.860,-0.045,-0.005
8.862,0.020,-0.010
8.864,0.070,-0.015
8.866,0.080,-0.010
8.868,0.070,-0.005
8.870,0.035,0.005
8.872,0.010,0.015
8.874,-0.015,0.020
8.876,0.015,0.025
8.878,-0.025,0.025
8.880,0.020,0.030
8.882,0.040,0.030
8.884,0.095,0.030
8.886,0.075,0.030
8.888,0.090,0.035
8.890,0.095,0.035
8.892,0.045,0.040
8.894,-0.015,0.040
8.896,0.000,0.040
8.898,-0.005,0.035
8.900,-0.005,0.030
8.902,0.035,0.025
8.904,0.075,0.025
8.906,0.055,0.020
8.908,0.070,0.020
8.910,0.085,0.025
8.912,0.050,0.030
8.914,0.035,0.035
8.916,0.035,0.045
8.918,0.010,0.050
8.920,0.010,0.050
8.922,0.060,0.050
8.924,0.100,0.045
8.926,0.070,0.040
8.928,0.085,0.030
8.930,0.075,0.025
8.932,0.055,0.015
8.934,0.005,0.015
8.936,-0.010,0.010
8.938,-0.005,0.015
8.940,0.020,0.015
8.942,0.020,0.015
8.944,0.035,0.020
8.946,0.010,0.020
8.948,0.070,0.025
8.950,0.085,0.030
8.952,0.070,0.035
8.954,0.020,0.040
8.956,0.050,0.045
8.958,0.065,0.055
8.960,0.045,0.060
8.962,0.060,0.070
8.964,0.075,0.075
8.966,0.135,0.075
8.968,0.130,0.075
8.970,0.140,0.070
8.972,0.100,0.065
8.974,0.010,0.065
8.976,0.005,0.060
8.978,0.050,0.060
8.980,0.065,0.060
8.982,0.070,0.060
8.984,0.135,0.065
8.986,0.105,0.070
8.988,0.095,0.075
8.990,0.105,0.075
8.992,0.065,0.080
8.994,0.065,0.085
8.996,0.100,0.090
8.998,0.140,0.100
9.000,0.140,0.110
9.002,0.155,0.125
9.004,0.205,0.135
9.006,0.190,0.145
9.008,0.170,0.155
9.010,0.195,0.165
9.012,0.155,0.165
9.014,0.140,0.170
9.016,0.155,0.170
9.018,0.175,0.175
9.020,0.165,0.175
9.022,0.215,0.180
9.024,0.270,0.190
9.026,0.285,0.195
9.028,0.250,0.205
9.030,0.215,0.210
9.032,0.215,0.215
9.034,0.210,0.215
9.036,0.180,0.215
9.038,0.190,0.215
9.040,0.200,0.210
9.042,0.230,0.205
9.044,0.250,0.200
9.046,0.255,0.200
9.048,0.225,0.200
9.050,0.235,0.205
9.052,0.180,0.205
9.054,0.210,0.205
9.056,0.220,0.205
9.058,0.230,0.200
9.060,0.200,0.195
9.062,0.210,0.185
9.064,0.225,0.170
9.066,0.235,0.160
9.068,0.190,0.150
9.070,0.180,0.145
9.072,0.135,0.140
9.074,0.095,0.135
9.076,0.125,0.130
9.078,0.115,0.125
9.080,0.105,0.115
9.082,0.115,0.100
9.084,0.105,0.085
9.086,0.100,0.070
9.088,0.110,0.050
9.090,0.070,0.035
9.092,0.010,0.025
9.094,0.025,0.020
9.096,0.005,0.020
9.098,0.040,0.020
9.100,0.035,0.020
9.102,0.045,0.015
9.104,0.055,0.010
9.106,0.045,0.000
9.108,-0.005,-0.010
9.110,-0.045,-0.025
9.112,-0.060,-0.040
9.114,-0.055,-0.050
9.116,-0.060,-0.060
9.118,-0.030,-0.060
9.120,-0.025,-0.060
9.122,-0.005,-0.050
9.124,0.045,-0.045
9.126,0.015,-0.040
9.128,0.000,-0.035
9.130,0.015,-0.035
9.132,-0.055,-0.035
9.134,-0.070,-0.040
9.136,-0.050,-0.040
9.138,-0.035,-0.045
9.140,-0.060,-0.045
9.142,0.010,-0.045
9.144,0.025,-0.040
9.146,0.005,-0.040
9.148,-0.025,-0.040
9.150,-0.020,-0.040
9.152,-0.035,-0.040
9.154,-0.025,-0.045
9.156,-0.040,-0.050
9.158,-0.085,-0.050
9.160,-0.060,-0.055
9.162,0.030,-0.055
9.164,0.040,-0.050
9.166,0.000,-0.050
9.168,-0.015,-0.050
9.170,-0.040,-0.050
9.172,-0.090,-0.055
9.174,-0.055,-0.055
9.176,-0.070,-0.060
9.178,-0.095,-0.065
9.180,-0.025,-0.065
9.182,0.015,-0.065
9.184,0.005,-0.065
9.186,0.040,-0.060
9.188,0.000,-0.055
9.190,-0.025,-0.045
9.192,-0.040,-0.040
9.194,-0.030,-0.035
9.196,-0.055,-0.030
9.198,-0.045,-0.030
9.200,0.015,-0.035
9.202,0.025,-0.035
9.204,0.010,-0.040
9.206,-0.010,-0.040
9.208,-0.010,-0.040
9.210,0.000,-0.040
9.212,-0.035,-0.040
9.214,-0.040,-0.035
9.216,-0.050,-0.035
9.218,-0.010,-0.030
9.220,0.005,-0.030
9.222,0.025,-0.030
9.224,0.020,-0.030
9.226,0.025,-0.030
9.228,0.020,-0.030
9.230,-0.005,-0.030
9.232,-0.045,-0.030
9.234,-0.055,-0.025
9.236,-0.005,-0.025
9.238,0.030,-0.020
9.240,0.055,-0.015
9.242,0.045,-0.010
9.244,0.050,-0.010
9.246,0.035,-0.010
9.248,0.000,-0.010
9.250,-0.025,-0.010
9.252,-0.045,-0.015
9.254,-0.035,-0.025
9.256,-0.035,-0.030
9.258,-0.025,-0.040
9.260,0.005,-0.045
9.262,0.030,-0.055
9.264,0.040,-0.060
9.266,0.035,-0.060
9.268,0.030,-0.060
9.270,-0.055,-0.055
9.272,-0.070,-0.055
9.274,-0.050,-0.050
9.276,-0.035,-0.045
9.278,-0.025,-0.040
9.280,-0.005,-0.045
9.282,0.000,-0.045
9.284,0.015,-0.050
9.286,-0.005,-0.060
9.288,-0.010,-0.065
9.290,0.000,-0.065
9.292,-0.055,-0.065
9.294,-0.105,-0.060
9.296,-0.045,-0.055
9.298,-0.010,-0.045
9.300,0.040,-0.040
9.302,0.045,-0.035
9.304,0.030,-0.030
9.306,-0.005,-0.030
9.308,-0.020,-0.035
9.310,-0.040,-0.040
9.312,-0.025,-0.040
9.314,-0.035,-0.040
9.316,0.000,-0.040
9.318,0.000,-0.030
9.320,0.070,-0.025
9.322,0.035,-0.015
9.324,0.010,-0.015
9.326,0.030,-0.015
9.328,0.030,-0.015
9.330,0.000,-0.025
9.332,-0.020,-0.030
9.334,-0.050,-0.040
9.336,-0.040,-0.045
9.338,-0.025,-0.050
9.340,0.015,-0.045
9.342,0.025,-0.040
9.344,0.045,-0.035
9.346,0.025,-0.030
9.348,-0.010,-0.030
9.350,-0.040,-0.030
9.352,-0.045,-0.035
9.354,-0.025,-0.040
9.356,0.020,-0.050
9.358,0.005,-0.055
9.360,0.030,-0.055
9.362,0.035,-0.055
9.364,0.040,-0.045
9.366,0.035,-0.035
9.368,0.015,-0.025
9.370,-0.030,-0.020
9.372,-0.005,-0.015
9.374,-0.005,-0.015
9.376,-0.025,-0.015
9.378,0.000,-0.025
9.380,0.050,-0.035
9.382,0.100,-0.040
9.384,0.015,-0.045
9.386,-0.005,-0.050
9.388,0.055,-0.045
9.390,0.030,-0.045
9.392,-0.070,-0.040
9.394,-0.055,-0.035
9.396,-0.020,-0.030
9.398,-0.010,-0.030
9.400,0.020,-0.030
9.402,0.025,-0.030
9.404,0.015,-0.030
9.406,-0.005,-0.035
9.408,0.030,-0.035
9.410,-0.015,-0.035
9.412,-0.005,-0.035
9.414,-0.020,-0.035
9.416,-0.025,-0.035
9.418,0.000,-0.035
9.420,0.010,-0.035
9.422,0.015,-0.035
9.424,0.050,-0.040
9.426,0.000,-0.040
9.428,-0.025,-0.040
9.430,-0.045,-0.040
9.432,-0.025,-0.040
9.434,-0.045,-0.035
9.436,0.005,-0.035
9.438,0.055,-0.030
9.440,0.115,-0.030
9.442,0.040,-0.030
9.444,0.045,-0.025
9.446,0.010,-0.025
9.448,-0.005,-0.020
9.450,-0.050,-0.020
9.452,-0.010,-0.015
9.454,0.015,-0.005
9.456,0.040,0.000
9.458,0.060,0.005
9.460,0.110,0.010
9.462,0.130,0.010
9.464,0.130,0.015
9.466,0.055,0.015
9.468,0.030,0.015
9.470,-0.010,0.015
9.472,-0.015,0.010
9.474,0.040,0.010
9.476,0.080,0.010
9.478,0.085,0.005
9.480,0.105,0.005
9.482,0.115,0.000
9.484,0.130,-0.005
9.486,0.015,-0.010
9.488,-0.035,-0.015
9.490,-0.045,-0.020
9.492,-0.025,-0.025
9.494,-0.030,-0.030
9.496,0.015,-0.040
9.498,0.035,-0.045
9.500,0.030,-0.050
9.502,0.005,-0.055
9.504,-0.005,-0.065
9.506,0.015,-0.065
9.508,-0.005,-0.070
9.510,-0.095,-0.070
9.512,-0.070,-0.065
9.514,-0.030,-0.060
9.516,-0.005,-0.055
9.518,0.040,-0.050
9.520,0.060,-0.045
9.522,0.030,-0.040
9.524,0.030,-0.040
9.526,0.035,-0.040
9.528,-0.040,-0.045
9.530,-0.065,-0.055
9.532,-0.060,-0.065
9.534,-0.035,-0.070
9.536,-0.035,-0.075
9.538,-0.020,-0.075
9.540,-0.025,-0.070
9.542,-0.010,-0.065
9.544,0.030,-0.060
9.546,0.045,-0.050
9.548,0.005,-0.045
9.550,-0.040,-0.045
9.552,-0.030,-0.045
9.554,-0.040,-0.050
9.556,-0.065,-0.060
9.558,-0.030,-0.070
9.560,0.005,-0.075
9.562,0.045,-0.075
9.564,0.040,-0.075
9.566,-0.025,-0.070
9.568,-0.075,-0.060
9.570,-0.065,-0.050
9.572,0.020,-0.045
9.574,-0.040,-0.035
9.576,-0.005,-0.035
9.578,0.005,-0.035
9.580,0.030,-0.035
9.582,0.050,-0.035
9.584,0.080,-0.030
9.586,0.060,-0.025
9.588,0.005,-0.010
9.590,-0.010,0.005
9.592,0.015,0.025
9.594,0.075,0.040
9.596,0.085,0.050
9.598,0.160,0.060
9.600,0.165,0.060
9.602,0.125,0.055
9.604,0.100,0.045
9.606,0.080,0.035
9.608,0.020,0.025
9.610,-0.025,0.020
9.612,-0.045,0.025
9.614,0.055,0.040
9.616,0.145,0.060
9.618,0.245,0.080
9.620,0.275,0.100
9.622,0.270,0.115
9.624,0.200,0.120
9.626,0.140,0.115
9.628,0.045,0.095
9.630,0.035,0.060
9.632,-0.030,0.015
9.634,0.015,-0.040
9.636,-0.010,-0.090
9.638,-0.030,-0.135
9.640,-0.115,-0.175
9.642,-0.140,-0.200
9.644,-0.175,-0.210
9.646,-0.175,-0.205
9.648,-0.200,-0.185
9.650,-0.110,-0.160
9.652,-0.060,-0.130
9.654,-0.020,-0.095
9.656,0.005,-0.065
9.658,0.050,-0.040
9.660,0.055,-0.025
9.662,0.080,-0.015
9.664,0.045,-0.015
9.666,-0.010,-0.020
9.668,-0.055,-0.030
9.670,-0.030,-0.045
9.672,-0.055,-0.055
9.674,-0.055,-0.065
9.676,-0.020,-0.070
9.678,0.025,-0.070
9.680,0.005,-0.065
9.682,0.055,-0.055
9.684,0.010,-0.040
9.686,0.025,-0.030
9.688,-0.020,-0.020
9.690,0.005,-0.015
9.692,-0.005,-0.015
9.694,-0.010,-0.020
9.696,-0.005,-0.025
9.698,0.050,-0.035
9.700,0.015,-0.045
9.702,0.020,-0.050
9.704,0.020,-0.055
9.706,0.015,-0.050
9.708,0.030,-0.045
9.710,-0.015,-0.040
9.712,-0.015,-0.035
9.714,-0.015,-0.025
9.716,0.015,-0.025
9.718,0.055,-0.020
9.720,0.045,-0.020
9.722,0.050,-0.020
9.724,0.045,-0.020
9.726,0.020,-0.025
9.728,-0.010,-0.025
9.730,0.020,-0.025
9.732,-0.010,-0.025
9.734,-0.030,-0.025
9.736,-0.010,-0.025
9.738,0.050,-0.025
9.740,0.145,-0.025
9.742,0.075,-0.025
9.744,0.080,-0.020
9.746,0.010,-0.020
9.748,-0.025,-0.020
9.750,0.005,-0.015
9.752,-0.010,-0.015
9.754,0.025,-0.015
9.756,0.020,-0.015
9.758,0.060,-0.020
9.760,0.050,-0.025
9.762,0.050,-0.025
9.764,0.060,-0.025
9.766,0.040,-0.025
9.768,0.000,-0.025
9.770,-0.030,-0.020
9.772,0.000,-0.015
9.774,-0.005,-0.010
9.776,0.035,-0.005
9.778,0.095,-0.005
9.780,0.080,-0.005
9.782,0.105,-0.010
9.784,0.120,-0.010
9.786,0.035,-0.010
9.788,0.025,-0.005
9.790,0.000,0.000
9.792,0.015,0.005
9.794,0.045,0.010
9.796,0.055,0.020
9.798,0.120,0.025
9.800,0.165,0.035
9.802,0.135,0.040
9.804,0.090,0.045
9.806,0.090,0.050
9.808,0.075,0.055
9.810,0.095,0.065
9.812,0.085,0.070
9.814,0.090,0.075
9.816,0.150,0.080
9.818,0.175,0.085
9.820,0.155,0.090
9.822,0.200,0.095
9.824,0.215,0.100
9.826,0.145,0.105
9.828,0.130,0.115
9.830,0.125,0.125
9.832,0.190,0.140
9.834,0.200,0.150
9.836,0.220,0.165
9.838,0.220,0.175
9.840,0.275,0.180
9.842,0.265,0.185
9.844,0.230,0.180
9.846,0.185,0.175
9.848,0.160,0.170
9.850,0.185,0.165
9.852,0.165,0.155
9.854,0.195,0.150
9.856,0.250,0.150
9.858,0.250,0.150
9.860,0.225,0.150
9.862,0.245,0.150
9.864,0.200,0.155
9.866,0.150,0.155
9.868,0.135,0.155
9.870,0.135,0.155
9.872,0.175,0.150
9.874,0.220,0.150
9.876,0.215,0.145
9.878,0.225,0.140
9.880,0.245,0.130
9.882,0.195,0.120
9.884,0.170,0.110
9.886,0.080,0.095
9.888,0.085,0.085
9.890,0.070,0.070
9.892,0.080,0.060
9.894,0.090,0.050
9.896,0.115,0.045
9.898,0.140,0.040
9.900,0.145,0.035
9.902,0.090,0.030
9.904,0.070,0.020
9.906,0.030,0.015
9.908,0.010,0.005
9.910,0.005,-0.005
9.912,0.000,-0.015
9.914,-0.030,-0.025
9.916,0.025,-0.030
9.918,0.045,-0.035
9.920,0.050,-0.035
9.922,0.050,-0.035
9.924,0.060,-0.035
9.926,0.000,-0.035
9.928,-0.025,-0.035
9.930,-0.065,-0.035
9.932,-0.025,-0.040
9.934,0.010,-0.040
9.936,0.030,-0.045
9.938,0.025,-0.045
9.940,0.015,-0.050
9.942,-0.035,-0.050
9.944,0.040,-0.050
9.946,-0.020,-0.055
9.948,-0.050,-0.055
9.950,-0.045,-0.060
9.952,-0.045,-0.065
9.954,-0.045,-0.070
9.956,-0.005,-0.070
9.958,0.040,-0.070
9.960,0.010,-0.070
9.962,0.020,-0.070
9.964,0.035,-0.065
9.966,-0.035,-0.065
9.968,-0.070,-0.065
9.970,-0.085,-0.065
9.972,-0.055,-0.070
9.974,-0.015,-0.075
9.976,0.040,-0.080
9.978,0.030,-0.080
9.980,0.040,-0.080
9.982,-0.005,-0.075
9.984,-0.045,-0.070
9.986,-0.045,-0.060
9.988,-0.015,-0.055
9.990,-0.045,-0.050
9.992,-0.040,-0.050
9.994,-0.020,-0.050
9.996,0.015,-0.060
9.998,0.000,-0.065
