'Elapsed time','ECG I','ECG I filtered'
'seconds','mV','mV'
0.000,0.010,0.000
0.002,-0.035,-0.010
0.004,-0.045,-0.025
0.006,-0.035,-0.045
0.008,0.045,-0.065
0.010,-0.060,-0.085
0.012,-0.170,-0.110
0.014,-0.130,-0.125
0.016,-0.115,-0.140
0.018,-0.130,-0.145
0.020,-0.120,-0.135
0.022,-0.060,-0.115
0.024,-0.080,-0.085
0.026,-0.060,-0.045
0.028,0.015,0.000
0.030,0.095,0.050
0.032,0.090,0.110
0.034,0.235,0.175
0.036,0.290,0.250
0.038,0.310,0.325
0.040,0.440,0.410
0.042,0.545,0.490
0.044,0.675,0.565
0.046,0.710,0.630
0.048,0.740,0.675
0.050,0.740,0.690
0.052,0.700,0.670
0.054,0.565,0.620
0.056,0.565,0.535
0.058,0.510,0.420
0.060,0.355,0.295
0.062,0.140,0.165
0.064,-0.005,0.045
0.066,-0.115,-0.050
0.068,-0.165,-0.120
0.070,-0.135,-0.155
0.072,-0.165,-0.165
0.074,-0.140,-0.150
0.076,-0.040,-0.120
0.078,0.000,-0.085
0.080,-0.030,-0.050
0.082,0.025,-0.025
0.084,0.020,-0.015
0.086,-0.010,-0.010
0.088,-0.010,-0.015
0.090,-0.010,-0.030
0.092,0.005,-0.040
0.094,-0.055,-0.050
0.096,-0.040,-0.055
0.098,0.005,-0.055
0.100,0.005,-0.055
0.102,-0.045,-0.050
0.104,-0.035,-0.040
0.106,0.055,-0.030
0.108,0.020,-0.020
0.110,-0.065,-0.005
0.112,-0.035,0.010
0.114,0.090,0.025
0.116,0.075,0.035
0.118,0.045,0.045
0.120,0.155,0.045
0.122,0.100,0.040
0.124,0.045,0.030
0.126,0.060,0.015
0.128,-0.020,0.000
0.130,-0.050,-0.010
0.132,-0.095,-0.015
0.134,-0.005,-0.015
0.136,0.100,-0.005
0.138,0.095,0.005
0.140,0.080,0.015
0.142,0.110,0.020
0.144,0.095,0.020
0.146,-0.025,0.015
0.148,-0.020,0.000
0.150,-0.030,-0.015
0.152,-0.030,-0.035
0.154,-0.015,-0.045
0.156,0.010,-0.045
0.158,0.040,-0.035
0.160,0.115,-0.020
0.162,0.065,0.005
0.164,0.015,0.025
0.166,0.050,0.045
0.168,0.080,0.060
0.170,0.070,0.065
0.172,0.095,0.060
0.174,0.090,0.050
0.176,0.045,0.035
0.178,0.075,0.020
0.180,0.075,0.010
0.182,0.080,0.005
0.184,0.055,0.010
0.186,0.015,0.020
0.188,-0.015,0.030
0.190,-0.025,0.050
0.192,0.100,0.065
0.194,0.180,0.080
0.196,0.155,0.095
0.198,0.155,0.105
0.200,0.195,0.110
0.202,0.200,0.110
0.204,0.160,0.105
0.206,0.090,0.105
0.208,0.105,0.100
0.210,0.115,0.100
0.212,0.105,0.100
0.214,0.100,0.105
0.216,0.140,0.110
0.218,0.160,0.120
0.220,0.145,0.130
0.222,0.245,0.140
0.224,0.220,0.150
0.226,0.135,0.155
0.228,0.195,0.155
0.230,0.210,0.150
0.232,0.230,0.145
0.234,0.085,0.140
0.236,0.155,0.140
0.238,0.185,0.145
0.240,0.300,0.160
0.242,0.240,0.175
0.244,0.275,0.190
0.246,0.275,0.210
0.248,0.255,0.225
0.250,0.215,0.240
0.252,0.285,0.245
0.254,0.290,0.250
0.256,0.310,0.250
0.258,0.280,0.245
0.260,0.280,0.245
0.262,0.310,0.245
0.264,0.350,0.245
0.266,0.300,0.245
0.268,0.225,0.240
0.270,0.170,0.240
0.272,0.300,0.235
0.274,0.320,0.235
0.276,0.300,0.235
0.278,0.340,0.235
0.280,0.285,0.240
0.282,0.235,0.250
0.284,0.260,0.255
0.286,0.330,0.260
0.288,0.370,0.260
0.290,0.340,0.255
0.292,0.300,0.245
0.294,0.220,0.230
0.296,0.155,0.210
0.298,0.220,0.190
0.300,0.280,0.175
0.302,0.240,0.160
0.304,0.245,0.145
0.306,0.180,0.135
0.308,0.175,0.130
0.310,0.130,0.120
0.312,0.135,0.105
0.314,0.165,0.085
0.316,0.190,0.065
0.318,0.060,0.045
0.320,0.020,0.025
0.322,0.050,0.010
0.324,0.085,0.000
0.326,0.050,-0.005
0.328,0.015,-0.005
0.330,0.045,-0.005
0.332,0.015,-0.005
0.334,0.085,-0.005
0.336,-0.010,-0.015
0.338,0.045,-0.025
0.340,0.055,-0.040
0.342,-0.075,-0.050
0.344,-0.005,-0.060
0.346,0.050,-0.060
0.348,-0.025,-0.060
0.350,0.000,-0.050
0.352,0.025,-0.035
0.354,0.020,-0.025
0.356,0.040,-0.015
0.358,0.040,-0.015
0.360,0.015,-0.020
0.362,0.040,-0.030
0.364,0.025,-0.050
0.366,-0.080,-0.070
0.368,-0.095,-0.085
0.370,-0.070,-0.100
0.372,-0.010,-0.105
0.374,0.025,-0.100
0.376,0.045,-0.090
0.378,-0.005,-0.070
0.380,-0.100,-0.050
0.382,0.025,-0.030
0.384,-0.005,-0.010
0.386,0.130,0.000
0.388,0.050,0.005
0.390,-0.015,0.000
0.392,-0.020,-0.010
0.394,0.070,-0.020
0.396,0.070,-0.040
0.398,0.090,-0.055
0.400,-0.035,-0.065
0.402,-0.045,-0.080
0.404,-0.010,-0.085
0.406,-0.055,-0.085
0.408,-0.055,-0.085
0.410,-0.050,-0.085
0.412,-0.030,-0.075
0.414,-0.030,-0.070
0.416,0.005,-0.060
0.418,0.070,-0.050
0.420,0.070,-0.040
0.422,-0.015,-0.030
0.424,0.045,-0.020
0.426,0.030,-0.015
0.428,0.075,-0.015
0.430,0.035,-0.020
0.432,-0.010,-0.025
0.434,-0.010,-0.035
0.436,-0.025,-0.050
0.438,-0.005,-0.060
0.440,-0.015,-0.070
0.442,0.000,-0.080
0.444,0.035,-0.080
0.446,0.040,-0.080
0.448,-0.025,-0.070
0.450,-0.025,-0.060
0.452,-0.020,-0.050
0.454,0.050,-0.040
0.456,0.070,-0.030
0.458,0.050,-0.030
0.460,-0.005,-0.030
0.462,0.010,-0.035
0.464,-0.010,-0.045
0.466,-0.050,-0.055
0.468,0.035,-0.065
0.470,0.045,-0.070
0.472,-0.080,-0.070
0.474,-0.065,-0.070
0.476,0.040,-0.065
0.478,0.055,-0.055
0.480,-0.005,-0.050
0.482,0.105,-0.040
0.484,0.000,-0.035
0.486,-0.015,-0.035
0.488,0.045,-0.040
0.490,0.010,-0.045
0.492,-0.015,-0.050
0.494,0.010,-0.055
0.496,-0.050,-0.065
0.498,-0.050,-0.070
0.500,0.050,-0.070
0.502,0.000,-0.070
0.504,-0.015,-0.070
0.506,0.005,-0.065
0.508,0.020,-0.055
0.510,0.000,-0.050
0.512,-0.050,-0.040
0.514,0.050,-0.035
0.516,0.030,-0.035
0.518,0.025,-0.035
0.520,0.010,-0.040
0.522,-0.005,-0.045
0.524,0.010,-0.060
0.526,-0.025,-0.075
0.528,-0.055,-0.090
0.530,-0.055,-0.100
0.532,-0.050,-0.110
0.534,-0.050,-0.110
0.536,-0.035,-0.105
0.538,0.010,-0.095
0.540,0.015,-0.080
0.542,0.010,-0.065
0.544,-0.035,-0.050
0.546,0.030,-0.040
0.548,0.005,-0.035
0.550,-0.010,-0.040
0.552,-0.030,-0.050
0.554,-0.005,-0.065
0.556,0.035,-0.080
0.558,-0.005,-0.095
0.560,-0.085,-0.105
0.562,0.010,-0.110
0.564,-0.005,-0.110
0.566,-0.015,-0.105
0.568,-0.030,-0.100
0.570,-0.055,-0.095
0.572,-0.130,-0.090
0.574,-0.025,-0.090
0.576,-0.030,-0.090
0.578,0.005,-0.090
0.580,-0.010,-0.090
0.582,-0.020,-0.090
0.584,-0.020,-0.080
0.586,0.000,-0.070
0.588,0.020,-0.060
0.590,0.065,-0.050
0.592,0.055,-0.045
0.594,-0.015,-0.045
0.596,-0.025,-0.050
0.598,-0.025,-0.060
0.600,-0.050,-0.075
0.602,-0.025,-0.090
0.604,0.005,-0.105
0.606,0.020,-0.115
0.608,-0.085,-0.120
0.610,-0.115,-0.115
0.612,-0.030,-0.110
0.614,-0.035,-0.100
0.616,-0.025,-0.085
0.618,-0.020,-0.075
0.620,0.030,-0.065
0.622,0.055,-0.060
0.624,0.060,-0.055
0.626,-0.025,-0.055
0.628,-0.005,-0.055
0.630,0.000,-0.055
0.632,0.000,-0.055
0.634,0.005,-0.055
0.636,0.000,-0.055
0.638,0.075,-0.060
0.640,0.040,-0.065
0.642,-0.095,-0.070
0.644,-0.045,-0.075
0.646,0.020,-0.080
0.648,-0.010,-0.080
0.650,-0.010,-0.075
0.652,0.050,-0.070
0.654,0.050,-0.060
0.656,0.010,-0.055
0.658,0.015,-0.045
0.660,0.040,-0.040
0.662,0.035,-0.030
0.664,0.035,-0.025
0.666,0.005,-0.015
0.668,0.055,-0.010
0.670,0.110,0.000
0.672,0.110,0.005
0.674,0.050,0.010
0.676,0.085,0.005
0.678,0.070,0.000
0.680,0.025,-0.010
0.682,0.025,-0.025
0.684,0.025,-0.045
0.686,0.020,-0.065
0.688,-0.080,-0.075
0.690,-0.055,-0.080
0.692,0.025,-0.080
0.694,0.030,-0.075
0.696,-0.010,-0.065
0.698,0.060,-0.055
0.700,0.035,-0.050
0.702,-0.010,-0.045
0.704,-0.010,-0.055
0.706,-0.040,-0.070
0.708,-0.090,-0.085
0.710,-0.045,-0.105
0.712,-0.030,-0.120
0.714,0.020,-0.130
0.716,0.070,-0.130
0.718,-0.080,-0.125
0.720,-0.095,-0.110
0.722,-0.055,-0.100
0.724,0.005,-0.085
0.726,-0.040,-0.080
0.728,-0.040,-0.075
0.730,0.005,-0.075
0.732,0.005,-0.080
0.734,0.015,-0.090
0.736,-0.025,-0.095
0.738,-0.025,-0.100
0.740,0.010,-0.100
0.742,0.005,-0.100
0.744,-0.030,-0.100
0.746,-0.040,-0.100
0.748,-0.075,-0.100
0.750,-0.100,-0.105
0.752,-0.060,-0.110
0.754,-0.030,-0.120
0.756,0.035,-0.125
0.758,0.055,-0.135
0.760,0.015,-0.135
0.762,-0.205,-0.140
0.764,-0.175,-0.135
0.766,-0.025,-0.135
0.768,-0.045,-0.130
0.770,-0.145,-0.130
0.772,-0.040,-0.130
0.774,0.010,-0.130
0.776,-0.035,-0.130
0.778,-0.060,-0.130
0.780,-0.040,-0.130
0.782,-0.040,-0.130
0.784,-0.070,-0.125
0.786,-0.090,-0.120
0.788,-0.115,-0.105
0.790,-0.010,-0.085
0.792,0.055,-0.050
0.794,0.105,-0.005
0.796,0.145,0.060
0.798,0.260,0.140
0.800,0.335,0.235
0.802,0.405,0.340
0.804,0.515,0.445
0.806,0.620,0.545
0.808,0.730,0.630
0.810,0.815,0.685
0.812,0.840,0.705
0.814,0.830,0.690
0.816,0.765,0.640
0.818,0.565,0.560
0.820,0.470,0.455
0.822,0.360,0.335
0.824,0.260,0.210
0.826,0.220,0.090
0.828,0.065,-0.020
0.830,-0.150,-0.110
0.832,-0.245,-0.175
0.834,-0.210,-0.215
0.836,-0.100,-0.230
0.838,-0.150,-0.225
0.840,-0.085,-0.200
0.842,-0.020,-0.160
0.844,0.010,-0.115
0.846,-0.060,-0.070
0.848,0.035,-0.035
0.850,0.030,-0.010
0.852,0.030,0.000
0.854,0.035,-0.005
0.856,0.035,-0.020
0.858,0.040,-0.040
0.860,-0.010,-0.065
0.862,-0.005,-0.085
0.864,0.020,-0.095
0.866,0.020,-0.100
0.868,-0.040,-0.095
0.870,-0.075,-0.085
0.872,-0.105,-0.070
0.874,0.010,-0.060
0.876,0.105,-0.050
0.878,0.050,-0.045
0.880,0.010,-0.045
0.882,-0.005,-0.050
0.884,0.025,-0.050
0.886,0.070,-0.050
0.888,0.075,-0.045
0.890,0.045,-0.035
0.892,-0.030,-0.025
0.894,-0.045,-0.010
0.896,0.165,0.000
0.898,0.120,0.005
0.900,0.090,0.005
0.902,0.050,-0.005
0.904,-0.005,-0.020
0.906,0.020,-0.035
0.908,0.060,-0.050
0.910,-0.060,-0.060
0.912,0.050,-0.065
0.914,0.075,-0.060
0.916,0.080,-0.050
0.918,0.070,-0.040
0.920,0.065,-0.025
0.922,0.025,-0.015
0.924,0.040,-0.010
0.926,0.010,-0.005
0.928,0.070,-0.005
0.930,0.100,-0.010
0.932,0.075,-0.010
0.934,0.040,-0.010
0.936,0.080,-0.005
0.938,0.115,0.005
0.940,0.170,0.020
0.942,0.105,0.035
0.944,0.070,0.050
0.946,0.045,0.060
0.948,0.140,0.070
0.950,0.120,0.075
0.952,0.135,0.070
0.954,0.145,0.065
0.956,0.140,0.060
0.958,0.125,0.050
0.960,0.125,0.045
0.962,0.085,0.045
0.964,0.040,0.045
0.966,0.090,0.045
0.968,0.130,0.055
0.970,0.190,0.060
0.972,0.200,0.070
0.974,0.210,0.080
0.976,0.205,0.090
0.978,0.150,0.095
0.980,0.120,0.100
0.982,0.195,0.105
0.984,0.140,0.110
0.986,0.145,0.115
0.988,0.255,0.120
0.990,0.220,0.130
0.992,0.225,0.140
0.994,0.230,0.155
0.996,0.265,0.170
0.998,0.255,0.180
1.000,0.310,0.195
1.002,0.275,0.200
1.004,0.290,0.205
1.006,0.255,0.205
1.008,0.255,0.200
1.010,0.285,0.195
1.012,0.245,0.195
1.014,0.235,0.195
1.016,0.300,0.200
1.018,0.310,0.210
1.020,0.345,0.225
1.022,0.330,0.235
1.024,0.330,0.250
1.026,0.340,0.260
1.028,0.280,0.265
1.030,0.350,0.265
1.032,0.350,0.260
1.034,0.305,0.255
1.036,0.295,0.245
1.038,0.300,0.230
1.040,0.315,0.225
1.042,0.265,0.215
1.044,0.275,0.210
1.046,0.270,0.210
1.048,0.225,0.210
1.050,0.330,0.210
1.052,0.335,0.210
1.054,0.345,0.210
1.056,0.275,0.205
1.058,0.220,0.205
1.060,0.205,0.200
1.062,0.250,0.195
1.064,0.305,0.185
1.066,0.255,0.175
1.068,0.225,0.165
1.070,0.235,0.150
1.072,0.215,0.135
1.074,0.225,0.115
1.076,0.165,0.095
1.078,0.110,0.075
1.080,0.145,0.055
1.082,0.055,0.040
1.084,0.025,0.025
1.086,0.130,0.010
1.088,0.060,0.000
1.090,0.060,-0.010
1.092,0.060,-0.020
1.094,0.070,-0.025
1.096,-0.005,-0.030
1.098,0.030,-0.030
1.100,0.100,-0.025
1.102,0.120,-0.020
1.104,0.045,-0.020
1.106,0.050,-0.015
1.108,0.050,-0.020
1.110,0.015,-0.025
1.112,0.040,-0.040
1.114,0.060,-0.055
1.116,0.090,-0.070
1.118,0.020,-0.085
1.120,-0.075,-0.095
1.122,-0.120,-0.100
1.124,-0.120,-0.095
1.126,-0.010,-0.090
1.128,0.065,-0.075
1.130,0.125,-0.065
1.132,0.025,-0.055
1.134,0.060,-0.050
1.136,0.075,-0.050
1.138,-0.030,-0.050
1.140,-0.020,-0.060
1.142,0.005,-0.065
1.144,-0.025,-0.070
1.146,-0.055,-0.075
1.148,-0.010,-0.080
1.150,0.010,-0.075
1.152,0.005,-0.075
1.154,0.090,-0.070
1.156,0.010,-0.070
1.158,-0.080,-0.070
1.160,-0.065,-0.070
1.162,0.030,-0.075
1.164,0.055,-0.075
1.166,0.075,-0.080
1.168,0.000,-0.080
1.170,-0.065,-0.085
1.172,-0.060,-0.080
1.174,0.025,-0.080
1.176,0.000,-0.075
1.178,-0.015,-0.070
1.180,-0.005,-0.065
1.182,0.020,-0.055
1.184,0.020,-0.050
1.186,0.060,-0.040
1.188,0.045,-0.035
1.190,0.045,-0.030
1.192,0.060,-0.030
1.194,0.090,-0.030
1.196,0.095,-0.035
1.198,0.025,-0.045
1.200,-0.040,-0.055
1.202,-0.065,-0.065
1.204,-0.035,-0.075
1.206,-0.010,-0.085
1.208,-0.010,-0.085
1.210,-0.010,-0.085
1.212,0.045,-0.075
1.214,0.045,-0.065
1.216,0.045,-0.050
1.218,0.080,-0.035
1.220,0.020,-0.025
1.222,0.045,-0.020
1.224,0.045,-0.020
1.226,0.030,-0.025
1.228,0.035,-0.035
1.230,0.010,-0.045
1.232,0.025,-0.055
1.234,0.025,-0.065
1.236,0.055,-0.070
1.238,0.020,-0.075
1.240,-0.070,-0.075
1.242,-0.025,-0.070
1.244,-0.040,-0.070
1.246,-0.005,-0.070
1.248,0.060,-0.070
1.250,0.005,-0.075
1.252,-0.025,-0.075
1.254,0.015,-0.080
1.256,0.010,-0.080
1.258,0.030,-0.080
1.260,0.020,-0.075
1.262,0.020,-0.070
1.264,-0.005,-0.065
1.266,-0.010,-0.055
1.268,-0.020,-0.055
1.270,0.015,-0.055
1.272,0.020,-0.065
1.274,-0.020,-0.075
1.276,-0.010,-0.090
1.278,-0.005,-0.105
1.280,-0.080,-0.120
1.282,-0.080,-0.130
1.284,-0.050,-0.130
1.286,-0.045,-0.125
1.288,-0.035,-0.110
1.290,0.035,-0.095
1.292,0.035,-0.075
1.294,0.055,-0.060
1.296,0.035,-0.045
1.298,0.020,-0.040
1.300,0.015,-0.040
1.302,-0.010,-0.045
1.304,-0.065,-0.055
1.306,0.025,-0.065
1.308,0.065,-0.075
1.310,-0.025,-0.080
1.312,-0.025,-0.080
1.314,0.120,-0.080
1.316,0.010,-0.075
1.318,-0.075,-0.065
1.320,-0.040,-0.060
1.322,-0.010,-0.060
1.324,-0.010,-0.060
1.326,-0.010,-0.070
1.328,0.025,-0.080
1.330,-0.005,-0.095
1.332,0.020,-0.105
1.334,-0.065,-0.120
1.336,-0.060,-0.130
1.338,-0.050,-0.135
1.340,-0.100,-0.135
1.342,-0.100,-0.135
1.344,-0.045,-0.125
1.346,0.005,-0.110
1.348,-0.020,-0.100
1.350,-0.075,-0.085
1.352,0.025,-0.075
1.354,0.050,-0.065
1.356,-0.015,-0.065
1.358,0.015,-0.060
1.360,0.010,-0.065
1.362,-0.020,-0.070
1.364,-0.015,-0.075
1.366,-0.070,-0.075
1.368,0.005,-0.075
1.370,0.000,-0.075
1.372,0.000,-0.070
1.374,0.015,-0.070
1.376,-0.010,-0.060
1.378,0.030,-0.060
1.380,0.065,-0.055
1.382,-0.010,-0.050
1.384,0.005,-0.050
1.386,0.020,-0.050
1.388,0.025,-0.045
1.390,0.070,-0.040
1.392,0.010,-0.035
1.394,0.025,-0.025
1.396,0.040,-0.020
1.398,0.135,-0.010
1.400,0.080,-0.005
1.402,0.050,-0.005
1.404,0.030,-0.005
1.406,0.045,-0.005
1.408,-0.025,-0.010
1.410,0.050,-0.015
1.412,0.060,-0.015
1.414,0.070,-0.015
1.416,0.115,-0.015
1.418,0.070,-0.010
1.420,0.045,-0.005
1.422,0.045,0.000
1.424,0.045,0.000
1.426,0.045,-0.010
1.428,0.000,-0.025
1.430,0.055,-0.040
1.432,0.040,-0.060
1.434,0.000,-0.075
1.436,-0.065,-0.090
1.438,-0.040,-0.095
1.440,0.010,-0.090
1.442,-0.060,-0.080
1.444,-0.065,-0.065
1.446,0.010,-0.055
1.448,0.110,-0.045
1.450,0.055,-0.045
1.452,0.020,-0.055
1.454,-0.025,-0.070
1.456,-0.135,-0.085
1.458,-0.040,-0.105
1.460,-0.020,-0.115
1.462,-0.080,-0.120
1.464,-0.060,-0.110
1.466,-0.105,-0.100
1.468,0.035,-0.085
1.470,0.020,-0.070
1.472,0.125,-0.065
1.474,-0.025,-0.065
1.476,-0.060,-0.075
1.478,-0.060,-0.090
1.480,-0.020,-0.105
1.482,-0.100,-0.120
1.484,-0.075,-0.130
1.486,-0.035,-0.135
1.488,-0.010,-0.135
1.490,-0.005,-0.130
1.492,0.020,-0.120
1.494,-0.050,-0.110
1.496,-0.075,-0.110
1.498,-0.065,-0.105
1.500,-0.040,-0.105
1.502,-0.100,-0.105
1.504,-0.095,-0.105
1.506,-0.020,-0.100
1.508,0.045,-0.095
1.510,0.055,-0.085
1.512,0.050,-0.085
1.514,0.000,-0.085
1.516,-0.035,-0.100
1.518,-0.075,-0.115
1.520,-0.170,-0.140
1.522,-0.195,-0.160
1.524,-0.115,-0.175
1.526,-0.145,-0.175
1.528,-0.135,-0.155
1.530,-0.025,-0.110
1.532,0.115,-0.040
1.534,0.125,0.045
1.536,0.260,0.145
1.538,0.400,0.255
1.540,0.420,0.365
1.542,0.425,0.470
1.544,0.570,0.565
1.546,0.770,0.645
1.548,0.900,0.710
1.550,0.905,0.745
1.552,0.795,0.755
1.554,0.760,0.735
1.556,0.820,0.680
1.558,0.685,0.595
1.560,0.500,0.485
1.562,0.400,0.360
1.564,0.270,0.225
1.566,0.095,0.095
1.568,-0.050,-0.015
1.570,-0.035,-0.100
1.572,-0.100,-0.150
1.574,-0.090,-0.170
1.576,-0.145,-0.165
1.578,-0.065,-0.140
1.580,-0.070,-0.105
1.582,-0.020,-0.070
1.584,0.070,-0.045
1.586,0.050,-0.030
1.588,0.030,-0.030
1.590,0.045,-0.040
1.592,-0.035,-0.055
1.594,0.035,-0.070
1.596,-0.025,-0.085
1.598,-0.050,-0.095
1.600,-0.055,-0.095
1.602,-0.150,-0.090
1.604,-0.075,-0.080
1.606,0.055,-0.065
1.608,0.085,-0.055
1.610,0.060,-0.045
1.612,0.050,-0.040
1.614,0.020,-0.035
1.616,0.010,-0.030
1.618,0.015,-0.025
1.620,0.015,-0.025
1.622,0.020,-0.020
1.624,-0.010,-0.020
1.626,-0.005,-0.020
1.628,0.075,-0.020
1.630,0.070,-0.025
1.632,0.075,-0.025
1.634,0.000,-0.030
1.636,0.005,-0.030
1.638,0.045,-0.030
1.640,0.030,-0.030
1.642,0.030,-0.030
1.644,0.005,-0.025
1.646,0.035,-0.025
1.648,0.025,-0.025
1.650,0.080,-0.025
1.652,0.095,-0.025
1.654,0.045,-0.025
1.656,0.010,-0.025
1.658,-0.005,-0.020
1.660,-0.010,-0.015
1.662,0.110,-0.005
1.664,0.080,0.005
1.666,0.095,0.015
1.668,0.095,0.025
1.670,0.055,0.030
1.672,0.030,0.030
1.674,0.155,0.030
1.676,0.070,0.025
1.678,0.025,0.015
1.680,0.010,0.005
1.682,0.020,0.000
1.684,0.015,-0.005
1.686,0.065,-0.010
1.688,0.100,-0.005
1.690,0.190,-0.005
1.692,0.090,0.005
1.694,0.045,0.010
1.696,-0.050,0.015
1.698,0.030,0.025
1.700,0.080,0.030
1.702,0.080,0.040
1.704,0.180,0.045
1.706,0.125,0.055
1.708,0.090,0.060
1.710,0.180,0.070
1.712,0.165,0.075
1.714,0.155,0.085
1.716,0.145,0.090
1.718,0.220,0.095
1.720,0.125,0.095
1.722,0.125,0.100
1.724,0.085,0.100
1.726,0.185,0.105
1.728,0.185,0.110
1.730,0.175,0.120
1.732,0.185,0.130
1.734,0.215,0.150
1.736,0.240,0.170
1.738,0.280,0.190
1.740,0.330,0.215
1.742,0.360,0.235
1.744,0.280,0.245
1.746,0.285,0.255
1.748,0.275,0.255
1.750,0.325,0.245
1.752,0.310,0.230
1.754,0.310,0.215
1.756,0.160,0.195
1.758,0.165,0.180
1.760,0.280,0.175
1.762,0.270,0.175
1.764,0.280,0.180
1.766,0.300,0.195
1.768,0.275,0.215
1.770,0.130,0.230
1.772,0.235,0.245
1.774,0.410,0.255
1.776,0.345,0.265
1.778,0.375,0.265
1.780,0.275,0.265
1.782,0.320,0.265
1.784,0.360,0.265
1.786,0.315,0.265
1.788,0.335,0.270
1.790,0.310,0.270
1.792,0.290,0.270
1.794,0.280,0.260
1.796,0.255,0.240
1.798,0.250,0.215
1.800,0.220,0.180
1.802,0.160,0.145
1.804,0.140,0.115
1.806,0.165,0.085
1.808,0.225,0.065
1.810,0.175,0.060
1.812,0.025,0.065
1.814,-0.005,0.075
1.816,0.160,0.090
1.818,0.205,0.105
1.820,0.195,0.115
1.822,0.215,0.115
1.824,0.160,0.105
1.826,0.115,0.085
1.828,0.095,0.055
1.830,0.015,0.020
1.832,0.015,-0.015
1.834,0.005,-0.045
1.836,-0.025,-0.065
1.838,-0.105,-0.080
1.840,-0.030,-0.080
1.842,-0.020,-0.075
1.844,-0.015,-0.060
1.846,0.050,-0.045
1.848,0.050,-0.030
1.850,0.060,-0.025
1.852,0.060,-0.020
1.854,0.040,-0.030
1.856,-0.055,-0.045
1.858,-0.045,-0.060
1.860,-0.055,-0.080
1.862,-0.075,-0.095
1.864,-0.060,-0.105
1.866,-0.085,-0.105
1.868,-0.015,-0.100
1.870,-0.015,-0.085
1.872,0.020,-0.065
1.874,0.035,-0.050
1.876,0.030,-0.035
1.878,0.000,-0.030
1.880,0.000,-0.030
1.882,-0.020,-0.035
1.884,0.025,-0.045
1.886,0.040,-0.060
1.888,-0.040,-0.065
1.890,-0.065,-0.075
1.892,-0.010,-0.075
1.894,-0.030,-0.070
1.896,-0.060,-0.070
1.898,-0.005,-0.065
1.900,-0.005,-0.065
1.902,-0.040,-0.070
1.904,-0.115,-0.080
1.906,-0.065,-0.090
1.908,-0.010,-0.105
1.910,-0.005,-0.110
1.912,-0.080,-0.115
1.914,-0.065,-0.110
1.916,-0.040,-0.095
1.918,-0.010,-0.075
1.920,-0.015,-0.055
1.922,-0.020,-0.035
1.924,0.060,-0.020
1.926,0.005,-0.015
1.928,0.075,-0.015
1.930,0.025,-0.020
1.932,0.010,-0.035
1.934,-0.045,-0.050
1.936,-0.085,-0.060
1.938,-0.045,-0.065
1.940,-0.005,-0.065
1.942,0.055,-0.060
1.944,-0.005,-0.055
1.946,-0.020,-0.045
1.948,0.045,-0.035
1.950,0.080,-0.030
1.952,-0.025,-0.025
1.954,-0.025,-0.030
1.956,-0.020,-0.035
1.958,-0.040,-0.045
1.960,-0.025,-0.055
1.962,-0.005,-0.065
1.964,-0.045,-0.070
1.966,-0.045,-0.075
1.968,-0.020,-0.075
1.970,0.010,-0.075
1.972,0.010,-0.075
1.974,-0.020,-0.075
1.976,-0.020,-0.070
1.978,-0.055,-0.065
1.980,-0.055,-0.060
1.982,-0.075,-0.055
1.984,0.015,-0.050
1.986,0.000,-0.045
1.988,-0.010,-0.045
1.990,0.020,-0.055
1.992,0.030,-0.065
1.994,0.005,-0.075
1.996,-0.100,-0.090
1.998,-0.085,-0.105
2.000,-0.090,-0.110
2.002,-0.075,-0.110
2.004,-0.040,-0.100
2.006,-0.040,-0.090
2.008,0.010,-0.070
2.010,0.010,-0.055
2.012,0.060,-0.040
2.014,0.005,-0.035
2.016,-0.065,-0.040
2.018,-0.065,-0.050
2.020,-0.035,-0.065
2.022,0.020,-0.080
2.024,0.080,-0.095
2.026,-0.125,-0.105
2.028,-0.090,-0.105
2.030,-0.025,-0.105
2.032,-0.060,-0.095
2.034,-0.080,-0.090
2.036,-0.015,-0.080
2.038,-0.025,-0.080
2.040,-0.100,-0.080
2.042,-0.080,-0.085
2.044,-0.020,-0.085
2.046,-0.030,-0.085
2.048,-0.065,-0.085
2.050,-0.015,-0.075
2.052,0.025,-0.065
2.054,0.010,-0.050
2.056,-0.010,-0.040
2.058,-0.040,-0.035
2.060,-0.060,-0.035
2.062,-0.040,-0.045
2.064,-0.035,-0.060
2.066,-0.040,-0.075
2.068,-0.040,-0.090
2.070,-0.070,-0.100
2.072,-0.050,-0.110
2.074,-0.085,-0.110
2.076,-0.070,-0.105
2.078,-0.060,-0.100
2.080,-0.060,-0.090
2.082,-0.070,-0.085
2.084,-0.070,-0.080
2.086,-0.005,-0.075
2.088,0.025,-0.075
2.090,-0.050,-0.070
2.092,-0.035,-0.065
2.094,0.015,-0.060
2.096,0.020,-0.050
2.098,-0.020,-0.040
2.100,-0.015,-0.035
2.102,-0.020,-0.030
2.104,0.010,-0.030
2.106,0.020,-0.035
2.108,0.070,-0.045
2.110,-0.040,-0.055
2.112,-0.045,-0.065
2.114,-0.035,-0.075
2.116,-0.015,-0.080
2.118,-0.105,-0.080
2.120,-0.050,-0.075
2.122,-0.005,-0.070
2.124,0.015,-0.065
2.126,0.020,-0.055
2.128,-0.040,-0.045
2.130,-0.035,-0.035
2.132,-0.065,-0.025
2.134,0.060,-0.010
2.136,0.025,0.000
2.138,-0.015,0.015
2.140,0.085,0.020
2.142,0.110,0.020
2.144,0.100,0.015
2.146,0.010,0.005
2.148,0.035,-0.015
2.150,-0.035,-0.035
2.152,-0.015,-0.055
2.154,-0.105,-0.070
2.156,-0.095,-0.080
2.158,0.030,-0.080
2.160,-0.020,-0.080
2.162,-0.065,-0.070
2.164,-0.085,-0.060
2.166,-0.005,-0.050
2.168,-0.015,-0.045
2.170,-0.030,-0.040
2.172,-0.020,-0.040
2.174,-0.015,-0.045
2.176,-0.035,-0.050
2.178,-0.045,-0.055
2.180,-0.020,-0.065
2.182,-0.045,-0.075
2.184,-0.045,-0.085
2.186,-0.020,-0.095
2.188,-0.105,-0.105
2.190,-0.050,-0.120
2.192,-0.100,-0.130
2.194,-0.105,-0.140
2.196,-0.140,-0.140
2.198,-0.210,-0.135
2.200,-0.120,-0.125
2.202,-0.065,-0.110
2.204,0.015,-0.095
2.206,0.010,-0.080
2.208,-0.015,-0.070
2.210,-0.080,-0.070
2.212,-0.110,-0.075
2.214,-0.090,-0.085
2.216,-0.110,-0.095
2.218,-0.130,-0.105
2.220,-0.080,-0.110
2.222,-0.015,-0.110
2.224,-0.045,-0.100
2.226,-0.005,-0.090
2.228,-0.030,-0.080
2.230,-0.060,-0.080
2.232,-0.050,-0.085
2.234,-0.030,-0.100
2.236,-0.160,-0.120
2.238,-0.180,-0.150
2.240,-0.180,-0.175
2.242,-0.195,-0.200
2.244,-0.180,-0.210
2.246,-0.180,-0.205
2.248,-0.225,-0.185
2.250,-0.155,-0.155
2.252,-0.155,-0.110
2.254,0.070,-0.060
2.256,0.055,0.005
2.258,0.070,0.075
2.260,0.165,0.155
2.262,0.255,0.245
2.264,0.435,0.345
2.266,0.485,0.455
2.268,0.585,0.570
2.270,0.765,0.675
2.272,0.920,0.770
2.274,0.870,0.835
2.276,0.845,0.865
2.278,0.850,0.850
2.280,0.825,0.790
2.282,0.775,0.690
2.284,0.625,0.555
2.286,0.380,0.400
2.288,0.245,0.245
2.290,0.110,0.095
2.292,-0.040,-0.030
2.294,-0.220,-0.120
2.296,-0.180,-0.180
2.298,-0.220,-0.210
2.300,-0.195,-0.205
2.302,-0.160,-0.190
2.304,-0.090,-0.160
2.306,-0.010,-0.125
2.308,-0.020,-0.100
2.310,-0.005,-0.080
2.312,-0.005,-0.070
2.314,-0.105,-0.065
2.316,-0.090,-0.070
2.318,-0.075,-0.075
2.320,-0.045,-0.080
2.322,-0.075,-0.080
2.324,-0.030,-0.080
2.326,-0.030,-0.075
2.328,0.065,-0.065
2.330,-0.020,-0.055
2.332,-0.040,-0.050
2.334,-0.050,-0.040
2.336,-0.105,-0.040
2.338,-0.030,-0.040
2.340,-0.020,-0.040
2.342,-0.005,-0.045
2.344,0.030,-0.050
2.346,-0.030,-0.055
2.348,-0.085,-0.060
2.350,0.025,-0.060
2.352,-0.070,-0.055
2.354,-0.065,-0.045
2.356,-0.065,-0.035
2.358,-0.010,-0.020
2.360,0.055,-0.010
2.362,0.070,0.000
2.364,0.055,0.010
2.366,0.060,0.010
2.368,0.010,0.005
2.370,-0.030,0.000
2.372,-0.025,-0.010
2.374,0.015,-0.020
2.376,-0.010,-0.030
2.378,0.010,-0.035
2.380,0.025,-0.035
2.382,-0.065,-0.030
2.384,-0.060,-0.020
2.386,0.080,-0.010
2.388,0.105,0.000
2.390,0.035,0.010
2.392,0.005,0.015
2.394,0.015,0.015
2.396,0.030,0.010
2.398,-0.020,0.005
2.400,-0.045,-0.010
2.402,0.060,-0.020
2.404,0.065,-0.030
2.406,0.070,-0.030
2.408,-0.035,-0.030
2.410,-0.010,-0.020
2.412,0.020,-0.010
2.414,-0.035,0.000
2.416,-0.035,0.010
2.418,0.070,0.020
2.420,0.160,0.020
2.422,-0.005,0.020
2.424,0.060,0.020
2.426,0.100,0.015
2.428,0.090,0.015
2.430,0.000,0.020
2.432,-0.060,0.030
2.434,-0.060,0.050
2.436,0.110,0.070
2.438,0.130,0.090
2.440,0.195,0.115
2.442,0.215,0.130
2.444,0.180,0.140
2.446,0.140,0.150
2.448,0.165,0.155
2.450,0.160,0.155
2.452,0.185,0.160
2.454,0.165,0.160
2.456,0.145,0.165
2.458,0.180,0.175
2.460,0.175,0.180
2.462,0.295,0.180
2.464,0.240,0.175
2.466,0.155,0.170
2.468,0.145,0.160
2.470,0.125,0.150
2.472,0.165,0.145
2.474,0.145,0.145
2.476,0.160,0.160
2.478,0.190,0.175
2.480,0.310,0.200
2.482,0.310,0.225
2.484,0.290,0.250
2.486,0.200,0.265
2.488,0.255,0.270
2.490,0.315,0.265
2.492,0.315,0.255
2.494,0.240,0.245
2.496,0.240,0.240
2.498,0.185,0.240
2.500,0.220,0.245
2.502,0.205,0.255
2.504,0.380,0.270
2.506,0.395,0.280
2.508,0.320,0.280
2.510,0.325,0.270
2.512,0.350,0.250
2.514,0.165,0.220
2.516,0.165,0.185
2.518,0.180,0.150
2.520,0.040,0.120
2.522,0.115,0.105
2.524,0.165,0.095
2.526,0.165,0.105
2.528,0.155,0.115
2.530,0.185,0.130
2.532,0.170,0.140
2.534,0.110,0.140
2.536,0.115,0.135
2.538,0.130,0.115
2.540,0.110,0.090
2.542,0.025,0.065
2.544,0.085,0.035
2.546,0.085,0.010
2.548,0.000,-0.010
2.550,0.000,-0.025
2.552,-0.030,-0.030
2.554,-0.090,-0.035
2.556,-0.070,-0.035
2.558,-0.015,-0.035
2.560,0.005,-0.035
2.562,0.000,-0.035
2.564,0.015,-0.040
2.566,0.040,-0.045
2.568,-0.025,-0.050
2.570,-0.090,-0.060
2.572,-0.130,-0.070
2.574,-0.155,-0.080
2.576,-0.085,-0.085
2.578,-0.045,-0.090
2.580,-0.020,-0.090
2.582,-0.050,-0.085
2.584,-0.070,-0.075
2.586,-0.110,-0.065
2.588,0.020,-0.060
2.590,-0.060,-0.055
2.592,-0.135,-0.050
2.594,-0.020,-0.050
2.596,-0.075,-0.055
2.598,-0.020,-0.060
2.600,0.000,-0.060
2.602,-0.015,-0.060
2.604,-0.075,-0.055
2.606,-0.060,-0.050
2.608,-0.005,-0.045
2.610,-0.005,-0.040
2.612,-0.040,-0.045
2.614,-0.060,-0.050
2.616,-0.070,-0.060
2.618,-0.090,-0.070
2.620,-0.125,-0.085
2.622,-0.050,-0.095
2.624,-0.025,-0.095
2.626,-0.070,-0.090
2.628,-0.100,-0.080
2.630,-0.030,-0.060
2.632,0.015,-0.050
2.634,-0.050,-0.040
2.636,-0.075,-0.035
2.638,-0.020,-0.045
2.640,-0.030,-0.055
2.642,-0.065,-0.070
2.644,-0.065,-0.085
2.646,-0.145,-0.090
2.648,-0.170,-0.090
2.650,-0.075,-0.080
2.652,0.040,-0.060
2.654,0.040,-0.035
2.656,0.015,-0.015
2.658,-0.050,-0.005
2.660,-0.070,0.000
2.662,0.015,-0.005
2.664,0.050,-0.020
2.666,-0.030,-0.040
2.668,-0.050,-0.060
2.670,-0.070,-0.075
2.672,-0.070,-0.080
2.674,-0.045,-0.075
2.676,-0.090,-0.065
2.678,-0.010,-0.055
2.680,-0.020,-0.045
2.682,-0.015,-0.040
2.684,-0.090,-0.040
2.686,-0.005,-0.045
2.688,0.050,-0.060
2.690,-0.070,-0.075
2.692,-0.130,-0.090
2.694,-0.105,-0.100
2.696,-0.070,-0.105
2.698,-0.080,-0.100
2.700,-0.070,-0.095
2.702,-0.135,-0.080
2.704,-0.030,-0.070
2.706,0.025,-0.060
2.708,-0.050,-0.050
2.710,-0.025,-0.045
2.712,0.005,-0.040
2.714,-0.020,-0.040
2.716,-0.060,-0.040
2.718,-0.020,-0.045
2.720,-0.065,-0.050
2.722,-0.090,-0.055
2.724,-0.090,-0.070
2.726,-0.050,-0.085
2.728,-0.075,-0.100
2.730,-0.085,-0.115
2.732,-0.120,-0.130
2.734,-0.155,-0.140
2.736,-0.165,-0.140
2.738,-0.140,-0.140
2.740,-0.080,-0.125
2.742,-0.050,-0.105
2.744,-0.015,-0.085
2.746,-0.030,-0.065
2.748,-0.070,-0.045
2.750,-0.010,-0.035
2.752,-0.015,-0.035
2.754,-0.110,-0.040
2.756,-0.010,-0.055
2.758,0.030,-0.070
2.760,-0.095,-0.090
2.762,-0.095,-0.105
2.764,-0.090,-0.115
2.766,-0.120,-0.120
2.768,-0.185,-0.115
2.770,-0.125,-0.110
2.772,-0.070,-0.095
2.774,-0.010,-0.080
2.776,0.025,-0.070
2.778,-0.025,-0.055
2.780,-0.085,-0.050
2.782,-0.025,-0.045
2.784,0.000,-0.045
2.786,0.000,-0.050
2.788,-0.070,-0.065
2.790,-0.125,-0.075
2.792,-0.150,-0.090
2.794,-0.065,-0.100
2.796,-0.030,-0.110
2.798,-0.105,-0.115
2.800,-0.105,-0.115
2.802,-0.115,-0.110
2.804,-0.115,-0.100
2.806,-0.075,-0.090
2.808,-0.080,-0.075
2.810,-0.005,-0.065
2.812,-0.055,-0.065
2.814,-0.085,-0.070
2.816,-0.040,-0.080
2.818,-0.105,-0.095
2.820,-0.100,-0.115
2.822,-0.125,-0.125
2.824,-0.075,-0.135
2.826,-0.075,-0.130
2.828,-0.175,-0.120
2.830,-0.100,-0.100
2.832,-0.025,-0.075
2.834,-0.020,-0.050
2.836,0.030,-0.030
2.838,0.045,-0.020
2.840,0.015,-0.015
2.842,0.015,-0.020
2.844,-0.065,-0.035
2.846,-0.055,-0.045
2.848,-0.070,-0.055
2.850,-0.045,-0.060
2.852,-0.025,-0.055
2.854,-0.060,-0.045
2.856,0.020,-0.035
2.858,0.035,-0.020
2.860,0.035,-0.010
2.862,0.105,-0.010
2.864,-0.005,-0.015
2.866,-0.110,-0.025
2.868,-0.040,-0.040
2.870,-0.015,-0.055
2.872,-0.055,-0.065
2.874,-0.130,-0.075
2.876,-0.090,-0.075
2.878,-0.070,-0.075
2.880,0.040,-0.070
2.882,0.020,-0.070
2.884,-0.100,-0.070
2.886,-0.070,-0.080
2.888,-0.080,-0.095
2.890,-0.120,-0.115
2.892,-0.200,-0.135
2.894,-0.135,-0.150
2.896,-0.210,-0.155
2.898,-0.105,-0.155
2.900,-0.030,-0.140
2.902,-0.030,-0.125
2.904,-0.120,-0.105
2.906,-0.040,-0.085
2.908,-0.030,-0.070
2.910,-0.105,-0.060
2.912,-0.115,-0.060
2.914,-0.125,-0.070
2.916,-0.075,-0.080
2.918,-0.060,-0.090
2.920,-0.055,-0.105
2.922,-0.060,-0.110
2.924,-0.090,-0.115
2.926,-0.130,-0.120
2.928,-0.195,-0.115
2.930,-0.170,-0.115
2.932,-0.095,-0.115
2.934,-0.025,-0.120
2.936,-0.095,-0.120
2.938,-0.065,-0.125
2.940,-0.090,-0.125
2.942,-0.100,-0.120
2.944,-0.075,-0.115
2.946,-0.095,-0.110
2.948,-0.080,-0.105
2.950,-0.130,-0.100
2.952,-0.125,-0.105
2.954,-0.120,-0.110
2.956,-0.120,-0.125
2.958,-0.195,-0.145
2.960,-0.185,-0.165
2.962,-0.130,-0.185
2.964,-0.065,-0.195
2.966,-0.190,-0.200
2.968,-0.195,-0.195
2.970,-0.155,-0.180
2.972,-0.150,-0.155
2.974,-0.180,-0.120
2.976,-0.090,-0.080
2.978,0.020,-0.030
2.980,0.095,0.025
2.982,0.130,0.095
2.984,0.200,0.180
2.986,0.305,0.275
2.988,0.460,0.390
2.990,0.485,0.505
2.992,0.625,0.625
2.994,0.810,0.730
2.996,0.890,0.810
2.998,0.930,0.855
3.000,0.945,0.855
3.002,0.880,0.810
3.004,0.750,0.725
3.006,0.610,0.600
3.008,0.460,0.455
3.010,0.240,0.300
3.012,0.065,0.155
3.014,0.025,0.030
3.016,-0.090,-0.065
3.018,-0.190,-0.125
3.020,-0.175,-0.160
3.022,-0.110,-0.170
3.024,-0.130,-0.160
3.026,-0.100,-0.145
3.028,-0.105,-0.125
3.030,-0.120,-0.105
3.032,-0.030,-0.095
3.034,-0.080,-0.095
3.036,-0.170,-0.095
3.038,-0.130,-0.100
3.040,-0.015,-0.100
3.042,-0.045,-0.100
3.044,-0.110,-0.100
3.046,-0.120,-0.090
3.048,-0.060,-0.080
3.050,-0.035,-0.065
3.052,0.000,-0.050
3.054,-0.010,-0.040
3.056,-0.010,-0.030
3.058,-0.015,-0.025
3.060,-0.005,-0.025
3.062,-0.035,-0.035
3.064,-0.065,-0.045
3.066,-0.080,-0.055
3.068,-0.010,-0.070
3.070,-0.115,-0.080
3.072,-0.060,-0.090
3.074,-0.055,-0.095
3.076,-0.075,-0.095
3.078,-0.105,-0.090
3.080,-0.080,-0.080
3.082,-0.090,-0.065
3.084,-0.125,-0.050
3.086,0.035,-0.040
3.088,0.010,-0.025
3.090,-0.005,-0.020
3.092,-0.020,-0.020
3.094,-0.035,-0.020
3.096,-0.015,-0.025
3.098,-0.015,-0.030
3.100,0.000,-0.035
3.102,-0.005,-0.035
3.104,-0.050,-0.030
3.106,-0.010,-0.020
3.108,0.025,-0.010
3.110,0.020,0.000
3.112,-0.020,0.010
3.114,0.035,0.010
3.116,0.075,0.005
3.118,0.075,-0.005
3.120,-0.010,-0.020
3.122,-0.170,-0.035
3.124,-0.035,-0.045
3.126,0.030,-0.045
3.128,-0.050,-0.040
3.130,-0.035,-0.030
3.132,0.070,-0.010
3.134,0.085,0.015
3.136,0.080,0.035
3.138,0.110,0.050
3.140,0.120,0.060
3.142,0.040,0.060
3.144,0.040,0.055
3.146,0.060,0.050
3.148,0.055,0.040
3.150,0.040,0.035
3.152,-0.015,0.030
3.154,-0.015,0.030
3.156,0.085,0.035
3.158,0.085,0.040
3.160,0.040,0.045
3.162,0.095,0.055
3.164,0.105,0.065
3.166,0.105,0.075
3.168,0.105,0.085
3.170,0.065,0.100
3.172,0.145,0.115
3.174,0.095,0.135
3.176,0.175,0.150
3.178,0.240,0.165
3.180,0.220,0.180
3.182,0.215,0.185
3.184,0.195,0.190
3.186,0.120,0.190
3.188,0.160,0.195
3.190,0.235,0.195
3.192,0.260,0.205
3.194,0.270,0.215
3.196,0.260,0.230
3.198,0.260,0.250
3.200,0.325,0.265
3.202,0.240,0.275
3.204,0.305,0.280
3.206,0.300,0.275
3.208,0.275,0.260
3.210,0.200,0.245
3.212,0.230,0.225
3.214,0.195,0.210
3.216,0.150,0.200
3.218,0.265,0.195
3.220,0.320,0.205
3.222,0.330,0.215
3.224,0.190,0.230
3.226,0.200,0.245
3.228,0.295,0.255
3.230,0.300,0.260
3.232,0.230,0.255
3.234,0.275,0.240
3.236,0.280,0.225
3.238,0.210,0.210
3.240,0.215,0.195
3.242,0.145,0.190
3.244,0.185,0.185
3.246,0.285,0.185
3.248,0.220,0.185
3.250,0.190,0.180
3.252,0.105,0.175
3.254,0.130,0.155
3.256,0.180,0.130
3.258,0.185,0.100
3.260,0.135,0.065
3.262,0.010,0.035
3.264,-0.040,0.010
3.266,-0.050,-0.005
3.268,-0.115,-0.010
3.270,-0.070,0.000
3.272,0.155,0.015
3.274,0.140,0.030
3.276,0.095,0.045
3.278,0.105,0.050
3.280,0.035,0.045
3.282,0.035,0.030
3.284,-0.015,0.005
3.286,-0.080,-0.025
3.288,-0.055,-0.050
3.290,-0.035,-0.075
3.292,-0.065,-0.090
3.294,-0.025,-0.095
3.296,-0.060,-0.095
3.298,-0.060,-0.085
3.300,-0.070,-0.075
3.302,-0.020,-0.060
3.304,-0.045,-0.050
3.306,-0.065,-0.050
3.308,-0.080,-0.050
3.310,-0.005,-0.055
3.312,-0.120,-0.065
3.314,-0.130,-0.075
3.316,-0.015,-0.080
3.318,0.030,-0.085
3.320,-0.020,-0.085
3.322,-0.065,-0.080
3.324,-0.070,-0.080
3.326,-0.080,-0.075
3.328,-0.075,-0.075
3.330,-0.140,-0.075
3.332,-0.070,-0.080
3.334,-0.005,-0.085
3.336,0.005,-0.085
3.338,-0.065,-0.085
3.340,-0.100,-0.085
3.342,-0.120,-0.075
3.344,-0.065,-0.065
3.346,0.005,-0.055
3.348,-0.030,-0.045
3.350,-0.010,-0.035
3.352,-0.005,-0.025
3.354,0.025,-0.025
3.356,-0.025,-0.030
3.358,0.005,-0.035
3.360,-0.060,-0.045
3.362,-0.020,-0.055
3.364,-0.085,-0.065
3.366,-0.035,-0.070
3.368,-0.125,-0.070
3.370,-0.020,-0.070
3.372,-0.035,-0.065
3.374,-0.060,-0.060
3.376,-0.050,-0.055
3.378,-0.005,-0.055
3.380,-0.025,-0.060
3.382,-0.015,-0.065
3.384,-0.065,-0.075
3.386,-0.140,-0.085
3.388,-0.130,-0.095
3.390,-0.075,-0.095
3.392,-0.040,-0.095
3.394,-0.060,-0.085
3.396,-0.030,-0.075
3.398,0.030,-0.060
3.400,0.055,-0.045
3.402,-0.065,-0.035
3.404,-0.085,-0.030
3.406,-0.095,-0.030
3.408,0.030,-0.035
3.410,-0.055,-0.045
3.412,-0.040,-0.055
3.414,-0.015,-0.060
3.416,-0.050,-0.070
3.418,-0.040,-0.070
3.420,-0.045,-0.070
3.422,-0.035,-0.065
3.424,-0.115,-0.055
3.426,-0.025,-0.050
3.428,-0.035,-0.040
3.430,-0.015,-0.030
3.432,-0.010,-0.025
3.434,-0.010,-0.025
3.436,-0.025,-0.025
3.438,-0.005,-0.025
3.440,-0.010,-0.035
3.442,-0.075,-0.050
3.444,-0.050,-0.065
3.446,-0.070,-0.085
3.448,-0.090,-0.105
3.450,-0.110,-0.125
3.452,-0.180,-0.140
3.454,-0.220,-0.145
3.456,-0.150,-0.140
3.458,-0.100,-0.130
3.460,0.020,-0.110
3.462,-0.040,-0.090
3.464,-0.025,-0.065
3.466,-0.055,-0.050
3.468,-0.065,-0.040
3.470,-0.045,-0.035
3.472,0.020,-0.040
3.474,0.040,-0.050
3.476,0.010,-0.060
3.478,-0.145,-0.070
3.480,-0.185,-0.070
3.482,-0.035,-0.070
3.484,-0.005,-0.065
3.486,-0.010,-0.055
3.488,-0.025,-0.050
3.490,-0.055,-0.050
3.492,-0.095,-0.055
3.494,-0.065,-0.065
3.496,-0.090,-0.080
3.498,-0.110,-0.095
3.500,-0.115,-0.105
3.502,-0.085,-0.110
3.504,0.045,-0.110
3.506,-0.135,-0.105
3.508,-0.130,-0.095
3.510,-0.060,-0.090
3.512,-0.040,-0.085
3.514,-0.030,-0.080
3.516,-0.020,-0.085
3.518,-0.085,-0.090
3.520,-0.085,-0.095
3.522,-0.090,-0.095
3.524,-0.090,-0.095
3.526,-0.115,-0.090
3.528,-0.115,-0.085
3.530,-0.115,-0.075
3.532,0.030,-0.070
3.534,-0.005,-0.065
3.536,-0.055,-0.060
3.538,-0.050,-0.060
3.540,-0.070,-0.065
3.542,-0.055,-0.065
3.544,-0.015,-0.060
3.546,-0.125,-0.055
3.548,-0.015,-0.045
3.550,0.005,-0.035
3.552,0.050,-0.025
3.554,0.020,-0.020
3.556,-0.020,-0.020
3.558,0.035,-0.020
3.560,-0.085,-0.030
3.562,-0.095,-0.035
3.564,-0.050,-0.045
3.566,-0.075,-0.045
3.568,-0.025,-0.045
3.570,0.030,-0.040
3.572,0.075,-0.030
3.574,0.045,-0.020
3.576,-0.005,-0.015
3.578,-0.010,-0.010
3.580,-0.075,-0.010
3.582,-0.080,-0.015
3.584,-0.025,-0.020
3.586,0.000,-0.025
3.588,0.055,-0.030
3.590,0.070,-0.030
3.592,-0.020,-0.030
3.594,-0.115,-0.030
3.596,-0.075,-0.030
3.598,0.010,-0.030
3.600,0.060,-0.035
3.602,-0.005,-0.045
3.604,-0.110,-0.060
3.606,-0.080,-0.070
3.608,-0.070,-0.085
3.610,-0.115,-0.090
3.612,-0.090,-0.095
3.614,-0.110,-0.095
3.616,-0.055,-0.095
3.618,-0.020,-0.090
3.620,-0.030,-0.090
3.622,-0.110,-0.095
3.624,-0.145,-0.095
3.626,-0.175,-0.100
3.628,-0.165,-0.100
3.630,-0.040,-0.100
3.632,0.005,-0.100
3.634,-0.035,-0.100
3.636,-0.045,-0.095
3.638,-0.075,-0.095
3.640,-0.165,-0.090
3.642,-0.130,-0.090
3.644,-0.065,-0.095
3.646,-0.090,-0.100
3.648,-0.100,-0.100
3.650,-0.140,-0.105
3.652,-0.140,-0.110
3.654,-0.075,-0.115
3.656,-0.085,-0.115
3.658,-0.065,-0.120
3.660,-0.110,-0.125
3.662,-0.100,-0.130
3.664,-0.100,-0.135
3.666,-0.205,-0.135
3.668,-0.145,-0.135
3.670,-0.090,-0.135
3.672,-0.075,-0.125
3.674,-0.055,-0.120
3.676,-0.055,-0.110
3.678,-0.080,-0.105
3.680,-0.100,-0.100
3.682,-0.150,-0.100
3.684,-0.125,-0.110
3.686,-0.095,-0.120
3.688,-0.075,-0.135
3.690,-0.125,-0.145
3.692,-0.200,-0.150
3.694,-0.195,-0.155
3.696,-0.170,-0.145
3.698,-0.050,-0.130
3.700,-0.075,-0.100
3.702,-0.020,-0.065
3.704,0.035,-0.015
3.706,0.050,0.050
3.708,0.130,0.125
3.710,0.195,0.215
3.712,0.260,0.315
3.714,0.415,0.420
3.716,0.615,0.525
3.718,0.755,0.620
3.720,0.830,0.695
3.722,0.815,0.745
3.724,0.740,0.760
3.726,0.710,0.740
3.728,0.600,0.680
3.730,0.535,0.585
3.732,0.500,0.465
3.734,0.425,0.330
3.736,0.185,0.195
3.738,0.060,0.070
3.740,-0.095,-0.040
3.742,-0.170,-0.120
3.744,-0.225,-0.170
3.746,-0.190,-0.195
3.748,-0.180,-0.190
3.750,-0.165,-0.165
3.752,-0.130,-0.125
3.754,-0.030,-0.085
3.756,0.090,-0.045
3.758,0.075,-0.015
3.760,0.010,0.005
3.762,0.000,0.010
3.764,-0.030,0.000
3.766,-0.055,-0.020
3.768,-0.055,-0.050
3.770,-0.130,-0.080
3.772,-0.130,-0.105
3.774,-0.080,-0.125
3.776,-0.135,-0.130
3.778,-0.060,-0.125
3.780,-0.065,-0.105
3.782,-0.030,-0.080
3.784,-0.025,-0.055
3.786,-0.005,-0.035
3.788,-0.065,-0.020
3.790,-0.015,-0.010
3.792,0.040,-0.015
3.794,-0.035,-0.025
3.796,-0.050,-0.035
3.798,-0.035,-0.045
3.800,-0.020,-0.050
3.802,-0.020,-0.045
3.804,0.000,-0.035
3.806,0.000,-0.025
3.808,0.035,-0.010
3.810,0.000,-0.005
3.812,-0.030,0.000
3.814,-0.050,-0.005
3.816,-0.060,-0.015
3.818,-0.015,-0.025
3.820,-0.050,-0.035
3.822,-0.010,-0.040
3.824,-0.005,-0.040
3.826,0.045,-0.035
3.828,0.005,-0.020
3.830,-0.045,0.000
3.832,-0.020,0.015
3.834,0.025,0.030
3.836,0.075,0.035
3.838,0.070,0.035
3.840,0.020,0.025
3.842,0.000,0.010
3.844,-0.015,-0.005
3.846,-0.055,-0.020
3.848,-0.040,-0.030
3.850,-0.005,-0.035
3.852,0.015,-0.035
3.854,0.065,-0.030
3.856,-0.060,-0.020
3.858,-0.045,-0.010
3.860,0.030,0.000
3.862,0.080,0.015
3.864,0.035,0.025
3.866,0.060,0.035
3.868,0.080,0.045
3.870,0.010,0.055
3.872,0.045,0.065
3.874,0.100,0.075
3.876,0.115,0.085
3.878,0.090,0.090
3.880,0.110,0.095
3.882,0.140,0.100
3.884,0.140,0.105
3.886,0.160,0.105
3.888,0.140,0.110
3.890,0.080,0.120
3.892,0.065,0.125
3.894,0.050,0.130
3.896,0.100,0.135
3.898,0.195,0.140
3.900,0.200,0.140
3.902,0.215,0.135
3.904,0.160,0.130
3.906,0.080,0.130
3.908,0.090,0.125
3.910,0.120,0.130
3.912,0.135,0.145
3.914,0.205,0.160
3.916,0.190,0.185
3.918,0.270,0.210
3.920,0.230,0.230
3.922,0.335,0.250
3.924,0.240,0.260
3.926,0.230,0.265
3.928,0.270,0.260
3.930,0.265,0.250
3.932,0.225,0.245
3.934,0.225,0.235
3.936,0.200,0.235
3.938,0.185,0.235
3.940,0.300,0.240
3.942,0.300,0.250
3.944,0.250,0.255
3.946,0.195,0.260
3.948,0.275,0.255
3.950,0.255,0.250
3.952,0.215,0.240
3.954,0.240,0.225
3.956,0.280,0.215
3.958,0.300,0.210
3.960,0.215,0.210
3.962,0.205,0.210
3.964,0.180,0.215
3.966,0.180,0.215
3.968,0.165,0.215
3.970,0.250,0.210
3.972,0.285,0.195
3.974,0.235,0.175
3.976,0.185,0.155
3.978,0.105,0.130
3.980,0.015,0.110
3.982,0.000,0.095
3.984,0.070,0.080
3.986,0.105,0.070
3.988,0.090,0.060
3.990,0.100,0.045
3.992,0.095,0.030
3.994,0.095,0.010
3.996,-0.070,-0.005
3.998,-0.180,-0.025
4.000,-0.070,-0.035
4.002,-0.010,-0.045
4.004,0.000,-0.045
4.006,0.000,-0.040
4.008,-0.040,-0.030
4.010,-0.015,-0.015
4.012,0.030,-0.005
4.014,0.000,0.000
4.016,0.000,0.000
4.018,0.010,-0.005
4.020,-0.025,-0.020
4.022,-0.040,-0.035
4.024,-0.100,-0.050
4.026,-0.115,-0.065
4.028,-0.080,-0.075
4.030,-0.060,-0.080
4.032,-0.005,-0.080
4.034,-0.030,-0.075
4.036,-0.090,-0.070
4.038,-0.070,-0.060
4.040,-0.055,-0.050
4.042,-0.015,-0.045
4.044,-0.025,-0.040
4.046,-0.055,-0.040
4.048,-0.055,-0.045
4.050,-0.025,-0.050
4.052,0.010,-0.055
4.054,0.010,-0.055
4.056,-0.095,-0.060
4.058,-0.105,-0.060
4.060,-0.020,-0.060
4.062,-0.055,-0.060
4.064,-0.100,-0.065
4.066,-0.055,-0.075
4.068,-0.065,-0.085
4.070,-0.145,-0.095
4.072,-0.105,-0.100
4.074,-0.085,-0.105
4.076,-0.065,-0.100
4.078,-0.075,-0.090
4.080,-0.025,-0.070
4.082,-0.090,-0.050
4.084,-0.035,-0.025
4.086,0.025,-0.010
4.088,0.000,-0.005
4.090,0.025,-0.005
4.092,-0.025,-0.020
4.094,-0.010,-0.040
4.096,-0.010,-0.065
4.098,-0.130,-0.080
4.100,-0.105,-0.090
4.102,-0.065,-0.090
4.104,-0.060,-0.075
4.106,-0.055,-0.055
4.108,-0.070,-0.035
4.110,-0.015,-0.015
4.112,0.055,-0.005
4.114,0.050,0.000
4.116,0.045,-0.010
4.118,-0.125,-0.025
4.120,-0.040,-0.045
4.122,-0.010,-0.065
4.124,-0.085,-0.075
4.126,-0.125,-0.080
4.128,-0.115,-0.075
4.130,-0.015,-0.065
4.132,0.035,-0.055
4.134,0.000,-0.045
4.136,0.030,-0.040
4.138,-0.030,-0.040
4.140,-0.140,-0.050
4.142,-0.090,-0.060
4.144,-0.110,-0.070
4.146,-0.115,-0.075
4.148,-0.055,-0.075
4.150,-0.020,-0.070
4.152,0.045,-0.060
4.154,0.040,-0.050
4.156,-0.010,-0.035
4.158,-0.080,-0.030
4.160,-0.110,-0.030
4.162,-0.090,-0.035
4.164,-0.015,-0.040
4.166,-0.025,-0.050
4.168,-0.035,-0.060
4.170,0.020,-0.065
4.172,0.045,-0.065
4.174,-0.120,-0.060
4.176,-0.120,-0.055
4.178,0.015,-0.050
4.180,0.015,-0.050
4.182,-0.085,-0.050
4.184,-0.055,-0.055
4.186,-0.020,-0.065
4.188,-0.105,-0.075
4.190,-0.075,-0.085
4.192,-0.035,-0.085
4.194,-0.010,-0.085
4.196,0.015,-0.080
4.198,-0.110,-0.070
4.200,-0.065,-0.060
4.202,-0.100,-0.045
4.204,-0.090,-0.035
4.206,0.005,-0.030
4.208,0.025,-0.030
4.210,0.005,-0.030
4.212,-0.030,-0.035
4.214,-0.060,-0.040
4.216,-0.080,-0.045
4.218,-0.005,-0.050
4.220,-0.070,-0.055
4.222,-0.105,-0.060
4.224,-0.095,-0.065
4.226,-0.045,-0.070
4.228,-0.060,-0.080
4.230,-0.055,-0.085
4.232,-0.020,-0.090
4.234,-0.095,-0.090
4.236,-0.145,-0.085
4.238,-0.080,-0.080
4.240,-0.055,-0.075
4.242,-0.060,-0.065
4.244,-0.035,-0.060
4.246,-0.040,-0.055
4.248,-0.040,-0.060
4.250,-0.065,-0.065
4.252,-0.120,-0.075
4.254,-0.070,-0.080
4.256,-0.045,-0.090
4.258,-0.110,-0.090
4.260,-0.035,-0.090
4.262,-0.085,-0.080
4.264,-0.075,-0.070
4.266,-0.005,-0.055
4.268,-0.005,-0.040
4.270,-0.005,-0.030
4.272,0.070,-0.025
4.274,0.015,-0.020
4.276,-0.070,-0.020
4.278,-0.095,-0.020
4.280,-0.045,-0.020
4.282,-0.045,-0.020
4.284,0.045,-0.020
4.286,0.005,-0.020
4.288,-0.015,-0.025
4.290,-0.025,-0.030
4.292,0.020,-0.040
4.294,-0.030,-0.050
4.296,-0.120,-0.060
4.298,-0.090,-0.065
4.300,-0.040,-0.065
4.302,-0.070,-0.060
4.304,-0.010,-0.045
4.306,0.005,-0.030
4.308,0.015,-0.015
4.310,0.010,-0.005
4.312,0.090,0.005
4.314,0.030,0.005
4.316,-0.005,0.000
4.318,-0.035,-0.010
4.320,-0.090,-0.020
4.322,-0.060,-0.025
4.324,-0.100,-0.030
4.326,0.020,-0.025
4.328,0.105,-0.020
4.330,0.060,-0.015
4.332,0.020,-0.010
4.334,0.035,-0.010
4.336,0.010,-0.015
4.338,-0.060,-0.030
4.340,-0.060,-0.045
4.342,-0.160,-0.065
4.344,-0.090,-0.080
4.346,-0.050,-0.085
4.348,-0.005,-0.085
4.350,-0.015,-0.075
4.352,-0.045,-0.065
4.354,-0.025,-0.050
4.356,-0.025,-0.040
4.358,-0.030,-0.040
4.360,-0.060,-0.045
4.362,-0.105,-0.055
4.364,-0.070,-0.075
4.366,0.040,-0.090
4.368,-0.080,-0.105
4.370,-0.185,-0.110
4.372,-0.080,-0.115
4.374,-0.035,-0.110
4.376,-0.045,-0.100
4.378,-0.150,-0.090
4.380,-0.070,-0.090
4.382,-0.025,-0.085
4.384,-0.050,-0.090
4.386,-0.115,-0.095
4.388,-0.170,-0.095
4.390,-0.110,-0.095
4.392,-0.015,-0.095
4.394,-0.030,-0.090
4.396,-0.060,-0.080
4.398,-0.055,-0.075
4.400,-0.080,-0.075
4.402,-0.140,-0.080
4.404,-0.075,-0.090
4.406,-0.115,-0.105
4.408,-0.055,-0.120
4.410,-0.035,-0.130
4.412,-0.155,-0.130
4.414,-0.095,-0.130
4.416,-0.055,-0.115
4.418,-0.105,-0.100
4.420,-0.085,-0.085
4.422,-0.065,-0.075
4.424,-0.085,-0.075
4.426,-0.085,-0.080
4.428,-0.070,-0.095
4.430,-0.005,-0.120
4.432,-0.120,-0.140
4.434,-0.165,-0.160
4.436,-0.140,-0.165
4.438,-0.245,-0.155
4.440,-0.145,-0.125
4.442,-0.015,-0.080
4.444,0.010,-0.010
4.446,0.050,0.070
4.448,0.235,0.165
4.450,0.360,0.270
4.452,0.440,0.375
4.454,0.495,0.485
4.456,0.630,0.585
4.458,0.775,0.670
4.460,0.775,0.735
4.462,0.800,0.770
4.464,0.800,0.770
4.466,0.720,0.725
4.468,0.650,0.645
4.470,0.575,0.535
4.472,0.465,0.400
4.474,0.335,0.255
4.476,0.100,0.115
4.478,-0.080,-0.005
4.480,-0.200,-0.095
4.482,-0.225,-0.150
4.484,-0.285,-0.170
4.486,-0.130,-0.160
4.488,0.035,-0.135
4.490,0.035,-0.100
4.492,-0.095,-0.065
4.494,-0.010,-0.040
4.496,-0.025,-0.025
4.498,-0.055,-0.025
4.500,-0.035,-0.030
4.502,-0.040,-0.040
4.504,-0.095,-0.050
4.506,-0.015,-0.055
4.508,-0.030,-0.050
4.510,0.080,-0.050
4.512,0.010,-0.045
4.514,0.005,-0.040
4.516,0.005,-0.040
4.518,-0.045,-0.045
4.520,-0.120,-0.055
4.522,-0.125,-0.070
4.524,-0.020,-0.080
4.526,-0.045,-0.085
4.528,-0.055,-0.085
4.530,-0.095,-0.080
4.532,-0.015,-0.070
4.534,0.020,-0.060
4.536,0.000,-0.050
4.538,-0.035,-0.045
4.540,-0.105,-0.040
4.542,-0.095,-0.045
4.544,-0.005,-0.055
4.546,0.010,-0.065
4.548,-0.060,-0.075
4.550,-0.085,-0.080
4.552,-0.030,-0.075
4.554,-0.010,-0.065
4.556,-0.010,-0.050
4.558,-0.015,-0.030
4.560,0.010,-0.015
4.562,0.055,0.000
4.564,0.035,0.010
4.566,0.035,0.015
4.568,0.025,0.015
4.570,-0.045,0.010
4.572,0.045,0.000
4.574,0.125,-0.015
4.576,0.050,-0.020
4.578,-0.060,-0.030
4.580,-0.045,-0.035
4.582,-0.055,-0.035
4.584,-0.065,-0.030
4.586,-0.010,-0.030
4.588,0.090,-0.030
4.590,0.025,-0.025
4.592,-0.010,-0.020
4.594,0.050,-0.015
4.596,-0.075,-0.010
4.598,0.025,-0.005
4.600,0.090,0.000
4.602,0.005,0.005
4.604,0.050,0.015
4.606,0.030,0.015
4.608,0.060,0.020
4.610,0.085,0.025
4.612,0.045,0.025
4.614,0.065,0.030
4.616,0.060,0.035
4.618,0.110,0.045
4.620,0.075,0.060
4.622,0.030,0.075
4.624,0.070,0.090
4.626,0.160,0.100
4.628,0.170,0.105
4.630,0.160,0.110
4.632,0.140,0.110
4.634,0.140,0.110
4.636,0.115,0.110
4.638,0.145,0.110
4.640,0.135,0.120
4.642,0.140,0.130
4.644,0.185,0.145
4.646,0.225,0.160
4.648,0.205,0.175
4.650,0.290,0.180
4.652,0.265,0.185
4.654,0.155,0.185
4.656,0.155,0.180
4.658,0.180,0.175
4.660,0.265,0.175
4.662,0.200,0.175
4.664,0.190,0.185
4.666,0.215,0.195
4.668,0.295,0.205
4.670,0.260,0.210
4.672,0.215,0.215
4.674,0.275,0.215
4.676,0.295,0.210
4.678,0.160,0.210
4.680,0.195,0.210
4.682,0.250,0.215
4.684,0.300,0.225
4.686,0.365,0.240
4.688,0.330,0.255
4.690,0.330,0.270
4.692,0.330,0.280
4.694,0.275,0.280
4.696,0.255,0.270
4.698,0.195,0.250
4.700,0.225,0.225
4.702,0.225,0.200
4.704,0.200,0.175
4.706,0.170,0.160
4.708,0.245,0.155
4.710,0.240,0.155
4.712,0.255,0.155
4.714,0.210,0.150
4.716,0.140,0.145
4.718,0.095,0.130
4.720,0.095,0.110
4.722,0.090,0.085
4.724,0.100,0.055
4.726,0.015,0.030
4.728,0.030,0.010
4.730,0.055,-0.005
4.732,0.055,-0.010
4.734,0.090,-0.010
4.736,0.035,-0.010
4.738,0.010,-0.010
4.740,0.015,-0.010
4.742,0.035,-0.015
4.744,-0.030,-0.025
4.746,-0.030,-0.035
4.748,0.020,-0.045
4.750,0.045,-0.055
4.752,-0.020,-0.060
4.754,0.000,-0.065
4.756,-0.050,-0.070
4.758,-0.080,-0.070
4.760,-0.035,-0.070
4.762,-0.055,-0.070
4.764,-0.070,-0.070
4.766,-0.030,-0.070
4.768,-0.030,-0.070
4.770,-0.030,-0.065
4.772,-0.025,-0.060
4.774,0.025,-0.060
4.776,0.070,-0.055
4.778,0.010,-0.050
4.780,0.025,-0.050
4.782,-0.110,-0.050
4.784,-0.070,-0.055
4.786,-0.065,-0.055
4.788,0.025,-0.060
4.790,0.065,-0.060
4.792,-0.005,-0.060
4.794,-0.010,-0.060
4.796,-0.050,-0.065
4.798,-0.085,-0.065
4.800,-0.050,-0.070
4.802,-0.045,-0.075
4.804,-0.045,-0.085
4.806,-0.045,-0.090
4.808,-0.045,-0.095
4.810,-0.035,-0.090
4.812,-0.025,-0.085
4.814,-0.030,-0.075
4.816,-0.010,-0.060
4.818,0.025,-0.045
4.820,-0.005,-0.040
4.822,-0.020,-0.035
4.824,-0.015,-0.040
4.826,-0.015,-0.050
4.828,0.020,-0.060
4.830,-0.035,-0.075
4.832,-0.060,-0.090
4.834,-0.055,-0.095
4.836,-0.070,-0.095
4.838,-0.025,-0.085
4.840,-0.040,-0.070
4.842,-0.040,-0.055
4.844,0.070,-0.040
4.846,0.020,-0.030
4.848,0.030,-0.025
4.850,0.050,-0.025
4.852,0.035,-0.030
4.854,-0.020,-0.040
4.856,-0.035,-0.050
4.858,0.000,-0.055
4.860,-0.020,-0.060
4.862,0.010,-0.060
4.864,0.000,-0.055
4.866,-0.040,-0.055
4.868,-0.045,-0.050
4.870,-0.005,-0.050
4.872,-0.005,-0.050
4.874,0.015,-0.055
4.876,0.015,-0.060
4.878,-0.030,-0.065
4.880,-0.030,-0.070
4.882,-0.010,-0.075
4.884,0.010,-0.075
4.886,-0.050,-0.070
4.888,-0.020,-0.065
4.890,-0.035,-0.060
4.892,0.035,-0.055
4.894,0.050,-0.050
4.896,0.015,-0.045
4.898,-0.040,-0.045
4.900,-0.080,-0.050
4.902,-0.030,-0.055
4.904,0.035,-0.065
4.906,0.045,-0.075
4.908,-0.095,-0.080
4.910,-0.075,-0.085
4.912,0.050,-0.085
4.914,0.075,-0.085
4.916,-0.070,-0.075
4.918,-0.060,-0.070
4.920,0.040,-0.060
4.922,-0.055,-0.060
4.924,-0.145,-0.060
4.926,0.040,-0.065
4.928,0.025,-0.070
4.930,0.025,-0.080
4.932,-0.075,-0.085
4.934,-0.055,-0.085
4.936,-0.035,-0.080
4.938,-0.045,-0.070
4.940,0.040,-0.060
4.942,0.050,-0.045
4.944,0.035,-0.035
4.946,-0.005,-0.035
4.948,-0.045,-0.040
4.950,-0.055,-0.055
4.952,-0.055,-0.075
4.954,0.030,-0.095
4.956,-0.105,-0.110
4.958,-0.070,-0.115
4.960,-0.010,-0.110
4.962,0.050,-0.100
4.964,-0.060,-0.080
4.966,0.030,-0.060
4.968,0.030,-0.045
4.970,0.020,-0.035
4.972,0.035,-0.035
4.974,-0.030,-0.045
4.976,-0.045,-0.060
4.978,0.025,-0.080
4.980,-0.020,-0.090
4.982,-0.120,-0.100
4.984,-0.100,-0.095
4.986,0.050,-0.090
4.988,0.025,-0.080
4.990,0.015,-0.070
4.992,-0.010,-0.060
4.994,0.000,-0.065
4.996,-0.050,-0.070
4.998,-0.065,-0.085
5.000,-0.105,-0.100
5.002,-0.120,-0.110
5.004,-0.045,-0.115
5.006,-0.010,-0.115
5.008,0.070,-0.105
5.010,0.040,-0.085
5.012,-0.055,-0.065
5.014,-0.030,-0.050
5.016,-0.020,-0.035
5.018,-0.020,-0.030
5.020,0.025,-0.035
5.022,0.070,-0.050
5.024,0.060,-0.065
5.026,0.080,-0.080
5.028,-0.130,-0.090
5.030,-0.085,-0.100
5.032,-0.005,-0.100
5.034,0.000,-0.090
5.036,-0.020,-0.080
5.038,-0.040,-0.065
5.040,0.020,-0.055
5.042,-0.040,-0.050
5.044,-0.045,-0.050
5.046,0.040,-0.055
5.048,0.020,-0.065
5.050,0.070,-0.075
5.052,0.000,-0.085
5.054,-0.140,-0.095
5.056,-0.050,-0.095
5.058,-0.030,-0.090
5.060,0.000,-0.080
5.062,0.050,-0.065
5.064,0.045,-0.055
5.066,0.030,-0.045
5.068,-0.010,-0.040
5.070,-0.040,-0.035
5.072,-0.045,-0.040
5.074,-0.005,-0.045
5.076,0.010,-0.050
5.078,0.040,-0.055
5.080,0.025,-0.060
5.082,-0.015,-0.060
5.084,0.000,-0.065
5.086,0.000,-0.065
5.088,0.040,-0.070
5.090,0.040,-0.075
5.092,-0.020,-0.080
5.094,-0.020,-0.075
5.096,-0.020,-0.075
5.098,0.005,-0.060
5.100,0.040,-0.045
5.102,0.070,-0.025
5.104,0.055,-0.005
5.106,0.065,0.015
5.108,0.160,0.035
5.110,0.135,0.045
5.112,0.080,0.045
5.114,0.065,0.040
5.116,0.110,0.030
5.118,0.055,0.020
5.120,0.035,0.005
5.122,-0.010,-0.010
5.124,0.080,-0.020
5.126,0.060,-0.025
5.128,0.110,-0.030
5.130,0.095,-0.030
5.132,0.010,-0.035
5.134,-0.075,-0.035
5.136,-0.005,-0.040
5.138,-0.015,-0.045
5.140,-0.010,-0.055
5.142,0.025,-0.065
5.144,0.025,-0.075
5.146,-0.010,-0.085
5.148,-0.030,-0.095
5.150,-0.005,-0.105
5.152,0.005,-0.110
5.154,-0.070,-0.115
5.156,-0.135,-0.115
5.158,-0.065,-0.110
5.160,-0.030,-0.100
5.162,-0.030,-0.090
5.164,0.060,-0.075
5.166,0.065,-0.065
5.168,0.065,-0.055
5.170,0.040,-0.055
5.172,-0.005,-0.060
5.174,-0.045,-0.070
5.176,-0.105,-0.080
5.178,-0.070,-0.095
5.180,-0.050,-0.105
5.182,-0.075,-0.105
5.184,-0.025,-0.100
5.186,0.095,-0.090
5.188,0.065,-0.080
5.190,0.060,-0.065
5.192,0.005,-0.055
5.194,-0.015,-0.050
5.196,-0.015,-0.055
5.198,-0.045,-0.060
5.200,-0.040,-0.065
5.202,-0.035,-0.070
5.204,0.025,-0.075
5.206,0.035,-0.080
5.208,0.030,-0.085
5.210,-0.010,-0.085
5.212,-0.015,-0.095
5.214,-0.015,-0.105
5.216,-0.075,-0.120
5.218,-0.140,-0.135
5.220,-0.095,-0.155
5.222,-0.050,-0.165
5.224,-0.095,-0.165
5.226,-0.075,-0.155
5.228,0.000,-0.130
5.230,0.045,-0.095
5.232,0.000,-0.055
5.234,-0.010,-0.005
5.236,0.170,0.050
5.238,0.140,0.110
5.240,0.190,0.180
5.242,0.290,0.260
5.244,0.565,0.350
5.246,0.530,0.450
5.248,0.660,0.555
5.250,0.780,0.660
5.252,0.870,0.745
5.254,0.955,0.805
5.256,0.910,0.820
5.258,0.815,0.790
5.260,0.780,0.710
5.262,0.670,0.590
5.264,0.555,0.440
5.266,0.405,0.285
5.268,0.155,0.140
5.270,0.035,0.015
5.272,-0.100,-0.070
5.274,-0.090,-0.120
5.276,-0.055,-0.140
5.278,0.000,-0.130
5.280,0.020,-0.110
5.282,0.020,-0.085
5.284,0.025,-0.070
5.286,0.025,-0.065
5.288,-0.040,-0.065
5.290,-0.050,-0.075
5.292,-0.005,-0.080
5.294,0.030,-0.080
5.296,0.000,-0.075
5.298,0.050,-0.060
5.300,0.120,-0.045
5.302,0.075,-0.025
5.304,0.085,-0.015
5.306,0.025,-0.010
5.308,0.025,-0.015
5.310,0.070,-0.025
5.312,0.095,-0.040
5.314,0.020,-0.050
5.316,-0.010,-0.055
5.318,0.010,-0.055
5.320,0.085,-0.045
5.322,0.080,-0.030
5.324,0.110,-0.015
5.326,0.090,0.000
5.328,0.130,0.015
5.330,0.105,0.020
5.332,0.055,0.015
5.334,-0.010,0.005
5.336,0.055,-0.005
5.338,0.040,-0.020
5.340,0.045,-0.035
5.342,0.050,-0.050
5.344,0.075,-0.055
5.346,0.125,-0.055
5.348,0.065,-0.050
5.350,-0.045,-0.040
5.352,-0.005,-0.025
5.354,0.010,-0.010
5.356,0.140,0.010
5.358,0.145,0.025
5.360,0.165,0.035
5.362,0.130,0.040
5.364,0.180,0.040
5.366,0.185,0.030
5.368,0.135,0.020
5.370,-0.090,0.005
5.372,0.040,-0.010
5.374,0.070,-0.025
5.376,0.100,-0.030
5.378,0.130,-0.030
5.380,0.160,-0.030
5.382,0.060,-0.020
5.384,-0.005,-0.005
5.386,0.075,0.010
5.388,0.130,0.025
5.390,0.090,0.040
5.392,0.125,0.055
5.394,0.180,0.070
5.396,0.230,0.075
5.398,0.215,0.085
5.400,0.175,0.085
5.402,0.165,0.085
5.404,0.165,0.085
5.406,0.200,0.080
5.408,0.155,0.080
5.410,0.175,0.080
5.412,0.160,0.080
5.414,0.130,0.085
5.416,0.135,0.095
5.418,0.160,0.100
5.420,0.255,0.110
5.422,0.250,0.115
5.424,0.250,0.120
5.426,0.200,0.120
5.428,0.225,0.120
5.430,0.225,0.120
5.432,0.190,0.120
5.434,0.190,0.120
5.436,0.190,0.130
5.438,0.200,0.145
5.440,0.210,0.160
5.442,0.335,0.180
5.444,0.330,0.200
5.446,0.355,0.215
5.448,0.375,0.225
5.450,0.250,0.225
5.452,0.305,0.225
5.454,0.320,0.215
5.456,0.340,0.210
5.458,0.290,0.200
5.460,0.290,0.200
5.462,0.290,0.195
5.464,0.320,0.200
5.466,0.310,0.205
5.468,0.330,0.215
5.470,0.330,0.225
5.472,0.330,0.240
5.474,0.360,0.250
5.476,0.370,0.255
5.478,0.370,0.265
5.480,0.370,0.270
5.482,0.380,0.270
5.484,0.395,0.275
5.486,0.355,0.275
5.488,0.345,0.270
5.490,0.345,0.265
5.492,0.325,0.260
5.494,0.325,0.250
5.496,0.330,0.240
5.498,0.315,0.230
5.500,0.300,0.215
5.502,0.270,0.195
5.504,0.245,0.180
5.506,0.190,0.160
5.508,0.185,0.140
5.510,0.260,0.120
5.512,0.265,0.100
5.514,0.195,0.090
5.516,0.120,0.080
5.518,0.130,0.075
5.520,0.210,0.075
5.522,0.160,0.075
5.524,0.155,0.075
5.526,0.130,0.070
5.528,0.085,0.055
5.530,0.175,0.040
5.532,0.180,0.020
5.534,0.085,-0.005
5.536,0.035,-0.025
5.538,-0.030,-0.040
5.540,0.050,-0.045
5.542,0.120,-0.045
5.544,0.035,-0.035
5.546,0.025,-0.025
5.548,0.105,-0.015
5.550,0.175,-0.010
5.552,0.145,-0.020
5.554,0.020,-0.035
5.556,-0.080,-0.060
5.558,-0.030,-0.085
5.560,0.020,-0.110
5.562,0.075,-0.130
5.564,-0.060,-0.135
5.566,-0.065,-0.130
5.568,0.030,-0.115
5.570,0.080,-0.095
5.572,0.030,-0.070
5.574,0.025,-0.045
5.576,0.055,-0.030
5.578,-0.005,-0.025
5.580,0.095,-0.030
5.582,0.135,-0.040
5.584,0.060,-0.050
5.586,0.055,-0.060
5.588,0.045,-0.065
5.590,0.015,-0.065
5.592,0.015,-0.060
5.594,0.005,-0.050
5.596,0.050,-0.040
5.598,0.050,-0.035
5.600,0.040,-0.035
5.602,0.095,-0.035
5.604,0.090,-0.045
5.606,0.095,-0.060
5.608,0.090,-0.070
5.610,0.005,-0.085
5.612,-0.045,-0.090
5.614,-0.065,-0.095
5.616,0.000,-0.090
5.618,0.000,-0.085
5.620,0.060,-0.075
5.622,0.060,-0.065
5.624,0.085,-0.050
5.626,0.080,-0.040
5.628,0.080,-0.030
5.630,0.100,-0.020
5.632,0.100,-0.010
5.634,0.090,-0.005
5.636,0.105,0.000
5.638,0.100,-0.005
5.640,0.050,-0.010
5.642,0.045,-0.025
5.644,0.040,-0.040
5.646,0.070,-0.055
5.648,0.030,-0.070
5.650,0.020,-0.080
5.652,0.030,-0.080
5.654,0.020,-0.075
5.656,0.050,-0.065
5.658,0.025,-0.050
5.660,0.065,-0.030
5.662,0.115,-0.010
5.664,0.105,0.000
5.666,0.130,0.010
5.668,0.210,0.005
5.670,0.090,0.000
5.672,0.105,-0.015
5.674,0.020,-0.030
5.676,0.035,-0.050
5.678,0.025,-0.060
5.680,0.025,-0.070
5.682,0.075,-0.075
5.684,0.095,-0.075
5.686,0.040,-0.070
5.688,0.040,-0.065
5.690,-0.010,-0.065
5.692,0.095,-0.060
5.694,0.055,-0.060
5.696,-0.045,-0.060
5.698,-0.015,-0.060
5.700,0.095,-0.060
5.702,0.115,-0.060
5.704,0.030,-0.060
5.706,0.060,-0.055
5.708,0.070,-0.050
5.710,0.060,-0.050
5.712,0.085,-0.045
5.714,0.090,-0.050
5.716,0.015,-0.050
5.718,0.030,-0.055
5.720,0.070,-0.060
5.722,0.095,-0.060
5.724,0.030,-0.060
5.726,0.070,-0.055
5.728,0.065,-0.050
5.730,0.080,-0.045
5.732,0.080,-0.040
5.734,0.050,-0.045
5.736,-0.030,-0.050
5.738,0.085,-0.060
5.740,0.115,-0.075
5.742,-0.015,-0.090
5.744,-0.065,-0.095
5.746,0.015,-0.100
5.748,0.090,-0.095
5.750,0.100,-0.080
5.752,0.025,-0.060
5.754,0.025,-0.040
5.756,0.085,-0.025
5.758,0.125,-0.015
5.760,0.100,-0.020
5.762,0.095,-0.030
5.764,0.070,-0.045
5.766,-0.035,-0.065
5.768,-0.035,-0.085
5.770,0.025,-0.100
5.772,0.015,-0.105
5.774,-0.080,-0.100
5.776,0.075,-0.095
5.778,0.075,-0.080
5.780,0.055,-0.070
5.782,0.020,-0.065
5.784,0.030,-0.065
5.786,-0.005,-0.070
5.788,-0.005,-0.080
5.790,0.000,-0.090
5.792,0.015,-0.100
5.794,0.030,-0.105
5.796,-0.010,-0.100
5.798,0.035,-0.090
5.800,0.065,-0.080
5.802,0.070,-0.065
5.804,0.110,-0.050
5.806,0.100,-0.040
5.808,0.045,-0.035
5.810,0.060,-0.035
5.812,0.025,-0.045
5.814,0.025,-0.055
5.816,-0.020,-0.070
5.818,0.015,-0.085
5.820,0.105,-0.095
5.822,0.035,-0.105
5.824,0.045,-0.110
5.826,0.065,-0.105
5.828,0.015,-0.105
5.830,-0.020,-0.095
5.832,-0.025,-0.090
5.834,0.005,-0.080
5.836,0.065,-0.075
5.838,0.080,-0.065
5.840,0.060,-0.060
5.842,0.045,-0.060
5.844,0.050,-0.055
5.846,0.020,-0.055
5.848,0.110,-0.055
5.850,0.025,-0.055
5.852,0.085,-0.055
5.854,0.125,-0.060
5.856,0.010,-0.065
5.858,0.000,-0.070
5.860,0.030,-0.075
5.862,0.055,-0.085
5.864,0.050,-0.090
5.866,0.090,-0.090
5.868,-0.005,-0.090
5.870,-0.035,-0.090
5.872,-0.010,-0.085
5.874,0.030,-0.075
5.876,0.080,-0.070
5.878,0.095,-0.060
5.880,0.120,-0.055
5.882,0.070,-0.050
5.884,0.065,-0.050
5.886,0.050,-0.050
5.888,0.085,-0.050
5.890,0.050,-0.055
5.892,0.030,-0.055
5.894,0.045,-0.055
5.896,0.050,-0.055
5.898,0.045,-0.055
5.900,0.080,-0.055
5.902,0.080,-0.050
5.904,0.060,-0.050
5.906,0.005,-0.045
5.908,0.070,-0.045
5.910,0.115,-0.040
5.912,0.095,-0.035
5.914,0.130,-0.035
5.916,0.075,-0.030
5.918,0.030,-0.030
5.920,0.010,-0.030
5.922,0.135,-0.030
5.924,0.100,-0.035
5.926,0.065,-0.035
5.928,0.075,-0.040
5.930,0.000,-0.040
5.932,0.030,-0.035
5.934,0.080,-0.025
5.936,0.205,-0.015
5.938,0.315,-0.005
5.940,0.155,0.005
5.942,0.020,0.010
5.944,0.050,0.010
5.946,0.080,0.000
5.948,0.065,-0.010
5.950,0.120,-0.025
5.952,0.120,-0.045
5.954,0.085,-0.060
5.956,0.100,-0.070
5.958,0.030,-0.075
5.960,-0.015,-0.075
5.962,0.000,-0.070
5.964,0.055,-0.065
5.966,0.090,-0.065
5.968,0.110,-0.065
5.970,0.105,-0.065
5.972,0.010,-0.075
5.974,0.040,-0.080
5.976,0.040,-0.085
5.978,0.070,-0.085
5.980,0.010,-0.080
5.982,-0.035,-0.075
5.984,0.085,-0.065
5.986,0.090,-0.055
5.988,0.085,-0.050
5.990,0.060,-0.045
5.992,0.065,-0.050
5.994,0.075,-0.065
5.996,0.040,-0.080
5.998,-0.030,-0.100
6.000,-0.055,-0.115
6.002,0.005,-0.130
6.004,-0.030,-0.140
6.006,0.020,-0.140
6.008,-0.020,-0.135
6.010,-0.005,-0.125
6.012,0.050,-0.115
6.014,0.040,-0.105
6.016,0.040,-0.095
6.018,-0.010,-0.090
6.020,-0.040,-0.090
6.022,0.040,-0.085
6.024,0.040,-0.085
6.026,0.045,-0.085
6.028,-0.020,-0.085
6.030,0.050,-0.080
6.032,0.035,-0.075
6.034,0.075,-0.070
6.036,0.095,-0.070
6.038,0.150,-0.075
6.040,0.055,-0.085
6.042,0.030,-0.095
6.044,-0.050,-0.105
6.046,-0.080,-0.115
6.048,-0.025,-0.120
6.050,-0.050,-0.120
6.052,0.030,-0.105
6.054,0.095,-0.080
6.056,0.145,-0.045
6.058,0.180,0.005
6.060,0.210,0.070
6.062,0.335,0.140
6.064,0.340,0.220
6.066,0.350,0.305
6.068,0.425,0.390
6.070,0.620,0.480
6.072,0.780,0.560
6.074,0.850,0.630
6.076,0.860,0.680
6.078,0.840,0.705
6.080,0.815,0.690
6.082,0.795,0.640
6.084,0.675,0.560
6.086,0.645,0.445
6.088,0.440,0.315
6.090,0.245,0.180
6.092,0.105,0.055
6.094,-0.085,-0.050
6.096,-0.085,-0.125
6.098,-0.085,-0.165
6.100,0.075,-0.175
6.102,0.115,-0.160
6.104,-0.030,-0.130
6.106,-0.065,-0.095
6.108,0.015,-0.070
6.110,0.085,-0.050
6.112,0.080,-0.045
6.114,0.070,-0.050
6.116,0.005,-0.055
6.118,0.070,-0.060
6.120,0.160,-0.060
6.122,0.135,-0.055
6.124,0.035,-0.040
6.126,0.050,-0.025
6.128,0.150,-0.010
6.130,0.100,0.000
6.132,0.085,0.000
6.134,0.090,0.000
6.136,0.145,-0.010
6.138,0.150,-0.025
6.140,0.090,-0.040
6.142,0.020,-0.055
6.144,0.010,-0.060
6.146,0.070,-0.070
6.148,0.070,-0.070
6.150,0.120,-0.070
6.152,0.055,-0.065
6.154,0.065,-0.060
6.156,0.075,-0.050
6.158,0.095,-0.045
6.160,0.130,-0.035
6.162,0.135,-0.025
6.164,0.125,-0.015
6.166,0.170,-0.010
6.168,0.105,-0.010
6.170,0.075,-0.015
6.172,0.030,-0.020
6.174,0.060,-0.030
6.176,0.140,-0.035
6.178,0.150,-0.040
6.180,0.035,-0.040
6.182,0.010,-0.030
6.184,0.170,-0.020
6.186,0.145,-0.005
6.188,0.110,0.010
6.190,0.125,0.020
6.192,0.155,0.020
6.194,0.175,0.015
6.196,0.120,0.010
6.198,0.125,0.000
6.200,0.075,-0.005
6.202,0.080,-0.005
6.204,0.165,0.000
6.206,0.155,0.015
6.208,0.130,0.030
6.210,0.205,0.040
6.212,0.190,0.050
6.214,0.160,0.050
6.216,0.110,0.045
6.218,0.130,0.035
6.220,0.160,0.020
6.222,0.190,0.010
6.224,0.130,0.010
6.226,0.155,0.015
6.228,0.165,0.030
6.230,0.175,0.050
6.232,0.280,0.065
6.234,0.210,0.080
6.236,0.225,0.090
6.238,0.200,0.095
6.240,0.160,0.095
6.242,0.160,0.090
6.244,0.215,0.095
6.246,0.240,0.100
6.248,0.265,0.110
6.250,0.255,0.120
6.252,0.265,0.130
6.254,0.350,0.140
6.256,0.305,0.140
6.258,0.225,0.140
6.260,0.210,0.130
6.262,0.250,0.120
6.264,0.290,0.115
6.266,0.225,0.120
6.268,0.190,0.135
6.270,0.255,0.155
6.272,0.385,0.185
6.274,0.395,0.215
6.276,0.490,0.240
6.278,0.420,0.250
6.280,0.300,0.255
6.282,0.325,0.245
6.284,0.305,0.230
6.286,0.335,0.210
6.288,0.310,0.200
6.290,0.330,0.195
6.292,0.420,0.205
6.294,0.375,0.220
6.296,0.390,0.240
6.298,0.370,0.260
6.300,0.455,0.280
6.302,0.410,0.290
6.304,0.455,0.290
6.306,0.365,0.280
6.308,0.310,0.260
6.310,0.315,0.245
6.312,0.385,0.225
6.314,0.360,0.210
6.316,0.360,0.205
6.318,0.335,0.200
6.320,0.300,0.195
6.322,0.255,0.190
6.324,0.305,0.185
6.326,0.285,0.175
6.328,0.325,0.160
6.330,0.290,0.140
6.332,0.225,0.120
6.334,0.240,0.095
6.336,0.205,0.070
6.338,0.225,0.050
6.340,0.180,0.035
6.342,0.065,0.020
6.344,0.055,0.010
6.346,0.110,0.005
6.348,0.160,0.000
6.350,0.180,0.005
6.352,0.160,0.005
6.354,0.085,0.010
6.356,0.165,0.010
6.358,0.170,0.010
6.360,0.150,0.005
6.362,0.105,0.000
6.364,0.055,-0.015
6.366,0.050,-0.030
6.368,0.080,-0.045
6.370,0.055,-0.060
6.372,0.060,-0.070
6.374,0.105,-0.080
6.376,0.055,-0.085
6.378,0.020,-0.085
6.380,0.050,-0.080
6.382,0.085,-0.075
6.384,0.035,-0.065
6.386,0.025,-0.055
6.388,0.065,-0.050
6.390,0.095,-0.050
6.392,0.095,-0.050
6.394,0.095,-0.060
6.396,0.095,-0.075
6.398,0.050,-0.090
6.400,0.030,-0.100
6.402,-0.035,-0.110
6.404,0.000,-0.115
6.406,0.040,-0.115
6.408,-0.005,-0.105
6.410,0.055,-0.090
6.412,0.090,-0.075
6.414,0.065,-0.065
6.416,0.120,-0.060
6.418,0.145,-0.060
6.420,0.090,-0.075
6.422,-0.030,-0.090
6.424,-0.030,-0.110
6.426,-0.060,-0.130
6.428,-0.085,-0.135
6.430,-0.025,-0.135
6.432,0.115,-0.120
6.434,0.110,-0.095
6.436,0.070,-0.065
6.438,0.105,-0.040
6.440,0.095,-0.020
6.442,0.125,-0.015
6.444,0.105,-0.020
6.446,0.055,-0.040
6.448,0.085,-0.070
6.450,0.045,-0.100
6.452,-0.050,-0.125
6.454,-0.050,-0.140
6.456,-0.040,-0.140
6.458,0.060,-0.130
6.460,0.060,-0.110
6.462,0.050,-0.080
6.464,0.085,-0.060
6.466,0.135,-0.040
6.468,0.115,-0.030
6.470,0.065,-0.025
6.472,0.115,-0.030
6.474,0.025,-0.040
6.476,0.010,-0.045
6.478,0.065,-0.050
6.480,0.170,-0.050
6.482,0.170,-0.045
6.484,0.115,-0.040
6.486,0.060,-0.035
6.488,0.060,-0.030
6.490,0.025,-0.030
6.492,0.070,-0.035
6.494,0.115,-0.040
6.496,0.140,-0.045
6.498,0.100,-0.050
6.500,0.100,-0.045
6.502,0.105,-0.040
6.504,0.085,-0.035
6.506,0.060,-0.025
6.508,0.090,-0.020
6.510,0.150,-0.015
6.512,0.150,-0.020
6.514,0.050,-0.030
6.516,0.095,-0.045
6.518,0.050,-0.065
6.520,0.105,-0.080
6.522,0.040,-0.095
6.524,-0.070,-0.105
6.526,0.095,-0.110
6.528,0.065,-0.105
6.530,-0.065,-0.095
6.532,-0.105,-0.080
6.534,0.045,-0.060
6.536,0.190,-0.045
6.538,0.190,-0.030
6.540,0.155,-0.020
6.542,0.150,-0.010
6.544,0.090,-0.005
6.546,0.095,-0.005
6.548,0.040,-0.005
6.550,0.125,-0.010
6.552,0.105,-0.015
6.554,0.135,-0.025
6.556,0.165,-0.035
6.558,0.095,-0.045
6.560,0.055,-0.055
6.562,-0.010,-0.065
6.564,0.025,-0.075
6.566,0.065,-0.085
6.568,0.020,-0.095
6.570,0.070,-0.100
6.572,0.095,-0.105
6.574,0.015,-0.105
6.576,0.060,-0.100
6.578,0.020,-0.095
6.580,-0.015,-0.080
6.582,0.010,-0.070
6.584,0.050,-0.055
6.586,0.145,-0.045
6.588,0.170,-0.040
6.590,0.170,-0.040
6.592,0.080,-0.040
6.594,0.010,-0.045
6.596,0.075,-0.055
6.598,0.030,-0.060
6.600,0.030,-0.070
6.602,0.040,-0.075
6.604,0.035,-0.075
6.606,0.095,-0.075
6.608,0.080,-0.075
6.610,0.005,-0.070
6.612,0.110,-0.065
6.614,0.125,-0.060
6.616,0.060,-0.060
6.618,0.075,-0.055
6.620,0.060,-0.055
6.622,0.040,-0.055
6.624,-0.040,-0.055
6.626,0.070,-0.055
6.628,0.140,-0.055
6.630,0.120,-0.055
6.632,0.085,-0.050
6.634,0.110,-0.050
6.636,0.080,-0.045
6.638,0.095,-0.040
6.640,0.070,-0.035
6.642,0.055,-0.035
6.644,0.005,-0.035
6.646,0.100,-0.040
6.648,0.080,-0.040
6.650,0.085,-0.050
6.652,0.095,-0.055
6.654,0.090,-0.065
6.656,0.055,-0.070
6.658,0.055,-0.075
6.660,0.005,-0.080
6.662,-0.015,-0.080
6.664,0.040,-0.080
6.666,0.045,-0.075
6.668,0.060,-0.070
6.670,0.090,-0.070
6.672,0.060,-0.065
6.674,0.090,-0.060
6.676,0.165,-0.060
6.678,0.120,-0.060
6.680,-0.030,-0.055
6.682,-0.005,-0.055
6.684,0.045,-0.055
6.686,0.125,-0.055
6.688,0.170,-0.055
6.690,0.120,-0.055
6.692,0.030,-0.060
6.694,0.075,-0.065
6.696,0.090,-0.065
6.698,0.040,-0.065
6.700,-0.015,-0.065
6.702,0.070,-0.060
6.704,0.070,-0.050
6.706,0.095,-0.035
6.708,0.120,-0.025
6.710,0.110,-0.015
6.712,0.105,-0.010
6.714,0.185,-0.010
6.716,0.080,-0.020
6.718,0.070,-0.035
6.720,0.135,-0.050
6.722,0.070,-0.065
6.724,0.090,-0.075
6.726,-0.005,-0.075
6.728,-0.030,-0.070
6.730,0.075,-0.050
6.732,0.150,-0.030
6.734,0.150,-0.005
6.736,0.135,0.015
6.738,0.105,0.030
6.740,0.185,0.035
6.742,0.200,0.035
6.744,0.205,0.030
6.746,0.160,0.020
6.748,0.050,0.005
6.750,0.020,-0.005
6.752,0.105,-0.010
6.754,0.200,-0.010
6.756,0.125,-0.010
6.758,0.190,-0.005
6.760,0.140,0.000
6.762,0.100,0.005
6.764,0.120,0.010
6.766,0.150,0.010
6.768,0.125,0.010
6.770,0.115,0.005
6.772,0.100,-0.005
6.774,0.070,-0.020
6.776,0.070,-0.035
6.778,0.070,-0.055
6.780,0.040,-0.075
6.782,0.005,-0.095
6.784,0.000,-0.110
6.786,-0.005,-0.115
6.788,0.000,-0.115
6.790,0.010,-0.105
6.792,0.105,-0.090
6.794,0.150,-0.070
6.796,0.080,-0.050
6.798,0.070,-0.035
6.800,0.100,-0.025
6.802,0.055,-0.020
6.804,0.155,-0.025
6.806,0.110,-0.035
6.808,0.015,-0.045
6.810,0.030,-0.055
6.812,0.115,-0.065
6.814,0.115,-0.070
6.816,0.045,-0.070
6.818,-0.015,-0.070
6.820,0.065,-0.070
6.822,0.070,-0.070
6.824,0.060,-0.075
6.826,0.075,-0.080
6.828,0.015,-0.085
6.830,0.050,-0.085
6.832,0.060,-0.085
6.834,0.010,-0.080
6.836,0.060,-0.075
6.838,0.155,-0.065
6.840,0.100,-0.060
6.842,0.015,-0.055
6.844,-0.005,-0.060
6.846,0.015,-0.065
6.848,0.035,-0.075
6.850,0.035,-0.090
6.852,0.030,-0.095
6.854,0.050,-0.100
6.856,0.060,-0.100
6.858,0.045,-0.100
6.860,0.070,-0.100
6.862,0.075,-0.100
6.864,-0.005,-0.105
6.866,-0.080,-0.110
6.868,-0.045,-0.115
6.870,-0.035,-0.115
6.872,0.055,-0.100
6.874,0.115,-0.075
6.876,0.140,-0.025
6.878,0.180,0.045
6.880,0.330,0.135
6.882,0.355,0.245
6.884,0.435,0.355
6.886,0.600,0.470
6.888,0.715,0.570
6.890,0.800,0.655
6.892,0.930,0.710
6.894,0.930,0.735
6.896,0.915,0.725
6.898,0.775,0.690
6.900,0.680,0.620
6.902,0.590,0.535
6.904,0.550,0.430
6.906,0.475,0.320
6.908,0.315,0.210
6.910,0.260,0.105
6.912,0.025,0.020
6.914,-0.020,-0.045
6.916,0.070,-0.090
6.918,0.050,-0.105
6.920,0.035,-0.105
6.922,0.065,-0.085
6.924,0.065,-0.060
6.926,0.125,-0.030
6.928,0.100,-0.010
6.930,0.110,0.000
6.932,0.110,0.000
6.934,0.130,-0.005
6.936,0.155,-0.025
6.938,0.130,-0.040
6.940,0.095,-0.055
6.942,-0.025,-0.065
6.944,-0.035,-0.070
6.946,0.010,-0.065
6.948,0.080,-0.055
6.950,0.225,-0.045
6.952,0.160,-0.035
6.954,0.080,-0.030
6.956,0.080,-0.020
6.958,0.080,-0.015
6.960,0.115,-0.010
6.962,0.125,-0.010
6.964,0.150,-0.010
6.966,0.110,-0.010
6.968,0.090,-0.015
6.970,0.100,-0.025
6.972,0.095,-0.040
6.974,0.125,-0.055
6.976,0.025,-0.070
6.978,0.010,-0.085
6.980,0.030,-0.090
6.982,-0.095,-0.085
6.984,0.025,-0.075
6.986,0.160,-0.055
6.988,0.185,-0.025
6.990,0.170,0.000
6.992,0.170,0.025
6.994,0.135,0.040
6.996,0.135,0.045
6.998,0.125,0.040
7.000,0.155,0.030
7.002,0.115,0.015
7.004,0.115,0.005
7.006,0.085,-0.005
7.008,0.125,-0.005
7.010,0.180,0.005
7.012,0.150,0.015
7.014,0.195,0.035
7.016,0.165,0.050
7.018,0.165,0.060
7.020,0.145,0.065
7.022,0.140,0.065
7.024,0.170,0.060
7.026,0.165,0.050
7.028,0.205,0.040
7.030,0.175,0.030
7.032,0.175,0.025
7.034,0.175,0.020
7.036,0.100,0.020
7.038,0.000,0.020
7.040,0.115,0.020
7.042,0.240,0.025
7.044,0.180,0.025
7.046,0.145,0.030
7.048,0.160,0.035
7.050,0.140,0.040
7.052,0.140,0.050
7.054,0.125,0.060
7.056,0.230,0.070
7.058,0.260,0.080
7.060,0.270,0.090
7.062,0.225,0.100
7.064,0.180,0.110
7.066,0.175,0.115
7.068,0.190,0.125
7.070,0.290,0.135
7.072,0.320,0.145
7.074,0.305,0.155
7.076,0.280,0.170
7.078,0.300,0.185
7.080,0.355,0.195
7.082,0.295,0.205
7.084,0.300,0.215
7.086,0.355,0.220
7.088,0.360,0.225
7.090,0.390,0.225
7.092,0.350,0.235
7.094,0.320,0.240
7.096,0.305,0.245
7.098,0.360,0.250
7.100,0.345,0.250
7.102,0.340,0.250
7.104,0.420,0.245
7.106,0.400,0.240
7.108,0.305,0.235
7.110,0.340,0.235
7.112,0.375,0.240
7.114,0.430,0.250
7.116,0.395,0.265
7.118,0.385,0.280
7.120,0.360,0.295
7.122,0.420,0.305
7.124,0.415,0.305
7.126,0.415,0.300
7.128,0.405,0.285
7.130,0.345,0.260
7.132,0.320,0.240
7.134,0.335,0.220
7.136,0.320,0.205
7.138,0.305,0.195
7.140,0.315,0.195
7.142,0.320,0.195
7.144,0.350,0.200
7.146,0.390,0.200
7.148,0.310,0.190
7.150,0.300,0.175
7.152,0.300,0.155
7.154,0.205,0.125
7.156,0.145,0.100
7.158,0.170,0.075
7.160,0.160,0.055
7.162,0.195,0.045
7.164,0.145,0.040
7.166,0.145,0.045
7.168,0.165,0.050
7.170,0.125,0.055
7.172,0.220,0.055
7.174,0.265,0.050
7.176,0.115,0.040
7.178,0.165,0.030
7.180,0.070,0.010
7.182,0.065,-0.005
7.184,0.140,-0.020
7.186,0.125,-0.030
7.188,0.070,-0.040
7.190,0.015,-0.040
7.192,0.045,-0.040
7.194,0.065,-0.040
7.196,0.140,-0.035
7.198,0.110,-0.030
7.200,0.095,-0.030
7.202,0.055,-0.030
7.204,0.080,-0.030
7.206,0.085,-0.035
7.208,0.050,-0.040
7.210,0.035,-0.045
7.212,0.020,-0.050
7.214,0.095,-0.050
7.216,0.095,-0.055
7.218,0.050,-0.055
7.220,0.055,-0.055
7.222,0.040,-0.055
7.224,0.040,-0.060
7.226,0.070,-0.060
7.228,0.060,-0.070
7.230,0.055,-0.075
7.232,0.045,-0.080
7.234,0.045,-0.085
7.236,-0.015,-0.085
7.238,-0.060,-0.085
7.240,0.055,-0.075
7.242,0.070,-0.060
7.244,0.100,-0.045
7.246,0.060,-0.030
7.248,0.140,-0.020
7.250,0.255,-0.015
7.252,0.060,-0.015
7.254,-0.030,-0.025
7.256,0.065,-0.035
7.258,0.085,-0.055
7.260,-0.015,-0.065
7.262,0.045,-0.075
7.264,0.100,-0.075
7.266,0.125,-0.070
7.268,0.055,-0.060
7.270,0.030,-0.050
7.272,0.075,-0.035
7.274,0.130,-0.030
7.276,0.090,-0.035
7.278,0.035,-0.040
7.280,-0.010,-0.055
7.282,-0.055,-0.075
7.284,-0.005,-0.090
7.286,0.060,-0.095
7.288,0.115,-0.100
7.290,0.070,-0.090
7.292,0.040,-0.080
7.294,0.090,-0.065
7.296,0.070,-0.050
7.298,0.050,-0.040
7.300,0.060,-0.035
7.302,0.030,-0.035
7.304,0.060,-0.040
7.306,0.070,-0.050
7.308,0.060,-0.055
7.310,0.070,-0.055
7.312,0.050,-0.050
7.314,0.110,-0.045
7.316,0.100,-0.035
7.318,0.070,-0.020
7.320,0.070,-0.015
7.322,0.075,-0.010
7.324,0.080,-0.010
7.326,0.075,-0.015
7.328,0.100,-0.025
7.330,0.100,-0.035
7.332,0.045,-0.045
7.334,0.035,-0.050
7.336,-0.020,-0.055
7.338,0.055,-0.055
7.340,0.080,-0.055
7.342,0.085,-0.055
7.344,0.130,-0.060
7.346,0.005,-0.065
7.348,0.005,-0.070
7.350,0.045,-0.085
7.352,0.045,-0.095
7.354,-0.020,-0.105
7.356,-0.020,-0.115
7.358,0.015,-0.115
7.360,0.025,-0.110
7.362,0.095,-0.100
7.364,0.060,-0.085
7.366,-0.100,-0.065
7.368,-0.070,-0.045
7.370,0.180,-0.030
7.372,0.130,-0.020
7.374,0.120,-0.015
7.376,0.090,-0.015
7.378,0.035,-0.025
7.380,0.060,-0.040
7.382,0.025,-0.055
7.384,0.020,-0.065
7.386,-0.025,-0.075
7.388,0.005,-0.075
7.390,0.110,-0.070
7.392,0.140,-0.065
7.394,0.070,-0.055
7.396,0.060,-0.045
7.398,0.070,-0.045
7.400,0.080,-0.050
7.402,0.020,-0.060
7.404,-0.030,-0.075
7.406,-0.090,-0.090
7.408,0.015,-0.105
7.410,0.060,-0.110
7.412,0.065,-0.110
7.414,-0.030,-0.100
7.416,0.010,-0.085
7.418,0.030,-0.060
7.420,0.065,-0.040
7.422,0.155,-0.025
7.424,0.110,-0.015
7.426,0.075,-0.015
7.428,0.100,-0.025
7.430,-0.005,-0.045
7.432,-0.015,-0.070
7.434,-0.005,-0.090
7.436,0.020,-0.105
7.438,-0.030,-0.110
7.440,0.000,-0.110
7.442,0.000,-0.100
7.444,0.110,-0.090
7.446,0.045,-0.080
7.448,-0.050,-0.075
7.450,-0.025,-0.075
7.452,0.065,-0.075
7.454,0.010,-0.085
7.456,-0.005,-0.090
7.458,-0.015,-0.100
7.460,0.000,-0.100
7.462,0.035,-0.095
7.464,0.045,-0.085
7.466,0.090,-0.075
7.468,0.120,-0.065
7.470,0.040,-0.055
7.472,0.065,-0.055
7.474,-0.015,-0.060
7.476,-0.050,-0.075
7.478,-0.050,-0.085
7.480,-0.020,-0.100
7.482,0.015,-0.105
7.484,-0.005,-0.110
7.486,0.035,-0.105
7.488,0.085,-0.095
7.490,0.095,-0.080
7.492,0.035,-0.070
7.494,0.015,-0.055
7.496,0.015,-0.050
7.498,0.010,-0.045
7.500,0.050,-0.045
7.502,0.105,-0.050
7.504,0.045,-0.055
7.506,0.010,-0.065
7.508,0.090,-0.070
7.510,0.095,-0.075
7.512,0.015,-0.080
7.514,-0.030,-0.085
7.516,-0.035,-0.090
7.518,0.010,-0.090
7.520,-0.010,-0.095
7.522,-0.035,-0.095
7.524,0.025,-0.090
7.526,0.135,-0.080
7.528,0.040,-0.065
7.530,-0.015,-0.050
7.532,0.045,-0.035
7.534,0.170,-0.025
7.536,0.065,-0.020
7.538,0.005,-0.020
7.540,0.110,-0.025
7.542,0.020,-0.040
7.544,0.020,-0.055
7.546,0.040,-0.070
7.548,0.040,-0.075
7.550,0.065,-0.080
7.552,0.085,-0.075
7.554,0.025,-0.070
7.556,-0.035,-0.055
7.558,0.000,-0.045
7.560,0.095,-0.030
7.562,0.085,-0.025
7.564,0.070,-0.020
7.566,0.100,-0.025
7.568,0.100,-0.025
7.570,0.050,-0.030
7.572,0.025,-0.030
7.574,0.065,-0.025
7.576,0.060,-0.020
7.578,0.120,-0.010
7.580,0.070,-0.005
7.582,0.070,0.005
7.584,0.130,0.005
7.586,0.125,0.000
7.588,0.130,-0.005
7.590,0.085,-0.010
7.592,0.075,-0.020
7.594,0.050,-0.030
7.596,0.045,-0.040
7.598,0.025,-0.045
7.600,0.070,-0.050
7.602,0.060,-0.055
7.604,0.030,-0.065
7.606,-0.005,-0.075
7.608,-0.055,-0.085
7.610,-0.015,-0.095
7.612,0.045,-0.105
7.614,0.045,-0.115
7.616,-0.050,-0.115
7.618,-0.035,-0.115
7.620,0.010,-0.105
7.622,-0.005,-0.095
7.624,0.030,-0.080
7.626,0.040,-0.070
7.628,0.045,-0.065
7.630,0.040,-0.060
7.632,-0.050,-0.060
7.634,0.015,-0.070
7.636,0.100,-0.075
7.638,0.005,-0.085
7.640,0.005,-0.090
7.642,0.020,-0.095
7.644,-0.040,-0.095
7.646,0.005,-0.090
7.648,0.040,-0.090
7.650,0.040,-0.090
7.652,-0.025,-0.090
7.654,-0.035,-0.095
7.656,-0.015,-0.100
7.658,-0.030,-0.105
7.660,0.000,-0.110
7.662,0.025,-0.110
7.664,0.000,-0.105
7.666,-0.010,-0.100
7.668,-0.035,-0.085
7.670,0.040,-0.070
7.672,0.000,-0.060
7.674,0.080,-0.050
7.676,0.075,-0.045
7.678,-0.005,-0.050
7.680,-0.015,-0.060
7.682,-0.015,-0.080
7.684,-0.015,-0.100
7.686,0.005,-0.125
7.688,-0.015,-0.140
7.690,0.010,-0.155
7.692,-0.100,-0.160
7.694,-0.125,-0.155
7.696,-0.065,-0.140
7.698,-0.085,-0.115
7.700,-0.035,-0.080
7.702,0.050,-0.040
7.704,0.185,0.010
7.706,0.305,0.070
7.708,0.325,0.140
7.710,0.325,0.225
7.712,0.300,0.320
7.714,0.450,0.420
7.716,0.655,0.520
7.718,0.775,0.615
7.720,0.850,0.690
7.722,0.860,0.740
7.724,0.885,0.755
7.726,0.870,0.735
7.728,0.795,0.675
7.730,0.695,0.585
7.732,0.555,0.465
7.734,0.415,0.335
7.736,0.210,0.205
7.738,0.080,0.080
7.740,-0.010,-0.025
7.742,-0.060,-0.105
7.744,-0.045,-0.160
7.746,-0.080,-0.185
7.748,-0.045,-0.190
7.750,-0.040,-0.170
7.752,-0.090,-0.140
7.754,-0.090,-0.105
7.756,-0.005,-0.065
7.758,0.115,-0.035
7.760,0.210,-0.010
7.762,0.150,0.005
7.764,0.005,0.005
7.766,0.075,0.000
7.768,0.165,-0.020
7.770,0.050,-0.040
7.772,-0.020,-0.060
7.774,-0.010,-0.075
7.776,-0.045,-0.085
7.778,0.030,-0.090
7.780,-0.010,-0.090
7.782,0.075,-0.080
7.784,0.040,-0.070
7.786,0.045,-0.055
7.788,0.045,-0.050
7.790,0.010,-0.040
7.792,0.070,-0.040
7.794,0.090,-0.040
7.796,0.050,-0.045
7.798,0.015,-0.050
7.800,0.070,-0.050
7.802,-0.005,-0.050
7.804,0.005,-0.045
7.806,0.095,-0.040
7.808,0.095,-0.035
7.810,0.070,-0.030
7.812,0.085,-0.025
7.814,0.055,-0.030
7.816,0.015,-0.030
7.818,0.020,-0.035
7.820,0.060,-0.040
7.822,0.065,-0.040
7.824,0.050,-0.040
7.826,0.040,-0.035
7.828,0.050,-0.030
7.830,0.105,-0.020
7.832,0.110,-0.015
7.834,0.110,-0.005
7.836,0.070,0.005
7.838,0.005,0.010
7.840,0.095,0.015
7.842,0.165,0.020
7.844,0.185,0.025
7.846,0.125,0.025
7.848,0.120,0.025
7.850,0.090,0.025
7.852,0.085,0.025
7.854,0.125,0.025
7.856,0.085,0.025
7.858,0.085,0.020
7.860,0.090,0.015
7.862,0.140,0.005
7.864,0.065,0.000
7.866,0.095,-0.005
7.868,0.125,-0.005
7.870,0.095,-0.005
7.872,0.100,0.005
7.874,0.130,0.015
7.876,0.100,0.030
7.878,0.085,0.050
7.880,0.160,0.065
7.882,0.215,0.080
7.884,0.205,0.095
7.886,0.200,0.100
7.888,0.215,0.100
7.890,0.170,0.100
7.892,0.155,0.095
7.894,0.165,0.090
7.896,0.120,0.085
7.898,0.120,0.085
7.900,0.220,0.095
7.902,0.220,0.110
7.904,0.220,0.130
7.906,0.265,0.155
7.908,0.260,0.180
7.910,0.285,0.200
7.912,0.335,0.220
7.914,0.320,0.235
7.916,0.275,0.240
7.918,0.285,0.235
7.920,0.455,0.230
7.922,0.355,0.215
7.924,0.210,0.205
7.926,0.235,0.195
7.928,0.295,0.195
7.930,0.320,0.195
7.932,0.305,0.205
7.934,0.325,0.225
7.936,0.355,0.240
7.938,0.380,0.255
7.940,0.345,0.270
7.942,0.360,0.275
7.944,0.350,0.275
7.946,0.390,0.270
7.948,0.330,0.265
7.950,0.305,0.255
7.952,0.300,0.245
7.954,0.300,0.240
7.956,0.335,0.235
7.958,0.335,0.235
7.960,0.300,0.235
7.962,0.285,0.235
7.964,0.325,0.230
7.966,0.330,0.220
7.968,0.310,0.210
7.970,0.285,0.190
7.972,0.180,0.175
7.974,0.180,0.160
7.976,0.225,0.145
7.978,0.210,0.135
7.980,0.245,0.125
7.982,0.250,0.120
7.984,0.265,0.115
7.986,0.225,0.110
7.988,0.145,0.100
7.990,0.105,0.085
7.992,0.075,0.070
7.994,0.105,0.050
7.996,0.110,0.030
7.998,0.115,0.015
8.000,0.060,0.000
8.002,0.140,-0.010
8.004,0.090,-0.015
8.006,0.090,-0.015
8.008,0.040,-0.015
8.010,0.065,-0.020
8.012,0.115,-0.020
8.014,0.030,-0.030
8.016,-0.010,-0.035
8.018,-0.015,-0.045
8.020,0.045,-0.055
8.022,0.025,-0.065
8.024,-0.025,-0.070
8.026,0.035,-0.075
8.028,0.115,-0.075
8.030,0.060,-0.075
8.032,-0.025,-0.070
8.034,-0.045,-0.070
8.036,-0.035,-0.065
8.038,0.035,-0.065
8.040,0.015,-0.070
8.042,0.020,-0.070
8.044,0.120,-0.075
8.046,0.075,-0.080
8.048,-0.155,-0.085
8.050,-0.025,-0.090
8.052,0.000,-0.090
8.054,-0.015,-0.090
8.056,0.030,-0.090
8.058,-0.005,-0.090
8.060,0.005,-0.085
8.062,0.020,-0.080
8.064,0.055,-0.075
8.066,0.065,-0.070
8.068,0.035,-0.065
8.070,0.000,-0.060
8.072,0.005,-0.055
8.074,-0.070,-0.055
8.076,-0.070,-0.060
8.078,0.080,-0.065
8.080,0.090,-0.075
8.082,-0.020,-0.080
8.084,0.020,-0.090
8.086,0.025,-0.100
8.088,-0.015,-0.105
8.090,-0.020,-0.105
8.092,-0.025,-0.100
8.094,-0.005,-0.095
8.096,0.025,-0.085
8.098,-0.010,-0.075
8.100,-0.005,-0.060
8.102,-0.005,-0.050
8.104,0.010,-0.045
8.106,0.095,-0.040
8.108,0.110,-0.040
8.110,0.095,-0.045
8.112,0.040,-0.055
8.114,-0.060,-0.065
8.116,-0.060,-0.075
8.118,0.005,-0.085
8.120,0.005,-0.090
8.122,-0.005,-0.100
8.124,-0.050,-0.100
8.126,-0.045,-0.095
8.128,-0.045,-0.090
8.130,0.035,-0.080
8.132,0.040,-0.065
8.134,0.010,-0.050
8.136,0.000,-0.040
8.138,0.055,-0.030
8.140,0.065,-0.030
8.142,0.065,-0.030
8.144,0.065,-0.035
8.146,0.065,-0.045
8.148,0.045,-0.060
8.150,-0.015,-0.070
8.152,-0.075,-0.080
8.154,-0.055,-0.085
8.156,-0.030,-0.090
8.158,0.000,-0.085
8.160,0.120,-0.080
8.162,0.135,-0.075
8.164,0.090,-0.070
8.166,-0.035,-0.070
8.168,-0.075,-0.070
8.170,-0.100,-0.070
8.172,0.015,-0.070
8.174,0.065,-0.075
8.176,0.015,-0.075
8.178,0.075,-0.075
8.180,0.090,-0.070
8.182,0.020,-0.065
8.184,-0.005,-0.060
8.186,0.050,-0.055
8.188,0.025,-0.050
8.190,0.030,-0.045
8.192,0.025,-0.045
8.194,0.030,-0.045
8.196,0.015,-0.045
8.198,-0.015,-0.045
8.200,-0.010,-0.045
8.202,0.025,-0.045
8.204,0.140,-0.040
8.206,0.075,-0.040
8.208,0.050,-0.045
8.210,0.050,-0.045
8.212,0.010,-0.055
8.214,-0.095,-0.065
8.216,-0.010,-0.075
8.218,-0.010,-0.085
8.220,-0.005,-0.090
8.222,0.045,-0.090
8.224,-0.040,-0.085
8.226,-0.045,-0.080
8.228,0.045,-0.065
8.230,0.110,-0.055
8.232,0.050,-0.050
8.234,0.035,-0.045
8.236,-0.065,-0.045
8.238,0.045,-0.055
8.240,0.030,-0.065
8.242,0.005,-0.075
8.244,-0.045,-0.085
8.246,-0.020,-0.090
8.248,-0.015,-0.090
8.250,0.045,-0.080
8.252,0.000,-0.075
8.254,-0.020,-0.065
8.256,0.010,-0.055
8.258,0.060,-0.050
8.260,0.090,-0.055
8.262,0.070,-0.060
8.264,-0.020,-0.070
8.266,-0.055,-0.075
8.268,-0.075,-0.085
8.270,-0.040,-0.090
8.272,-0.020,-0.090
8.274,0.060,-0.085
8.276,0.040,-0.080
8.278,0.040,-0.070
8.280,0.030,-0.065
8.282,0.040,-0.055
8.284,0.040,-0.055
8.286,0.005,-0.055
8.288,-0.070,-0.055
8.290,-0.005,-0.060
8.292,0.055,-0.065
8.294,0.095,-0.075
8.296,0.010,-0.080
8.298,0.025,-0.085
8.300,-0.035,-0.085
8.302,0.000,-0.085
8.304,-0.040,-0.085
8.306,-0.030,-0.080
8.308,0.025,-0.075
8.310,0.055,-0.070
8.312,-0.010,-0.065
8.314,0.040,-0.060
8.316,0.055,-0.055
8.318,0.045,-0.055
8.320,0.055,-0.065
8.322,-0.020,-0.075
8.324,-0.055,-0.090
8.326,-0.010,-0.105
8.328,-0.085,-0.115
8.330,-0.070,-0.125
8.332,-0.125,-0.125
8.334,-0.075,-0.120
8.336,0.010,-0.110
8.338,0.095,-0.095
8.340,0.095,-0.075
8.342,0.085,-0.060
8.344,0.050,-0.050
8.346,0.020,-0.045
8.348,0.010,-0.045
8.350,0.025,-0.055
8.352,-0.020,-0.065
8.354,-0.075,-0.075
8.356,0.000,-0.080
8.358,0.015,-0.080
8.360,0.050,-0.075
8.362,0.085,-0.070
8.364,0.070,-0.060
8.366,-0.030,-0.050
8.368,-0.030,-0.045
8.370,0.050,-0.045
8.372,0.025,-0.045
8.374,-0.015,-0.050
8.376,-0.020,-0.060
8.378,-0.005,-0.065
8.380,0.030,-0.070
8.382,0.025,-0.070
8.384,0.045,-0.065
8.386,0.050,-0.060
8.388,0.000,-0.055
8.390,0.080,-0.050
8.392,0.105,-0.050
8.394,-0.060,-0.050
8.396,-0.085,-0.055
8.398,0.025,-0.060
8.400,0.015,-0.070
8.402,0.040,-0.075
8.404,0.065,-0.080
8.406,0.020,-0.080
8.408,-0.040,-0.075
8.410,-0.010,-0.070
8.412,0.005,-0.065
8.414,0.015,-0.055
8.416,0.080,-0.045
8.418,0.115,-0.035
8.420,0.035,-0.025
8.422,0.045,-0.015
8.424,0.085,-0.005
8.426,0.115,0.005
8.428,0.105,0.010
8.430,0.060,0.010
8.432,0.045,0.010
8.434,0.045,0.005
8.436,0.095,0.000
8.438,0.075,-0.005
8.440,0.080,-0.010
8.442,0.075,-0.015
8.444,0.005,-0.015
8.446,0.050,-0.015
8.448,0.040,-0.015
8.450,-0.025,-0.020
8.452,0.075,-0.020
8.454,0.150,-0.025
8.456,0.085,-0.030
8.458,0.105,-0.035
8.460,-0.030,-0.040
8.462,-0.075,-0.040
8.464,0.040,-0.035
8.466,0.060,-0.025
8.468,0.055,-0.020
8.470,0.120,-0.015
8.472,0.115,-0.010
8.474,0.035,-0.020
8.476,-0.005,-0.030
8.478,-0.060,-0.050
8.480,0.015,-0.070
8.482,0.040,-0.085
8.484,0.020,-0.100
8.486,-0.065,-0.110
8.488,-0.060,-0.105
8.490,-0.030,-0.095
8.492,0.030,-0.080
8.494,0.065,-0.065
8.496,0.060,-0.050
8.498,0.035,-0.040
8.500,0.040,-0.040
8.502,0.020,-0.045
8.504,0.030,-0.050
8.506,-0.020,-0.065
8.508,-0.055,-0.075
8.510,-0.055,-0.085
8.512,-0.045,-0.085
8.514,0.015,-0.090
8.516,0.015,-0.085
8.518,0.045,-0.080
8.520,-0.015,-0.080
8.522,-0.030,-0.075
8.524,0.000,-0.080
8.526,-0.005,-0.080
8.528,0.015,-0.085
8.530,0.055,-0.090
8.532,-0.025,-0.095
8.534,-0.115,-0.095
8.536,-0.030,-0.095
8.538,0.020,-0.100
8.540,-0.025,-0.100
8.542,-0.010,-0.100
8.544,-0.030,-0.105
8.546,-0.025,-0.110
8.548,0.040,-0.110
8.550,-0.060,-0.110
8.552,-0.160,-0.105
8.554,-0.050,-0.090
8.556,0.010,-0.060
8.558,0.040,-0.020
8.560,0.245,0.040
8.562,0.290,0.120
8.564,0.285,0.210
8.566,0.300,0.320
8.568,0.385,0.430
8.570,0.610,0.540
8.572,0.855,0.645
8.574,0.890,0.720
8.576,0.915,0.770
8.578,0.940,0.775
8.580,0.825,0.745
8.582,0.755,0.675
8.584,0.585,0.570
8.586,0.485,0.440
8.588,0.370,0.305
8.590,0.215,0.180
8.592,0.060,0.070
8.594,-0.065,-0.015
8.596,0.000,-0.070
8.598,0.015,-0.095
8.600,0.005,-0.100
8.602,-0.045,-0.085
8.604,0.030,-0.065
8.606,0.060,-0.045
8.608,0.005,-0.030
8.610,0.020,-0.020
8.612,0.010,-0.015
8.614,0.005,-0.020
8.616,0.080,-0.025
8.618,0.140,-0.035
8.620,0.080,-0.045
8.622,-0.010,-0.055
8.624,-0.020,-0.065
8.626,0.045,-0.075
8.628,-0.055,-0.085
8.630,-0.105,-0.095
8.632,-0.045,-0.100
8.634,-0.005,-0.100
8.636,-0.025,-0.090
8.638,0.010,-0.075
8.640,0.100,-0.055
8.642,0.125,-0.035
8.644,0.050,-0.015
8.646,-0.010,-0.005
8.648,0.080,0.005
8.650,-0.020,0.000
8.652,0.035,-0.005
8.654,0.085,-0.015
8.656,0.075,-0.025
8.658,0.115,-0.035
8.660,0.075,-0.035
8.662,0.030,-0.030
8.664,0.030,-0.020
8.666,0.030,-0.010
8.668,0.065,0.000
8.670,0.075,0.010
8.672,0.045,0.010
8.674,0.100,0.005
8.676,0.045,0.000
8.678,0.080,-0.010
8.680,0.110,-0.015
8.682,0.130,-0.015
8.684,0.115,-0.015
8.686,0.100,-0.005
8.688,0.030,0.000
8.690,-0.050,0.010
8.692,0.025,0.015
8.694,0.090,0.020
8.696,0.100,0.020
8.698,0.160,0.015
8.700,0.195,0.010
8.702,0.105,0.005
8.704,0.050,0.000
8.706,0.075,0.000
8.708,-0.040,0.005
8.710,0.000,0.015
8.712,0.085,0.020
8.714,0.120,0.030
8.716,0.180,0.040
8.718,0.180,0.050
8.720,0.155,0.050
8.722,0.095,0.055
8.724,0.070,0.055
8.726,0.110,0.055
8.728,0.080,0.050
8.730,0.145,0.050
8.732,0.105,0.055
8.734,0.160,0.060
8.736,0.135,0.065
8.738,0.120,0.080
8.740,0.160,0.090
8.742,0.210,0.105
8.744,0.235,0.120
8.746,0.245,0.130
8.748,0.190,0.140
8.750,0.190,0.145
8.752,0.190,0.145
8.754,0.270,0.145
8.756,0.195,0.145
8.758,0.215,0.145
8.760,0.260,0.150
8.762,0.265,0.160
8.764,0.245,0.170
8.766,0.235,0.180
8.768,0.235,0.190
8.770,0.280,0.200
8.772,0.245,0.205
8.774,0.355,0.210
8.776,0.305,0.210
8.778,0.205,0.210
8.780,0.265,0.210
8.782,0.265,0.210
8.784,0.275,0.215
8.786,0.305,0.225
8.788,0.270,0.235
8.790,0.395,0.245
8.792,0.425,0.255
8.794,0.370,0.260
8.796,0.255,0.265
8.798,0.150,0.270
8.800,0.305,0.270
8.802,0.415,0.275
8.804,0.385,0.275
8.806,0.360,0.280
8.808,0.385,0.290
8.810,0.380,0.295
8.812,0.345,0.300
8.814,0.340,0.300
8.816,0.325,0.295
8.818,0.360,0.285
8.820,0.345,0.260
8.822,0.310,0.235
8.824,0.240,0.200
8.826,0.180,0.170
8.828,0.185,0.145
8.830,0.220,0.125
8.832,0.165,0.110
8.834,0.175,0.105
8.836,0.150,0.110
8.838,0.225,0.115
8.840,0.185,0.125
8.842,0.215,0.125
8.844,0.175,0.125
8.846,0.155,0.115
8.848,0.155,0.095
8.850,0.150,0.075
8.852,0.050,0.050
8.854,0.095,0.030
8.856,0.160,0.010
8.858,0.045,-0.005
8.860,0.055,-0.010
8.862,0.090,-0.010
8.864,0.090,-0.010
8.866,0.090,-0.005
8.868,0.050,0.000
8.870,0.050,0.000
8.872,0.015,0.000
8.874,0.050,-0.005
8.876,0.080,-0.015
8.878,0.055,-0.025
8.880,0.095,-0.035
8.882,0.055,-0.040
8.884,-0.035,-0.045
8.886,-0.065,-0.050
8.888,-0.010,-0.050
8.890,0.035,-0.045
8.892,0.005,-0.040
8.894,0.060,-0.035
8.896,0.080,-0.030
8.898,0.080,-0.025
8.900,0.025,-0.025
8.902,-0.030,-0.025
8.904,-0.080,-0.030
8.906,0.015,-0.035
8.908,0.090,-0.040
8.910,0.045,-0.050
8.912,-0.035,-0.060
8.914,0.040,-0.065
8.916,0.055,-0.070
8.918,0.060,-0.070
8.920,0.020,-0.065
8.922,-0.095,-0.060
8.924,-0.095,-0.050
8.926,0.050,-0.040
8.928,0.035,-0.030
8.930,0.055,-0.030
8.932,0.065,-0.030
8.934,0.010,-0.035
8.936,0.010,-0.045
8.938,-0.075,-0.055
8.940,0.000,-0.060
8.942,0.035,-0.070
8.944,0.045,-0.070
8.946,0.025,-0.065
8.948,0.030,-0.055
8.950,0.000,-0.040
8.952,0.020,-0.025
8.954,-0.010,-0.010
8.956,0.080,0.000
8.958,0.135,0.005
8.960,0.065,0.000
8.962,0.000,-0.010
8.964,0.070,-0.025
8.966,0.130,-0.035
8.968,-0.010,-0.050
8.970,-0.070,-0.060
8.972,-0.040,-0.065
8.974,0.015,-0.065
8.976,-0.005,-0.055
8.978,-0.005,-0.040
8.980,0.075,-0.025
8.982,0.075,-0.015
8.984,0.040,0.000
8.986,0.065,0.010
8.988,0.055,0.015
8.990,0.025,0.010
8.992,0.110,0.005
8.994,0.050,0.000
8.996,0.045,-0.010
8.998,0.065,-0.020
9.000,0.035,-0.030
9.002,0.040,-0.035
9.004,0.000,-0.040
9.006,-0.045,-0.045
9.008,0.010,-0.050
9.010,0.030,-0.050
9.012,0.020,-0.055
9.014,0.040,-0.055
9.016,0.090,-0.055
9.018,0.015,-0.055
9.020,-0.065,-0.055
9.022,-0.070,-0.055
9.024,0.015,-0.050
9.026,0.075,-0.050
9.028,0.050,-0.045
9.030,0.030,-0.040
9.032,-0.015,-0.035
9.034,0.035,-0.030
9.036,0.000,-0.030
9.038,0.000,-0.030
9.040,0.000,-0.030
9.042,0.055,-0.030
9.044,0.055,-0.035
9.046,-0.015,-0.040
9.048,-0.025,-0.045
9.050,0.025,-0.050
9.052,0.055,-0.050
9.054,0.070,-0.050
9.056,0.020,-0.045
9.058,0.020,-0.040
9.060,0.020,-0.035
9.062,0.060,-0.030
9.064,0.050,-0.025
9.066,-0.005,-0.025
9.068,-0.025,-0.035
9.070,-0.050,-0.045
9.072,0.005,-0.055
9.074,0.025,-0.065
9.076,-0.025,-0.075
9.078,0.010,-0.075
9.080,0.030,-0.075
9.082,0.025,-0.065
9.084,0.035,-0.050
9.086,-0.010,-0.040
9.088,-0.055,-0.030
9.090,-0.035,-0.035
9.092,0.060,-0.040
9.094,0.035,-0.055
9.096,0.055,-0.075
9.098,-0.075,-0.090
9.100,-0.055,-0.095
9.102,0.000,-0.095
9.104,-0.015,-0.080
9.106,-0.060,-0.060
9.108,-0.035,-0.035
9.110,0.090,-0.010
9.112,0.150,0.005
9.114,0.075,0.010
9.116,0.075,0.005
9.118,0.040,-0.010
9.120,-0.010,-0.030
9.122,-0.035,-0.050
9.124,-0.030,-0.060
9.126,0.025,-0.070
9.128,-0.040,-0.070
9.130,-0.020,-0.065
9.132,0.080,-0.060
9.134,0.060,-0.055
9.136,0.010,-0.060
9.138,-0.010,-0.070
9.140,-0.060,-0.085
9.142,-0.060,-0.095
9.144,-0.035,-0.105
9.146,-0.150,-0.105
9.148,-0.115,-0.095
9.150,0.070,-0.075
9.152,0.220,-0.050
9.154,0.080,-0.025
9.156,-0.005,0.000
9.158,-0.005,0.010
9.160,0.085,0.015
9.162,0.060,0.005
9.164,-0.010,-0.010
9.166,-0.015,-0.030
9.168,0.005,-0.050
9.170,-0.015,-0.060
9.172,0.010,-0.065
9.174,0.050,-0.065
9.176,0.100,-0.055
9.178,0.035,-0.050
9.180,-0.045,-0.045
9.182,-0.090,-0.050
9.184,-0.035,-0.055
9.186,0.035,-0.070
9.188,-0.030,-0.085
9.190,-0.065,-0.100
9.192,-0.040,-0.105
9.194,-0.005,-0.110
9.196,0.030,-0.100
9.198,-0.015,-0.090
9.200,-0.025,-0.075
9.202,0.010,-0.065
9.204,-0.015,-0.055
9.206,-0.085,-0.055
9.208,-0.050,-0.055
9.210,0.040,-0.060
9.212,-0.005,-0.065
9.214,0.025,-0.070
9.216,0.065,-0.070
9.218,0.060,-0.070
9.220,0.060,-0.065
9.222,0.025,-0.065
9.224,-0.090,-0.065
9.226,-0.130,-0.070
9.228,-0.055,-0.075
9.230,-0.055,-0.090
9.232,-0.055,-0.100
9.234,0.030,-0.105
9.236,-0.025,-0.105
9.238,-0.015,-0.095
9.240,-0.045,-0.080
9.242,0.030,-0.060
9.244,0.065,-0.035
9.246,0.010,-0.020
9.248,0.000,-0.010
9.250,0.010,-0.010
9.252,0.055,-0.020
9.254,0.020,-0.035
9.256,0.060,-0.055
9.258,0.005,-0.070
9.260,-0.055,-0.080
9.262,-0.010,-0.085
9.264,-0.015,-0.080
9.266,0.000,-0.075
9.268,0.005,-0.065
9.270,-0.010,-0.060
9.272,-0.040,-0.060
9.274,-0.020,-0.070
9.276,-0.020,-0.080
9.278,-0.045,-0.090
9.280,-0.050,-0.105
9.282,-0.040,-0.110
9.284,-0.010,-0.110
9.286,0.005,-0.110
9.288,0.005,-0.100
9.290,-0.045,-0.090
9.292,-0.110,-0.080
9.294,-0.065,-0.070
9.296,0.005,-0.065
9.298,0.025,-0.060
9.300,0.035,-0.055
9.302,0.065,-0.050
9.304,-0.005,-0.045
9.306,-0.020,-0.035
9.308,0.040,-0.025
9.310,0.045,-0.015
9.312,0.025,-0.005
9.314,0.070,0.000
9.316,0.070,-0.005
9.318,0.025,-0.010
9.320,0.015,-0.020
9.322,-0.015,-0.035
9.324,0.040,-0.045
9.326,-0.025,-0.050
9.328,-0.010,-0.045
9.330,0.045,-0.035
9.332,0.065,-0.020
9.334,0.110,0.005
9.336,0.075,0.030
9.338,0.195,0.050
9.340,0.100,0.065
9.342,0.095,0.075
9.344,0.105,0.075
9.346,0.060,0.065
9.348,0.135,0.045
9.350,0.120,0.025
9.352,0.085,0.005
9.354,0.010,-0.020
9.356,-0.005,-0.035
9.358,0.030,-0.050
9.360,0.000,-0.060
9.362,-0.005,-0.065
9.364,-0.050,-0.070
9.366,-0.060,-0.065
9.368,-0.005,-0.065
9.370,-0.030,-0.065
9.372,0.010,-0.065
9.374,0.025,-0.070
9.376,0.010,-0.075
9.378,0.030,-0.080
9.380,-0.025,-0.095
9.382,-0.095,-0.105
9.384,-0.145,-0.115
9.386,-0.135,-0.120
9.388,-0.075,-0.125
9.390,-0.060,-0.125
9.392,-0.040,-0.120
9.394,-0.040,-0.105
9.396,-0.015,-0.095
9.398,0.005,-0.080
9.400,0.030,-0.065
9.402,-0.015,-0.060
9.404,-0.015,-0.055
9.406,-0.015,-0.055
9.408,-0.015,-0.060
9.410,0.005,-0.070
9.412,-0.040,-0.080
9.414,-0.020,-0.090
9.416,-0.040,-0.100
9.418,-0.070,-0.100
9.420,-0.020,-0.100
9.422,-0.045,-0.095
9.424,-0.115,-0.085
9.426,-0.060,-0.075
9.428,0.020,-0.065
9.430,0.045,-0.065
9.432,0.025,-0.065
9.434,0.010,-0.070
9.436,0.010,-0.080
9.438,-0.010,-0.090
9.440,-0.110,-0.105
9.442,-0.105,-0.110
9.444,-0.130,-0.115
9.446,-0.085,-0.115
9.448,0.025,-0.110
9.450,0.035,-0.100
9.452,-0.055,-0.090
9.454,-0.075,-0.080
9.456,-0.030,-0.080
9.458,-0.010,-0.075
9.460,-0.030,-0.075
9.462,-0.070,-0.065
9.464,-0.055,-0.045
9.466,0.050,-0.010
9.468,0.160,0.050
9.470,0.235,0.130
9.472,0.360,0.230
9.474,0.350,0.345
9.476,0.480,0.465
9.478,0.675,0.580
9.480,0.830,0.675
9.482,0.825,0.740
9.484,0.810,0.765
9.486,0.820,0.750
9.488,0.780,0.700
9.490,0.650,0.610
9.492,0.500,0.495
9.494,0.430,0.370
9.496,0.280,0.245
9.498,0.135,0.125
9.500,0.035,0.025
9.502,-0.030,-0.050
9.504,-0.095,-0.100
9.506,-0.080,-0.130
9.508,-0.120,-0.135
9.510,-0.115,-0.125
9.512,-0.125,-0.110
9.514,-0.015,-0.090
9.516,0.060,-0.070
9.518,0.060,-0.060
9.520,-0.035,-0.050
9.522,-0.045,-0.050
9.524,0.005,-0.050
9.526,0.040,-0.055
9.528,0.000,-0.060
9.530,-0.030,-0.060
9.532,-0.030,-0.060
9.534,-0.070,-0.060
9.536,0.075,-0.055
9.538,0.005,-0.050
9.540,-0.055,-0.045
9.542,-0.005,-0.040
9.544,0.035,-0.040
9.546,0.055,-0.035
9.548,0.015,-0.035
9.550,0.015,-0.030
9.552,-0.015,-0.025
9.554,0.025,-0.020
9.556,0.050,-0.015
9.558,0.040,-0.015
9.560,0.135,-0.010
9.562,-0.015,-0.010
9.564,-0.025,-0.015
9.566,0.035,-0.020
9.568,0.005,-0.030
9.570,0.010,-0.035
9.572,0.045,-0.035
9.574,0.045,-0.035
9.576,0.045,-0.030
9.578,0.005,-0.020
9.580,0.055,-0.010
9.582,0.075,0.000
9.584,0.060,0.010
9.586,0.005,0.015
9.588,-0.005,0.015
9.590,0.035,0.010
9.592,0.115,0.000
9.594,0.090,-0.015
9.596,0.100,-0.025
9.598,-0.015,-0.030
9.600,-0.035,-0.035
9.602,0.025,-0.030
9.604,-0.080,-0.025
9.606,0.020,-0.010
9.608,0.095,0.000
9.610,0.070,0.015
9.612,0.130,0.025
9.614,0.130,0.035
9.616,0.110,0.040
9.618,0.015,0.040
9.620,0.045,0.040
9.622,0.035,0.035
9.624,0.095,0.035
9.626,0.090,0.035
9.628,0.050,0.035
9.630,0.090,0.035
9.632,0.160,0.040
9.634,0.155,0.045
9.636,0.080,0.055
9.638,0.080,0.070
9.640,0.135,0.080
9.642,0.100,0.095
9.644,0.135,0.110
9.646,0.135,0.120
9.648,0.235,0.130
9.650,0.200,0.130
9.652,0.230,0.130
9.654,0.170,0.125
9.656,0.135,0.120
9.658,0.140,0.115
9.660,0.125,0.110
9.662,0.170,0.110
9.664,0.205,0.120
9.666,0.145,0.130
9.668,0.150,0.145
9.670,0.185,0.160
9.672,0.305,0.175
9.674,0.245,0.190
9.676,0.290,0.205
9.678,0.280,0.215
9.680,0.275,0.220
9.682,0.290,0.230
9.684,0.270,0.235
9.686,0.320,0.245
9.688,0.260,0.250
9.690,0.210,0.260
9.692,0.320,0.265
9.694,0.380,0.265
9.696,0.380,0.260
9.698,0.275,0.255
9.700,0.245,0.245
9.702,0.250,0.235
9.704,0.255,0.230
9.706,0.300,0.235
9.708,0.335,0.240
9.710,0.370,0.250
9.712,0.380,0.265
9.714,0.300,0.280
9.716,0.300,0.285
9.718,0.345,0.290
9.720,0.315,0.285
9.722,0.320,0.275
9.724,0.270,0.255
9.726,0.250,0.235
9.728,0.290,0.215
9.730,0.255,0.200
9.732,0.260,0.190
9.734,0.250,0.190
9.736,0.210,0.190
9.738,0.235,0.190
9.740,0.170,0.190
9.742,0.235,0.185
9.744,0.205,0.175
9.746,0.210,0.155
9.748,0.175,0.135
9.750,0.170,0.115
9.752,0.095,0.090
9.754,0.110,0.070
9.756,0.080,0.050
9.758,0.075,0.040
9.760,0.030,0.025
9.762,0.030,0.015
9.764,0.050,0.005
9.766,0.055,-0.010
9.768,0.000,-0.020
9.770,0.025,-0.035
9.772,0.070,-0.045
9.774,-0.065,-0.050
9.776,0.015,-0.050
9.778,0.000,-0.050
9.780,-0.005,-0.045
9.782,-0.030,-0.035
9.784,-0.005,-0.030
9.786,0.055,-0.025
9.788,0.065,-0.025
9.790,-0.005,-0.030
9.792,-0.010,-0.045
9.794,-0.070,-0.055
9.796,-0.030,-0.065
9.798,-0.055,-0.075
9.800,-0.055,-0.075
9.802,-0.070,-0.075
9.804,0.010,-0.065
9.806,0.050,-0.050
9.808,-0.020,-0.035
9.810,0.055,-0.025
9.812,0.030,-0.015
9.814,-0.005,-0.015
9.816,0.055,-0.025
9.818,-0.020,-0.035
9.820,-0.020,-0.050
9.822,-0.050,-0.065
9.824,-0.045,-0.080
9.826,-0.080,-0.085
9.828,-0.070,-0.085
9.830,-0.080,-0.080
9.832,-0.040,-0.075
9.834,0.020,-0.070
9.836,0.065,-0.065
9.838,0.015,-0.065
9.840,-0.040,-0.065
9.842,-0.075,-0.075
9.844,-0.075,-0.080
9.846,-0.120,-0.085
9.848,-0.100,-0.090
9.850,0.015,-0.090
9.852,0.010,-0.090
9.854,-0.015,-0.085
9.856,-0.070,-0.080
9.858,0.010,-0.080
9.860,0.010,-0.080
9.862,-0.130,-0.080
9.864,-0.105,-0.080
9.866,-0.045,-0.080
9.868,0.000,-0.075
9.870,0.060,-0.070
9.872,0.085,-0.060
9.874,0.080,-0.045
9.876,-0.075,-0.035
9.878,-0.005,-0.025
9.880,-0.005,-0.020
9.882,0.020,-0.020
9.884,0.015,-0.020
9.886,0.005,-0.030
9.888,-0.035,-0.040
9.890,-0.020,-0.050
9.892,-0.010,-0.060
9.894,0.000,-0.060
9.896,0.010,-0.060
9.898,0.050,-0.060
9.900,0.005,-0.055
9.902,-0.040,-0.050
9.904,-0.040,-0.045
9.906,-0.015,-0.040
9.908,-0.035,-0.040
9.910,0.040,-0.040
9.912,-0.025,-0.040
9.914,-0.045,-0.045
9.916,0.040,-0.050
9.918,0.045,-0.055
9.920,0.000,-0.060
9.922,0.045,-0.070
9.924,-0.115,-0.080
9.926,-0.145,-0.090
9.928,-0.105,-0.095
9.930,-0.045,-0.100
9.932,-0.040,-0.100
9.934,-0.045,-0.095
9.936,-0.010,-0.090
9.938,-0.030,-0.075
9.940,-0.060,-0.065
9.942,-0.065,-0.055
9.944,0.030,-0.050
9.946,0.035,-0.050
9.948,-0.020,-0.055
9.950,-0.020,-0.060
9.952,-0.075,-0.070
9.954,-0.060,-0.080
9.956,-0.075,-0.085
9.958,-0.035,-0.085
9.960,-0.020,-0.080
9.962,-0.015,-0.075
9.964,0.030,-0.065
9.966,0.055,-0.055
9.968,0.020,-0.045
9.970,-0.035,-0.040
9.972,-0.035,-0.035
9.974,-0.060,-0.035
9.976,-0.040,-0.040
9.978,-0.030,-0.045
9.980,-0.030,-0.050
9.982,-0.025,-0.060
9.984,0.075,-0.070
9.986,-0.050,-0.080
9.988,-0.020,-0.085
9.990,0.005,-0.095
9.992,-0.090,-0.100
9.994,-0.170,-0.105
9.996,-0.155,-0.105
9.998,-0.035,-0.105
