'Elapsed time','ECG I','ECG I filtered'
'seconds','mV','mV'
0.000,0.215,-0.090
0.002,0.320,0.050
0.004,0.490,0.170
0.006,0.640,0.275
0.008,0.765,0.360
0.010,0.825,0.415
0.012,0.930,0.445
0.014,0.795,0.450
0.016,0.580,0.440
0.018,0.515,0.410
0.020,0.560,0.365
0.022,0.575,0.310
0.024,0.570,0.240
0.026,0.655,0.160
0.028,0.570,0.075
0.030,0.315,-0.015
0.032,0.130,-0.105
0.034,-0.070,-0.180
0.036,-0.130,-0.235
0.038,-0.100,-0.275
0.040,-0.135,-0.290
0.042,0.060,-0.285
0.044,0.200,-0.270
0.046,0.160,-0.250
0.048,0.100,-0.230
0.050,0.130,-0.210
0.052,0.045,-0.200
0.054,-0.010,-0.200
0.056,-0.110,-0.210
0.058,-0.030,-0.225
0.060,-0.005,-0.245
0.062,-0.015,-0.265
0.064,0.085,-0.280
0.066,0.185,-0.295
0.068,0.085,-0.305
0.070,-0.050,-0.310
0.072,-0.085,-0.305
0.074,-0.135,-0.300
0.076,-0.095,-0.290
0.078,0.020,-0.280
0.080,-0.080,-0.270
0.082,-0.025,-0.265
0.084,0.155,-0.270
0.086,0.070,-0.280
0.088,-0.005,-0.295
0.090,0.045,-0.310
0.092,-0.055,-0.325
0.094,-0.285,-0.335
0.096,-0.175,-0.330
0.098,-0.115,-0.320
0.100,-0.010,-0.300
0.102,0.040,-0.275
0.104,-0.035,-0.245
0.106,0.185,-0.225
0.108,0.155,-0.210
0.110,0.095,-0.205
0.112,-0.055,-0.205
0.114,-0.120,-0.210
0.116,-0.050,-0.220
0.118,-0.055,-0.220
0.120,0.035,-0.215
0.122,0.120,-0.200
0.124,0.215,-0.180
0.126,0.190,-0.160
0.128,0.210,-0.140
0.130,0.055,-0.125
0.132,0.135,-0.125
0.134,0.000,-0.130
0.136,-0.050,-0.145
0.138,0.050,-0.165
0.140,-0.025,-0.185
0.142,-0.010,-0.200
0.144,0.190,-0.210
0.146,0.130,-0.215
0.148,0.185,-0.215
0.150,-0.030,-0.210
0.152,0.065,-0.205
0.154,-0.125,-0.205
0.156,-0.085,-0.205
0.158,-0.075,-0.205
0.160,-0.070,-0.210
0.162,0.075,-0.215
0.164,0.145,-0.215
0.166,0.155,-0.210
0.168,0.180,-0.200
0.170,0.035,-0.195
0.172,-0.015,-0.185
0.174,-0.070,-0.175
0.176,-0.010,-0.170
0.178,-0.050,-0.165
0.180,0.095,-0.165
0.182,-0.010,-0.160
0.184,0.170,-0.155
0.186,0.325,-0.150
0.188,0.150,-0.135
0.190,0.040,-0.120
0.192,0.085,-0.100
0.194,0.015,-0.080
0.196,0.000,-0.065
0.198,0.035,-0.050
0.200,0.275,-0.040
0.202,0.215,-0.035
0.204,0.315,-0.030
0.206,0.345,-0.030
0.208,0.260,-0.035
0.210,0.175,-0.035
0.212,0.130,-0.035
0.214,0.080,-0.035
0.216,0.120,-0.030
0.218,0.090,-0.020
0.220,0.100,-0.005
0.222,0.230,0.010
0.224,0.390,0.025
0.226,0.385,0.045
0.228,0.370,0.065
0.230,0.355,0.085
0.232,0.265,0.100
0.234,0.215,0.110
0.236,0.195,0.115
0.238,0.160,0.115
0.240,0.290,0.110
0.242,0.480,0.100
0.244,0.440,0.090
0.246,0.310,0.085
0.248,0.240,0.080
0.250,0.300,0.085
0.252,0.315,0.090
0.254,0.180,0.095
0.256,0.125,0.105
0.258,0.240,0.110
0.260,0.355,0.115
0.262,0.390,0.115
0.264,0.360,0.105
0.266,0.410,0.100
0.268,0.335,0.090
0.270,0.215,0.080
0.272,0.270,0.070
0.274,0.040,0.065
0.276,0.150,0.065
0.278,0.240,0.060
0.280,0.235,0.060
0.282,0.375,0.060
0.284,0.415,0.050
0.286,0.355,0.040
0.288,0.170,0.025
0.290,0.090,0.010
0.292,0.165,-0.010
0.294,0.055,-0.030
0.296,0.010,-0.050
0.298,0.020,-0.060
0.300,0.050,-0.070
0.302,0.210,-0.080
0.304,0.245,-0.085
0.306,0.175,-0.085
0.308,0.145,-0.090
0.310,0.050,-0.095
0.312,-0.060,-0.100
0.314,-0.030,-0.110
0.316,-0.035,-0.120
0.318,0.030,-0.130
0.320,0.020,-0.140
0.322,0.105,-0.140
0.324,0.155,-0.140
0.326,0.130,-0.135
0.328,0.100,-0.125
0.330,0.105,-0.120
0.332,-0.020,-0.110
0.334,-0.080,-0.110
0.336,-0.080,-0.115
0.338,-0.090,-0.125
0.340,0.030,-0.140
0.342,0.170,-0.155
0.344,0.140,-0.165
0.346,0.185,-0.170
0.348,0.025,-0.165
0.350,-0.040,-0.155
0.352,-0.090,-0.140
0.354,-0.055,-0.125
0.356,-0.060,-0.110
0.358,-0.115,-0.105
0.360,0.135,-0.105
0.362,0.260,-0.110
0.364,0.260,-0.120
0.366,-0.045,-0.135
0.368,0.045,-0.140
0.370,0.025,-0.140
0.372,-0.060,-0.130
0.374,-0.120,-0.120
0.376,-0.060,-0.100
0.378,0.095,-0.090
0.380,0.065,-0.080
0.382,0.230,-0.080
0.384,0.175,-0.085
0.386,0.150,-0.100
0.388,0.005,-0.120
0.390,-0.005,-0.140
0.392,-0.070,-0.155
0.394,-0.175,-0.165
0.396,-0.085,-0.170
0.398,-0.025,-0.170
0.400,-0.010,-0.165
0.402,0.165,-0.160
0.404,0.030,-0.155
0.406,0.105,-0.145
0.408,0.040,-0.140
0.410,-0.015,-0.135
0.412,-0.115,-0.130
0.414,-0.070,-0.125
0.416,-0.020,-0.115
0.418,-0.020,-0.110
0.420,0.105,-0.105
0.422,0.120,-0.105
0.424,0.190,-0.105
0.426,0.105,-0.110
0.428,0.095,-0.115
0.430,-0.020,-0.120
0.432,-0.195,-0.120
0.434,-0.060,-0.115
0.436,-0.075,-0.110
0.438,0.020,-0.105
0.440,0.080,-0.095
0.442,0.215,-0.085
0.444,0.245,-0.080
0.446,0.115,-0.080
0.448,0.035,-0.085
0.450,0.060,-0.090
0.452,-0.100,-0.095
0.454,-0.120,-0.100
0.456,-0.125,-0.100
0.458,0.080,-0.100
0.460,0.090,-0.090
0.462,0.185,-0.080
0.464,0.185,-0.075
0.466,0.185,-0.065
0.468,0.100,-0.065
0.470,0.065,-0.070
0.472,-0.135,-0.080
0.474,-0.115,-0.095
0.476,-0.065,-0.110
0.478,0.125,-0.125
0.480,-0.030,-0.135
0.482,0.115,-0.140
0.484,0.170,-0.135
0.486,0.115,-0.125
0.488,0.035,-0.115
0.490,-0.045,-0.105
0.492,-0.155,-0.095
0.494,-0.045,-0.085
0.496,-0.025,-0.085
0.498,0.020,-0.090
0.500,0.035,-0.095
0.502,0.130,-0.095
0.504,0.220,-0.095
0.506,0.210,-0.090
0.508,0.030,-0.080
0.510,-0.030,-0.065
0.512,0.015,-0.055
0.514,-0.050,-0.050
0.516,-0.010,-0.050
0.518,0.070,-0.060
0.520,0.190,-0.075
0.522,0.090,-0.090
0.524,0.075,-0.110
0.526,0.095,-0.120
0.528,0.050,-0.125
0.530,0.015,-0.115
0.532,-0.125,-0.100
0.534,-0.120,-0.080
0.536,0.045,-0.055
0.538,0.125,-0.040
0.540,0.065,-0.030
0.542,0.250,-0.030
0.544,0.315,-0.040
0.546,0.115,-0.060
0.548,-0.010,-0.080
0.550,-0.040,-0.100
0.552,-0.140,-0.120
0.554,-0.140,-0.125
0.556,-0.095,-0.130
0.558,0.035,-0.120
0.560,0.130,-0.110
0.562,0.215,-0.100
0.564,0.145,-0.095
0.566,0.065,-0.090
0.568,0.005,-0.095
0.570,-0.090,-0.100
0.572,-0.120,-0.115
0.574,-0.190,-0.125
0.576,-0.065,-0.135
0.578,0.005,-0.140
0.580,0.050,-0.135
0.582,0.090,-0.120
0.584,0.130,-0.100
0.586,0.155,-0.075
0.588,0.055,-0.045
0.590,-0.005,-0.020
0.592,0.070,-0.005
0.594,-0.055,0.005
0.596,0.105,0.000
0.598,0.090,-0.015
0.600,0.100,-0.040
0.602,0.135,-0.065
0.604,0.190,-0.085
0.606,0.050,-0.100
0.608,0.055,-0.105
0.610,-0.150,-0.100
0.612,-0.140,-0.085
0.614,0.030,-0.065
0.616,-0.040,-0.045
0.618,0.135,-0.030
0.620,0.170,-0.020
0.622,0.310,-0.025
0.624,0.150,-0.035
0.626,0.020,-0.050
0.628,0.005,-0.065
0.630,-0.085,-0.080
0.632,-0.090,-0.090
0.634,0.020,-0.095
0.636,-0.015,-0.095
0.638,-0.010,-0.095
0.640,0.095,-0.090
0.642,0.110,-0.090
0.644,0.060,-0.095
0.646,0.030,-0.095
0.648,0.045,-0.100
0.650,-0.085,-0.100
0.652,-0.095,-0.095
0.654,-0.030,-0.085
0.656,0.010,-0.075
0.658,0.080,-0.060
0.660,0.145,-0.055
0.662,0.195,-0.055
0.664,0.125,-0.060
0.666,-0.025,-0.075
0.668,0.065,-0.095
0.670,-0.125,-0.120
0.672,-0.210,-0.135
0.674,-0.120,-0.140
0.676,-0.050,-0.135
0.678,-0.010,-0.120
0.680,0.090,-0.095
0.682,0.270,-0.065
0.684,0.170,-0.035
0.686,0.035,-0.015
0.688,0.045,-0.005
0.690,0.000,-0.005
0.692,-0.050,-0.010
0.694,-0.015,-0.025
0.696,0.050,-0.045
0.698,-0.005,-0.055
0.700,0.110,-0.065
0.702,0.205,-0.065
0.704,0.120,-0.060
0.706,0.090,-0.055
0.708,0.110,-0.045
0.710,0.025,-0.040
0.712,-0.065,-0.035
0.714,-0.175,-0.035
0.716,-0.055,-0.040
0.718,-0.015,-0.050
0.720,0.275,-0.055
0.722,0.200,-0.060
0.724,0.180,-0.065
0.726,0.040,-0.070
0.728,-0.060,-0.070
0.730,-0.160,-0.070
0.732,-0.120,-0.070
0.734,-0.050,-0.075
0.736,0.040,-0.075
0.738,0.055,-0.075
0.740,0.185,-0.075
0.742,0.220,-0.080
0.744,0.085,-0.080
0.746,0.025,-0.080
0.748,-0.050,-0.085
0.750,-0.130,-0.090
0.752,-0.175,-0.095
0.754,-0.090,-0.105
0.756,0.040,-0.115
0.758,0.055,-0.120
0.760,-0.005,-0.120
0.762,0.065,-0.115
0.764,0.010,-0.105
0.766,0.120,-0.085
0.768,0.030,-0.065
0.770,-0.110,-0.045
0.772,0.090,-0.025
0.774,-0.080,-0.015
0.776,0.040,-0.005
0.778,-0.020,-0.005
0.780,0.255,-0.010
0.782,0.275,-0.015
0.784,0.170,-0.020
0.786,0.045,-0.030
0.788,0.000,-0.035
0.790,0.025,-0.040
0.792,-0.135,-0.040
0.794,-0.045,-0.045
0.796,-0.005,-0.055
0.798,0.095,-0.060
0.800,0.135,-0.065
0.802,0.105,-0.070
0.804,0.120,-0.065
0.806,0.090,-0.060
0.808,0.020,-0.050
0.810,-0.015,-0.030
0.812,-0.100,-0.010
0.814,0.055,0.010
0.816,0.090,0.025
0.818,0.135,0.035
0.820,0.155,0.040
0.822,0.285,0.035
0.824,0.230,0.030
0.826,0.085,0.020
0.828,0.055,0.010
0.830,-0.030,0.005
0.832,-0.015,0.005
0.834,0.065,0.005
0.836,0.135,0.015
0.838,0.130,0.025
0.840,0.250,0.035
0.842,0.270,0.045
0.844,0.175,0.045
0.846,0.110,0.045
0.848,0.025,0.035
0.850,0.005,0.025
0.852,0.000,0.015
0.854,-0.005,0.005
0.856,0.060,-0.005
0.858,0.195,-0.010
0.860,0.190,-0.015
0.862,0.190,-0.015
0.864,0.155,-0.010
0.866,0.045,-0.005
0.868,0.110,-0.005
0.870,-0.055,0.000
0.872,-0.065,0.000
0.874,-0.160,-0.005
0.876,0.115,-0.010
0.878,0.200,-0.020
0.880,0.155,-0.030
0.882,0.145,-0.040
0.884,0.125,-0.050
0.886,0.010,-0.055
0.888,0.005,-0.055
0.890,-0.110,-0.050
0.892,-0.075,-0.045
0.894,-0.055,-0.035
0.896,0.065,-0.025
0.898,0.120,-0.025
0.900,0.165,-0.025
0.902,0.120,-0.030
0.904,0.080,-0.045
0.906,0.125,-0.065
0.908,-0.075,-0.085
0.910,-0.255,-0.110
0.912,-0.160,-0.125
0.914,-0.110,-0.130
0.916,0.035,-0.130
0.918,0.050,-0.125
0.920,0.140,-0.110
0.922,0.000,-0.095
0.924,0.100,-0.085
0.926,-0.065,-0.075
0.928,-0.060,-0.070
0.930,-0.080,-0.070
0.932,-0.070,-0.075
0.934,-0.045,-0.080
0.936,-0.040,-0.090
0.938,0.060,-0.105
0.940,0.115,-0.110
0.942,0.090,-0.120
0.944,-0.050,-0.125
0.946,-0.130,-0.130
0.948,-0.145,-0.125
0.950,-0.160,-0.120
0.952,-0.040,-0.110
0.954,0.025,-0.095
0.956,-0.045,-0.070
0.958,0.175,-0.040
0.960,0.190,-0.015
0.962,0.140,0.015
0.964,0.210,0.040
0.966,0.090,0.055
0.968,0.055,0.055
0.970,-0.055,0.050
0.972,0.060,0.040
0.974,0.035,0.030
0.976,0.195,0.030
0.978,0.270,0.045
0.980,0.305,0.080
0.982,0.325,0.145
0.984,0.310,0.230
0.986,0.335,0.335
0.988,0.380,0.445
0.990,0.520,0.555
0.992,0.735,0.650
0.994,0.895,0.715
0.996,0.935,0.745
0.998,1.020,0.740
1.000,0.890,0.700
1.002,0.675,0.625
1.004,0.495,0.530
1.006,0.540,0.420
1.008,0.255,0.300
1.010,0.140,0.190
1.012,0.225,0.090
1.014,0.070,0.000
1.016,-0.105,-0.065
1.018,0.005,-0.110
1.020,0.055,-0.140
1.022,0.100,-0.150
1.024,-0.055,-0.140
1.026,-0.105,-0.125
1.028,-0.155,-0.100
1.030,-0.075,-0.070
1.032,-0.010,-0.040
1.034,0.145,-0.020
1.036,0.080,0.000
1.038,0.200,0.005
1.040,0.240,0.005
1.042,0.110,0.000
1.044,0.070,-0.010
1.046,-0.005,-0.020
1.048,-0.080,-0.030
1.050,-0.020,-0.035
1.052,-0.050,-0.040
1.054,-0.040,-0.045
1.056,0.070,-0.045
1.058,0.115,-0.050
1.060,0.175,-0.050
1.062,0.155,-0.055
1.064,0.055,-0.055
1.066,-0.005,-0.060
1.068,-0.130,-0.065
1.070,-0.120,-0.065
1.072,-0.130,-0.065
1.074,0.015,-0.060
1.076,0.000,-0.055
1.078,0.205,-0.055
1.080,0.205,-0.050
1.082,0.100,-0.045
1.084,0.105,-0.045
1.086,-0.165,-0.045
1.088,-0.140,-0.045
1.090,0.020,-0.050
1.092,-0.015,-0.055
1.094,0.045,-0.065
1.096,0.015,-0.070
1.098,0.010,-0.075
1.100,0.155,-0.075
1.102,0.075,-0.075
1.104,-0.025,-0.070
1.106,-0.005,-0.060
1.108,-0.185,-0.050
1.110,-0.035,-0.035
1.112,0.035,-0.020
1.114,0.125,-0.010
1.116,0.220,-0.005
1.118,0.175,-0.005
1.120,0.100,-0.010
1.122,0.050,-0.020
1.124,0.045,-0.035
1.126,0.050,-0.045
1.128,-0.075,-0.055
1.130,-0.060,-0.060
1.132,-0.125,-0.055
1.134,0.005,-0.050
1.136,0.050,-0.035
1.138,0.205,-0.020
1.140,0.280,-0.005
1.142,0.185,0.005
1.144,0.085,0.015
1.146,-0.065,0.025
1.148,-0.175,0.025
1.150,0.010,0.025
1.152,0.045,0.025
1.154,0.185,0.020
1.156,0.210,0.020
1.158,0.180,0.015
1.160,0.290,0.010
1.162,0.050,0.010
1.164,0.030,0.015
1.166,0.005,0.015
1.168,0.010,0.025
1.170,0.040,0.035
1.172,0.130,0.045
1.174,0.150,0.055
1.176,0.245,0.065
1.178,0.225,0.070
1.180,0.255,0.075
1.182,0.205,0.075
1.184,0.080,0.075
1.186,0.080,0.070
1.188,0.025,0.070
1.190,0.050,0.070
1.192,0.185,0.075
1.194,0.095,0.085
1.196,0.300,0.095
1.198,0.320,0.105
1.200,0.345,0.110
1.202,0.255,0.115
1.204,0.085,0.115
1.206,0.040,0.110
1.208,0.025,0.105
1.210,0.045,0.105
1.212,0.160,0.110
1.214,0.270,0.125
1.216,0.380,0.145
1.218,0.445,0.180
1.220,0.330,0.215
1.222,0.310,0.245
1.224,0.380,0.275
1.226,0.295,0.295
1.228,0.190,0.305
1.230,0.250,0.305
1.232,0.330,0.300
1.234,0.385,0.290
1.236,0.475,0.280
1.238,0.435,0.275
1.240,0.510,0.275
1.242,0.405,0.280
1.244,0.315,0.285
1.246,0.280,0.290
1.248,0.210,0.290
1.250,0.305,0.285
1.252,0.300,0.265
1.254,0.265,0.245
1.256,0.420,0.220
1.258,0.395,0.200
1.260,0.285,0.180
1.262,0.345,0.165
1.264,0.235,0.155
1.266,0.035,0.150
1.268,0.095,0.145
1.270,0.090,0.135
1.272,0.185,0.120
1.274,0.190,0.105
1.276,0.285,0.085
1.278,0.275,0.065
1.280,0.170,0.050
1.282,0.200,0.040
1.284,0.035,0.030
1.286,-0.035,0.025
1.288,-0.035,0.015
1.290,-0.015,0.010
1.292,0.025,-0.005
1.294,0.070,-0.025
1.296,0.155,-0.045
1.298,0.205,-0.065
1.300,0.010,-0.075
1.302,-0.010,-0.080
1.304,-0.015,-0.075
1.306,-0.065,-0.055
1.308,-0.030,-0.030
1.310,0.000,-0.005
1.312,0.080,0.015
1.314,0.115,0.025
1.316,0.255,0.025
1.318,0.205,0.010
1.320,0.070,-0.010
1.322,0.000,-0.035
1.324,-0.050,-0.050
1.326,-0.155,-0.060
1.328,-0.075,-0.055
1.330,0.080,-0.040
1.332,0.050,-0.015
1.334,0.135,0.015
1.336,0.260,0.040
1.338,0.165,0.060
1.340,0.225,0.065
1.342,0.145,0.055
1.344,0.000,0.035
1.346,-0.060,0.010
1.348,-0.025,-0.015
1.350,0.000,-0.040
1.352,-0.090,-0.055
1.354,0.095,-0.060
1.356,0.150,-0.060
1.358,0.095,-0.050
1.360,0.125,-0.040
1.362,0.045,-0.030
1.364,0.005,-0.025
1.366,-0.050,-0.025
1.368,-0.135,-0.030
1.370,-0.070,-0.035
1.372,0.065,-0.040
1.374,0.065,-0.050
1.376,0.150,-0.050
1.378,0.150,-0.050
1.380,0.070,-0.045
1.382,0.030,-0.045
1.384,0.000,-0.045
1.386,-0.085,-0.045
1.388,-0.140,-0.050
1.390,-0.060,-0.060
1.392,-0.020,-0.070
1.394,-0.030,-0.080
1.396,0.110,-0.085
1.398,0.150,-0.085
1.400,0.030,-0.080
1.402,0.025,-0.070
1.404,0.010,-0.055
1.406,-0.040,-0.035
1.408,0.005,-0.020
1.410,-0.080,-0.010
1.412,0.060,0.000
1.414,0.030,0.005
1.416,0.165,0.005
1.418,0.130,0.000
1.420,0.305,-0.005
1.422,0.095,-0.005
1.424,-0.025,0.000
1.426,-0.105,0.005
1.428,-0.040,0.015
1.430,0.040,0.025
1.432,0.040,0.035
1.434,0.095,0.045
1.436,0.290,0.045
1.438,0.280,0.040
1.440,0.285,0.030
1.442,0.060,0.015
1.444,-0.105,-0.005
1.446,-0.060,-0.025
1.448,-0.155,-0.040
1.450,-0.070,-0.050
1.452,-0.045,-0.055
1.454,0.125,-0.050
1.456,0.225,-0.040
1.458,0.265,-0.030
1.460,0.075,-0.015
1.462,0.060,-0.005
1.464,-0.005,0.000
1.466,-0.110,-0.005
1.468,-0.075,-0.010
1.470,0.050,-0.020
1.472,0.040,-0.030
1.474,0.010,-0.040
1.476,0.170,-0.045
1.478,0.200,-0.045
1.480,0.035,-0.045
1.482,0.045,-0.045
1.484,-0.030,-0.040
1.486,-0.055,-0.035
1.488,-0.005,-0.030
1.490,-0.060,-0.030
1.492,0.015,-0.030
1.494,0.060,-0.030
1.496,0.130,-0.030
1.498,0.130,-0.030
1.500,0.145,-0.030
1.502,0.005,-0.025
1.504,0.010,-0.020
1.506,-0.060,-0.020
1.508,-0.035,-0.015
1.510,-0.065,-0.015
1.512,0.035,-0.015
1.514,0.145,-0.015
1.516,0.245,-0.015
1.518,0.080,-0.015
1.520,0.155,-0.015
1.522,0.030,-0.010
1.524,0.025,-0.005
1.526,-0.065,0.000
1.528,-0.105,0.000
1.530,-0.015,0.005
1.532,0.065,0.005
1.534,0.045,0.000
1.536,0.195,-0.005
1.538,0.275,-0.010
1.540,0.155,-0.015
1.542,0.030,-0.015
1.544,-0.015,-0.015
1.546,-0.130,-0.015
1.548,-0.130,-0.010
1.550,0.025,-0.015
1.552,0.030,-0.015
1.554,0.095,-0.020
1.556,0.190,-0.030
1.558,0.185,-0.040
1.560,0.050,-0.045
1.562,0.015,-0.045
1.564,-0.110,-0.045
1.566,-0.095,-0.035
1.568,-0.045,-0.030
1.570,-0.070,-0.020
1.572,0.040,-0.015
1.574,0.235,-0.015
1.576,0.170,-0.020
1.578,0.155,-0.030
1.580,0.020,-0.035
1.582,-0.040,-0.045
1.584,-0.070,-0.045
1.586,-0.055,-0.040
1.588,-0.010,-0.030
1.590,-0.065,-0.010
1.592,0.070,0.005
1.594,0.185,0.020
1.596,0.305,0.030
1.598,0.245,0.030
1.600,0.105,0.025
1.602,0.040,0.010
1.604,-0.125,0.000
1.606,-0.055,-0.010
1.608,-0.145,-0.020
1.610,-0.015,-0.020
1.612,0.105,-0.020
1.614,0.270,-0.015
1.616,0.265,-0.015
1.618,0.200,-0.020
1.620,-0.090,-0.025
1.622,-0.140,-0.035
1.624,-0.090,-0.050
1.626,-0.070,-0.060
1.628,-0.045,-0.065
1.630,-0.050,-0.060
1.632,-0.050,-0.050
1.634,0.195,-0.035
1.636,0.220,-0.020
1.638,0.120,-0.005
1.640,0.120,0.005
1.642,0.035,0.005
1.644,-0.105,0.000
1.646,-0.080,-0.010
1.648,-0.110,-0.025
1.650,0.010,-0.040
1.652,0.105,-0.045
1.654,0.135,-0.045
1.656,0.180,-0.040
1.658,0.110,-0.030
1.660,0.070,-0.020
1.662,0.060,-0.010
1.664,-0.145,-0.005
1.666,-0.090,-0.010
1.668,-0.070,-0.020
1.670,0.060,-0.035
1.672,0.080,-0.045
1.674,0.115,-0.060
1.676,0.050,-0.065
1.678,0.075,-0.060
1.680,0.080,-0.050
1.682,-0.045,-0.035
1.684,-0.165,-0.015
1.686,-0.065,0.005
1.688,0.100,0.020
1.690,0.165,0.030
1.692,0.075,0.035
1.694,0.190,0.035
1.696,0.185,0.030
1.698,0.170,0.020
1.700,0.070,0.010
1.702,-0.010,-0.005
1.704,-0.080,-0.015
1.706,-0.035,-0.025
1.708,-0.115,-0.035
1.710,-0.045,-0.040
1.712,0.005,-0.045
1.714,0.300,-0.045
1.716,0.040,-0.040
1.718,0.140,-0.030
1.720,0.000,-0.020
1.722,0.005,-0.010
1.724,0.025,0.005
1.726,-0.015,0.015
1.728,-0.050,0.020
1.730,0.065,0.025
1.732,0.075,0.020
1.734,0.205,0.020
1.736,0.205,0.010
1.738,0.135,0.005
1.740,0.125,0.005
1.742,0.045,0.005
1.744,-0.140,0.010
1.746,-0.085,0.015
1.748,0.005,0.020
1.750,0.125,0.025
1.752,0.185,0.030
1.754,0.260,0.035
1.756,0.225,0.040
1.758,0.205,0.045
1.760,0.060,0.050
1.762,0.015,0.060
1.764,-0.025,0.070
1.766,0.015,0.085
1.768,0.200,0.095
1.770,0.160,0.100
1.772,0.200,0.100
1.774,0.295,0.095
1.776,0.275,0.080
1.778,0.155,0.065
1.780,0.160,0.050
1.782,-0.025,0.035
1.784,-0.090,0.030
1.786,-0.050,0.030
1.788,0.030,0.035
1.790,0.125,0.045
1.792,0.295,0.055
1.794,0.365,0.060
1.796,0.330,0.055
1.798,0.090,0.045
1.800,0.020,0.025
1.802,-0.040,0.005
1.804,-0.230,-0.025
1.806,-0.070,-0.045
1.808,-0.025,-0.065
1.810,0.045,-0.075
1.812,0.085,-0.080
1.814,0.045,-0.075
1.816,0.170,-0.065
1.818,0.025,-0.055
1.820,-0.045,-0.050
1.822,-0.130,-0.040
1.824,-0.040,-0.040
1.826,-0.090,-0.035
1.828,0.050,-0.035
1.830,0.025,-0.035
1.832,0.100,-0.035
1.834,0.185,-0.035
1.836,0.185,-0.030
1.838,0.110,-0.025
1.840,0.000,-0.020
1.842,-0.095,-0.015
1.844,-0.080,-0.015
1.846,-0.130,-0.020
1.848,-0.060,-0.030
1.850,0.060,-0.045
1.852,0.220,-0.065
1.854,0.110,-0.085
1.856,0.165,-0.100
1.858,-0.035,-0.115
1.860,-0.100,-0.120
1.862,-0.180,-0.120
1.864,-0.260,-0.115
1.866,-0.205,-0.100
1.868,0.010,-0.080
1.870,0.060,-0.055
1.872,0.230,-0.040
1.874,0.155,-0.025
1.876,0.185,-0.015
1.878,0.080,-0.015
1.880,0.055,-0.025
1.882,-0.180,-0.035
1.884,-0.175,-0.050
1.886,-0.035,-0.060
1.888,-0.015,-0.060
1.890,0.085,-0.060
1.892,0.180,-0.045
1.894,0.175,-0.030
1.896,0.135,-0.015
1.898,0.040,-0.005
1.900,0.065,0.005
1.902,-0.080,0.005
1.904,-0.050,-0.005
1.906,-0.065,-0.010
1.908,0.010,-0.010
1.910,0.105,0.000
1.912,0.195,0.030
1.914,0.295,0.080
1.916,0.310,0.150
1.918,0.330,0.240
1.920,0.355,0.330
1.922,0.415,0.415
1.924,0.585,0.490
1.926,0.505,0.545
1.928,0.700,0.575
1.930,0.645,0.580
1.932,0.780,0.560
1.934,0.635,0.525
1.936,0.500,0.470
1.938,0.555,0.405
1.940,0.470,0.330
1.942,0.200,0.250
1.944,0.230,0.170
1.946,0.165,0.090
1.948,-0.080,0.010
1.950,-0.165,-0.060
1.952,0.025,-0.115
1.954,0.015,-0.155
1.956,-0.055,-0.170
1.958,0.015,-0.170
1.960,-0.015,-0.150
1.962,-0.155,-0.125
1.964,-0.150,-0.090
1.966,-0.085,-0.060
1.968,0.040,-0.035
1.970,0.150,-0.025
1.972,0.060,-0.020
1.974,0.195,-0.025
1.976,0.055,-0.035
1.978,0.155,-0.040
1.980,0.140,-0.045
1.982,-0.180,-0.045
1.984,-0.220,-0.045
1.986,-0.075,-0.040
1.988,0.150,-0.035
1.990,0.020,-0.035
1.992,0.250,-0.035
1.994,0.175,-0.035
1.996,0.030,-0.040
1.998,-0.075,-0.045
2.000,0.055,-0.045
2.002,-0.075,-0.045
2.004,-0.065,-0.045
2.006,-0.065,-0.045
2.008,0.005,-0.045
2.010,0.090,-0.045
2.012,0.195,-0.050
2.014,0.145,-0.055
2.016,0.170,-0.055
2.018,0.050,-0.050
2.020,-0.140,-0.045
2.022,-0.125,-0.040
2.024,-0.090,-0.030
2.026,-0.115,-0.025
2.028,0.210,-0.020
2.030,0.135,-0.020
2.032,0.220,-0.030
2.034,0.220,-0.040
2.036,-0.015,-0.055
2.038,-0.045,-0.065
2.040,0.005,-0.065
2.042,-0.195,-0.060
2.044,-0.060,-0.050
2.046,0.010,-0.030
2.048,0.095,-0.010
2.050,0.170,0.005
2.052,0.190,0.015
2.054,0.160,0.020
2.056,0.155,0.015
2.058,0.085,0.005
2.060,0.010,-0.010
2.062,-0.115,-0.020
2.064,-0.120,-0.025
2.066,-0.020,-0.020
2.068,0.150,-0.010
2.070,0.180,0.005
2.072,0.140,0.020
2.074,0.280,0.030
2.076,0.210,0.035
2.078,0.120,0.030
2.080,-0.060,0.020
2.082,-0.040,-0.005
2.084,0.000,-0.025
2.086,-0.175,-0.045
2.088,0.000,-0.060
2.090,0.215,-0.065
2.092,0.325,-0.060
2.094,0.105,-0.040
2.096,0.115,-0.015
2.098,0.085,0.015
2.100,-0.030,0.045
2.102,-0.115,0.070
2.104,0.100,0.090
2.106,0.200,0.105
2.108,0.240,0.110
2.110,0.290,0.110
2.112,0.350,0.105
2.114,0.295,0.100
2.116,0.260,0.090
2.118,0.180,0.085
2.120,-0.025,0.080
2.122,-0.010,0.080
2.124,0.070,0.085
2.126,0.210,0.090
2.128,0.190,0.105
2.130,0.230,0.120
2.132,0.395,0.135
2.134,0.405,0.155
2.136,0.335,0.170
2.138,0.190,0.185
2.140,0.180,0.195
2.142,0.035,0.200
2.144,0.210,0.200
2.146,0.275,0.195
2.148,0.385,0.190
2.150,0.385,0.185
2.152,0.280,0.185
2.154,0.395,0.185
2.156,0.370,0.190
2.158,0.305,0.200
2.160,0.165,0.215
2.162,0.175,0.230
2.164,0.235,0.240
2.166,0.365,0.255
2.168,0.360,0.260
2.170,0.400,0.270
2.172,0.480,0.270
2.174,0.540,0.275
2.176,0.415,0.275
2.178,0.260,0.270
2.180,0.240,0.265
2.182,0.215,0.260
2.184,0.265,0.250
2.186,0.360,0.235
2.188,0.290,0.220
2.190,0.340,0.200
2.192,0.420,0.180
2.194,0.390,0.160
2.196,0.290,0.140
2.198,0.235,0.125
2.200,-0.035,0.115
2.202,0.080,0.110
2.204,0.115,0.105
2.206,0.175,0.100
2.208,0.195,0.090
2.210,0.275,0.080
2.212,0.290,0.060
2.214,0.190,0.040
2.216,0.150,0.020
2.218,0.135,0.000
2.220,-0.095,-0.015
2.222,-0.055,-0.025
2.224,-0.075,-0.030
2.226,0.040,-0.030
2.228,0.125,-0.030
2.230,0.200,-0.030
2.232,0.225,-0.035
2.234,0.170,-0.045
2.236,0.050,-0.055
2.238,-0.030,-0.070
2.240,-0.200,-0.080
2.242,-0.150,-0.090
2.244,-0.030,-0.085
2.246,-0.010,-0.075
2.248,0.015,-0.060
2.250,0.170,-0.040
2.252,0.270,-0.020
2.254,0.295,-0.005
2.256,0.110,0.005
2.258,0.025,0.000
2.260,-0.100,-0.015
2.262,-0.065,-0.030
2.264,-0.055,-0.055
2.266,-0.060,-0.070
2.268,0.100,-0.085
2.270,0.175,-0.095
2.272,0.025,-0.095
2.274,0.155,-0.085
2.276,0.060,-0.080
2.278,-0.020,-0.070
2.280,-0.115,-0.065
2.282,-0.100,-0.060
2.284,-0.035,-0.060
2.286,0.050,-0.060
2.288,0.005,-0.065
2.290,0.210,-0.065
2.292,0.190,-0.065
2.294,0.085,-0.065
2.296,0.010,-0.065
2.298,-0.010,-0.070
2.300,-0.155,-0.080
2.302,-0.035,-0.095
2.304,-0.100,-0.105
2.306,-0.020,-0.115
2.308,-0.060,-0.120
2.310,0.100,-0.120
2.312,0.120,-0.110
2.314,0.140,-0.095
2.316,0.090,-0.080
2.318,-0.085,-0.065
2.320,0.005,-0.055
2.322,-0.110,-0.055
2.324,-0.170,-0.060
2.326,0.020,-0.075
2.328,0.050,-0.095
2.330,0.165,-0.110
2.332,0.155,-0.120
2.334,-0.030,-0.115
2.336,-0.045,-0.105
2.338,-0.020,-0.090
2.340,-0.145,-0.065
2.342,-0.025,-0.040
2.344,0.095,-0.025
2.346,0.215,-0.015
2.348,0.060,-0.015
2.350,0.120,-0.025
2.352,0.185,-0.035
2.354,0.050,-0.050
2.356,0.105,-0.065
2.358,-0.015,-0.075
2.360,-0.100,-0.075
2.362,-0.085,-0.075
2.364,-0.050,-0.065
2.366,-0.065,-0.060
2.368,0.110,-0.050
2.370,0.205,-0.040
2.372,0.090,-0.040
2.374,0.235,-0.040
2.376,0.085,-0.045
2.378,0.070,-0.050
2.380,0.030,-0.060
2.382,-0.135,-0.070
2.384,-0.210,-0.075
2.386,-0.165,-0.080
2.388,0.020,-0.075
2.390,0.290,-0.075
2.392,0.285,-0.065
2.394,0.080,-0.055
2.396,0.145,-0.045
2.398,-0.040,-0.040
2.400,-0.085,-0.040
2.402,-0.105,-0.040
2.404,-0.060,-0.050
2.406,0.105,-0.060
2.408,0.155,-0.075
2.410,0.100,-0.085
2.412,0.100,-0.085
2.414,0.060,-0.085
2.416,-0.005,-0.075
2.418,0.010,-0.065
2.420,-0.025,-0.050
2.422,-0.035,-0.040
2.424,0.105,-0.035
2.426,0.005,-0.040
2.428,0.140,-0.045
2.430,0.160,-0.050
2.432,0.165,-0.060
2.434,0.015,-0.070
2.436,-0.015,-0.070
2.438,-0.090,-0.070
2.440,0.010,-0.065
2.442,-0.020,-0.060
2.444,-0.050,-0.055
2.446,0.080,-0.060
2.448,0.135,-0.065
2.450,0.065,-0.070
2.452,0.090,-0.080
2.454,0.055,-0.085
2.456,-0.005,-0.085
2.458,-0.085,-0.080
2.460,-0.070,-0.070
2.462,-0.020,-0.060
2.464,0.100,-0.050
2.466,0.015,-0.040
2.468,0.160,-0.040
2.470,0.205,-0.040
2.472,0.180,-0.045
2.474,0.110,-0.050
2.476,-0.055,-0.055
2.478,-0.075,-0.055
2.480,-0.135,-0.050
2.482,-0.125,-0.040
2.484,0.105,-0.035
2.486,0.175,-0.030
2.488,0.190,-0.035
2.490,0.190,-0.045
2.492,0.160,-0.065
2.494,-0.100,-0.085
2.496,-0.085,-0.105
2.498,-0.165,-0.115
2.500,-0.165,-0.120
2.502,0.030,-0.115
2.504,0.025,-0.105
2.506,0.130,-0.090
2.508,0.075,-0.070
2.510,0.130,-0.060
2.512,0.125,-0.055
2.514,0.020,-0.060
2.516,0.050,-0.070
2.518,-0.140,-0.085
2.520,-0.015,-0.095
2.522,-0.045,-0.105
2.524,-0.140,-0.105
2.526,-0.010,-0.100
2.528,0.180,-0.095
2.530,0.170,-0.090
2.532,0.040,-0.080
2.534,0.065,-0.080
2.536,0.030,-0.080
2.538,-0.075,-0.080
2.540,-0.100,-0.085
2.542,-0.065,-0.080
2.544,-0.075,-0.075
2.546,0.015,-0.060
2.548,0.245,-0.045
2.550,0.275,-0.025
2.552,0.265,-0.010
2.554,0.150,0.005
2.556,0.020,0.010
2.558,0.005,0.005
2.560,-0.070,0.000
2.562,0.005,-0.005
2.564,0.125,-0.010
2.566,0.000,-0.010
2.568,0.205,0.000
2.570,0.405,0.010
2.572,0.295,0.025
2.574,0.220,0.045
2.576,0.070,0.055
2.578,-0.105,0.060
2.580,0.020,0.055
2.582,0.050,0.040
2.584,0.195,0.020
2.586,0.110,0.000
2.588,0.175,-0.020
2.590,0.195,-0.040
2.592,0.185,-0.050
2.594,0.080,-0.055
2.596,0.010,-0.050
2.598,-0.110,-0.045
2.600,-0.135,-0.040
2.602,-0.005,-0.035
2.604,0.125,-0.030
2.606,0.105,-0.035
2.608,0.220,-0.040
2.610,0.200,-0.050
2.612,0.095,-0.065
2.614,0.050,-0.080
2.616,0.070,-0.100
2.618,-0.180,-0.115
2.620,-0.250,-0.135
2.622,-0.135,-0.145
2.624,-0.080,-0.160
2.626,-0.080,-0.160
2.628,0.160,-0.160
2.630,0.020,-0.145
2.632,0.125,-0.130
2.634,0.050,-0.105
2.636,0.070,-0.075
2.638,-0.160,-0.050
2.640,-0.135,-0.035
2.642,0.015,-0.030
2.644,0.155,-0.035
2.646,0.115,-0.050
2.648,0.135,-0.075
2.650,0.190,-0.100
2.652,0.050,-0.120
2.654,-0.030,-0.135
2.656,-0.075,-0.140
2.658,-0.205,-0.130
2.660,-0.125,-0.110
2.662,-0.055,-0.090
2.664,0.075,-0.070
2.666,0.115,-0.060
2.668,0.190,-0.065
2.670,0.185,-0.075
2.672,0.095,-0.095
2.674,-0.025,-0.120
2.676,-0.190,-0.135
2.678,-0.215,-0.140
2.680,-0.145,-0.135
2.682,-0.060,-0.115
2.684,0.020,-0.090
2.686,0.150,-0.065
2.688,0.315,-0.045
2.690,0.225,-0.045
2.692,0.110,-0.055
2.694,0.070,-0.080
2.696,-0.235,-0.115
2.698,-0.260,-0.145
2.700,-0.205,-0.165
2.702,-0.160,-0.170
2.704,0.005,-0.155
2.706,0.130,-0.130
2.708,0.275,-0.095
2.710,0.195,-0.065
2.712,0.155,-0.040
2.714,-0.010,-0.030
2.716,-0.135,-0.030
2.718,-0.095,-0.035
2.720,-0.085,-0.030
2.722,-0.005,-0.015
2.724,0.280,0.030
2.726,0.235,0.100
2.728,0.385,0.195
2.730,0.590,0.305
2.732,0.595,0.420
2.734,0.735,0.525
2.736,0.600,0.605
2.738,0.695,0.650
2.740,0.760,0.660
2.742,0.640,0.640
2.744,0.655,0.595
2.746,0.650,0.530
2.748,0.655,0.450
2.750,0.620,0.370
2.752,0.460,0.285
2.754,0.320,0.200
2.756,0.205,0.120
2.758,-0.005,0.040
2.760,-0.185,-0.030
2.762,-0.160,-0.090
2.764,-0.075,-0.130
2.766,0.040,-0.155
2.768,0.145,-0.160
2.770,0.225,-0.145
2.772,0.085,-0.125
2.774,-0.050,-0.100
2.776,-0.075,-0.075
2.778,-0.165,-0.070
2.780,-0.155,-0.075
2.782,-0.050,-0.090
2.784,0.125,-0.115
2.786,0.090,-0.140
2.788,0.165,-0.160
2.790,0.060,-0.165
2.792,-0.025,-0.155
2.794,-0.065,-0.130
2.796,-0.195,-0.105
2.798,-0.120,-0.080
2.800,-0.045,-0.065
2.802,0.055,-0.060
2.804,0.135,-0.065
2.806,0.130,-0.080
2.808,0.070,-0.095
2.810,0.070,-0.110
2.812,-0.065,-0.120
2.814,0.025,-0.115
2.816,-0.030,-0.105
2.818,-0.060,-0.085
2.820,-0.050,-0.070
2.822,-0.045,-0.050
2.824,0.080,-0.045
2.826,0.140,-0.040
2.828,0.165,-0.045
2.830,0.140,-0.055
2.832,0.120,-0.065
2.834,-0.020,-0.070
2.836,-0.130,-0.075
2.838,-0.020,-0.075
2.840,-0.080,-0.065
2.842,0.025,-0.060
2.844,0.050,-0.050
2.846,0.195,-0.040
2.848,0.235,-0.030
2.850,0.145,-0.020
2.852,0.195,-0.015
2.854,0.090,-0.010
2.856,-0.075,-0.015
2.858,-0.030,-0.020
2.860,-0.045,-0.030
2.862,-0.055,-0.045
2.864,0.035,-0.060
2.866,0.185,-0.075
2.868,0.210,-0.090
2.870,0.090,-0.100
2.872,0.025,-0.100
2.874,0.045,-0.095
2.876,-0.120,-0.080
2.878,-0.215,-0.070
2.880,-0.010,-0.055
2.882,0.065,-0.045
2.884,0.080,-0.040
2.886,0.245,-0.040
2.888,0.185,-0.050
2.890,0.125,-0.060
2.892,0.080,-0.070
2.894,-0.035,-0.075
2.896,-0.115,-0.075
2.898,-0.100,-0.070
2.900,-0.010,-0.055
2.902,0.040,-0.035
2.904,0.100,-0.015
2.906,0.290,0.010
2.908,0.220,0.030
2.910,0.255,0.045
2.912,0.170,0.055
2.914,0.140,0.060
2.916,-0.015,0.065
2.918,0.190,0.060
2.920,0.035,0.055
2.922,0.035,0.055
2.924,0.200,0.050
2.926,0.300,0.045
2.928,0.340,0.045
2.930,0.240,0.050
2.932,0.160,0.050
2.934,0.115,0.055
2.936,0.030,0.065
2.938,0.015,0.070
2.940,0.100,0.075
2.942,0.215,0.080
2.944,0.245,0.085
2.946,0.285,0.090
2.948,0.350,0.100
2.950,0.320,0.110
2.952,0.225,0.125
2.954,0.165,0.140
2.956,0.110,0.160
2.958,0.240,0.180
2.960,0.245,0.200
2.962,0.400,0.220
2.964,0.330,0.235
2.966,0.380,0.245
2.968,0.470,0.250
2.970,0.435,0.255
2.972,0.370,0.250
2.974,0.260,0.245
2.976,0.165,0.240
2.978,0.325,0.230
2.980,0.255,0.225
2.982,0.230,0.220
2.984,0.390,0.215
2.986,0.430,0.215
2.988,0.430,0.215
2.990,0.390,0.220
2.992,0.280,0.215
2.994,0.275,0.210
2.996,0.290,0.200
2.998,0.160,0.190
3.000,0.200,0.170
3.002,0.310,0.150
3.004,0.210,0.135
3.006,0.320,0.120
3.008,0.375,0.110
3.010,0.285,0.105
3.012,0.225,0.100
3.014,0.135,0.100
3.016,0.020,0.095
3.018,0.030,0.085
3.020,0.120,0.070
3.022,0.220,0.045
3.024,0.195,0.020
3.026,0.305,-0.010
3.028,0.160,-0.030
3.030,0.105,-0.050
3.032,-0.065,-0.055
3.034,-0.105,-0.055
3.036,0.020,-0.045
3.038,-0.025,-0.025
3.040,0.030,-0.010
3.042,0.145,0.005
3.044,0.215,0.015
3.046,0.235,0.015
3.048,0.175,0.010
3.050,0.185,-0.005
3.052,0.060,-0.020
3.054,-0.075,-0.035
3.056,-0.120,-0.050
3.058,-0.145,-0.055
3.060,0.015,-0.060
3.062,0.060,-0.055
3.064,0.110,-0.045
3.066,0.275,-0.040
3.068,0.215,-0.030
3.070,0.055,-0.030
3.072,0.050,-0.030
3.074,-0.005,-0.035
3.076,-0.125,-0.045
3.078,-0.115,-0.060
3.080,0.080,-0.070
3.082,-0.025,-0.080
3.084,0.040,-0.085
3.086,0.170,-0.090
3.088,0.195,-0.085
3.090,0.025,-0.075
3.092,-0.010,-0.060
3.094,0.000,-0.045
3.096,0.000,-0.025
3.098,0.060,-0.010
3.100,0.005,0.000
3.102,0.025,0.000
3.104,0.225,-0.005
3.106,0.210,-0.015
3.108,0.135,-0.035
3.110,0.035,-0.055
3.112,-0.055,-0.075
3.114,-0.075,-0.090
3.116,0.025,-0.100
3.118,-0.145,-0.105
3.120,-0.050,-0.095
3.122,-0.020,-0.085
3.124,0.095,-0.070
3.126,0.190,-0.050
3.128,0.255,-0.040
3.130,0.115,-0.030
3.132,-0.010,-0.030
3.134,-0.080,-0.035
3.136,-0.065,-0.050
3.138,-0.130,-0.065
3.140,-0.005,-0.085
3.142,0.030,-0.095
3.144,0.145,-0.105
3.146,0.085,-0.105
3.148,0.070,-0.095
3.150,0.100,-0.080
3.152,0.060,-0.060
3.154,-0.075,-0.040
3.156,-0.090,-0.025
3.158,0.015,-0.010
3.160,0.075,0.000
3.162,0.060,0.000
3.164,0.235,-0.005
3.166,0.160,-0.015
3.168,0.220,-0.025
3.170,0.090,-0.035
3.172,0.040,-0.040
3.174,-0.050,-0.040
3.176,-0.070,-0.040
3.178,-0.075,-0.035
3.180,-0.065,-0.030
3.182,0.120,-0.025
3.184,0.230,-0.025
3.186,0.240,-0.025
3.188,0.160,-0.025
3.190,0.040,-0.030
3.192,0.015,-0.035
3.194,-0.055,-0.040
3.196,-0.165,-0.040
3.198,-0.050,-0.040
3.200,0.110,-0.040
3.202,0.070,-0.035
3.204,0.275,-0.030
3.206,0.170,-0.030
3.208,0.060,-0.025
3.210,0.125,-0.025
3.212,0.005,-0.030
3.214,-0.080,-0.030
3.216,-0.115,-0.030
3.218,-0.050,-0.030
3.220,0.080,-0.030
3.222,0.155,-0.030
3.224,0.130,-0.030
3.226,0.305,-0.030
3.228,0.150,-0.030
3.230,-0.085,-0.035
3.232,0.070,-0.035
3.234,-0.175,-0.040
3.236,-0.025,-0.040
3.238,0.030,-0.035
3.240,0.075,-0.030
3.242,0.095,-0.025
3.244,0.190,-0.015
3.246,0.185,-0.010
3.248,0.170,-0.005
3.250,0.085,-0.005
3.252,-0.020,-0.005
3.254,0.010,-0.010
3.256,0.050,-0.015
3.258,-0.050,-0.025
3.260,-0.040,-0.030
3.262,0.075,-0.035
3.264,0.280,-0.045
3.266,0.110,-0.050
3.268,0.130,-0.055
3.270,0.080,-0.055
3.272,0.105,-0.055
3.274,-0.135,-0.055
3.276,-0.110,-0.045
3.278,-0.060,-0.040
3.280,-0.045,-0.030
3.282,0.205,-0.020
3.284,0.240,-0.010
3.286,0.225,-0.005
3.288,0.130,-0.005
3.290,0.025,-0.010
3.292,-0.045,-0.015
3.294,0.005,-0.025
3.296,-0.130,-0.030
3.298,0.045,-0.035
3.300,-0.010,-0.035
3.302,0.185,-0.030
3.304,0.170,-0.030
3.306,0.235,-0.030
3.308,0.220,-0.030
3.310,-0.055,-0.040
3.312,0.005,-0.055
3.314,-0.175,-0.070
3.316,-0.180,-0.080
3.318,-0.060,-0.090
3.320,0.045,-0.090
3.322,0.155,-0.080
3.324,0.205,-0.060
3.326,0.180,-0.040
3.328,0.115,-0.020
3.330,0.115,0.000
3.332,-0.060,0.005
3.334,-0.010,0.005
3.336,0.000,-0.005
3.338,-0.040,-0.015
3.340,0.015,-0.030
3.342,0.115,-0.040
3.344,0.230,-0.045
3.346,0.130,-0.040
3.348,0.165,-0.035
3.350,0.155,-0.030
3.352,-0.015,-0.025
3.354,-0.155,-0.025
3.356,-0.100,-0.035
3.358,0.020,-0.045
3.360,-0.025,-0.055
3.362,0.120,-0.065
3.364,0.180,-0.065
3.366,0.215,-0.055
3.368,0.125,-0.040
3.370,0.005,-0.015
3.372,-0.110,0.010
3.374,0.030,0.030
3.376,0.015,0.050
3.378,0.045,0.060
3.380,0.175,0.065
3.382,0.300,0.070
3.384,0.330,0.075
3.386,0.340,0.080
3.388,0.270,0.085
3.390,0.170,0.095
3.392,0.025,0.100
3.394,0.080,0.100
3.396,0.080,0.095
3.398,0.105,0.080
3.400,0.155,0.055
3.402,0.175,0.035
3.404,0.215,0.015
3.406,0.240,0.000
3.408,0.055,-0.005
3.410,0.025,0.005
3.412,0.055,0.015
3.414,0.125,0.030
3.416,0.165,0.040
3.418,-0.025,0.045
3.420,0.085,0.035
3.422,0.250,0.020
3.424,0.160,0.000
3.426,0.220,-0.025
3.428,0.085,-0.050
3.430,-0.030,-0.065
3.432,-0.200,-0.075
3.434,-0.080,-0.085
3.436,-0.055,-0.085
3.438,-0.055,-0.085
3.440,0.105,-0.090
3.442,0.035,-0.090
3.444,0.125,-0.090
3.446,0.155,-0.090
3.448,-0.070,-0.085
3.450,0.090,-0.075
3.452,-0.115,-0.065
3.454,-0.035,-0.050
3.456,-0.105,-0.040
3.458,-0.055,-0.035
3.460,0.035,-0.030
3.462,0.175,-0.035
3.464,0.225,-0.040
3.466,0.130,-0.045
3.468,0.090,-0.045
3.470,0.080,-0.045
3.472,-0.070,-0.035
3.474,-0.085,-0.025
3.476,-0.005,-0.015
3.478,0.005,-0.015
3.480,0.075,-0.020
3.482,0.125,-0.030
3.484,0.165,-0.050
3.486,0.095,-0.070
3.488,-0.010,-0.085
3.490,0.015,-0.095
3.492,-0.175,-0.095
3.494,-0.110,-0.085
3.496,-0.120,-0.070
3.498,0.085,-0.060
3.500,0.085,-0.050
3.502,0.210,-0.055
3.504,0.085,-0.065
3.506,0.090,-0.085
3.508,-0.100,-0.110
3.510,-0.030,-0.130
3.512,-0.200,-0.140
3.514,-0.165,-0.140
3.516,-0.040,-0.120
3.518,0.045,-0.095
3.520,0.100,-0.060
3.522,0.015,-0.025
3.524,0.175,0.005
3.526,0.180,0.020
3.528,0.180,0.020
3.530,0.185,0.010
3.532,0.055,-0.010
3.534,-0.200,-0.025
3.536,-0.030,-0.030
3.538,0.040,-0.020
3.540,0.165,0.015
3.542,0.250,0.075
3.544,0.360,0.160
3.546,0.455,0.260
3.548,0.410,0.370
3.550,0.490,0.475
3.552,0.605,0.570
3.554,0.725,0.650
3.556,0.795,0.700
3.558,1.015,0.725
3.560,0.750,0.725
3.562,0.880,0.700
3.564,0.745,0.650
3.566,0.680,0.585
3.568,0.660,0.505
3.570,0.470,0.415
3.572,0.325,0.320
3.574,0.310,0.225
3.576,0.185,0.135
3.578,0.090,0.050
3.580,-0.050,-0.025
3.582,0.000,-0.080
3.584,0.015,-0.120
3.586,0.080,-0.140
3.588,-0.050,-0.145
3.590,-0.030,-0.135
3.592,-0.110,-0.125
3.594,-0.115,-0.110
3.596,-0.120,-0.095
3.598,-0.015,-0.090
3.600,0.025,-0.090
3.602,0.065,-0.090
3.604,0.125,-0.095
3.606,-0.035,-0.095
3.608,-0.070,-0.095
3.610,0.040,-0.085
3.612,-0.025,-0.070
3.614,-0.060,-0.060
3.616,-0.075,-0.050
3.618,0.010,-0.040
3.620,0.115,-0.040
3.622,0.045,-0.040
3.624,0.235,-0.045
3.626,0.170,-0.050
3.628,-0.035,-0.050
3.630,-0.010,-0.045
3.632,-0.080,-0.035
3.634,0.010,-0.025
3.636,-0.030,-0.015
3.638,0.100,-0.015
3.640,0.120,-0.015
3.642,0.090,-0.025
3.644,0.160,-0.035
3.646,0.135,-0.050
3.648,0.030,-0.065
3.650,-0.030,-0.070
3.652,-0.110,-0.065
3.654,-0.130,-0.055
3.656,-0.075,-0.035
3.658,0.140,-0.015
3.660,0.145,0.005
3.662,0.270,0.015
3.664,0.240,0.020
3.666,0.150,0.005
3.668,0.055,-0.015
3.670,-0.095,-0.040
3.672,-0.140,-0.065
3.674,-0.050,-0.090
3.676,-0.110,-0.105
3.678,-0.055,-0.115
3.680,0.065,-0.110
3.682,0.155,-0.100
3.684,0.200,-0.090
3.686,0.030,-0.080
3.688,-0.030,-0.070
3.690,-0.120,-0.065
3.692,-0.060,-0.070
3.694,-0.010,-0.075
3.696,-0.140,-0.075
3.698,0.010,-0.080
3.700,0.155,-0.075
3.702,0.140,-0.060
3.704,0.145,-0.040
3.706,0.115,-0.015
3.708,0.190,0.010
3.710,0.050,0.035
3.712,-0.080,0.050
3.714,0.065,0.060
3.716,0.075,0.060
3.718,0.080,0.050
3.720,0.200,0.035
3.722,0.240,0.020
3.724,0.275,0.010
3.726,0.140,0.000
3.728,0.085,0.005
3.730,0.005,0.015
3.732,0.025,0.030
3.734,0.055,0.045
3.736,0.085,0.060
3.738,0.175,0.070
3.740,0.330,0.075
3.742,0.250,0.070
3.744,0.245,0.065
3.746,0.165,0.060
3.748,0.125,0.060
3.750,0.050,0.060
3.752,0.035,0.065
3.754,0.130,0.075
3.756,0.130,0.085
3.758,0.125,0.095
3.760,0.275,0.105
3.762,0.295,0.110
3.764,0.235,0.105
3.766,0.305,0.100
3.768,0.275,0.095
3.770,0.035,0.095
3.772,0.020,0.095
3.774,0.080,0.100
3.776,0.200,0.115
3.778,0.260,0.130
3.780,0.360,0.155
3.782,0.430,0.175
3.784,0.385,0.195
3.786,0.320,0.215
3.788,0.305,0.230
3.790,0.230,0.240
3.792,0.125,0.250
3.794,0.185,0.255
3.796,0.385,0.260
3.798,0.385,0.265
3.800,0.560,0.270
3.802,0.505,0.275
3.804,0.400,0.280
3.806,0.380,0.285
3.808,0.280,0.285
3.810,0.185,0.285
3.812,0.285,0.275
3.814,0.335,0.265
3.816,0.350,0.255
3.818,0.325,0.240
3.820,0.440,0.220
3.822,0.370,0.200
3.824,0.365,0.180
3.826,0.255,0.160
3.828,0.170,0.135
3.830,0.015,0.115
3.832,0.090,0.090
3.834,0.020,0.065
3.836,0.145,0.045
3.838,0.140,0.020
3.840,0.160,0.005
3.842,0.210,-0.010
3.844,0.205,-0.015
3.846,0.155,-0.020
3.848,0.065,-0.020
3.850,-0.165,-0.020
3.852,-0.155,-0.025
3.854,0.005,-0.030
3.856,0.065,-0.040
3.858,0.025,-0.055
3.860,0.215,-0.070
3.862,0.060,-0.085
3.864,0.110,-0.095
3.866,0.005,-0.090
3.868,-0.055,-0.085
3.870,-0.120,-0.065
3.872,-0.075,-0.040
3.874,-0.060,-0.010
3.876,0.085,0.010
3.878,0.155,0.025
3.880,0.280,0.035
3.882,0.270,0.030
3.884,0.165,0.015
3.886,0.150,-0.005
3.888,-0.020,-0.025
3.890,-0.180,-0.035
3.892,-0.095,-0.040
3.894,-0.015,-0.035
3.896,0.085,-0.020
3.898,0.145,-0.005
3.900,0.275,0.015
3.902,0.215,0.025
3.904,0.200,0.030
3.906,0.255,0.020
3.908,-0.090,0.005
3.910,-0.060,-0.020
3.912,-0.055,-0.045
3.914,-0.125,-0.065
3.916,0.015,-0.080
3.918,0.080,-0.085
3.920,0.110,-0.080
3.922,0.100,-0.065
3.924,0.115,-0.050
3.926,0.060,-0.040
3.928,-0.030,-0.035
3.930,-0.090,-0.035
3.932,-0.100,-0.045
3.934,-0.015,-0.060
3.936,0.060,-0.080
3.938,0.050,-0.100
3.940,0.020,-0.110
3.942,0.035,-0.115
3.944,0.115,-0.105
3.946,-0.005,-0.090
3.948,-0.040,-0.070
3.950,-0.095,-0.050
3.952,-0.150,-0.035
3.954,0.005,-0.030
3.956,0.050,-0.030
3.958,0.175,-0.040
3.960,0.200,-0.050
3.962,0.095,-0.065
3.964,-0.040,-0.080
3.966,-0.025,-0.085
3.968,-0.045,-0.080
3.970,-0.025,-0.075
3.972,-0.110,-0.060
3.974,0.010,-0.040
3.976,0.085,-0.025
3.978,0.105,-0.010
3.980,0.255,0.005
3.982,0.245,0.010
3.984,0.070,0.015
3.986,0.055,0.015
3.988,-0.055,0.015
3.990,0.020,0.010
3.992,0.030,0.000
3.994,0.070,-0.015
3.996,0.030,-0.030
3.998,0.095,-0.045
4.000,0.145,-0.065
4.002,0.120,-0.075
4.004,0.000,-0.085
4.006,-0.005,-0.090
4.008,-0.210,-0.090
4.010,-0.050,-0.080
4.012,-0.040,-0.070
4.014,-0.030,-0.060
4.016,0.115,-0.050
4.018,0.190,-0.045
4.020,0.075,-0.045
4.022,0.105,-0.050
4.024,0.120,-0.055
4.026,-0.010,-0.065
4.028,-0.120,-0.070
4.030,-0.115,-0.075
4.032,-0.045,-0.070
4.034,-0.035,-0.065
4.036,0.040,-0.055
4.038,0.185,-0.045
4.040,0.190,-0.030
4.042,0.130,-0.020
4.044,0.050,-0.015
4.046,0.065,-0.010
4.048,-0.090,-0.010
4.050,-0.030,-0.010
4.052,-0.005,-0.010
4.054,0.105,-0.010
4.056,0.035,-0.015
4.058,0.195,-0.015
4.060,0.205,-0.015
4.062,0.195,-0.020
4.064,0.045,-0.025
4.066,0.035,-0.025
4.068,-0.130,-0.035
4.070,-0.050,-0.040
4.072,-0.005,-0.045
4.074,0.000,-0.050
4.076,0.030,-0.050
4.078,0.240,-0.050
4.080,0.070,-0.050
4.082,0.100,-0.050
4.084,0.020,-0.045
4.086,0.050,-0.040
4.088,0.000,-0.040
4.090,-0.160,-0.035
4.092,-0.010,-0.035
4.094,-0.025,-0.035
4.096,0.055,-0.035
4.098,0.220,-0.040
4.100,0.275,-0.040
4.102,0.145,-0.045
4.104,-0.005,-0.050
4.106,-0.100,-0.055
4.108,-0.025,-0.060
4.110,-0.085,-0.065
4.112,-0.195,-0.065
4.114,0.030,-0.065
4.116,0.025,-0.060
4.118,0.240,-0.055
4.120,0.190,-0.050
4.122,0.060,-0.040
4.124,0.060,-0.035
4.126,0.000,-0.035
4.128,0.020,-0.035
4.130,-0.135,-0.040
4.132,-0.020,-0.045
4.134,0.065,-0.055
4.136,0.040,-0.060
4.138,0.105,-0.065
4.140,0.185,-0.065
4.142,0.055,-0.065
4.144,0.015,-0.060
4.146,0.075,-0.050
4.148,-0.100,-0.045
4.150,-0.125,-0.040
4.152,-0.025,-0.035
4.154,0.110,-0.040
4.156,0.055,-0.045
4.158,0.120,-0.050
4.160,0.195,-0.060
4.162,0.075,-0.065
4.164,0.040,-0.070
4.166,-0.100,-0.070
4.168,-0.045,-0.065
4.170,-0.005,-0.055
4.172,-0.090,-0.050
4.174,0.005,-0.040
4.176,0.030,-0.030
4.178,0.210,-0.025
4.180,0.230,-0.025
4.182,0.060,-0.030
4.184,0.030,-0.040
4.186,0.080,-0.050
4.188,-0.025,-0.060
4.190,-0.165,-0.070
4.192,-0.130,-0.080
4.194,0.000,-0.085
4.196,-0.040,-0.085
4.198,0.175,-0.085
4.200,0.115,-0.075
4.202,0.130,-0.065
4.204,0.120,-0.055
4.206,0.010,-0.050
4.208,-0.175,-0.045
4.210,-0.140,-0.045
4.212,-0.035,-0.055
4.214,0.070,-0.060
4.216,0.100,-0.070
4.218,0.130,-0.075
4.220,0.035,-0.075
4.222,0.120,-0.065
4.224,0.000,-0.050
4.226,-0.045,-0.030
4.228,0.025,-0.010
4.230,0.035,0.005
4.232,0.015,0.015
4.234,0.070,0.015
4.236,0.195,0.005
4.238,0.110,-0.015
4.240,0.295,-0.040
4.242,0.025,-0.065
4.244,-0.090,-0.085
4.246,-0.210,-0.095
4.248,-0.020,-0.100
4.250,-0.135,-0.100
4.252,-0.120,-0.090
4.254,0.030,-0.080
4.256,0.085,-0.070
4.258,0.175,-0.070
4.260,0.125,-0.070
4.262,0.055,-0.075
4.264,-0.060,-0.085
4.266,-0.130,-0.095
4.268,-0.185,-0.095
4.270,-0.155,-0.095
4.272,0.025,-0.085
4.274,0.115,-0.070
4.276,0.250,-0.050
4.278,0.090,-0.030
4.280,0.050,-0.010
4.282,0.190,-0.005
4.284,0.070,0.000
4.286,-0.065,-0.010
4.288,-0.040,-0.025
4.290,-0.135,-0.045
4.292,-0.060,-0.065
4.294,0.060,-0.080
4.296,0.105,-0.090
4.298,0.165,-0.100
4.300,0.105,-0.100
4.302,0.020,-0.095
4.304,-0.020,-0.085
4.306,-0.170,-0.080
4.308,-0.150,-0.070
4.310,-0.065,-0.060
4.312,0.060,-0.055
4.314,0.095,-0.050
4.316,0.160,-0.045
4.318,0.170,-0.040
4.320,0.190,-0.035
4.322,-0.045,-0.030
4.324,0.065,-0.025
4.326,-0.070,-0.025
4.328,-0.075,-0.025
4.330,-0.045,-0.025
4.332,0.025,-0.025
4.334,0.125,-0.025
4.336,0.205,-0.020
4.338,0.145,-0.015
4.340,0.185,-0.005
4.342,0.080,0.005
4.344,0.140,0.020
4.346,-0.030,0.035
4.348,-0.005,0.050
4.350,0.035,0.060
4.352,0.145,0.065
4.354,0.125,0.070
4.356,0.300,0.075
4.358,0.300,0.070
4.360,0.210,0.065
4.362,0.220,0.060
4.364,0.180,0.050
4.366,-0.030,0.045
4.368,-0.135,0.035
4.370,-0.010,0.025
4.372,0.070,0.020
4.374,0.165,0.015
4.376,0.265,0.010
4.378,0.215,0.010
4.380,0.160,0.005
4.382,-0.025,0.005
4.384,0.100,0.000
4.386,-0.040,-0.005
4.388,-0.050,-0.010
4.390,-0.005,-0.015
4.392,0.135,-0.025
4.394,-0.050,-0.025
4.396,0.165,-0.030
4.398,0.265,-0.030
4.400,0.180,-0.030
4.402,-0.045,-0.030
4.404,0.040,-0.030
4.406,-0.070,-0.040
4.408,-0.065,-0.050
4.410,-0.135,-0.065
4.412,0.035,-0.080
4.414,0.030,-0.095
4.416,0.005,-0.105
4.418,0.110,-0.115
4.420,0.110,-0.115
4.422,0.020,-0.105
4.424,-0.060,-0.095
4.426,-0.095,-0.080
4.428,-0.200,-0.065
4.430,-0.055,-0.055
4.432,0.025,-0.040
4.434,0.110,-0.035
4.436,0.210,-0.035
4.438,0.180,-0.035
4.440,0.210,-0.045
4.442,-0.005,-0.055
4.444,-0.055,-0.065
4.446,-0.240,-0.080
4.448,-0.125,-0.095
4.450,0.010,-0.105
4.452,-0.010,-0.110
4.454,-0.050,-0.110
4.456,0.035,-0.105
4.458,0.150,-0.095
4.460,0.080,-0.080
4.462,0.055,-0.065
4.464,-0.035,-0.050
4.466,-0.080,-0.045
4.468,-0.060,-0.040
4.470,-0.035,-0.045
4.472,0.025,-0.055
4.474,0.010,-0.060
4.476,0.110,-0.070
4.478,0.100,-0.075
4.480,0.035,-0.075
4.482,0.050,-0.065
4.484,0.030,-0.055
4.486,-0.050,-0.040
4.488,-0.035,-0.025
4.490,0.010,-0.015
4.492,-0.015,0.000
4.494,0.100,0.010
4.496,0.255,0.030
4.498,0.390,0.055
4.500,0.240,0.095
4.502,0.200,0.155
4.504,0.140,0.230
4.506,0.285,0.320
4.508,0.420,0.420
4.510,0.590,0.515
4.512,0.755,0.605
4.514,0.910,0.675
4.516,1.000,0.715
4.518,0.925,0.730
4.520,0.840,0.710
4.522,0.645,0.665
4.524,0.545,0.590
4.526,0.390,0.500
4.528,0.440,0.400
4.530,0.380,0.295
4.532,0.270,0.190
4.534,0.295,0.100
4.536,0.190,0.025
4.538,-0.005,-0.035
4.540,0.050,-0.075
4.542,-0.125,-0.100
4.544,-0.065,-0.105
4.546,-0.105,-0.100
4.548,-0.140,-0.090
4.550,-0.050,-0.075
4.552,0.050,-0.065
4.554,0.125,-0.055
4.556,0.225,-0.050
4.558,0.115,-0.050
4.560,-0.005,-0.055
4.562,0.030,-0.060
4.564,-0.180,-0.065
4.566,-0.110,-0.070
4.568,-0.030,-0.070
4.570,-0.030,-0.065
4.572,0.100,-0.060
4.574,0.155,-0.050
4.576,0.110,-0.045
4.578,0.100,-0.040
4.580,0.015,-0.035
4.582,0.075,-0.035
4.584,-0.030,-0.040
4.586,-0.095,-0.045
4.588,-0.235,-0.055
4.590,0.005,-0.065
4.592,0.130,-0.070
4.594,0.150,-0.075
4.596,0.180,-0.075
4.598,0.020,-0.070
4.600,0.045,-0.060
4.602,0.000,-0.055
4.604,-0.090,-0.050
4.606,-0.120,-0.050
4.608,-0.075,-0.055
4.610,0.045,-0.060
4.612,0.025,-0.070
4.614,0.145,-0.075
4.616,0.045,-0.080
4.618,0.140,-0.075
4.620,0.090,-0.070
4.622,0.030,-0.055
4.624,-0.040,-0.035
4.626,-0.090,-0.020
4.628,-0.110,-0.010
4.630,0.040,-0.005
4.632,0.115,-0.010
4.634,0.150,-0.025
4.636,0.155,-0.045
4.638,0.075,-0.065
4.640,0.040,-0.080
4.642,-0.005,-0.090
4.644,-0.155,-0.085
4.646,-0.105,-0.070
4.648,-0.040,-0.050
4.650,0.075,-0.020
4.652,0.100,0.005
4.654,0.235,0.025
4.656,0.175,0.030
4.658,0.215,0.030
4.660,0.155,0.020
4.662,0.075,0.000
4.664,-0.170,-0.020
4.666,-0.040,-0.040
4.668,-0.145,-0.055
4.670,-0.090,-0.065
4.672,0.190,-0.065
4.674,0.250,-0.060
4.676,-0.010,-0.050
4.678,0.155,-0.035
4.680,0.075,-0.020
4.682,0.060,-0.005
4.684,-0.100,0.005
4.686,0.030,0.015
4.688,0.000,0.025
4.690,0.070,0.030
4.692,0.160,0.040
4.694,0.305,0.045
4.696,0.275,0.050
4.698,0.210,0.060
4.700,0.115,0.065
4.702,0.105,0.075
4.704,0.055,0.080
4.706,0.025,0.090
4.708,0.020,0.090
4.710,0.160,0.090
4.712,0.240,0.090
4.714,0.300,0.085
4.716,0.310,0.080
4.718,0.315,0.080
4.720,0.140,0.080
4.722,0.025,0.085
4.724,-0.005,0.095
4.726,0.080,0.115
4.728,0.170,0.135
4.730,0.240,0.160
4.732,0.295,0.185
4.734,0.450,0.210
4.736,0.470,0.230
4.738,0.380,0.240
4.740,0.345,0.245
4.742,0.270,0.245
4.744,0.270,0.245
4.746,0.200,0.240
4.748,0.215,0.240
4.750,0.200,0.235
4.752,0.330,0.235
4.754,0.395,0.240
4.756,0.535,0.240
4.758,0.485,0.240
4.760,0.385,0.235
4.762,0.300,0.235
4.764,0.085,0.230
4.766,0.075,0.220
4.768,0.210,0.215
4.770,0.260,0.210
4.772,0.335,0.205
4.774,0.480,0.200
4.776,0.455,0.195
4.778,0.360,0.190
4.780,0.150,0.180
4.782,0.155,0.165
4.784,0.160,0.150
4.786,0.055,0.130
4.788,0.155,0.115
4.790,0.150,0.095
4.792,0.200,0.080
4.794,0.300,0.070
4.796,0.255,0.060
4.798,0.165,0.055
4.800,0.110,0.050
4.802,0.065,0.045
4.804,0.000,0.040
4.806,-0.005,0.030
4.808,0.020,0.020
4.810,0.020,0.010
4.812,0.160,0.000
4.814,0.260,-0.010
4.816,0.175,-0.015
4.818,0.030,-0.020
4.820,0.040,-0.015
4.822,0.015,-0.010
4.824,0.035,0.000
4.826,0.070,0.010
4.828,0.100,0.020
4.830,0.080,0.025
4.832,0.035,0.025
4.834,0.190,0.020
4.836,0.225,0.010
4.838,0.145,-0.005
4.840,0.055,-0.020
4.842,0.025,-0.030
4.844,-0.135,-0.040
4.846,-0.080,-0.045
4.848,0.040,-0.050
4.850,0.050,-0.045
4.852,0.105,-0.045
4.854,0.120,-0.040
4.856,0.110,-0.035
4.858,0.140,-0.035
4.860,-0.010,-0.035
4.862,0.055,-0.040
4.864,-0.070,-0.050
4.866,-0.045,-0.060
4.868,-0.155,-0.070
4.870,0.015,-0.080
4.872,0.055,-0.085
4.874,0.050,-0.095
4.876,0.190,-0.095
4.878,0.095,-0.095
4.880,-0.170,-0.095
4.882,-0.215,-0.090
4.884,-0.085,-0.085
4.886,-0.085,-0.085
4.888,0.005,-0.080
4.890,0.025,-0.080
4.892,0.120,-0.075
4.894,0.145,-0.075
4.896,0.110,-0.075
4.898,0.010,-0.065
4.900,-0.040,-0.055
4.902,-0.065,-0.045
4.904,-0.085,-0.025
4.906,-0.085,-0.010
4.908,0.130,0.005
4.910,0.150,0.020
4.912,0.215,0.030
4.914,0.265,0.035
4.916,0.280,0.030
4.918,0.085,0.025
4.920,0.045,0.020
4.922,-0.025,0.010
4.924,-0.025,0.000
4.926,-0.025,-0.010
4.928,0.035,-0.020
4.930,0.090,-0.035
4.932,0.080,-0.045
4.934,0.165,-0.060
4.936,0.020,-0.070
4.938,0.060,-0.075
4.940,-0.020,-0.080
4.942,-0.040,-0.075
4.944,-0.025,-0.065
4.946,-0.200,-0.055
4.948,0.035,-0.045
4.950,0.105,-0.035
4.952,0.215,-0.030
4.954,0.080,-0.035
4.956,0.155,-0.040
4.958,0.150,-0.050
4.960,-0.015,-0.065
4.962,-0.125,-0.075
4.964,-0.200,-0.080
4.966,-0.140,-0.075
4.968,0.025,-0.070
4.970,0.050,-0.060
4.972,0.170,-0.045
4.974,0.145,-0.035
4.976,0.165,-0.025
4.978,0.135,-0.025
4.980,0.140,-0.030
4.982,-0.105,-0.040
4.984,-0.105,-0.050
4.986,-0.105,-0.060
4.988,-0.060,-0.065
4.990,0.035,-0.065
4.992,0.190,-0.055
4.994,0.125,-0.040
4.996,0.175,-0.020
4.998,0.105,0.000
5.000,0.165,0.020
5.002,0.010,0.035
5.004,-0.055,0.045
5.006,-0.015,0.040
5.008,0.120,0.030
5.010,0.070,0.015
5.012,0.170,-0.005
5.014,0.300,-0.020
5.016,0.180,-0.035
5.018,0.140,-0.040
5.020,-0.035,-0.040
5.022,-0.175,-0.035
5.024,-0.125,-0.025
5.026,0.015,-0.010
5.028,0.020,-0.005
5.030,0.060,0.000
5.032,0.265,0.000
5.034,0.330,-0.005
5.036,0.175,-0.015
5.038,0.105,-0.025
5.040,-0.100,-0.035
5.042,-0.035,-0.045
5.044,-0.160,-0.050
5.046,-0.050,-0.055
5.048,0.065,-0.060
5.050,-0.030,-0.060
5.052,0.050,-0.065
5.054,0.245,-0.065
5.056,0.170,-0.070
5.058,0.020,-0.070
5.060,-0.025,-0.070
5.062,-0.165,-0.070
5.064,-0.140,-0.065
5.066,-0.060,-0.060
5.068,-0.030,-0.055
5.070,0.075,-0.055
5.072,0.280,-0.055
5.074,0.180,-0.050
5.076,0.075,-0.055
5.078,0.025,-0.055
5.080,-0.015,-0.055
5.082,-0.065,-0.050
5.084,-0.135,-0.045
5.086,-0.040,-0.040
5.088,-0.015,-0.030
5.090,0.165,-0.020
5.092,0.260,-0.010
5.094,0.155,-0.005
5.096,0.255,0.000
5.098,0.055,0.005
5.100,0.060,0.000
5.102,-0.120,-0.005
5.104,-0.115,-0.015
5.106,0.050,-0.025
5.108,0.115,-0.035
5.110,0.085,-0.045
5.112,0.110,-0.050
5.114,0.065,-0.050
5.116,0.010,-0.045
5.118,0.135,-0.035
5.120,0.005,-0.025
5.122,-0.080,-0.015
5.124,0.005,-0.005
5.126,0.075,0.000
5.128,0.070,-0.005
5.130,0.095,-0.015
5.132,0.160,-0.030
5.134,0.160,-0.045
5.136,0.000,-0.060
5.138,0.035,-0.075
5.140,0.030,-0.080
5.142,-0.185,-0.085
5.144,-0.095,-0.085
5.146,-0.020,-0.080
5.148,0.025,-0.075
5.150,0.055,-0.075
5.152,0.065,-0.075
5.154,0.085,-0.075
5.156,0.090,-0.075
5.158,0.045,-0.080
5.160,-0.085,-0.075
5.162,-0.120,-0.065
5.164,-0.115,-0.055
5.166,0.010,-0.040
5.168,0.100,-0.030
5.170,0.130,-0.020
5.172,0.240,-0.015
5.174,0.155,-0.015
5.176,0.155,-0.020
5.178,0.150,-0.030
5.180,-0.145,-0.045
5.182,-0.230,-0.055
5.184,-0.065,-0.060
5.186,0.075,-0.060
5.188,0.005,-0.055
5.190,0.145,-0.050
5.192,0.205,-0.035
5.194,0.220,-0.030
5.196,0.095,-0.020
5.198,0.080,-0.020
5.200,-0.090,-0.020
5.202,-0.055,-0.020
5.204,-0.110,-0.025
5.206,0.050,-0.030
5.208,0.075,-0.030
5.210,0.080,-0.035
5.212,0.205,-0.035
5.214,0.175,-0.030
5.216,0.100,-0.035
5.218,0.055,-0.035
5.220,-0.085,-0.040
5.222,-0.090,-0.045
5.224,-0.110,-0.055
5.226,-0.030,-0.060
5.228,0.060,-0.070
5.230,0.225,-0.075
5.232,0.175,-0.080
5.234,-0.025,-0.085
5.236,0.100,-0.085
5.238,-0.040,-0.090
5.240,-0.205,-0.095
5.242,-0.240,-0.095
5.244,-0.080,-0.100
5.246,-0.020,-0.095
5.248,-0.010,-0.090
5.250,0.160,-0.085
5.252,0.200,-0.070
5.254,0.140,-0.055
5.256,0.050,-0.045
5.258,-0.020,-0.030
5.260,-0.110,-0.025
5.262,-0.040,-0.025
5.264,0.005,-0.025
5.266,0.000,-0.030
5.268,0.165,-0.040
5.270,0.080,-0.045
5.272,0.170,-0.050
5.274,0.180,-0.050
5.276,0.130,-0.045
5.278,0.040,-0.040
5.280,-0.145,-0.035
5.282,-0.055,-0.035
5.284,-0.060,-0.030
5.286,-0.050,-0.030
5.288,0.065,-0.035
5.290,0.275,-0.035
5.292,0.175,-0.030
5.294,0.125,-0.025
5.296,0.135,-0.020
5.298,-0.015,-0.010
5.300,-0.030,0.000
5.302,0.050,0.005
5.304,0.005,0.005
5.306,-0.055,0.000
5.308,0.105,-0.010
5.310,0.290,-0.025
5.312,0.150,-0.040
5.314,0.110,-0.055
5.316,-0.015,-0.065
5.318,0.000,-0.070
5.320,-0.125,-0.075
5.322,-0.140,-0.075
5.324,-0.045,-0.070
5.326,-0.015,-0.070
5.328,0.035,-0.075
5.330,0.170,-0.080
5.332,0.165,-0.085
5.334,0.015,-0.090
5.336,0.005,-0.095
5.338,-0.125,-0.095
5.340,-0.110,-0.095
5.342,-0.055,-0.090
5.344,-0.090,-0.085
5.346,-0.025,-0.080
5.348,0.010,-0.075
5.350,0.125,-0.075
5.352,0.155,-0.065
5.354,0.140,-0.060
5.356,0.095,-0.050
5.358,0.040,-0.035
5.360,0.000,-0.020
5.362,-0.020,-0.005
5.364,-0.030,0.010
5.366,0.100,0.025
5.368,0.170,0.035
5.370,0.210,0.035
5.372,0.265,0.040
5.374,0.240,0.040
5.376,0.080,0.045
5.378,0.060,0.050
5.380,0.085,0.055
5.382,0.030,0.065
5.384,0.115,0.075
5.386,0.235,0.085
5.388,0.180,0.090
5.390,0.270,0.085
5.392,0.295,0.085
5.394,0.260,0.075
5.396,0.100,0.070
5.398,0.100,0.060
5.400,0.055,0.055
5.402,0.100,0.055
5.404,0.065,0.050
5.406,0.075,0.045
5.408,0.150,0.035
5.410,0.270,0.020
5.412,0.195,0.005
5.414,0.105,-0.010
5.416,0.080,-0.030
5.418,0.030,-0.045
5.420,-0.130,-0.060
5.422,-0.070,-0.065
5.424,-0.030,-0.070
5.426,0.025,-0.075
5.428,0.075,-0.080
5.430,0.130,-0.085
5.432,0.150,-0.090
5.434,-0.015,-0.095
5.436,0.080,-0.100
5.438,-0.180,-0.100
5.440,-0.185,-0.095
5.442,-0.065,-0.085
5.444,-0.015,-0.065
5.446,0.130,-0.050
5.448,0.235,-0.030
5.450,0.185,-0.015
5.452,0.165,-0.010
5.454,0.085,-0.015
5.456,-0.010,-0.025
5.458,-0.160,-0.040
5.460,-0.105,-0.060
5.462,0.020,-0.075
5.464,0.040,-0.090
5.466,0.055,-0.090
5.468,-0.055,-0.085
5.470,0.095,-0.070
5.472,0.140,-0.050
5.474,0.080,-0.035
5.476,0.130,-0.020
5.478,0.020,-0.010
5.480,-0.075,-0.010
5.482,-0.070,-0.020
5.484,-0.045,-0.035
5.486,0.010,-0.055
5.488,0.110,-0.075
5.490,0.095,-0.090
5.492,0.115,-0.100
5.494,0.035,-0.110
5.496,0.020,-0.110
5.498,-0.115,-0.105
5.500,-0.140,-0.105
5.502,-0.140,-0.100
5.504,-0.040,-0.100
5.506,0.020,-0.095
5.508,-0.010,-0.090
5.510,0.130,-0.085
5.512,0.185,-0.075
5.514,0.125,-0.065
5.516,-0.025,-0.045
5.518,-0.080,-0.025
5.520,-0.040,-0.010
5.522,-0.030,0.010
5.524,0.070,0.025
5.526,0.225,0.040
5.528,0.280,0.055
5.530,0.210,0.075
5.532,0.315,0.110
5.534,0.240,0.155
5.536,0.200,0.220
5.538,0.235,0.300
5.540,0.430,0.395
5.542,0.545,0.490
5.544,0.690,0.580
5.546,0.810,0.655
5.548,1.030,0.710
5.550,1.080,0.735
5.552,0.825,0.725
5.554,0.740,0.690
5.556,0.635,0.625
5.558,0.345,0.545
5.560,0.520,0.450
5.562,0.390,0.355
5.564,0.375,0.260
5.566,0.350,0.175
5.568,0.235,0.100
5.570,0.170,0.035
5.572,0.095,-0.015
5.574,-0.035,-0.050
5.576,-0.060,-0.075
5.578,-0.095,-0.090
5.580,-0.115,-0.095
5.582,-0.095,-0.100
5.584,-0.045,-0.100
5.586,-0.005,-0.100
5.588,0.135,-0.100
5.590,0.090,-0.105
5.592,-0.005,-0.110
5.594,-0.015,-0.120
5.596,0.020,-0.125
5.598,-0.250,-0.125
5.600,-0.090,-0.120
5.602,-0.075,-0.105
5.604,-0.075,-0.090
5.606,0.045,-0.070
5.608,0.175,-0.045
5.610,0.140,-0.030
5.612,0.185,-0.015
5.614,0.100,-0.010
5.616,0.100,-0.005
5.618,0.015,-0.010
5.620,-0.140,-0.020
5.622,-0.055,-0.025
5.624,0.035,-0.035
5.626,0.050,-0.040
5.628,0.250,-0.040
5.630,0.165,-0.035
5.632,0.165,-0.035
5.634,0.060,-0.030
5.636,0.020,-0.025
5.638,-0.080,-0.025
5.640,-0.035,-0.030
5.642,-0.125,-0.030
5.644,0.085,-0.035
5.646,0.125,-0.040
5.648,0.135,-0.045
5.650,0.130,-0.050
5.652,0.130,-0.050
5.654,0.055,-0.050
5.656,-0.050,-0.050
5.658,-0.100,-0.045
5.660,-0.120,-0.045
5.662,-0.095,-0.040
5.664,0.075,-0.040
5.666,0.115,-0.040
5.668,0.175,-0.045
5.670,0.250,-0.045
5.672,0.100,-0.050
5.674,0.060,-0.055
5.676,-0.015,-0.060
5.678,-0.115,-0.065
5.680,-0.125,-0.065
5.682,-0.060,-0.070
5.684,0.015,-0.065
5.686,0.065,-0.065
5.688,0.200,-0.060
5.690,0.180,-0.050
5.692,0.070,-0.040
5.694,0.040,-0.030
5.696,0.040,-0.015
5.698,0.000,0.000
5.700,0.030,0.015
5.702,0.050,0.025
5.704,0.060,0.030
5.706,0.095,0.030
5.708,0.310,0.030
5.710,0.210,0.020
5.712,0.190,0.010
5.714,0.020,0.005
5.716,0.095,-0.005
5.718,-0.055,-0.005
5.720,-0.005,0.000
5.722,0.025,0.005
5.724,0.115,0.015
5.726,0.285,0.030
5.728,0.175,0.040
5.730,0.250,0.050
5.732,0.135,0.055
5.734,0.225,0.065
5.736,0.055,0.075
5.738,0.050,0.085
5.740,0.140,0.095
5.742,0.145,0.110
5.744,0.195,0.125
5.746,0.195,0.135
5.748,0.335,0.140
5.750,0.320,0.140
5.752,0.370,0.135
5.754,0.290,0.125
5.756,0.075,0.115
5.758,-0.020,0.110
5.760,0.070,0.105
5.762,0.155,0.110
5.764,0.200,0.120
5.766,0.305,0.135
5.768,0.420,0.150
5.770,0.435,0.165
5.772,0.370,0.175
5.774,0.200,0.185
5.776,0.140,0.190
5.778,0.130,0.195
5.780,0.130,0.200
5.782,0.290,0.210
5.784,0.340,0.220
5.786,0.480,0.235
5.788,0.455,0.250
5.790,0.405,0.265
5.792,0.420,0.275
5.794,0.350,0.280
5.796,0.230,0.280
5.798,0.205,0.275
5.800,0.230,0.270
5.802,0.330,0.260
5.804,0.405,0.255
5.806,0.500,0.250
5.808,0.485,0.240
5.810,0.325,0.230
5.812,0.330,0.215
5.814,0.285,0.200
5.816,0.165,0.180
5.818,0.115,0.155
5.820,0.085,0.130
5.822,0.185,0.110
5.824,0.140,0.095
5.826,0.270,0.080
5.828,0.310,0.075
5.830,0.360,0.070
5.832,0.195,0.065
5.834,0.095,0.060
5.836,0.045,0.055
5.838,0.025,0.045
5.840,-0.055,0.040
5.842,0.065,0.030
5.844,0.105,0.020
5.846,0.250,0.015
5.848,0.260,0.005
5.850,0.195,0.000
5.852,0.150,-0.010
5.854,-0.005,-0.020
5.856,-0.085,-0.035
5.858,-0.180,-0.055
5.860,-0.115,-0.075
5.862,-0.030,-0.090
5.864,0.020,-0.100
5.866,0.135,-0.105
5.868,0.080,-0.095
5.870,0.135,-0.075
5.872,0.075,-0.055
5.874,0.075,-0.030
5.876,-0.015,-0.005
5.878,-0.025,0.010
5.880,-0.005,0.015
5.882,0.080,0.010
5.884,0.105,0.000
5.886,0.185,-0.015
5.888,0.245,-0.030
5.890,0.150,-0.040
5.892,0.020,-0.040
5.894,0.035,-0.040
5.896,-0.070,-0.030
5.898,-0.095,-0.020
5.900,-0.065,-0.015
5.902,0.055,-0.015
5.904,0.125,-0.025
5.906,0.160,-0.035
5.908,0.190,-0.045
5.910,0.185,-0.060
5.912,0.020,-0.065
5.914,0.075,-0.065
5.916,-0.205,-0.060
5.918,-0.145,-0.045
5.920,-0.005,-0.035
5.922,0.030,-0.025
5.924,0.065,-0.025
5.926,0.255,-0.030
5.928,0.220,-0.040
5.930,0.115,-0.055
5.932,-0.005,-0.070
5.934,-0.090,-0.085
5.936,-0.170,-0.095
5.938,-0.180,-0.100
5.940,-0.025,-0.095
5.942,0.000,-0.095
5.944,0.055,-0.090
5.946,0.130,-0.085
5.948,0.105,-0.085
5.950,0.075,-0.085
5.952,-0.025,-0.090
5.954,0.050,-0.090
5.956,-0.185,-0.085
5.958,-0.160,-0.075
5.960,-0.020,-0.055
5.962,0.045,-0.035
5.964,0.050,-0.015
5.966,0.275,0.005
5.968,0.325,0.020
5.970,0.255,0.025
5.972,0.050,0.020
5.974,-0.035,0.005
5.976,-0.175,-0.010
5.978,-0.070,-0.030
5.980,0.055,-0.045
5.982,0.035,-0.055
5.984,0.070,-0.055
5.986,0.235,-0.050
5.988,0.145,-0.040
5.990,0.105,-0.030
5.992,0.060,-0.020
5.994,0.040,-0.015
5.996,-0.005,-0.015
5.998,-0.045,-0.020
6.000,-0.040,-0.025
6.002,0.040,-0.040
6.004,0.075,-0.050
6.006,0.135,-0.055
6.008,0.185,-0.060
6.010,0.110,-0.055
6.012,0.065,-0.050
6.014,0.010,-0.045
6.016,-0.110,-0.035
6.018,-0.070,-0.030
6.020,-0.005,-0.030
6.022,0.060,-0.030
6.024,0.195,-0.035
6.026,0.275,-0.040
6.028,0.120,-0.045
6.030,0.080,-0.045
6.032,-0.085,-0.045
6.034,0.010,-0.045
6.036,0.000,-0.040
6.038,-0.115,-0.035
6.040,-0.025,-0.030
6.042,0.135,-0.030
6.044,0.180,-0.030
6.046,0.140,-0.035
6.048,0.160,-0.040
6.050,0.120,-0.045
6.052,-0.085,-0.050
6.054,-0.010,-0.055
6.056,-0.120,-0.050
6.058,-0.005,-0.050
6.060,-0.035,-0.045
6.062,0.140,-0.040
6.064,0.065,-0.035
6.066,0.155,-0.030
6.068,0.125,-0.020
6.070,0.195,-0.015
6.072,0.085,-0.010
6.074,-0.045,-0.005
6.076,-0.100,0.000
6.078,0.010,0.000
6.080,0.025,-0.010
6.082,0.050,-0.015
6.084,0.105,-0.030
6.086,0.210,-0.040
6.088,0.150,-0.050
6.090,0.060,-0.060
6.092,0.015,-0.060
6.094,-0.040,-0.050
6.096,-0.150,-0.040
6.098,-0.010,-0.030
6.100,0.045,-0.015
6.102,0.125,-0.005
6.104,0.230,0.000
6.106,0.320,0.000
6.108,0.120,-0.010
6.110,0.130,-0.020
6.112,0.015,-0.035
6.114,-0.155,-0.055
6.116,-0.235,-0.070
6.118,-0.100,-0.080
6.120,0.050,-0.090
6.122,0.105,-0.090
6.124,0.095,-0.090
6.126,0.070,-0.080
6.128,0.065,-0.070
6.130,0.095,-0.055
6.132,0.000,-0.035
6.134,0.045,-0.025
6.136,-0.090,-0.015
6.138,-0.065,-0.010
6.140,0.080,-0.015
6.142,0.135,-0.025
6.144,0.155,-0.040
6.146,0.100,-0.055
6.148,0.105,-0.070
6.150,-0.005,-0.080
6.152,0.035,-0.085
6.154,-0.120,-0.085
6.156,-0.195,-0.075
6.158,-0.105,-0.065
6.160,0.010,-0.055
6.162,0.150,-0.045
6.164,0.290,-0.030
6.166,0.225,-0.025
6.168,0.090,-0.015
6.170,0.095,-0.010
6.172,-0.120,-0.005
6.174,0.040,0.000
6.176,-0.075,0.005
6.178,0.000,0.005
6.180,0.075,0.005
6.182,0.275,0.000
6.184,0.205,-0.005
6.186,0.150,-0.010
6.188,0.070,-0.020
6.190,0.050,-0.025
6.192,0.040,-0.035
6.194,-0.085,-0.040
6.196,-0.060,-0.045
6.198,-0.045,-0.050
6.200,-0.020,-0.055
6.202,0.050,-0.060
6.204,0.150,-0.060
6.206,0.130,-0.065
6.208,0.165,-0.065
6.210,0.020,-0.060
6.212,-0.090,-0.060
6.214,-0.175,-0.055
6.216,-0.055,-0.055
6.218,0.045,-0.050
6.220,0.010,-0.050
6.222,0.070,-0.055
6.224,0.100,-0.055
6.226,0.055,-0.060
6.228,0.160,-0.055
6.230,0.145,-0.055
6.232,-0.025,-0.045
6.234,-0.205,-0.035
6.236,-0.010,-0.020
6.238,0.010,-0.010
6.240,0.030,-0.005
6.242,0.075,-0.005
6.244,0.295,-0.010
6.246,0.140,-0.020
6.248,0.195,-0.035
6.250,-0.005,-0.045
6.252,0.000,-0.050
6.254,-0.130,-0.050
6.256,-0.095,-0.050
6.258,-0.030,-0.040
6.260,0.085,-0.035
6.262,0.165,-0.030
6.264,0.305,-0.030
6.266,0.200,-0.035
6.268,-0.030,-0.040
6.270,-0.050,-0.045
6.272,-0.005,-0.050
6.274,-0.100,-0.050
6.276,-0.025,-0.045
6.278,-0.030,-0.035
6.280,0.080,-0.025
6.282,0.185,-0.015
6.284,0.255,-0.010
6.286,0.200,-0.015
6.288,0.060,-0.025
6.290,-0.045,-0.040
6.292,-0.025,-0.065
6.294,-0.150,-0.085
6.296,-0.130,-0.100
6.298,-0.090,-0.105
6.300,0.030,-0.105
6.302,0.010,-0.100
6.304,0.185,-0.085
6.306,0.195,-0.070
6.308,-0.015,-0.055
6.310,0.020,-0.040
6.312,0.070,-0.035
6.314,-0.010,-0.030
6.316,-0.135,-0.035
6.318,-0.070,-0.040
6.320,-0.005,-0.050
6.322,0.135,-0.055
6.324,0.190,-0.060
6.326,0.095,-0.065
6.328,0.105,-0.065
6.330,0.035,-0.065
6.332,-0.045,-0.060
6.334,-0.065,-0.050
6.336,-0.080,-0.045
6.338,-0.105,-0.030
6.340,0.055,-0.020
6.342,0.150,-0.005
6.344,0.240,0.005
6.346,0.315,0.010
6.348,0.205,0.015
6.350,0.095,0.010
6.352,0.065,0.005
6.354,-0.170,-0.010
6.356,-0.080,-0.025
6.358,-0.140,-0.040
6.360,0.060,-0.050
6.362,0.200,-0.050
6.364,0.300,-0.050
6.366,0.180,-0.040
6.368,-0.005,-0.025
6.370,0.040,-0.015
6.372,0.055,0.000
6.374,0.045,0.005
6.376,-0.070,0.010
6.378,-0.075,0.010
6.380,0.105,0.010
6.382,0.165,0.010
6.384,0.260,0.015
6.386,0.275,0.020
6.388,0.205,0.035
6.390,0.145,0.050
6.392,0.035,0.065
6.394,0.030,0.075
6.396,0.040,0.075
6.398,0.145,0.070
6.400,0.125,0.060
6.402,0.195,0.045
6.404,0.210,0.025
6.406,0.210,0.015
6.408,0.150,0.005
6.410,0.090,0.005
6.412,0.005,0.005
6.414,-0.025,0.010
6.416,-0.045,0.010
6.418,0.070,0.010
6.420,0.035,0.005
6.422,0.205,-0.005
6.424,0.195,-0.020
6.426,0.120,-0.040
6.428,0.180,-0.055
6.430,-0.005,-0.065
6.432,-0.195,-0.075
6.434,-0.145,-0.080
6.436,-0.170,-0.085
6.438,-0.010,-0.080
6.440,0.015,-0.075
6.442,0.185,-0.070
6.444,0.255,-0.060
6.446,0.075,-0.050
6.448,0.090,-0.035
6.450,0.045,-0.020
6.452,0.000,-0.010
6.454,-0.065,-0.005
6.456,-0.085,-0.010
6.458,0.060,-0.020
6.460,0.100,-0.040
6.462,0.090,-0.060
6.464,0.095,-0.085
6.466,0.020,-0.105
6.468,-0.075,-0.115
6.470,0.040,-0.115
6.472,-0.150,-0.105
6.474,-0.165,-0.090
6.476,-0.030,-0.070
6.478,0.060,-0.055
6.480,0.035,-0.045
6.482,0.200,-0.040
6.484,0.150,-0.045
6.486,0.100,-0.050
6.488,-0.035,-0.060
6.490,-0.035,-0.070
6.492,-0.135,-0.070
6.494,-0.035,-0.065
6.496,-0.060,-0.055
6.498,0.065,-0.045
6.500,0.050,-0.035
6.502,0.175,-0.030
6.504,0.130,-0.035
6.506,0.220,-0.040
6.508,0.020,-0.055
6.510,-0.065,-0.065
6.512,-0.115,-0.070
6.514,-0.125,-0.070
6.516,-0.075,-0.070
6.518,-0.010,-0.060
6.520,0.030,-0.055
6.522,0.195,-0.050
6.524,0.245,-0.045
6.526,0.010,-0.040
6.528,0.125,-0.030
6.530,0.125,-0.010
6.532,-0.045,0.025
6.534,-0.015,0.075
6.536,0.110,0.150
6.538,0.260,0.245
6.540,0.480,0.350
6.542,0.685,0.455
6.544,0.865,0.550
6.546,0.855,0.630
6.548,0.885,0.680
6.550,0.925,0.700
6.552,0.650,0.690
6.554,0.495,0.650
6.556,0.420,0.585
6.558,0.490,0.505
6.560,0.550,0.415
6.562,0.615,0.315
6.564,0.495,0.220
6.566,0.375,0.130
6.568,0.085,0.045
6.570,-0.075,-0.025
6.572,-0.240,-0.080
6.574,-0.210,-0.115
6.576,-0.145,-0.135
6.578,-0.090,-0.135
6.580,0.060,-0.125
6.582,0.210,-0.100
6.584,0.165,-0.075
6.586,0.060,-0.050
6.588,0.095,-0.035
6.590,-0.010,-0.025
6.592,-0.165,-0.030
6.594,-0.100,-0.045
6.596,-0.080,-0.060
6.598,-0.015,-0.075
6.600,0.045,-0.085
6.602,0.110,-0.090
6.604,0.170,-0.080
6.606,0.055,-0.065
6.608,0.100,-0.050
6.610,-0.035,-0.035
6.612,-0.110,-0.025
6.614,-0.045,-0.025
6.616,0.010,-0.040
6.618,-0.045,-0.055
6.620,0.040,-0.075
6.622,0.155,-0.090
6.624,0.120,-0.100
6.626,0.050,-0.095
6.628,-0.010,-0.085
6.630,0.000,-0.065
6.632,-0.100,-0.045
6.634,-0.200,-0.035
6.636,0.020,-0.030
6.638,0.085,-0.035
6.640,0.095,-0.055
6.642,0.115,-0.080
6.644,0.120,-0.105
6.646,-0.045,-0.125
6.648,-0.100,-0.135
6.650,-0.115,-0.130
6.652,-0.125,-0.110
6.654,-0.045,-0.080
6.656,-0.015,-0.050
6.658,0.115,-0.025
6.660,0.150,-0.005
6.662,0.095,0.005
6.664,0.220,0.005
6.666,0.085,-0.005
6.668,0.075,-0.015
6.670,0.055,-0.025
6.672,-0.030,-0.030
6.674,-0.085,-0.030
6.676,-0.085,-0.020
6.678,0.090,-0.010
6.680,0.175,0.005
6.682,0.260,0.010
6.684,0.215,0.015
6.686,0.140,0.010
6.688,0.105,0.000
6.690,-0.015,-0.015
6.692,-0.125,-0.030
6.694,-0.155,-0.035
6.696,-0.020,-0.040
6.698,0.005,-0.035
6.700,0.275,-0.030
6.702,0.190,-0.020
6.704,0.200,-0.015
6.706,0.065,-0.005
6.708,0.075,0.000
6.710,0.010,0.010
6.712,-0.035,0.015
6.714,-0.030,0.015
6.716,0.060,0.020
6.718,0.135,0.020
6.720,0.185,0.020
6.722,0.270,0.015
6.724,0.255,0.010
6.726,0.120,0.000
6.728,-0.030,-0.005
6.730,-0.135,-0.010
6.732,-0.035,-0.005
6.734,0.020,0.005
6.736,0.060,0.020
6.738,0.085,0.045
6.740,0.355,0.075
6.742,0.300,0.100
6.744,0.220,0.125
6.746,0.330,0.140
6.748,0.230,0.150
6.750,0.095,0.155
6.752,0.120,0.155
6.754,0.080,0.155
6.756,0.180,0.155
6.758,0.235,0.160
6.760,0.435,0.170
6.762,0.405,0.185
6.764,0.410,0.195
6.766,0.370,0.210
6.768,0.325,0.220
6.770,0.170,0.220
6.772,0.140,0.220
6.774,0.140,0.220
6.776,0.190,0.215
6.778,0.370,0.210
6.780,0.455,0.210
6.782,0.360,0.215
6.784,0.485,0.230
6.786,0.440,0.245
6.788,0.315,0.265
6.790,0.220,0.280
6.792,0.210,0.290
6.794,0.255,0.290
6.796,0.280,0.280
6.798,0.360,0.260
6.800,0.410,0.235
6.802,0.530,0.205
6.804,0.400,0.175
6.806,0.215,0.150
6.808,0.150,0.130
6.810,-0.025,0.120
6.812,0.150,0.115
6.814,0.080,0.115
6.816,0.080,0.120
6.818,0.325,0.120
6.820,0.360,0.120
6.822,0.265,0.120
6.824,0.195,0.120
6.826,0.240,0.120
6.828,0.240,0.120
6.830,0.090,0.125
6.832,0.155,0.130
6.834,0.185,0.135
6.836,0.155,0.135
6.838,0.155,0.125
6.840,0.285,0.110
6.842,0.305,0.085
6.844,0.210,0.055
6.846,0.085,0.020
6.848,0.070,-0.010
6.850,-0.040,-0.030
6.852,-0.110,-0.045
6.854,-0.080,-0.050
6.856,0.020,-0.045
6.858,0.040,-0.040
6.860,0.220,-0.030
6.862,0.175,-0.025
6.864,0.100,-0.020
6.866,0.160,-0.030
6.868,-0.060,-0.040
6.870,-0.155,-0.050
6.872,-0.080,-0.065
6.874,-0.040,-0.075
6.876,-0.015,-0.080
6.878,0.045,-0.080
6.880,0.125,-0.080
6.882,0.240,-0.080
6.884,0.145,-0.080
6.886,-0.150,-0.080
6.888,-0.060,-0.085
6.890,-0.160,-0.085
6.892,-0.140,-0.090
6.894,-0.060,-0.090
6.896,0.100,-0.080
6.898,0.025,-0.070
6.900,0.175,-0.060
6.902,0.140,-0.045
6.904,0.140,-0.030
6.906,0.030,-0.020
6.908,0.040,-0.010
6.910,-0.065,-0.005
6.912,-0.145,0.000
6.914,0.020,0.000
6.916,0.195,0.000
6.918,0.120,-0.005
6.920,0.235,-0.010
6.922,0.205,-0.020
6.924,0.110,-0.035
6.926,0.010,-0.050
6.928,-0.145,-0.065
6.930,-0.120,-0.080
6.932,-0.145,-0.085
6.934,-0.045,-0.085
6.936,0.040,-0.075
6.938,0.050,-0.060
6.940,0.140,-0.045
6.942,0.205,-0.025
6.944,0.200,-0.015
6.946,0.070,-0.015
6.948,-0.010,-0.020
6.950,-0.045,-0.040
6.952,-0.050,-0.060
6.954,-0.160,-0.085
6.956,-0.060,-0.100
6.958,-0.055,-0.110
6.960,0.100,-0.105
6.962,0.160,-0.095
6.964,0.195,-0.075
6.966,0.065,-0.060
6.968,-0.025,-0.050
6.970,-0.080,-0.050
6.972,-0.185,-0.060
6.974,-0.070,-0.075
6.976,-0.035,-0.095
6.978,-0.015,-0.110
6.980,0.115,-0.120
6.982,0.115,-0.120
6.984,0.030,-0.105
6.986,-0.100,-0.080
6.988,-0.035,-0.055
6.990,-0.095,-0.025
6.992,-0.005,0.000
6.994,0.135,0.015
6.996,0.115,0.020
6.998,0.125,0.020
7.000,0.215,0.010
7.002,0.175,0.000
7.004,0.085,-0.010
7.006,0.055,-0.015
7.008,-0.030,-0.020
7.010,-0.070,-0.015
7.012,-0.040,-0.015
7.014,-0.035,-0.010
7.016,0.190,-0.015
7.018,0.125,-0.020
7.020,0.115,-0.030
7.022,0.235,-0.040
7.024,-0.030,-0.050
7.026,-0.005,-0.060
7.028,-0.055,-0.065
7.030,-0.055,-0.060
7.032,0.005,-0.050
7.034,-0.045,-0.040
7.036,0.085,-0.030
7.038,0.165,-0.025
7.040,0.200,-0.020
7.042,0.155,-0.020
7.044,0.045,-0.025
7.046,0.065,-0.035
7.048,-0.135,-0.045
7.050,-0.075,-0.055
7.052,-0.095,-0.060
7.054,0.010,-0.065
7.056,0.025,-0.065
7.058,0.190,-0.060
7.060,0.130,-0.060
7.062,0.085,-0.055
7.064,0.035,-0.050
7.066,0.010,-0.050
7.068,-0.135,-0.055
7.070,-0.080,-0.055
7.072,-0.040,-0.060
7.074,0.205,-0.060
7.076,-0.020,-0.065
7.078,0.060,-0.065
7.080,0.070,-0.065
7.082,0.170,-0.065
7.084,0.045,-0.065
7.086,-0.005,-0.060
7.088,-0.030,-0.050
7.090,-0.120,-0.045
7.092,-0.070,-0.035
7.094,0.030,-0.030
7.096,0.060,-0.025
7.098,0.230,-0.020
7.100,0.310,-0.015
7.102,0.120,-0.020
7.104,-0.020,-0.020
7.106,0.025,-0.025
7.108,-0.105,-0.035
7.110,-0.085,-0.040
7.112,0.005,-0.045
7.114,0.005,-0.050
7.116,-0.010,-0.055
7.118,0.205,-0.055
7.120,0.150,-0.055
7.122,0.150,-0.055
7.124,0.025,-0.050
7.126,-0.025,-0.050
7.128,-0.125,-0.045
7.130,-0.160,-0.045
7.132,-0.030,-0.050
7.134,-0.005,-0.055
7.136,0.035,-0.065
7.138,0.265,-0.075
7.140,0.075,-0.085
7.142,0.045,-0.095
7.144,0.035,-0.100
7.146,-0.085,-0.095
7.148,-0.220,-0.080
7.150,-0.190,-0.060
7.152,0.025,-0.035
7.154,0.200,-0.005
7.156,0.190,0.020
7.158,0.185,0.040
7.160,0.180,0.045
7.162,0.280,0.035
7.164,0.125,0.015
7.166,-0.030,-0.015
7.168,-0.150,-0.045
7.170,-0.175,-0.075
7.172,-0.025,-0.095
7.174,-0.100,-0.100
7.176,-0.010,-0.095
7.178,0.195,-0.080
7.180,0.175,-0.055
7.182,0.180,-0.030
7.184,0.040,-0.010
7.186,0.065,0.005
7.188,-0.060,0.010
7.190,-0.040,0.005
7.192,-0.050,-0.005
7.194,0.065,-0.020
7.196,0.100,-0.035
7.198,0.150,-0.050
7.200,0.115,-0.065
7.202,0.125,-0.075
7.204,-0.005,-0.085
7.206,-0.165,-0.095
7.208,-0.110,-0.100
7.210,-0.095,-0.105
7.212,-0.210,-0.110
7.214,0.045,-0.105
7.216,0.010,-0.095
7.218,0.160,-0.085
7.220,0.190,-0.070
7.222,0.085,-0.055
7.224,-0.085,-0.045
7.226,0.000,-0.040
7.228,-0.045,-0.045
7.230,-0.090,-0.060
7.232,-0.085,-0.075
7.234,0.030,-0.090
7.236,0.025,-0.095
7.238,0.095,-0.100
7.240,0.090,-0.090
7.242,0.005,-0.075
7.244,-0.055,-0.060
7.246,0.070,-0.040
7.248,-0.015,-0.025
7.250,-0.025,-0.020
7.252,-0.080,-0.020
7.254,0.005,-0.030
7.256,0.135,-0.040
7.258,0.130,-0.055
7.260,0.225,-0.060
7.262,0.035,-0.060
7.264,-0.010,-0.055
7.266,-0.035,-0.050
7.268,-0.020,-0.040
7.270,-0.030,-0.030
7.272,-0.055,-0.030
7.274,0.075,-0.030
7.276,0.010,-0.035
7.278,0.145,-0.035
7.280,0.225,-0.040
7.282,0.135,-0.035
7.284,0.035,-0.030
7.286,-0.035,-0.015
7.288,-0.015,0.000
7.290,-0.050,0.015
7.292,0.030,0.030
7.294,0.145,0.040
7.296,0.280,0.050
7.298,0.315,0.060
7.300,0.190,0.065
7.302,0.165,0.070
7.304,0.155,0.075
7.306,0.075,0.080
7.308,0.035,0.085
7.310,0.060,0.085
7.312,0.215,0.080
7.314,0.185,0.065
7.316,0.180,0.050
7.318,0.230,0.030
7.320,0.100,0.010
7.322,0.135,-0.005
7.324,0.030,-0.020
7.326,0.005,-0.030
7.328,-0.050,-0.035
7.330,-0.130,-0.035
7.332,-0.090,-0.035
7.334,0.100,-0.035
7.336,0.165,-0.035
7.338,0.160,-0.035
7.340,0.130,-0.035
7.342,-0.015,-0.035
7.344,0.045,-0.035
7.346,-0.030,-0.030
7.348,-0.090,-0.030
7.350,-0.065,-0.030
7.352,-0.025,-0.035
7.354,0.160,-0.040
7.356,0.145,-0.050
7.358,0.085,-0.065
7.360,0.085,-0.075
7.362,0.005,-0.080
7.364,-0.015,-0.080
7.366,-0.100,-0.075
7.368,-0.205,-0.065
7.370,-0.030,-0.055
7.372,0.025,-0.040
7.374,0.020,-0.030
7.376,0.265,-0.025
7.378,0.170,-0.025
7.380,0.075,-0.025
7.382,0.075,-0.030
7.384,-0.005,-0.040
7.386,-0.090,-0.050
7.388,-0.080,-0.060
7.390,-0.115,-0.070
7.392,-0.015,-0.080
7.394,0.070,-0.090
7.396,0.055,-0.100
7.398,0.095,-0.105
7.400,0.205,-0.110
7.402,-0.065,-0.110
7.404,-0.070,-0.100
7.406,-0.275,-0.090
7.408,-0.030,-0.075
7.410,-0.090,-0.060
7.412,-0.060,-0.045
7.414,0.100,-0.040
7.416,0.210,-0.040
7.418,0.295,-0.050
7.420,0.085,-0.060
7.422,-0.010,-0.075
7.424,-0.130,-0.085
7.426,-0.185,-0.090
7.428,-0.160,-0.085
7.430,0.005,-0.075
7.432,0.085,-0.055
7.434,0.040,-0.040
7.436,0.115,-0.025
7.438,0.125,-0.015
7.440,0.240,-0.015
7.442,0.065,-0.020
7.444,0.110,-0.030
7.446,-0.125,-0.035
7.448,-0.155,-0.030
7.450,0.020,-0.010
7.452,0.065,0.030
7.454,0.105,0.090
7.456,0.350,0.170
7.458,0.535,0.270
7.460,0.505,0.375
7.462,0.575,0.480
7.464,0.695,0.580
7.466,0.705,0.660
7.468,0.795,0.720
7.470,0.755,0.745
7.472,0.765,0.745
7.474,0.810,0.710
7.476,0.745,0.645
7.478,0.720,0.560
7.480,0.520,0.460
7.482,0.485,0.355
7.484,0.450,0.245
7.486,0.220,0.150
7.488,0.040,0.070
7.490,-0.155,0.005
7.492,-0.170,-0.040
7.494,-0.035,-0.070
7.496,0.170,-0.085
7.498,0.140,-0.095
7.500,0.085,-0.095
7.502,0.005,-0.100
7.504,-0.060,-0.100
7.506,-0.155,-0.105
7.508,-0.150,-0.105
7.510,-0.180,-0.105
7.512,-0.080,-0.105
7.514,0.060,-0.100
7.516,0.095,-0.095
7.518,0.195,-0.095
7.520,0.105,-0.090
7.522,-0.070,-0.085
7.524,-0.025,-0.090
7.526,-0.170,-0.090
7.528,-0.145,-0.090
7.530,-0.150,-0.090
7.532,-0.055,-0.090
7.534,0.175,-0.080
7.536,0.150,-0.075
7.538,0.110,-0.065
7.540,0.110,-0.050
7.542,0.025,-0.040
7.544,-0.020,-0.035
7.546,-0.145,-0.035
7.548,-0.075,-0.035
7.550,0.055,-0.040
7.552,0.125,-0.050
7.554,-0.045,-0.055
7.556,0.150,-0.060
7.558,0.105,-0.065
7.560,0.085,-0.065
7.562,0.050,-0.060
7.564,0.000,-0.055
7.566,-0.095,-0.050
7.568,-0.085,-0.045
7.570,-0.005,-0.035
7.572,0.090,-0.030
7.574,0.155,-0.025
7.576,0.200,-0.020
7.578,0.175,-0.020
7.580,0.085,-0.025
7.582,0.025,-0.035
7.584,-0.075,-0.045
7.586,-0.095,-0.055
7.588,-0.075,-0.070
7.590,-0.085,-0.080
7.592,-0.040,-0.080
7.594,0.050,-0.080
7.596,0.150,-0.075
7.598,0.230,-0.060
7.600,0.115,-0.050
7.602,-0.010,-0.040
7.604,-0.080,-0.030
7.606,-0.055,-0.030
7.608,-0.050,-0.030
7.610,0.010,-0.040
7.612,-0.005,-0.050
7.614,0.080,-0.060
7.616,0.170,-0.070
7.618,0.240,-0.065
7.620,-0.005,-0.060
7.622,0.040,-0.050
7.624,-0.010,-0.035
7.626,-0.055,-0.020
7.628,-0.035,-0.015
7.630,0.000,-0.010
7.632,0.075,-0.010
7.634,0.200,-0.015
7.636,0.125,-0.020
7.638,0.210,-0.020
7.640,0.140,-0.010
7.642,0.070,0.000
7.644,0.030,0.020
7.646,-0.060,0.045
7.648,0.060,0.065
7.650,0.095,0.085
7.652,0.215,0.095
7.654,0.260,0.090
7.656,0.280,0.085
7.658,0.285,0.070
7.660,0.130,0.055
7.662,0.095,0.045
7.664,0.080,0.045
7.666,0.115,0.060
7.668,0.055,0.080
7.670,0.020,0.110
7.672,0.180,0.140
7.674,0.375,0.170
7.676,0.400,0.190
7.678,0.445,0.200
7.680,0.400,0.200
7.682,0.185,0.190
7.684,0.180,0.180
7.686,0.060,0.165
7.688,0.140,0.160
7.690,0.230,0.160
7.692,0.210,0.170
7.694,0.410,0.185
7.696,0.410,0.205
7.698,0.365,0.225
7.700,0.360,0.250
7.702,0.405,0.265
7.704,0.250,0.280
7.706,0.250,0.285
7.708,0.290,0.285
7.710,0.305,0.275
7.712,0.340,0.265
7.714,0.445,0.250
7.716,0.430,0.235
7.718,0.415,0.220
7.720,0.340,0.205
7.722,0.170,0.200
7.724,0.080,0.195
7.726,0.195,0.200
7.728,0.315,0.200
7.730,0.235,0.200
7.732,0.245,0.195
7.734,0.415,0.185
7.736,0.310,0.160
7.738,0.270,0.135
7.740,0.280,0.100
7.742,0.115,0.070
7.744,-0.015,0.045
7.746,-0.020,0.030
7.748,-0.045,0.025
7.750,0.080,0.030
7.752,0.150,0.045
7.754,0.340,0.065
7.756,0.330,0.080
7.758,0.250,0.090
7.760,0.230,0.095
7.762,0.120,0.085
7.764,-0.060,0.065
7.766,-0.075,0.045
7.768,-0.085,0.020
7.770,0.155,0.000
7.772,0.100,-0.015
7.774,0.235,-0.020
7.776,0.250,-0.015
7.778,0.115,-0.010
7.780,0.070,0.000
7.782,0.035,0.010
7.784,-0.010,0.010
7.786,-0.020,0.010
7.788,0.020,0.000
7.790,0.030,-0.010
7.792,0.070,-0.025
7.794,0.210,-0.040
7.796,0.145,-0.045
7.798,0.065,-0.050
7.800,0.000,-0.055
7.802,0.055,-0.050
7.804,-0.115,-0.050
7.806,-0.065,-0.045
7.808,0.015,-0.045
7.810,0.050,-0.045
7.812,-0.005,-0.050
7.814,0.110,-0.055
7.816,0.270,-0.060
7.818,0.020,-0.065
7.820,0.015,-0.065
7.822,-0.010,-0.065
7.824,-0.115,-0.065
7.826,-0.135,-0.060
7.828,0.020,-0.060
7.830,0.060,-0.060
7.832,0.005,-0.065
7.834,0.100,-0.070
7.836,0.020,-0.080
7.838,0.040,-0.085
7.840,0.140,-0.095
7.842,0.035,-0.095
7.844,-0.190,-0.095
7.846,-0.175,-0.090
7.848,-0.085,-0.085
7.850,-0.005,-0.080
7.852,0.050,-0.070
7.854,0.220,-0.065
7.856,0.120,-0.055
7.858,0.140,-0.050
7.860,0.015,-0.040
7.862,-0.060,-0.030
7.864,-0.155,-0.020
7.866,-0.025,-0.010
7.868,0.095,-0.005
7.870,0.125,0.000
7.872,0.170,-0.005
7.874,0.130,-0.010
7.876,0.110,-0.020
7.878,0.060,-0.030
7.880,0.065,-0.040
7.882,-0.050,-0.050
7.884,-0.085,-0.055
7.886,-0.130,-0.055
7.888,-0.005,-0.050
7.890,0.070,-0.045
7.892,0.180,-0.040
7.894,0.230,-0.040
7.896,0.130,-0.040
7.898,0.040,-0.045
7.900,0.005,-0.050
7.902,-0.060,-0.060
7.904,-0.085,-0.060
7.906,-0.060,-0.060
7.908,0.045,-0.055
7.910,0.005,-0.045
7.912,0.140,-0.040
7.914,0.280,-0.035
7.916,0.200,-0.035
7.918,-0.020,-0.045
7.920,-0.045,-0.055
7.922,-0.120,-0.075
7.924,-0.165,-0.090
7.926,-0.130,-0.105
7.928,-0.045,-0.110
7.930,0.080,-0.105
7.932,0.185,-0.090
7.934,0.200,-0.070
7.936,0.165,-0.050
7.938,0.100,-0.030
7.940,-0.075,-0.020
7.942,-0.225,-0.020
7.944,0.045,-0.025
7.946,0.050,-0.040
7.948,-0.070,-0.055
7.950,-0.015,-0.065
7.952,0.130,-0.075
7.954,0.155,-0.070
7.956,0.170,-0.060
7.958,0.010,-0.045
7.960,0.065,-0.025
7.962,-0.085,-0.010
7.964,0.005,0.000
7.966,-0.015,0.000
7.968,0.100,-0.005
7.970,0.040,-0.015
7.972,0.145,-0.025
7.974,0.210,-0.030
7.976,0.160,-0.030
7.978,0.065,-0.030
7.980,0.115,-0.025
7.982,-0.090,-0.015
7.984,-0.075,-0.010
7.986,-0.070,-0.010
7.988,0.060,-0.015
7.990,0.085,-0.020
7.992,0.185,-0.030
7.994,0.165,-0.040
7.996,0.185,-0.045
7.998,0.120,-0.050
8.000,-0.025,-0.050
8.002,-0.095,-0.050
8.004,-0.060,-0.050
8.006,-0.140,-0.050
8.008,0.000,-0.050
8.010,0.115,-0.050
8.012,0.185,-0.050
8.014,0.170,-0.050
8.016,0.085,-0.050
8.018,0.020,-0.050
8.020,0.045,-0.045
8.022,-0.095,-0.045
8.024,-0.140,-0.050
8.026,-0.045,-0.055
8.028,0.105,-0.060
8.030,0.045,-0.065
8.032,0.130,-0.070
8.034,0.120,-0.075
8.036,0.045,-0.070
8.038,0.055,-0.065
8.040,-0.055,-0.060
8.042,-0.050,-0.055
8.044,-0.085,-0.055
8.046,-0.080,-0.065
8.048,-0.035,-0.075
8.050,-0.055,-0.090
8.052,0.110,-0.100
8.054,0.185,-0.110
8.056,0.105,-0.110
8.058,-0.040,-0.095
8.060,-0.020,-0.075
8.062,-0.170,-0.050
8.064,-0.035,-0.025
8.066,-0.030,0.000
8.068,0.045,0.010
8.070,0.205,0.015
8.072,0.230,0.010
8.074,0.255,0.000
8.076,0.095,-0.015
8.078,-0.010,-0.030
8.080,0.015,-0.040
8.082,-0.040,-0.045
8.084,-0.070,-0.045
8.086,-0.020,-0.045
8.088,-0.035,-0.050
8.090,0.035,-0.050
8.092,0.205,-0.055
8.094,0.240,-0.065
8.096,0.035,-0.075
8.098,0.015,-0.080
8.100,-0.045,-0.080
8.102,-0.100,-0.080
8.104,-0.035,-0.075
8.106,-0.060,-0.065
8.108,0.005,-0.060
8.110,0.070,-0.055
8.112,0.155,-0.055
8.114,0.075,-0.060
8.116,0.060,-0.070
8.118,0.150,-0.080
8.120,0.015,-0.090
8.122,-0.180,-0.095
8.124,-0.220,-0.100
8.126,-0.185,-0.095
8.128,0.075,-0.090
8.130,0.060,-0.075
8.132,0.170,-0.060
8.134,0.210,-0.045
8.136,0.075,-0.030
8.138,0.160,-0.020
8.140,0.035,-0.010
8.142,-0.105,-0.005
8.144,-0.050,-0.010
8.146,0.045,-0.015
8.148,-0.025,-0.020
8.150,0.125,-0.030
8.152,0.195,-0.045
8.154,0.185,-0.055
8.156,0.075,-0.060
8.158,0.015,-0.065
8.160,-0.015,-0.065
8.162,-0.105,-0.065
8.164,-0.075,-0.060
8.166,-0.175,-0.050
8.168,0.140,-0.045
8.170,0.140,-0.030
8.172,0.160,-0.015
8.174,0.210,0.000
8.176,0.140,0.025
8.178,0.160,0.045
8.180,0.085,0.070
8.182,0.000,0.090
8.184,0.135,0.105
8.186,0.145,0.110
8.188,0.215,0.105
8.190,0.215,0.090
8.192,0.280,0.070
8.194,0.320,0.045
8.196,0.160,0.025
8.198,0.095,0.005
8.200,0.055,-0.010
8.202,-0.070,-0.015
8.204,-0.080,-0.015
8.206,-0.045,-0.010
8.208,0.180,-0.005
8.210,0.170,0.005
8.212,0.255,0.010
8.214,0.215,0.010
8.216,0.090,0.010
8.218,0.100,0.005
8.220,0.000,0.000
8.222,-0.060,-0.010
8.224,-0.120,-0.015
8.226,0.020,-0.020
8.228,0.085,-0.030
8.230,0.190,-0.035
8.232,0.195,-0.040
8.234,0.135,-0.045
8.236,0.060,-0.055
8.238,-0.065,-0.065
8.240,-0.060,-0.070
8.242,-0.120,-0.080
8.244,-0.140,-0.090
8.246,-0.075,-0.100
8.248,0.005,-0.110
8.250,0.135,-0.115
8.252,0.075,-0.115
8.254,0.120,-0.115
8.256,0.015,-0.105
8.258,-0.045,-0.100
8.260,-0.150,-0.090
8.262,-0.105,-0.080
8.264,-0.115,-0.070
8.266,0.040,-0.070
8.268,0.070,-0.065
8.270,0.110,-0.070
8.272,0.055,-0.070
8.274,0.110,-0.075
8.276,0.095,-0.075
8.278,-0.005,-0.075
8.280,-0.055,-0.075
8.282,-0.085,-0.075
8.284,-0.065,-0.075
8.286,0.015,-0.070
8.288,0.095,-0.070
8.290,0.090,-0.065
8.292,0.130,-0.060
8.294,0.180,-0.060
8.296,-0.005,-0.055
8.298,0.005,-0.055
8.300,-0.055,-0.060
8.302,-0.010,-0.070
8.304,-0.035,-0.080
8.306,-0.065,-0.095
8.308,-0.035,-0.105
8.310,0.045,-0.115
8.312,0.035,-0.115
8.314,0.045,-0.110
8.316,0.010,-0.095
8.318,0.040,-0.075
8.320,-0.040,-0.055
8.322,-0.045,-0.035
8.324,0.095,-0.025
8.326,0.020,-0.020
8.328,-0.020,-0.025
8.330,0.160,-0.030
8.332,0.230,-0.025
8.334,0.080,-0.005
8.336,0.150,0.035
8.338,0.170,0.100
8.340,0.195,0.190
8.342,0.345,0.300
8.344,0.460,0.415
8.346,0.595,0.530
8.348,0.770,0.625
8.350,0.975,0.700
8.352,0.950,0.740
8.354,0.995,0.745
8.356,0.805,0.720
8.358,0.770,0.670
8.360,0.545,0.595
8.362,0.395,0.505
8.364,0.510,0.405
8.366,0.380,0.305
8.368,0.350,0.200
8.370,0.395,0.105
8.372,0.160,0.020
8.374,-0.050,-0.050
8.376,-0.060,-0.100
8.378,-0.100,-0.135
8.380,-0.080,-0.145
8.382,-0.190,-0.140
8.384,-0.070,-0.125
8.386,0.050,-0.105
8.388,0.010,-0.080
8.390,0.115,-0.060
8.392,0.170,-0.050
8.394,0.115,-0.045
8.396,0.145,-0.045
8.398,-0.035,-0.050
8.400,-0.215,-0.060
8.402,0.005,-0.065
8.404,-0.060,-0.065
8.406,-0.020,-0.065
8.408,0.115,-0.065
8.410,0.105,-0.060
8.412,0.160,-0.060
8.414,0.135,-0.060
8.416,-0.060,-0.060
8.418,0.055,-0.065
8.420,-0.065,-0.070
8.422,-0.155,-0.075
8.424,-0.100,-0.080
8.426,0.045,-0.085
8.428,0.030,-0.085
8.430,0.155,-0.085
8.432,0.060,-0.080
8.434,0.180,-0.075
8.436,0.050,-0.065
8.438,-0.015,-0.050
8.440,-0.085,-0.035
8.442,-0.125,-0.025
8.444,0.005,-0.020
8.446,0.055,-0.015
8.448,0.180,-0.020
8.450,0.205,-0.030
8.452,0.145,-0.050
8.454,0.050,-0.065
8.456,0.030,-0.080
8.458,-0.020,-0.095
8.460,-0.040,-0.100
8.462,-0.240,-0.100
8.464,-0.075,-0.090
8.466,0.045,-0.080
8.468,0.090,-0.070
8.470,0.145,-0.060
8.472,0.210,-0.055
8.474,0.110,-0.050
8.476,0.055,-0.050
8.478,-0.020,-0.050
8.480,-0.105,-0.055
8.482,-0.195,-0.055
8.484,-0.050,-0.050
8.486,0.130,-0.050
8.488,0.155,-0.045
8.490,0.150,-0.040
8.492,0.185,-0.035
8.494,0.105,-0.025
8.496,0.055,-0.020
8.498,0.090,-0.010
8.500,-0.040,0.000
8.502,0.005,0.010
8.504,0.070,0.020
8.506,0.055,0.025
8.508,0.195,0.030
8.510,0.300,0.030
8.512,0.270,0.020
8.514,0.155,0.015
8.516,0.055,0.005
8.518,-0.070,-0.005
8.520,-0.045,-0.005
8.522,0.035,-0.005
8.524,-0.005,0.005
8.526,0.155,0.020
8.528,0.225,0.035
8.530,0.245,0.050
8.532,0.320,0.055
8.534,0.215,0.060
8.536,0.080,0.050
8.538,0.010,0.040
8.540,-0.090,0.025
8.542,0.010,0.015
8.544,0.050,0.010
8.546,0.150,0.015
8.548,0.255,0.030
8.550,0.325,0.050
8.552,0.305,0.075
8.554,0.230,0.105
8.556,0.235,0.130
8.558,0.155,0.155
8.560,0.070,0.165
8.562,0.225,0.175
8.564,0.215,0.175
8.566,0.215,0.170
8.568,0.355,0.165
8.570,0.395,0.165
8.572,0.325,0.170
8.574,0.360,0.175
8.576,0.335,0.190
8.578,0.240,0.210
8.580,0.115,0.225
8.582,0.215,0.245
8.584,0.295,0.260
8.586,0.365,0.270
8.588,0.490,0.280
8.590,0.580,0.280
8.592,0.525,0.275
8.594,0.335,0.270
8.596,0.445,0.260
8.598,0.185,0.250
8.600,0.130,0.240
8.602,0.150,0.230
8.604,0.265,0.225
8.606,0.370,0.220
8.608,0.470,0.215
8.610,0.540,0.210
8.612,0.415,0.205
8.614,0.350,0.200
8.616,0.255,0.190
8.618,0.115,0.175
8.620,0.065,0.155
8.622,0.190,0.135
8.624,0.165,0.110
8.626,0.160,0.090
8.628,0.265,0.075
8.630,0.395,0.060
8.632,0.215,0.055
8.634,0.180,0.050
8.636,0.175,0.045
8.638,0.025,0.045
8.640,-0.020,0.040
8.642,0.020,0.035
8.644,0.110,0.025
8.646,0.135,0.015
8.648,0.215,0.005
8.650,0.225,-0.005
8.652,0.160,-0.010
8.654,0.160,-0.015
8.656,-0.015,-0.020
8.658,-0.090,-0.020
8.660,0.045,-0.020
8.662,-0.040,-0.020
8.664,0.095,-0.020
8.666,0.025,-0.025
8.668,0.210,-0.025
8.670,0.245,-0.030
8.672,0.165,-0.030
8.674,0.065,-0.030
8.676,0.010,-0.025
8.678,-0.060,-0.025
8.680,0.015,-0.025
8.682,-0.015,-0.025
8.684,0.050,-0.030
8.686,0.005,-0.035
8.688,0.190,-0.045
8.690,0.120,-0.050
8.692,0.230,-0.050
8.694,0.030,-0.055
8.696,0.040,-0.050
8.698,-0.075,-0.050
8.700,-0.135,-0.045
8.702,-0.060,-0.045
8.704,0.050,-0.050
8.706,0.075,-0.060
8.708,0.210,-0.070
8.710,0.265,-0.085
8.712,0.035,-0.100
8.714,-0.080,-0.110
8.716,-0.145,-0.115
8.718,-0.125,-0.110
8.720,-0.060,-0.095
8.722,-0.045,-0.080
8.724,-0.010,-0.060
8.726,0.050,-0.045
8.728,0.280,-0.030
8.730,0.150,-0.020
8.732,0.115,-0.015
8.734,0.120,-0.020
8.736,0.045,-0.025
8.738,-0.110,-0.035
8.740,-0.195,-0.045
8.742,-0.015,-0.055
8.744,0.215,-0.065
8.746,0.060,-0.070
8.748,0.160,-0.075
8.750,0.050,-0.075
8.752,0.045,-0.070
8.754,0.090,-0.065
8.756,0.060,-0.055
8.758,-0.095,-0.050
8.760,-0.030,-0.045
8.762,0.025,-0.040
8.764,0.015,-0.045
8.766,0.120,-0.050
8.768,0.115,-0.055
8.770,0.145,-0.060
8.772,0.085,-0.065
8.774,0.055,-0.065
8.776,0.030,-0.060
8.778,-0.055,-0.055
8.780,-0.100,-0.045
8.782,-0.010,-0.035
8.784,0.025,-0.030
8.786,0.165,-0.030
8.788,0.180,-0.035
8.790,0.150,-0.045
8.792,0.045,-0.055
8.794,0.045,-0.065
8.796,-0.035,-0.075
8.798,-0.110,-0.075
8.800,-0.050,-0.070
8.802,-0.045,-0.060
8.804,0.015,-0.045
8.806,0.190,-0.035
8.808,0.225,-0.020
8.810,0.145,-0.010
8.812,0.140,-0.010
8.814,0.075,-0.010
8.816,0.020,-0.020
8.818,-0.030,-0.030
8.820,-0.010,-0.040
8.822,-0.065,-0.045
8.824,0.060,-0.050
8.826,0.215,-0.050
8.828,0.110,-0.045
8.830,0.070,-0.040
8.832,0.155,-0.030
8.834,0.115,-0.020
8.836,0.065,-0.010
8.838,-0.045,-0.005
8.840,0.000,-0.005
8.842,0.075,-0.010
8.844,0.135,-0.015
8.846,0.135,-0.020
8.848,0.185,-0.025
8.850,0.110,-0.030
8.852,0.095,-0.035
8.854,0.100,-0.030
8.856,-0.015,-0.030
8.858,0.035,-0.025
8.860,-0.035,-0.025
8.862,-0.030,-0.025
8.864,0.085,-0.030
8.866,0.145,-0.035
8.868,0.120,-0.045
8.870,0.095,-0.050
8.872,0.140,-0.055
8.874,-0.035,-0.055
8.876,-0.010,-0.050
8.878,0.040,-0.040
8.880,0.020,-0.030
8.882,0.020,-0.025
8.884,0.015,-0.025
8.886,0.075,-0.030
8.888,0.185,-0.040
8.890,0.185,-0.055
8.892,0.080,-0.070
8.894,-0.030,-0.085
8.896,-0.120,-0.095
8.898,-0.120,-0.095
8.900,-0.055,-0.090
8.902,0.060,-0.075
8.904,0.015,-0.055
8.906,0.125,-0.035
8.908,0.250,-0.020
8.910,0.260,-0.015
8.912,0.135,-0.010
8.914,-0.010,-0.020
8.916,-0.060,-0.030
8.918,-0.090,-0.040
8.920,-0.035,-0.050
8.922,0.010,-0.060
8.924,0.110,-0.060
8.926,0.140,-0.060
8.928,0.175,-0.055
8.930,0.095,-0.045
8.932,0.140,-0.035
8.934,0.025,-0.030
8.936,-0.090,-0.025
8.938,-0.015,-0.020
8.940,-0.015,-0.020
8.942,0.045,-0.025
8.944,0.105,-0.025
8.946,0.230,-0.025
8.948,0.175,-0.030
8.950,0.170,-0.030
8.952,0.135,-0.030
8.954,0.000,-0.035
8.956,-0.085,-0.040
8.958,-0.045,-0.050
8.960,-0.090,-0.060
8.962,-0.005,-0.070
8.964,0.085,-0.080
8.966,0.185,-0.085
8.968,0.120,-0.085
8.970,0.115,-0.080
8.972,0.075,-0.065
8.974,0.030,-0.055
8.976,-0.075,-0.040
8.978,0.025,-0.030
8.980,-0.060,-0.025
8.982,-0.005,-0.025
8.984,0.090,-0.040
8.986,0.145,-0.055
8.988,0.110,-0.075
8.990,0.180,-0.095
8.992,-0.020,-0.110
8.994,-0.040,-0.115
8.996,-0.080,-0.115
8.998,-0.095,-0.105
9.000,-0.060,-0.085
9.002,0.005,-0.070
9.004,0.095,-0.050
9.006,0.185,-0.035
9.008,0.255,-0.025
9.010,0.185,-0.020
9.012,0.090,-0.020
9.014,-0.070,-0.025
9.016,-0.010,-0.035
9.018,-0.085,-0.040
9.020,-0.035,-0.045
9.022,-0.020,-0.050
9.024,0.160,-0.045
9.026,0.250,-0.035
9.028,0.225,-0.025
9.030,0.105,-0.010
9.032,0.125,0.005
9.034,0.110,0.025
9.036,0.000,0.035
9.038,0.015,0.045
9.040,-0.030,0.055
9.042,0.205,0.055
9.044,0.270,0.060
9.046,0.345,0.055
9.048,0.245,0.055
9.050,0.230,0.055
9.052,0.110,0.055
9.054,0.095,0.055
9.056,0.085,0.050
9.058,0.065,0.050
9.060,0.040,0.050
9.062,0.075,0.045
9.064,0.140,0.040
9.066,0.235,0.040
9.068,0.250,0.040
9.070,0.310,0.040
9.072,0.215,0.045
9.074,0.075,0.045
9.076,-0.015,0.040
9.078,-0.100,0.030
9.080,0.070,0.015
9.082,0.025,-0.005
9.084,0.120,-0.030
9.086,0.225,-0.055
9.088,0.185,-0.080
9.090,0.105,-0.100
9.092,-0.075,-0.110
9.094,-0.130,-0.115
9.096,-0.115,-0.110
9.098,-0.140,-0.100
9.100,-0.005,-0.090
9.102,-0.020,-0.080
9.104,0.095,-0.070
9.106,0.220,-0.065
9.108,0.195,-0.065
9.110,0.085,-0.070
9.112,-0.025,-0.075
9.114,-0.115,-0.075
9.116,-0.050,-0.080
9.118,-0.150,-0.075
9.120,0.010,-0.070
9.122,0.140,-0.065
9.124,0.110,-0.060
9.126,0.180,-0.055
9.128,0.150,-0.050
9.130,0.065,-0.055
9.132,-0.060,-0.060
9.134,-0.030,-0.070
9.136,-0.010,-0.085
9.138,-0.150,-0.100
9.140,-0.055,-0.110
9.142,0.075,-0.120
9.144,0.015,-0.125
9.146,0.040,-0.120
9.148,0.120,-0.110
9.150,0.090,-0.095
9.152,0.005,-0.075
9.154,-0.025,-0.055
9.156,-0.035,-0.045
9.158,-0.020,-0.035
9.160,-0.070,-0.040
9.162,0.030,-0.050
9.164,0.165,-0.065
9.166,0.240,-0.080
9.168,0.160,-0.095
9.170,0.035,-0.100
9.172,0.005,-0.095
9.174,-0.175,-0.080
9.176,-0.120,-0.055
9.178,-0.105,-0.030
9.180,0.065,-0.005
9.182,0.160,0.015
9.184,0.290,0.020
9.186,0.325,0.015
9.188,0.285,0.005
9.190,0.070,-0.010
9.192,-0.095,-0.020
9.194,-0.070,-0.015
9.196,-0.015,0.010
9.198,0.075,0.060
9.200,0.165,0.130
9.202,0.340,0.215
9.204,0.575,0.310
9.206,0.755,0.410
9.208,0.765,0.495
9.210,0.735,0.565
9.212,0.785,0.605
9.214,0.510,0.615
9.216,0.575,0.595
9.218,0.570,0.545
9.220,0.425,0.470
9.222,0.500,0.375
9.224,0.430,0.275
9.226,0.525,0.170
9.228,0.490,0.070
9.230,0.065,-0.010
9.232,-0.155,-0.075
9.234,-0.360,-0.120
9.236,-0.220,-0.145
9.238,-0.085,-0.150
9.240,-0.025,-0.140
9.242,0.020,-0.120
9.244,0.150,-0.100
9.246,0.205,-0.075
9.248,0.175,-0.055
9.250,0.050,-0.045
9.252,0.055,-0.040
9.254,-0.095,-0.040
9.256,-0.165,-0.045
9.258,-0.080,-0.055
9.260,0.095,-0.065
9.262,0.110,-0.070
9.264,0.115,-0.075
9.266,0.090,-0.080
9.268,0.200,-0.075
9.270,0.100,-0.065
9.272,-0.065,-0.055
9.274,-0.090,-0.045
9.276,-0.120,-0.040
9.278,0.050,-0.040
9.280,0.005,-0.045
9.282,0.040,-0.055
9.284,0.105,-0.075
9.286,0.200,-0.100
9.288,0.125,-0.120
9.290,0.045,-0.140
9.292,-0.005,-0.150
9.294,-0.295,-0.150
9.296,-0.260,-0.135
9.298,-0.135,-0.110
9.300,0.110,-0.080
9.302,0.030,-0.050
9.304,0.290,-0.025
9.306,0.250,-0.005
9.308,0.245,0.005
9.310,0.180,0.000
9.312,0.110,-0.010
9.314,-0.195,-0.025
9.316,-0.075,-0.040
9.318,0.015,-0.055
9.320,0.000,-0.065
9.322,-0.010,-0.070
9.324,0.215,-0.070
9.326,0.310,-0.065
9.328,0.090,-0.060
9.330,-0.035,-0.055
9.332,0.065,-0.050
9.334,-0.095,-0.045
9.336,-0.100,-0.040
9.338,-0.075,-0.035
9.340,0.075,-0.030
9.342,0.295,-0.025
9.344,0.185,-0.020
9.346,0.155,-0.015
9.348,0.175,-0.015
9.350,0.100,-0.015
9.352,0.050,-0.020
9.354,-0.110,-0.020
9.356,-0.060,-0.020
9.358,0.105,-0.015
9.360,0.075,-0.010
9.362,0.125,0.000
9.364,0.235,0.010
9.366,0.300,0.020
9.368,0.215,0.030
9.370,0.105,0.030
9.372,0.105,0.030
9.374,-0.005,0.025
9.376,-0.085,0.015
9.378,0.010,0.005
9.380,0.135,-0.005
9.382,0.225,-0.015
9.384,0.240,-0.020
9.386,0.230,-0.015
9.388,0.160,-0.015
9.390,0.120,-0.005
9.392,-0.075,0.005
9.394,-0.050,0.015
9.396,0.055,0.025
9.398,0.100,0.040
9.400,0.160,0.050
9.402,0.250,0.065
9.404,0.360,0.080
9.406,0.290,0.095
9.408,0.245,0.110
9.410,0.300,0.120
9.412,0.250,0.130
9.414,0.015,0.140
9.416,0.150,0.145
9.418,0.225,0.150
9.420,0.290,0.155
9.422,0.270,0.165
9.424,0.325,0.170
9.426,0.465,0.175
9.428,0.395,0.185
9.430,0.275,0.195
9.432,0.285,0.205
9.434,0.165,0.215
9.436,0.195,0.220
9.438,0.290,0.230
9.440,0.320,0.240
9.442,0.350,0.245
9.444,0.525,0.250
9.446,0.570,0.255
9.448,0.435,0.260
9.450,0.370,0.265
9.452,0.230,0.270
9.454,0.270,0.275
9.456,0.310,0.280
9.458,0.330,0.280
9.460,0.340,0.280
9.462,0.485,0.280
9.464,0.520,0.270
9.466,0.430,0.255
9.468,0.370,0.235
9.470,0.315,0.210
9.472,0.220,0.190
9.474,0.125,0.165
9.476,0.150,0.150
9.478,0.190,0.140
9.480,0.265,0.135
9.482,0.350,0.140
9.484,0.330,0.145
9.486,0.415,0.145
9.488,0.310,0.145
9.490,0.225,0.135
9.492,0.115,0.115
9.494,0.045,0.085
9.496,0.085,0.055
9.498,0.080,0.020
9.500,-0.015,-0.005
9.502,0.175,-0.025
9.504,0.280,-0.035
9.506,0.200,-0.030
9.508,0.100,-0.015
9.510,0.080,0.000
9.512,0.000,0.015
9.514,0.080,0.025
9.516,-0.005,0.030
9.518,0.045,0.020
9.520,0.140,0.005
9.522,0.175,-0.015
9.524,0.175,-0.040
9.526,0.125,-0.060
9.528,0.110,-0.070
9.530,0.005,-0.075
9.532,-0.120,-0.070
9.534,-0.050,-0.060
9.536,0.010,-0.045
9.538,0.025,-0.035
9.540,0.015,-0.025
9.542,0.185,-0.020
9.544,0.220,-0.025
9.546,0.270,-0.030
9.548,0.160,-0.040
9.550,0.090,-0.050
9.552,-0.120,-0.065
9.554,-0.165,-0.075
9.556,-0.085,-0.085
9.558,0.020,-0.090
9.560,0.005,-0.095
9.562,0.180,-0.100
9.564,0.115,-0.100
9.566,0.080,-0.095
9.568,0.060,-0.090
9.570,-0.035,-0.080
9.572,-0.060,-0.065
9.574,-0.045,-0.055
9.576,0.015,-0.045
9.578,0.030,-0.035
9.580,0.130,-0.030
9.582,0.170,-0.030
9.584,0.165,-0.040
9.586,0.200,-0.050
9.588,0.030,-0.065
9.590,-0.080,-0.075
9.592,-0.070,-0.085
9.594,-0.020,-0.085
9.596,-0.125,-0.085
9.598,0.055,-0.075
9.600,0.045,-0.065
9.602,0.165,-0.050
9.604,0.240,-0.045
9.606,0.190,-0.040
9.608,0.075,-0.040
9.610,0.065,-0.045
9.612,-0.190,-0.050
9.614,-0.155,-0.060
9.616,0.000,-0.065
9.618,0.215,-0.065
9.620,0.020,-0.065
9.622,0.230,-0.065
9.624,0.170,-0.060
9.626,0.095,-0.060
9.628,0.005,-0.065
9.630,0.000,-0.070
9.632,-0.020,-0.075
9.634,-0.025,-0.080
9.636,-0.160,-0.085
9.638,0.025,-0.085
9.640,-0.025,-0.080
9.642,0.210,-0.070
9.644,0.270,-0.055
9.646,0.185,-0.045
9.648,0.030,-0.035
9.650,-0.035,-0.035
9.652,-0.090,-0.035
9.654,-0.025,-0.045
9.656,0.000,-0.055
9.658,0.090,-0.070
9.660,0.045,-0.080
9.662,0.140,-0.085
9.664,0.160,-0.090
9.666,0.085,-0.085
9.668,0.040,-0.080
9.670,-0.010,-0.075
9.672,-0.045,-0.065
9.674,-0.025,-0.055
9.676,-0.040,-0.045
9.678,0.080,-0.035
9.680,0.170,-0.030
9.682,0.175,-0.020
9.684,0.225,-0.010
9.686,0.155,-0.005
9.688,0.120,0.005
9.690,0.050,0.005
9.692,0.000,0.010
9.694,-0.030,0.005
9.696,0.055,0.000
9.698,0.090,-0.005
9.700,0.115,-0.015
9.702,0.225,-0.025
9.704,0.060,-0.040
9.706,0.290,-0.045
9.708,0.090,-0.055
9.710,0.045,-0.060
9.712,-0.175,-0.060
9.714,-0.155,-0.060
9.716,-0.020,-0.060
9.718,0.115,-0.060
9.720,0.135,-0.060
9.722,0.245,-0.060
9.724,0.185,-0.065
9.726,0.085,-0.070
9.728,-0.100,-0.075
9.730,-0.115,-0.085
9.732,-0.060,-0.090
9.734,-0.110,-0.095
9.736,0.065,-0.095
9.738,0.005,-0.095
9.740,0.070,-0.090
9.742,0.260,-0.080
9.744,0.050,-0.075
9.746,0.135,-0.065
9.748,0.105,-0.055
9.750,-0.080,-0.050
9.752,-0.060,-0.050
9.754,-0.070,-0.050
9.756,-0.050,-0.050
9.758,0.015,-0.050
9.760,0.190,-0.050
9.762,0.225,-0.050
9.764,0.185,-0.050
9.766,0.110,-0.045
9.768,-0.020,-0.040
9.770,-0.040,-0.035
9.772,-0.050,-0.030
9.774,-0.030,-0.025
9.776,0.070,-0.025
9.778,0.105,-0.030
9.780,0.280,-0.035
9.782,0.165,-0.035
9.784,0.185,-0.040
9.786,0.145,-0.040
9.788,-0.015,-0.035
9.790,-0.195,-0.035
9.792,0.025,-0.030
9.794,0.080,-0.025
9.796,0.110,-0.025
9.798,0.045,-0.030
9.800,0.140,-0.040
9.802,0.205,-0.055
9.804,0.235,-0.070
9.806,0.020,-0.085
9.808,-0.055,-0.100
9.810,-0.060,-0.105
9.812,-0.085,-0.105
9.814,-0.050,-0.100
9.816,-0.110,-0.095
9.818,0.080,-0.080
9.820,0.180,-0.065
9.822,0.190,-0.050
9.824,0.135,-0.030
9.826,0.125,-0.015
9.828,0.140,0.000
9.830,-0.010,0.015
9.832,0.085,0.025
9.834,-0.025,0.035
9.836,0.110,0.035
9.838,0.135,0.035
9.840,0.340,0.025
9.842,0.290,0.010
9.844,0.155,-0.010
9.846,0.110,-0.025
9.848,-0.045,-0.030
9.850,-0.110,-0.030
9.852,-0.005,-0.020
9.854,0.080,0.000
9.856,0.090,0.025
9.858,0.215,0.055
9.860,0.405,0.075
9.862,0.335,0.090
9.864,0.285,0.095
9.866,0.110,0.090
9.868,0.135,0.070
9.870,0.055,0.045
9.872,-0.005,0.015
9.874,-0.045,-0.010
9.876,0.065,-0.030
9.878,0.070,-0.040
9.880,0.270,-0.040
9.882,0.330,-0.035
9.884,0.110,-0.030
9.886,0.060,-0.030
9.888,0.055,-0.030
9.890,-0.070,-0.035
9.892,-0.020,-0.050
9.894,-0.020,-0.065
9.896,-0.070,-0.085
9.898,-0.060,-0.100
9.900,0.235,-0.115
9.902,0.110,-0.120
9.904,-0.030,-0.115
9.906,0.050,-0.105
9.908,0.060,-0.090
9.910,-0.075,-0.075
9.912,-0.070,-0.060
9.914,0.060,-0.050
9.916,0.005,-0.045
9.918,0.055,-0.050
9.920,0.145,-0.065
9.922,0.145,-0.085
9.924,0.025,-0.105
9.926,0.020,-0.130
9.928,-0.005,-0.145
9.930,-0.100,-0.150
9.932,-0.180,-0.150
9.934,-0.175,-0.135
9.936,-0.120,-0.115
9.938,0.040,-0.090
9.940,0.275,-0.065
9.942,0.225,-0.040
9.944,0.180,-0.030
9.946,0.080,-0.025
9.948,-0.045,-0.025
9.950,-0.005,-0.035
9.952,-0.080,-0.050
9.954,-0.030,-0.060
9.956,0.030,-0.070
9.958,0.110,-0.075
9.960,0.175,-0.075
9.962,0.165,-0.075
9.964,0.135,-0.070
9.966,0.045,-0.065
9.968,0.040,-0.065
9.970,-0.105,-0.065
9.972,-0.175,-0.065
9.974,-0.060,-0.070
9.976,0.060,-0.070
9.978,0.205,-0.065
9.980,0.205,-0.055
9.982,0.215,-0.045
9.984,0.180,-0.035
9.986,0.020,-0.025
9.988,0.055,-0.020
9.990,-0.075,-0.010
9.992,-0.080,0.000
9.994,0.165,0.020
9.996,0.180,0.055
9.998,0.215,0.105
