'Elapsed time','ECG I','ECG I filtered'
'seconds','mV','mV'
0.000,0.365,-0.020
0.002,0.470,-0.005
0.004,0.490,0.000
0.006,0.475,0.000
0.008,0.425,-0.005
0.010,0.325,-0.025
0.012,0.220,-0.040
0.014,0.205,-0.060
0.016,0.220,-0.070
0.018,0.280,-0.070
0.020,0.395,-0.060
0.022,0.490,-0.045
0.024,0.500,-0.025
0.026,0.505,-0.005
0.028,0.440,0.005
0.030,0.325,0.005
0.032,0.235,0.000
0.034,0.210,-0.010
0.036,0.245,-0.020
0.038,0.325,-0.035
0.040,0.425,-0.040
0.042,0.490,-0.040
0.044,0.500,-0.035
0.046,0.485,-0.025
0.048,0.420,-0.015
0.050,0.310,-0.010
0.052,0.235,-0.005
0.054,0.220,-0.005
0.056,0.240,-0.010
0.058,0.310,-0.015
0.060,0.430,-0.025
0.062,0.485,-0.030
0.064,0.515,-0.035
0.066,0.495,-0.040
0.068,0.435,-0.035
0.070,0.305,-0.035
0.072,0.235,-0.030
0.074,0.220,-0.025
0.076,0.255,-0.020
0.078,0.300,-0.015
0.080,0.445,-0.015
0.082,0.495,-0.015
0.084,0.515,-0.015
0.086,0.490,-0.015
0.088,0.420,-0.010
0.090,0.295,-0.010
0.092,0.240,-0.010
0.094,0.220,-0.005
0.096,0.245,-0.005
0.098,0.315,-0.005
0.100,0.445,-0.005
0.102,0.505,-0.010
0.104,0.520,-0.015
0.106,0.490,-0.020
0.108,0.420,-0.020
0.110,0.290,-0.025
0.112,0.230,-0.025
0.114,0.215,-0.020
0.116,0.250,-0.015
0.118,0.320,-0.010
0.120,0.455,-0.010
0.122,0.505,-0.005
0.124,0.515,-0.010
0.126,0.485,-0.010
0.128,0.415,-0.015
0.130,0.270,-0.020
0.132,0.225,-0.025
0.134,0.230,-0.030
0.136,0.260,-0.030
0.138,0.335,-0.030
0.140,0.465,-0.025
0.142,0.495,-0.020
0.144,0.525,-0.020
0.146,0.485,-0.020
0.148,0.420,-0.020
0.150,0.285,-0.025
0.152,0.235,-0.025
0.154,0.225,-0.025
0.156,0.255,-0.025
0.158,0.325,-0.020
0.160,0.470,-0.020
0.162,0.520,-0.015
0.164,0.530,-0.010
0.166,0.490,-0.005
0.168,0.415,-0.005
0.170,0.275,-0.005
0.172,0.240,-0.005
0.174,0.235,-0.010
0.176,0.280,-0.010
0.178,0.355,-0.010
0.180,0.485,-0.010
0.182,0.515,-0.005
0.184,0.535,0.000
0.186,0.475,0.000
0.188,0.395,0.005
0.190,0.275,0.005
0.192,0.235,0.005
0.194,0.230,0.000
0.196,0.280,-0.005
0.198,0.375,-0.005
0.200,0.505,-0.010
0.202,0.530,-0.015
0.204,0.540,-0.015
0.206,0.490,-0.010
0.208,0.405,-0.005
0.210,0.295,0.005
0.212,0.260,0.015
0.214,0.265,0.025
0.216,0.335,0.035
0.218,0.425,0.045
0.220,0.555,0.050
0.222,0.580,0.050
0.224,0.570,0.045
0.226,0.505,0.040
0.228,0.415,0.030
0.230,0.275,0.020
0.232,0.250,0.010
0.234,0.240,0.000
0.236,0.305,-0.010
0.238,0.395,-0.015
0.240,0.500,-0.015
0.242,0.515,-0.015
0.244,0.500,-0.015
0.246,0.450,-0.015
0.248,0.350,-0.020
0.250,0.245,-0.020
0.252,0.220,-0.020
0.254,0.225,-0.025
0.256,0.285,-0.030
0.258,0.385,-0.030
0.260,0.490,-0.035
0.262,0.515,-0.030
0.264,0.515,-0.030
0.266,0.455,-0.030
0.268,0.355,-0.025
0.270,0.245,-0.020
0.272,0.225,-0.020
0.274,0.215,-0.015
0.276,0.285,-0.015
0.278,0.395,-0.015
0.280,0.490,-0.015
0.282,0.515,-0.015
0.284,0.500,-0.015
0.286,0.440,-0.015
0.288,0.335,-0.015
0.290,0.240,-0.015
0.292,0.215,-0.015
0.294,0.230,-0.015
0.296,0.295,-0.010
0.298,0.405,-0.010
0.300,0.490,-0.015
0.302,0.505,-0.015
0.304,0.500,-0.025
0.306,0.425,-0.030
0.308,0.305,-0.040
0.310,0.220,-0.045
0.312,0.195,-0.050
0.314,0.225,-0.045
0.316,0.310,-0.035
0.318,0.430,-0.005
0.320,0.565,0.040
0.322,0.640,0.105
0.324,0.705,0.185
0.326,0.750,0.280
0.328,0.730,0.380
0.330,0.745,0.475
0.332,0.815,0.565
0.334,0.940,0.630
0.336,1.085,0.665
0.338,1.210,0.670
0.340,1.170,0.635
0.342,1.065,0.565
0.344,0.930,0.465
0.346,0.770,0.345
0.348,0.525,0.210
0.350,0.320,0.080
0.352,0.160,-0.045
0.354,0.045,-0.150
0.356,0.025,-0.230
0.358,0.150,-0.285
0.360,0.215,-0.315
0.362,0.225,-0.320
0.364,0.200,-0.315
0.366,0.155,-0.295
0.368,0.060,-0.270
0.370,0.020,-0.240
0.372,0.035,-0.215
0.374,0.085,-0.195
0.376,0.190,-0.170
0.378,0.350,-0.145
0.380,0.420,-0.125
0.382,0.465,-0.100
0.384,0.445,-0.075
0.386,0.395,-0.050
0.388,0.280,-0.030
0.390,0.235,-0.010
0.392,0.230,0.000
0.394,0.260,0.005
0.396,0.335,0.010
0.398,0.465,0.005
0.400,0.520,0.000
0.402,0.535,-0.005
0.404,0.495,-0.010
0.406,0.425,-0.010
0.408,0.300,-0.005
0.410,0.265,0.005
0.412,0.245,0.015
0.414,0.295,0.025
0.416,0.355,0.030
0.418,0.495,0.035
0.420,0.545,0.035
0.422,0.555,0.035
0.424,0.510,0.030
0.426,0.445,0.025
0.428,0.320,0.020
0.430,0.270,0.020
0.432,0.270,0.020
0.434,0.310,0.025
0.436,0.390,0.025
0.438,0.525,0.030
0.440,0.550,0.030
0.442,0.570,0.030
0.444,0.520,0.030
0.446,0.445,0.025
0.448,0.310,0.020
0.450,0.275,0.020
0.452,0.270,0.020
0.454,0.320,0.020
0.456,0.405,0.025
0.458,0.535,0.030
0.460,0.570,0.040
0.462,0.575,0.045
0.464,0.535,0.050
0.466,0.460,0.050
0.468,0.325,0.055
0.470,0.290,0.055
0.472,0.290,0.060
0.474,0.355,0.060
0.476,0.430,0.065
0.478,0.555,0.070
0.480,0.600,0.075
0.482,0.615,0.080
0.484,0.555,0.085
0.486,0.480,0.085
0.488,0.350,0.085
0.490,0.325,0.085
0.492,0.325,0.085
0.494,0.380,0.085
0.496,0.480,0.090
0.498,0.610,0.095
0.500,0.640,0.105
0.502,0.650,0.120
0.504,0.605,0.130
0.506,0.515,0.145
0.508,0.400,0.155
0.510,0.385,0.160
0.512,0.385,0.160
0.514,0.460,0.165
0.516,0.565,0.165
0.518,0.690,0.165
0.520,0.720,0.170
0.522,0.715,0.175
0.524,0.665,0.185
0.526,0.580,0.195
0.528,0.485,0.210
0.530,0.460,0.220
0.532,0.480,0.230
0.534,0.530,0.240
0.536,0.640,0.245
0.538,0.755,0.245
0.540,0.775,0.245
0.542,0.770,0.245
0.544,0.710,0.245
0.546,0.605,0.245
0.548,0.515,0.245
0.550,0.500,0.245
0.552,0.505,0.245
0.554,0.570,0.245
0.556,0.665,0.245
0.558,0.755,0.245
0.560,0.775,0.240
0.562,0.755,0.235
0.564,0.685,0.230
0.566,0.560,0.225
0.568,0.455,0.215
0.570,0.415,0.205
0.572,0.415,0.195
0.574,0.470,0.180
0.576,0.560,0.165
0.578,0.625,0.145
0.580,0.625,0.125
0.582,0.595,0.105
0.584,0.510,0.085
0.586,0.385,0.065
0.588,0.285,0.050
0.590,0.250,0.035
0.592,0.255,0.020
0.594,0.315,0.010
0.596,0.425,0.005
0.598,0.485,-0.005
0.600,0.500,-0.015
0.602,0.465,-0.020
0.604,0.400,-0.030
0.606,0.275,-0.035
0.608,0.200,-0.040
0.610,0.180,-0.040
0.612,0.190,-0.045
0.614,0.255,-0.045
0.616,0.375,-0.050
0.618,0.440,-0.055
0.620,0.455,-0.060
0.622,0.440,-0.065
0.624,0.360,-0.070
0.626,0.230,-0.075
0.628,0.155,-0.075
0.630,0.150,-0.075
0.632,0.175,-0.070
0.634,0.245,-0.070
0.636,0.380,-0.065
0.638,0.420,-0.065
0.640,0.440,-0.070
0.642,0.420,-0.070
0.644,0.340,-0.080
0.646,0.200,-0.085
0.648,0.150,-0.090
0.650,0.140,-0.095
0.652,0.170,-0.095
0.654,0.240,-0.095
0.656,0.370,-0.095
0.658,0.425,-0.095
0.660,0.435,-0.095
0.662,0.395,-0.095
0.664,0.325,-0.095
0.666,0.200,-0.095
0.668,0.140,-0.095
0.670,0.135,-0.095
0.672,0.165,-0.095
0.674,0.240,-0.090
0.676,0.365,-0.085
0.678,0.425,-0.085
0.680,0.425,-0.085
0.682,0.385,-0.090
0.684,0.325,-0.095
0.686,0.185,-0.095
0.688,0.135,-0.100
0.690,0.130,-0.105
0.692,0.170,-0.100
0.694,0.240,-0.100
0.696,0.380,-0.095
0.698,0.420,-0.090
0.700,0.425,-0.085
0.702,0.390,-0.080
0.704,0.315,-0.080
0.706,0.180,-0.080
0.708,0.140,-0.085
0.710,0.130,-0.085
0.712,0.175,-0.085
0.714,0.250,-0.085
0.716,0.385,-0.085
0.718,0.420,-0.085
0.720,0.435,-0.080
0.722,0.385,-0.080
0.724,0.315,-0.080
0.726,0.180,-0.080
0.728,0.140,-0.080
0.730,0.135,-0.085
0.732,0.185,-0.085
0.734,0.270,-0.090
0.736,0.405,-0.090
0.738,0.425,-0.090
0.740,0.435,-0.085
0.742,0.380,-0.085
0.744,0.310,-0.085
0.746,0.180,-0.085
0.748,0.145,-0.080
0.750,0.140,-0.080
0.752,0.195,-0.080
0.754,0.280,-0.080
0.756,0.400,-0.080
0.758,0.420,-0.075
0.760,0.430,-0.075
0.762,0.385,-0.070
0.764,0.300,-0.070
0.766,0.175,-0.070
0.768,0.145,-0.070
0.770,0.140,-0.075
0.772,0.195,-0.080
0.774,0.290,-0.080
0.776,0.405,-0.085
0.778,0.435,-0.085
0.780,0.440,-0.080
0.782,0.370,-0.080
0.784,0.275,-0.075
0.786,0.155,-0.070
0.788,0.140,-0.065
0.790,0.140,-0.060
0.792,0.200,-0.060
0.794,0.280,-0.060
0.796,0.405,-0.065
0.798,0.430,-0.070
0.800,0.430,-0.075
0.802,0.360,-0.080
0.804,0.265,-0.080
0.806,0.155,-0.085
0.808,0.125,-0.085
0.810,0.130,-0.085
0.812,0.190,-0.085
0.814,0.300,-0.090
0.816,0.400,-0.090
0.818,0.425,-0.095
0.820,0.415,-0.100
0.822,0.355,-0.100
0.824,0.255,-0.100
0.826,0.160,-0.100
0.828,0.130,-0.100
0.830,0.135,-0.095
0.832,0.195,-0.095
0.834,0.305,-0.095
0.836,0.395,-0.095
0.838,0.415,-0.095
0.840,0.395,-0.095
0.842,0.340,-0.095
0.844,0.230,-0.095
0.846,0.140,-0.095
0.848,0.120,-0.090
0.850,0.130,-0.090
0.852,0.200,-0.085
0.854,0.315,-0.085
0.856,0.390,-0.085
0.858,0.415,-0.085
0.860,0.395,-0.085
0.862,0.345,-0.090
0.864,0.225,-0.090
0.866,0.145,-0.095
0.868,0.115,-0.095
0.870,0.140,-0.095
0.872,0.205,-0.095
0.874,0.315,-0.090
0.876,0.390,-0.090
0.878,0.415,-0.090
0.880,0.395,-0.090
0.882,0.325,-0.085
0.884,0.205,-0.085
0.886,0.145,-0.085
0.888,0.135,-0.085
0.890,0.140,-0.085
0.892,0.210,-0.085
0.894,0.335,-0.090
0.896,0.380,-0.090
0.898,0.410,-0.090
0.900,0.380,-0.090
0.902,0.310,-0.090
0.904,0.190,-0.085
0.906,0.135,-0.080
0.908,0.115,-0.075
0.910,0.140,-0.070
0.912,0.205,-0.065
0.914,0.345,-0.065
0.916,0.395,-0.065
0.918,0.410,-0.075
0.920,0.380,-0.080
0.922,0.315,-0.085
0.924,0.190,-0.090
0.926,0.130,-0.090
0.928,0.125,-0.085
0.930,0.155,-0.080
0.932,0.210,-0.070
0.934,0.355,-0.060
0.936,0.400,-0.055
0.938,0.435,-0.050
0.940,0.395,-0.055
0.942,0.325,-0.060
0.944,0.185,-0.065
0.946,0.135,-0.070
0.948,0.120,-0.075
0.950,0.160,-0.075
0.952,0.240,-0.070
0.954,0.390,-0.060
0.956,0.440,-0.050
0.958,0.465,-0.040
0.960,0.435,-0.030
0.962,0.370,-0.020
0.964,0.235,-0.015
0.966,0.195,-0.010
0.968,0.170,-0.010
0.970,0.200,-0.015
0.972,0.260,-0.020
0.974,0.380,-0.025
0.976,0.425,-0.035
0.978,0.445,-0.040
0.980,0.380,-0.055
0.982,0.295,-0.065
0.984,0.160,-0.075
0.986,0.115,-0.080
0.988,0.095,-0.090
0.990,0.140,-0.090
0.992,0.220,-0.090
0.994,0.350,-0.085
0.996,0.395,-0.085
0.998,0.405,-0.080
1.000,0.360,-0.075
1.002,0.290,-0.075
1.004,0.155,-0.075
1.006,0.120,-0.080
1.008,0.110,-0.080
1.010,0.155,-0.085
1.012,0.240,-0.085
1.014,0.370,-0.085
1.016,0.400,-0.085
1.018,0.395,-0.080
1.020,0.355,-0.075
1.022,0.270,-0.075
1.024,0.150,-0.075
1.026,0.115,-0.075
1.028,0.100,-0.080
1.030,0.155,-0.085
1.032,0.250,-0.090
1.034,0.365,-0.095
1.036,0.405,-0.095
1.038,0.405,-0.095
1.040,0.345,-0.085
1.042,0.260,-0.080
1.044,0.135,-0.070
1.046,0.110,-0.065
1.048,0.105,-0.065
1.050,0.165,-0.070
1.052,0.255,-0.075
1.054,0.365,-0.080
1.056,0.390,-0.080
1.058,0.400,-0.070
1.060,0.370,-0.045
1.062,0.355,0.000
1.064,0.295,0.065
1.066,0.335,0.150
1.068,0.445,0.250
1.070,0.605,0.355
1.072,0.805,0.460
1.074,1.005,0.545
1.076,1.135,0.610
1.078,1.205,0.645
1.080,1.140,0.645
1.082,0.925,0.605
1.084,0.680,0.530
1.086,0.545,0.420
1.088,0.445,0.295
1.090,0.390,0.155
1.092,0.365,0.020
1.094,0.315,-0.105
1.096,0.180,-0.210
1.098,0.100,-0.295
1.100,0.030,-0.345
1.102,-0.060,-0.375
1.104,-0.150,-0.375
1.106,-0.165,-0.360
1.108,-0.130,-0.335
1.110,-0.040,-0.305
1.112,0.090,-0.270
1.114,0.205,-0.240
1.116,0.260,-0.215
1.118,0.300,-0.190
1.120,0.245,-0.170
1.122,0.170,-0.150
1.124,0.100,-0.125
1.126,0.090,-0.105
1.128,0.115,-0.080
1.130,0.200,-0.060
1.132,0.325,-0.045
1.134,0.400,-0.030
1.136,0.415,-0.020
1.138,0.415,-0.020
1.140,0.350,-0.015
1.142,0.245,-0.015
1.144,0.160,-0.020
1.146,0.145,-0.015
1.148,0.170,-0.015
1.150,0.230,-0.010
1.152,0.355,-0.005
1.154,0.425,0.000
1.156,0.455,0.000
1.158,0.425,0.000
1.160,0.370,0.005
1.162,0.250,0.005
1.164,0.180,0.005
1.166,0.160,0.005
1.168,0.185,0.005
1.170,0.250,0.005
1.172,0.385,0.010
1.174,0.445,0.010
1.176,0.460,0.015
1.178,0.435,0.015
1.180,0.370,0.010
1.182,0.250,0.010
1.184,0.190,0.010
1.186,0.170,0.010
1.188,0.200,0.015
1.190,0.270,0.015
1.192,0.395,0.020
1.194,0.460,0.020
1.196,0.480,0.020
1.198,0.445,0.025
1.200,0.380,0.025
1.202,0.265,0.025
1.204,0.200,0.025
1.206,0.200,0.030
1.208,0.220,0.035
1.210,0.290,0.040
1.212,0.440,0.045
1.214,0.495,0.050
1.216,0.500,0.055
1.218,0.470,0.055
1.220,0.405,0.055
1.222,0.275,0.055
1.224,0.225,0.055
1.226,0.215,0.055
1.228,0.260,0.060
1.230,0.335,0.065
1.232,0.475,0.070
1.234,0.530,0.080
1.236,0.545,0.085
1.238,0.500,0.090
1.240,0.445,0.095
1.242,0.315,0.100
1.244,0.275,0.105
1.246,0.270,0.105
1.248,0.315,0.115
1.250,0.405,0.120
1.252,0.545,0.130
1.254,0.585,0.140
1.256,0.605,0.155
1.258,0.570,0.165
1.260,0.505,0.175
1.262,0.375,0.180
1.264,0.340,0.185
1.266,0.335,0.190
1.268,0.390,0.195
1.270,0.480,0.200
1.272,0.615,0.205
1.274,0.655,0.210
1.276,0.675,0.220
1.278,0.635,0.225
1.280,0.560,0.235
1.282,0.440,0.245
1.284,0.410,0.250
1.286,0.400,0.255
1.288,0.460,0.265
1.290,0.545,0.270
1.292,0.675,0.270
1.294,0.700,0.275
1.296,0.715,0.275
1.298,0.655,0.275
1.300,0.580,0.275
1.302,0.450,0.270
1.304,0.410,0.260
1.306,0.390,0.255
1.308,0.445,0.245
1.310,0.505,0.230
1.312,0.625,0.220
1.314,0.630,0.210
1.316,0.625,0.195
1.318,0.555,0.180
1.320,0.445,0.165
1.322,0.295,0.150
1.324,0.260,0.135
1.326,0.240,0.115
1.328,0.270,0.100
1.330,0.360,0.080
1.332,0.460,0.070
1.334,0.475,0.055
1.336,0.460,0.045
1.338,0.395,0.040
1.340,0.290,0.035
1.342,0.160,0.025
1.344,0.140,0.020
1.346,0.125,0.010
1.348,0.195,0.000
1.350,0.270,-0.010
1.352,0.375,-0.020
1.354,0.400,-0.030
1.356,0.385,-0.035
1.358,0.320,-0.035
1.360,0.215,-0.035
1.362,0.110,-0.035
1.364,0.085,-0.030
1.366,0.085,-0.030
1.368,0.145,-0.035
1.370,0.255,-0.040
1.372,0.350,-0.045
1.374,0.370,-0.055
1.376,0.360,-0.060
1.378,0.300,-0.070
1.380,0.185,-0.070
1.382,0.095,-0.070
1.384,0.075,-0.065
1.386,0.085,-0.060
1.388,0.140,-0.050
1.390,0.260,-0.045
1.392,0.335,-0.040
1.394,0.365,-0.035
1.396,0.355,-0.040
1.398,0.290,-0.040
1.400,0.175,-0.045
1.402,0.085,-0.050
1.404,0.065,-0.055
1.406,0.080,-0.055
1.408,0.150,-0.055
1.410,0.270,-0.055
1.412,0.350,-0.050
1.414,0.370,-0.050
1.416,0.345,-0.050
1.418,0.280,-0.045
1.420,0.165,-0.045
1.422,0.085,-0.040
1.424,0.065,-0.040
1.426,0.090,-0.040
1.428,0.145,-0.035
1.430,0.275,-0.035
1.432,0.345,-0.035
1.434,0.370,-0.035
1.436,0.340,-0.040
1.438,0.275,-0.040
1.440,0.160,-0.040
1.442,0.085,-0.040
1.444,0.060,-0.040
1.446,0.085,-0.040
1.448,0.150,-0.035
1.450,0.280,-0.035
1.452,0.345,-0.035
1.454,0.360,-0.035
1.456,0.330,-0.035
1.458,0.270,-0.040
1.460,0.145,-0.040
1.462,0.075,-0.040
1.464,0.070,-0.045
1.466,0.095,-0.040
1.468,0.170,-0.040
1.470,0.285,-0.040
1.472,0.350,-0.040
1.474,0.360,-0.040
1.476,0.340,-0.040
1.478,0.275,-0.040
1.480,0.140,-0.040
1.482,0.085,-0.040
1.484,0.070,-0.040
1.486,0.105,-0.040
1.488,0.175,-0.035
1.490,0.310,-0.030
1.492,0.360,-0.030
1.494,0.370,-0.025
1.496,0.320,-0.025
1.498,0.270,-0.025
1.500,0.150,-0.025
1.502,0.090,-0.025
1.504,0.060,-0.025
1.506,0.110,-0.025
1.508,0.165,-0.025
1.510,0.315,-0.025
1.512,0.370,-0.020
1.514,0.370,-0.020
1.516,0.325,-0.020
1.518,0.240,-0.020
1.520,0.120,-0.020
1.522,0.080,-0.020
1.524,0.070,-0.020
1.526,0.115,-0.020
1.528,0.195,-0.020
1.530,0.320,-0.025
1.532,0.365,-0.025
1.534,0.360,-0.030
1.536,0.310,-0.030
1.538,0.245,-0.035
1.540,0.105,-0.040
1.542,0.055,-0.045
1.544,0.050,-0.045
1.546,0.105,-0.045
1.548,0.175,-0.045
1.550,0.315,-0.040
1.552,0.340,-0.035
1.554,0.345,-0.030
1.556,0.305,-0.025
1.558,0.225,-0.025
1.560,0.100,-0.025
1.562,0.065,-0.025
1.564,0.050,-0.030
1.566,0.110,-0.030
1.568,0.180,-0.035
1.570,0.315,-0.040
1.572,0.340,-0.040
1.574,0.345,-0.040
1.576,0.285,-0.035
1.578,0.200,-0.035
1.580,0.075,-0.035
1.582,0.045,-0.035
1.584,0.045,-0.035
1.586,0.095,-0.035
1.588,0.190,-0.040
1.590,0.310,-0.040
1.592,0.330,-0.040
1.594,0.335,-0.040
1.596,0.280,-0.040
1.598,0.195,-0.040
1.600,0.070,-0.040
1.602,0.035,-0.040
1.604,0.040,-0.045
1.606,0.090,-0.045
1.608,0.190,-0.050
1.610,0.310,-0.050
1.612,0.325,-0.050
1.614,0.325,-0.050
1.616,0.270,-0.045
1.618,0.175,-0.040
1.620,0.055,-0.035
1.622,0.035,-0.030
1.624,0.020,-0.030
1.626,0.095,-0.030
1.628,0.195,-0.030
1.630,0.295,-0.035
1.632,0.315,-0.040
1.634,0.315,-0.045
1.636,0.250,-0.050
1.638,0.160,-0.050
1.640,0.050,-0.050
1.642,0.025,-0.045
1.644,0.025,-0.045
1.646,0.095,-0.045
1.648,0.205,-0.045
1.650,0.305,-0.045
1.652,0.320,-0.050
1.654,0.310,-0.055
1.656,0.250,-0.055
1.658,0.140,-0.055
1.660,0.050,-0.050
1.662,0.020,-0.050
1.664,0.035,-0.040
1.666,0.100,-0.035
1.668,0.195,-0.030
1.670,0.285,-0.030
1.672,0.325,-0.030
1.674,0.295,-0.030
1.676,0.240,-0.030
1.678,0.130,-0.030
1.680,0.045,-0.030
1.682,0.035,-0.030
1.684,0.050,-0.025
1.686,0.105,-0.020
1.688,0.220,-0.015
1.690,0.295,-0.015
1.692,0.325,-0.010
1.694,0.330,-0.010
1.696,0.275,-0.010
1.698,0.165,-0.010
1.700,0.085,-0.010
1.702,0.070,-0.010
1.704,0.095,-0.005
1.706,0.155,0.000
1.708,0.270,0.005
1.710,0.320,0.005
1.712,0.335,0.010
1.714,0.305,0.005
1.716,0.240,0.005
1.718,0.120,0.000
1.720,0.040,-0.010
1.722,0.010,-0.015
1.724,0.025,-0.025
1.726,0.095,-0.030
1.728,0.230,-0.035
1.730,0.280,-0.040
1.732,0.290,-0.045
1.734,0.255,-0.050
1.736,0.190,-0.050
1.738,0.065,-0.055
1.740,0.015,-0.055
1.742,0.005,-0.055
1.744,0.020,-0.050
1.746,0.105,-0.050
1.748,0.235,-0.045
1.750,0.285,-0.045
1.752,0.295,-0.045
1.754,0.265,-0.045
1.756,0.190,-0.045
1.758,0.060,-0.045
1.760,0.000,-0.040
1.762,-0.010,-0.040
1.764,0.030,-0.040
1.766,0.105,-0.035
1.768,0.220,-0.035
1.770,0.285,-0.035
1.772,0.290,-0.040
1.774,0.250,-0.040
1.776,0.175,-0.040
1.778,0.040,-0.040
1.780,-0.005,-0.040
1.782,-0.015,-0.040
1.784,0.025,-0.040
1.786,0.085,-0.035
1.788,0.225,-0.035
1.790,0.265,-0.040
1.792,0.265,-0.045
1.794,0.225,-0.050
1.796,0.155,-0.050
1.798,0.035,-0.045
1.800,0.005,-0.020
1.802,0.060,0.020
1.804,0.165,0.080
1.806,0.305,0.160
1.808,0.545,0.250
1.810,0.695,0.355
1.812,0.790,0.455
1.814,0.830,0.545
1.816,0.860,0.610
1.818,0.810,0.645
1.820,0.780,0.645
1.822,0.655,0.605
1.824,0.560,0.535
1.826,0.515,0.430
1.828,0.550,0.305
1.830,0.470,0.170
1.832,0.355,0.035
1.834,0.165,-0.090
1.836,-0.090,-0.195
1.838,-0.295,-0.280
1.840,-0.340,-0.340
1.842,-0.340,-0.375
1.844,-0.290,-0.380
1.846,-0.195,-0.370
1.848,-0.045,-0.345
1.850,0.015,-0.315
1.852,0.045,-0.275
1.854,0.020,-0.240
1.856,-0.030,-0.210
1.858,-0.110,-0.180
1.860,-0.110,-0.155
1.862,-0.100,-0.135
1.864,-0.025,-0.120
1.866,0.085,-0.100
1.868,0.220,-0.085
1.870,0.260,-0.070
1.872,0.260,-0.055
1.874,0.215,-0.045
1.876,0.125,-0.040
1.878,0.005,-0.035
1.880,-0.015,-0.030
1.882,-0.015,-0.030
1.884,0.040,-0.030
1.886,0.135,-0.035
1.888,0.245,-0.035
1.890,0.275,-0.030
1.892,0.270,-0.030
1.894,0.220,-0.025
1.896,0.130,-0.015
1.898,0.015,-0.010
1.900,-0.010,-0.010
1.902,0.005,-0.005
1.904,0.060,-0.005
1.906,0.160,-0.010
1.908,0.260,-0.015
1.910,0.290,-0.020
1.912,0.285,-0.020
1.914,0.220,-0.025
1.916,0.130,-0.025
1.918,0.040,-0.020
1.920,0.005,-0.015
1.922,0.010,-0.010
1.924,0.075,0.000
1.926,0.185,0.005
1.928,0.275,0.005
1.930,0.300,0.010
1.932,0.300,0.010
1.934,0.235,0.015
1.936,0.125,0.015
1.938,0.030,0.020
1.940,0.020,0.025
1.942,0.035,0.030
1.944,0.105,0.035
1.946,0.210,0.040
1.948,0.290,0.040
1.950,0.320,0.040
1.952,0.310,0.040
1.954,0.260,0.035
1.956,0.140,0.035
1.958,0.060,0.030
1.960,0.035,0.035
1.962,0.055,0.035
1.964,0.125,0.040
1.966,0.245,0.045
1.968,0.320,0.050
1.970,0.340,0.055
1.972,0.330,0.060
1.974,0.265,0.070
1.976,0.150,0.075
1.978,0.085,0.085
1.980,0.070,0.090
1.982,0.105,0.100
1.984,0.165,0.105
1.986,0.290,0.110
1.988,0.360,0.115
1.990,0.385,0.120
1.992,0.370,0.120
1.994,0.310,0.120
1.996,0.200,0.120
1.998,0.135,0.120
2.000,0.120,0.125
2.002,0.155,0.135
2.004,0.235,0.140
2.006,0.370,0.155
2.008,0.435,0.165
2.010,0.465,0.175
2.012,0.435,0.185
2.014,0.380,0.200
2.016,0.260,0.210
2.018,0.210,0.220
2.020,0.205,0.230
2.022,0.235,0.240
2.024,0.300,0.245
2.026,0.435,0.250
2.028,0.475,0.255
2.030,0.500,0.255
2.032,0.470,0.250
2.034,0.410,0.245
2.036,0.280,0.240
2.038,0.225,0.235
2.040,0.210,0.235
2.042,0.235,0.230
2.044,0.295,0.230
2.046,0.420,0.230
2.048,0.460,0.230
2.050,0.470,0.225
2.052,0.415,0.215
2.054,0.325,0.200
2.056,0.180,0.185
2.058,0.115,0.165
2.060,0.080,0.145
2.062,0.120,0.120
2.064,0.160,0.100
2.066,0.265,0.080
2.068,0.290,0.065
2.070,0.305,0.050
2.072,0.245,0.035
2.074,0.170,0.025
2.076,0.015,0.015
2.078,-0.030,0.010
2.080,-0.055,0.005
2.082,-0.025,-0.005
2.084,0.045,-0.010
2.086,0.160,-0.020
2.088,0.200,-0.030
2.090,0.195,-0.040
2.092,0.140,-0.055
2.094,0.070,-0.060
2.096,-0.070,-0.070
2.098,-0.115,-0.075
2.100,-0.120,-0.075
2.102,-0.070,-0.070
2.104,0.005,-0.070
2.106,0.130,-0.065
2.108,0.165,-0.060
2.110,0.165,-0.060
2.112,0.120,-0.060
2.114,0.040,-0.065
2.116,-0.085,-0.070
2.118,-0.115,-0.070
2.120,-0.125,-0.075
2.122,-0.075,-0.080
2.124,0.005,-0.075
2.126,0.130,-0.075
2.128,0.150,-0.070
2.130,0.165,-0.070
2.132,0.105,-0.070
2.134,0.030,-0.070
2.136,-0.090,-0.075
2.138,-0.135,-0.080
2.140,-0.140,-0.085
2.142,-0.085,-0.090
2.144,0.005,-0.090
2.146,0.130,-0.090
2.148,0.160,-0.090
2.150,0.155,-0.080
2.152,0.090,-0.075
2.154,-0.005,-0.070
2.156,-0.105,-0.060
2.158,-0.140,-0.060
2.160,-0.130,-0.060
2.162,-0.080,-0.060
2.164,0.015,-0.065
2.166,0.125,-0.065
2.168,0.150,-0.070
2.170,0.145,-0.070
2.172,0.100,-0.070
2.174,0.000,-0.070
2.176,-0.115,-0.070
2.178,-0.145,-0.070
2.180,-0.130,-0.070
2.182,-0.065,-0.070
2.184,0.035,-0.070
2.186,0.135,-0.070
2.188,0.160,-0.070
2.190,0.150,-0.070
2.192,0.095,-0.065
2.194,-0.005,-0.060
2.196,-0.115,-0.060
2.198,-0.135,-0.055
2.200,-0.125,-0.050
2.202,-0.065,-0.050
2.204,0.040,-0.050
2.206,0.135,-0.050
2.208,0.170,-0.050
2.210,0.150,-0.050
2.212,0.080,-0.050
2.214,-0.020,-0.050
2.216,-0.120,-0.045
2.218,-0.130,-0.040
2.220,-0.115,-0.040
2.222,-0.065,-0.040
2.224,0.070,-0.045
2.226,0.145,-0.050
2.228,0.150,-0.055
2.230,0.145,-0.060
2.232,0.080,-0.065
2.234,-0.030,-0.065
2.236,-0.110,-0.065
2.238,-0.135,-0.065
2.240,-0.115,-0.060
2.242,-0.045,-0.055
2.244,0.065,-0.050
2.246,0.140,-0.050
2.248,0.155,-0.045
2.250,0.135,-0.045
2.252,0.070,-0.045
2.254,-0.045,-0.045
2.256,-0.120,-0.040
2.258,-0.140,-0.040
2.260,-0.110,-0.040
2.262,-0.045,-0.040
2.264,0.060,-0.040
2.266,0.125,-0.045
2.268,0.145,-0.050
2.270,0.130,-0.060
2.272,0.065,-0.065
2.274,-0.055,-0.065
2.276,-0.130,-0.065
2.278,-0.145,-0.060
2.280,-0.110,-0.055
2.282,-0.050,-0.050
2.284,0.075,-0.045
2.286,0.120,-0.045
2.288,0.140,-0.045
2.290,0.105,-0.050
2.292,0.045,-0.060
2.294,-0.085,-0.065
2.296,-0.135,-0.070
2.298,-0.150,-0.070
2.300,-0.125,-0.070
2.302,-0.060,-0.065
2.304,0.070,-0.060
2.306,0.120,-0.055
2.308,0.130,-0.050
2.310,0.095,-0.050
2.312,0.030,-0.050
2.314,-0.090,-0.050
2.316,-0.150,-0.050
2.318,-0.160,-0.050
2.320,-0.120,-0.045
2.322,-0.050,-0.045
2.324,0.085,-0.040
2.326,0.125,-0.035
2.328,0.140,-0.035
2.330,0.100,-0.035
2.332,0.030,-0.040
2.334,-0.105,-0.050
2.336,-0.145,-0.055
2.338,-0.165,-0.065
2.340,-0.120,-0.065
2.342,-0.065,-0.065
2.344,0.075,-0.065
2.346,0.125,-0.060
2.348,0.140,-0.050
2.350,0.095,-0.050
2.352,0.020,-0.045
2.354,-0.110,-0.050
2.356,-0.155,-0.050
2.358,-0.175,-0.055
2.360,-0.125,-0.060
2.362,-0.045,-0.060
2.364,0.090,-0.060
2.366,0.130,-0.055
2.368,0.145,-0.050
2.370,0.095,-0.045
2.372,0.005,-0.035
2.374,-0.115,-0.030
2.376,-0.150,-0.025
2.378,-0.160,-0.025
2.380,-0.115,-0.025
2.382,-0.040,-0.030
2.384,0.095,-0.030
2.386,0.120,-0.035
2.388,0.135,-0.040
2.390,0.085,-0.040
2.392,0.005,-0.040
2.394,-0.120,-0.040
2.396,-0.150,-0.040
2.398,-0.150,-0.040
2.400,-0.105,-0.040
2.402,-0.020,-0.040
2.404,0.105,-0.035
2.406,0.135,-0.035
2.408,0.140,-0.030
2.410,0.095,-0.030
2.412,0.020,-0.020
2.414,-0.095,-0.015
2.416,-0.120,-0.010
2.418,-0.105,0.000
2.420,-0.050,0.005
2.422,0.025,0.005
2.424,0.135,0.005
2.426,0.150,0.005
2.428,0.140,0.000
2.430,0.085,-0.005
2.432,-0.015,-0.015
2.434,-0.125,-0.020
2.436,-0.155,-0.030
2.438,-0.160,-0.040
2.440,-0.110,-0.045
2.442,-0.025,-0.055
2.444,0.075,-0.060
2.446,0.090,-0.060
2.448,0.090,-0.065
2.450,0.045,-0.060
2.452,-0.055,-0.060
2.454,-0.165,-0.055
2.456,-0.185,-0.055
2.458,-0.180,-0.050
2.460,-0.120,-0.050
2.462,-0.020,-0.050
2.464,0.085,-0.050
2.466,0.105,-0.050
2.468,0.090,-0.050
2.470,0.045,-0.050
2.472,-0.060,-0.050
2.474,-0.160,-0.050
2.476,-0.190,-0.045
2.478,-0.175,-0.045
2.480,-0.115,-0.045
2.482,-0.020,-0.045
2.484,0.075,-0.050
2.486,0.095,-0.055
2.488,0.080,-0.060
2.490,0.015,-0.065
2.492,-0.090,-0.065
2.494,-0.175,-0.065
2.496,-0.195,-0.060
2.498,-0.185,-0.055
2.500,-0.125,-0.045
2.502,-0.010,-0.040
2.504,0.060,-0.040
2.506,0.085,-0.040
2.508,0.065,-0.045
2.510,-0.010,-0.050
2.512,-0.120,-0.055
2.514,-0.180,-0.045
2.516,-0.175,-0.025
2.518,-0.090,0.015
2.520,0.040,0.080
2.522,0.235,0.160
2.524,0.410,0.260
2.526,0.535,0.370
2.528,0.610,0.480
2.530,0.635,0.575
2.532,0.620,0.645
2.534,0.635,0.685
2.536,0.605,0.680
2.538,0.510,0.635
2.540,0.445,0.550
2.542,0.445,0.435
2.544,0.405,0.300
2.546,0.305,0.155
2.548,0.135,0.020
2.550,-0.090,-0.105
2.552,-0.365,-0.200
2.554,-0.490,-0.275
2.556,-0.500,-0.320
2.558,-0.470,-0.340
2.560,-0.400,-0.345
2.562,-0.260,-0.335
2.564,-0.185,-0.320
2.566,-0.140,-0.295
2.568,-0.145,-0.275
2.570,-0.195,-0.250
2.572,-0.280,-0.225
2.574,-0.310,-0.195
2.576,-0.305,-0.165
2.578,-0.255,-0.140
2.580,-0.160,-0.110
2.582,-0.015,-0.085
2.584,0.060,-0.070
2.586,0.085,-0.055
2.588,0.065,-0.050
2.590,-0.005,-0.045
2.592,-0.130,-0.045
2.594,-0.180,-0.040
2.596,-0.190,-0.040
2.598,-0.155,-0.035
2.600,-0.095,-0.030
2.602,0.045,-0.025
2.604,0.090,-0.020
2.606,0.105,-0.020
2.608,0.075,-0.020
2.610,0.000,-0.020
2.612,-0.130,-0.025
2.614,-0.170,-0.025
2.616,-0.185,-0.030
2.618,-0.140,-0.030
2.620,-0.060,-0.025
2.622,0.075,-0.020
2.624,0.110,-0.015
2.626,0.120,-0.010
2.628,0.085,-0.005
2.630,0.015,0.000
2.632,-0.120,0.005
2.634,-0.155,0.005
2.636,-0.165,0.010
2.638,-0.120,0.010
2.640,-0.040,0.015
2.642,0.085,0.015
2.644,0.130,0.020
2.646,0.135,0.025
2.648,0.095,0.025
2.650,0.015,0.025
2.652,-0.115,0.025
2.654,-0.150,0.020
2.656,-0.145,0.020
2.658,-0.095,0.020
2.660,-0.005,0.020
2.662,0.120,0.025
2.664,0.155,0.030
2.666,0.150,0.035
2.668,0.105,0.040
2.670,0.035,0.045
2.672,-0.085,0.045
2.674,-0.120,0.050
2.676,-0.115,0.050
2.678,-0.065,0.055
2.680,0.030,0.060
2.682,0.155,0.065
2.684,0.180,0.070
2.686,0.190,0.075
2.688,0.140,0.080
2.690,0.055,0.090
2.692,-0.065,0.090
2.694,-0.085,0.095
2.696,-0.090,0.095
2.698,-0.020,0.100
2.700,0.080,0.100
2.702,0.205,0.105
2.704,0.245,0.115
2.706,0.250,0.125
2.708,0.190,0.135
2.710,0.115,0.145
2.712,0.010,0.155
2.714,-0.020,0.165
2.716,0.000,0.170
2.718,0.065,0.175
2.720,0.170,0.180
2.722,0.280,0.185
2.724,0.310,0.190
2.726,0.315,0.195
2.728,0.250,0.210
2.730,0.180,0.220
2.732,0.075,0.235
2.734,0.060,0.245
2.736,0.070,0.250
2.738,0.130,0.255
2.740,0.240,0.255
2.742,0.345,0.255
2.744,0.365,0.250
2.746,0.340,0.250
2.748,0.285,0.250
2.750,0.200,0.255
2.752,0.090,0.260
2.754,0.070,0.265
2.756,0.080,0.265
2.758,0.135,0.265
2.760,0.235,0.260
2.762,0.315,0.250
2.764,0.320,0.235
2.766,0.290,0.220
2.768,0.210,0.205
2.770,0.090,0.185
2.772,-0.010,0.170
2.774,-0.050,0.150
2.776,-0.055,0.135
2.778,-0.010,0.125
2.780,0.085,0.110
2.782,0.150,0.095
2.784,0.150,0.080
2.786,0.130,0.065
2.788,0.050,0.055
2.790,-0.080,0.040
2.792,-0.170,0.025
2.794,-0.210,0.015
2.796,-0.195,0.000
2.798,-0.135,-0.010
2.800,-0.015,-0.020
2.802,0.045,-0.030
2.804,0.050,-0.040
2.806,0.030,-0.045
2.808,-0.045,-0.050
2.810,-0.165,-0.055
2.812,-0.235,-0.055
2.814,-0.260,-0.055
2.816,-0.235,-0.055
2.818,-0.175,-0.055
2.820,-0.055,-0.055
2.822,0.005,-0.055
2.824,0.015,-0.060
2.826,-0.015,-0.065
2.828,-0.065,-0.070
2.830,-0.190,-0.075
2.832,-0.255,-0.075
2.834,-0.275,-0.075
2.836,-0.245,-0.075
2.838,-0.190,-0.075
2.840,-0.060,-0.075
2.842,-0.005,-0.075
2.844,0.015,-0.075
2.846,-0.020,-0.080
2.848,-0.085,-0.080
2.850,-0.220,-0.085
2.852,-0.265,-0.085
2.854,-0.285,-0.080
2.856,-0.255,-0.080
2.858,-0.190,-0.075
2.860,-0.060,-0.075
2.862,-0.010,-0.070
2.864,0.000,-0.070
2.866,-0.040,-0.075
2.868,-0.095,-0.075
2.870,-0.225,-0.080
2.872,-0.275,-0.085
2.874,-0.290,-0.085
2.876,-0.255,-0.085
2.878,-0.180,-0.085
2.880,-0.050,-0.080
2.882,-0.005,-0.080
2.884,0.010,-0.075
2.886,-0.035,-0.075
2.888,-0.105,-0.080
2.890,-0.225,-0.080
2.892,-0.275,-0.085
2.894,-0.285,-0.085
2.896,-0.255,-0.085
2.898,-0.175,-0.085
2.900,-0.035,-0.080
2.902,0.000,-0.075
2.904,0.015,-0.070
2.906,-0.040,-0.065
2.908,-0.105,-0.065
2.910,-0.230,-0.060
2.912,-0.260,-0.060
2.914,-0.275,-0.060
2.916,-0.225,-0.065
2.918,-0.155,-0.065
2.920,-0.030,-0.065
2.922,0.005,-0.065
2.924,0.015,-0.065
2.926,-0.035,-0.065
2.928,-0.110,-0.065
2.930,-0.240,-0.065
2.932,-0.265,-0.065
2.934,-0.265,-0.065
2.936,-0.205,-0.065
2.938,-0.140,-0.065
2.940,-0.015,-0.060
2.942,0.020,-0.055
2.944,0.015,-0.055
2.946,-0.035,-0.050
2.948,-0.115,-0.045
2.950,-0.230,-0.045
2.952,-0.260,-0.045
2.954,-0.275,-0.050
2.956,-0.220,-0.055
2.958,-0.135,-0.060
2.960,-0.015,-0.065
2.962,0.015,-0.070
2.964,0.015,-0.070
2.966,-0.030,-0.070
2.968,-0.120,-0.065
2.970,-0.245,-0.065
2.972,-0.265,-0.060
2.974,-0.265,-0.055
2.976,-0.220,-0.050
2.978,-0.120,-0.050
2.980,-0.005,-0.050
2.982,0.015,-0.055
2.984,0.020,-0.060
2.986,-0.050,-0.060
2.988,-0.135,-0.060
2.990,-0.245,-0.060
2.992,-0.270,-0.060
2.994,-0.275,-0.055
2.996,-0.215,-0.055
2.998,-0.110,-0.050
3.000,-0.020,-0.050
3.002,0.005,-0.050
3.004,-0.005,-0.055
3.006,-0.070,-0.060
3.008,-0.160,-0.060
3.010,-0.260,-0.065
3.012,-0.290,-0.065
3.014,-0.280,-0.070
3.016,-0.210,-0.070
3.018,-0.115,-0.070
3.020,-0.020,-0.070
3.022,0.005,-0.065
3.024,-0.010,-0.065
3.026,-0.065,-0.065
3.028,-0.170,-0.065
3.030,-0.260,-0.060
3.032,-0.290,-0.060
3.034,-0.285,-0.060
3.036,-0.205,-0.060
3.038,-0.095,-0.060
3.040,-0.020,-0.060
3.042,0.005,-0.065
3.044,0.000,-0.065
3.046,-0.080,-0.065
3.048,-0.190,-0.065
3.050,-0.275,-0.065
3.052,-0.300,-0.060
3.054,-0.270,-0.060
3.056,-0.210,-0.060
3.058,-0.100,-0.060
3.060,-0.015,-0.060
3.062,0.000,-0.065
3.064,-0.015,-0.070
3.066,-0.080,-0.070
3.068,-0.195,-0.075
3.070,-0.270,-0.070
3.072,-0.280,-0.070
3.074,-0.265,-0.065
3.076,-0.195,-0.060
3.078,-0.080,-0.055
3.080,-0.010,-0.050
3.082,0.000,-0.050
3.084,-0.015,-0.050
3.086,-0.080,-0.050
3.088,-0.210,-0.055
3.090,-0.275,-0.060
3.092,-0.295,-0.060
3.094,-0.265,-0.060
3.096,-0.195,-0.060
3.098,-0.070,-0.060
3.100,-0.010,-0.060
3.102,0.010,-0.060
3.104,-0.015,-0.055
3.106,-0.085,-0.055
3.108,-0.205,-0.055
3.110,-0.255,-0.050
3.112,-0.280,-0.045
3.114,-0.235,-0.040
3.116,-0.160,-0.030
3.118,-0.015,-0.025
3.120,0.045,-0.020
3.122,0.070,-0.010
3.124,0.025,-0.010
3.126,-0.035,-0.005
3.128,-0.175,-0.005
3.130,-0.245,-0.010
3.132,-0.265,-0.015
3.134,-0.235,-0.020
3.136,-0.170,-0.025
3.138,-0.045,-0.030
3.140,0.005,-0.040
3.142,0.020,-0.050
3.144,-0.030,-0.055
3.146,-0.105,-0.065
3.148,-0.235,-0.070
3.150,-0.295,-0.070
3.152,-0.300,-0.075
3.154,-0.260,-0.070
3.156,-0.185,-0.070
3.158,-0.040,-0.065
3.160,-0.005,-0.055
3.162,-0.005,-0.050
3.164,-0.030,-0.050
3.166,-0.110,-0.045
3.168,-0.245,-0.045
3.170,-0.280,-0.045
3.172,-0.295,-0.050
3.174,-0.255,-0.055
3.176,-0.175,-0.055
3.178,-0.055,-0.060
3.180,-0.005,-0.065
3.182,0.005,-0.070
3.184,-0.055,-0.070
3.186,-0.120,-0.070
3.188,-0.250,-0.070
3.190,-0.300,-0.070
3.192,-0.310,-0.065
3.194,-0.260,-0.065
3.196,-0.185,-0.065
3.198,-0.050,-0.065
3.200,-0.010,-0.070
3.202,0.000,-0.070
3.204,-0.055,-0.075
3.206,-0.135,-0.075
3.208,-0.265,-0.080
3.210,-0.295,-0.080
3.212,-0.300,-0.080
3.214,-0.250,-0.075
3.216,-0.175,-0.070
3.218,-0.050,-0.060
3.220,-0.020,-0.045
3.222,0.035,-0.015
3.224,0.050,0.030
3.226,0.025,0.095
3.228,-0.010,0.175
3.230,0.075,0.265
3.232,0.165,0.370
3.234,0.310,0.470
3.236,0.490,0.565
3.238,0.715,0.630
3.240,0.810,0.665
3.242,0.775,0.660
3.244,0.590,0.610
3.246,0.385,0.520
3.248,0.150,0.400
3.250,0.025,0.265
3.252,-0.095,0.120
3.254,-0.185,-0.015
3.256,-0.250,-0.130
3.258,-0.265,-0.225
3.260,-0.305,-0.290
3.262,-0.305,-0.330
3.264,-0.360,-0.345
3.266,-0.455,-0.345
3.268,-0.545,-0.335
3.270,-0.550,-0.320
3.272,-0.510,-0.300
3.274,-0.435,-0.280
3.276,-0.310,-0.255
3.278,-0.165,-0.230
3.280,-0.105,-0.205
3.282,-0.090,-0.175
3.284,-0.130,-0.145
3.286,-0.205,-0.120
3.288,-0.295,-0.095
3.290,-0.300,-0.075
3.292,-0.280,-0.065
3.294,-0.210,-0.055
3.296,-0.110,-0.055
3.298,-0.015,-0.055
3.300,0.005,-0.055
3.302,0.010,-0.055
3.304,-0.050,-0.055
3.306,-0.155,-0.050
3.308,-0.240,-0.045
3.310,-0.270,-0.035
3.312,-0.255,-0.030
3.314,-0.190,-0.025
3.316,-0.070,-0.025
3.318,0.010,-0.020
3.320,0.040,-0.020
3.322,0.025,-0.020
3.324,-0.050,-0.015
3.326,-0.145,-0.015
3.328,-0.220,-0.010
3.330,-0.240,-0.005
3.332,-0.215,0.000
3.334,-0.155,0.005
3.336,-0.030,0.005
3.338,0.045,0.005
3.340,0.055,0.005
3.342,0.040,0.000
3.344,-0.020,-0.005
3.346,-0.145,-0.010
3.348,-0.210,-0.010
3.350,-0.230,-0.010
3.352,-0.210,-0.005
3.354,-0.135,0.000
3.356,-0.010,0.005
3.358,0.060,0.010
3.360,0.075,0.010
3.362,0.055,0.015
3.364,-0.005,0.015
3.366,-0.125,0.020
3.368,-0.185,0.020
3.370,-0.200,0.025
3.372,-0.170,0.030
3.374,-0.105,0.030
3.376,0.025,0.035
3.378,0.090,0.040
3.380,0.110,0.040
3.382,0.080,0.040
3.384,0.020,0.040
3.386,-0.100,0.045
3.388,-0.155,0.045
3.390,-0.160,0.050
3.392,-0.135,0.060
3.394,-0.055,0.065
3.396,0.080,0.075
3.398,0.135,0.080
3.400,0.155,0.085
3.402,0.130,0.090
3.404,0.070,0.095
3.406,-0.055,0.100
3.408,-0.100,0.105
3.410,-0.105,0.115
3.412,-0.060,0.125
3.414,0.005,0.135
3.416,0.155,0.150
3.418,0.210,0.160
3.420,0.230,0.170
3.422,0.210,0.180
3.424,0.135,0.180
3.426,0.010,0.185
3.428,-0.025,0.185
3.430,-0.035,0.185
3.432,0.015,0.185
3.434,0.095,0.190
3.436,0.240,0.200
3.438,0.300,0.215
3.440,0.320,0.230
3.442,0.285,0.240
3.444,0.210,0.255
3.446,0.085,0.265
3.448,0.040,0.270
3.450,0.030,0.275
3.452,0.080,0.275
3.454,0.155,0.270
3.456,0.280,0.270
3.458,0.315,0.265
3.460,0.335,0.260
3.462,0.285,0.255
3.464,0.205,0.250
3.466,0.060,0.240
3.468,0.015,0.235
3.470,-0.005,0.225
3.472,0.035,0.220
3.474,0.100,0.205
3.476,0.210,0.195
3.478,0.225,0.180
3.480,0.220,0.165
3.482,0.135,0.145
3.484,0.045,0.125
3.486,-0.095,0.105
3.488,-0.145,0.085
3.490,-0.170,0.070
3.492,-0.135,0.050
3.494,-0.065,0.035
3.496,0.040,0.025
3.498,0.075,0.015
3.500,0.070,0.010
3.502,0.015,0.000
3.504,-0.080,-0.005
3.506,-0.210,-0.010
3.508,-0.245,-0.015
3.510,-0.260,-0.020
3.512,-0.210,-0.025
3.514,-0.125,-0.030
3.516,-0.010,-0.035
3.518,0.015,-0.040
3.520,0.015,-0.045
3.522,-0.035,-0.050
3.524,-0.140,-0.050
3.526,-0.255,-0.055
3.528,-0.275,-0.055
3.530,-0.275,-0.055
3.532,-0.215,-0.055
3.534,-0.130,-0.060
3.536,-0.020,-0.060
3.538,-0.005,-0.060
3.540,-0.010,-0.060
3.542,-0.065,-0.065
3.544,-0.165,-0.065
3.546,-0.270,-0.065
3.548,-0.290,-0.065
3.550,-0.280,-0.070
3.552,-0.215,-0.070
3.554,-0.115,-0.070
3.556,-0.020,-0.070
3.558,0.000,-0.070
3.560,-0.010,-0.065
3.562,-0.060,-0.065
3.564,-0.160,-0.060
3.566,-0.260,-0.055
3.568,-0.280,-0.055
3.570,-0.275,-0.055
3.572,-0.215,-0.055
3.574,-0.120,-0.060
3.576,-0.030,-0.065
3.578,0.000,-0.070
3.580,-0.005,-0.070
3.582,-0.070,-0.075
3.584,-0.175,-0.070
3.586,-0.265,-0.065
3.588,-0.280,-0.060
3.590,-0.265,-0.055
3.592,-0.205,-0.050
3.594,-0.085,-0.045
3.596,0.000,-0.045
3.598,0.000,-0.050
3.600,-0.005,-0.060
3.602,-0.075,-0.065
3.604,-0.185,-0.070
3.606,-0.255,-0.075
3.608,-0.280,-0.075
3.610,-0.265,-0.070
3.612,-0.200,-0.065
3.614,-0.075,-0.060
3.616,-0.005,-0.055
3.618,0.015,-0.050
3.620,-0.005,-0.045
3.622,-0.075,-0.045
3.624,-0.175,-0.045
3.626,-0.255,-0.045
3.628,-0.270,-0.045
3.630,-0.245,-0.045
3.632,-0.175,-0.045
3.634,-0.050,-0.045
3.636,0.010,-0.045
3.638,0.030,-0.045
3.640,0.005,-0.045
3.642,-0.065,-0.040
3.644,-0.175,-0.040
3.646,-0.235,-0.040
3.648,-0.245,-0.035
3.650,-0.225,-0.035
3.652,-0.165,-0.035
3.654,-0.035,-0.035
3.656,0.020,-0.040
3.658,0.040,-0.040
3.660,0.010,-0.045
3.662,-0.055,-0.045
3.664,-0.185,-0.050
3.666,-0.240,-0.045
3.668,-0.250,-0.045
3.670,-0.215,-0.040
3.672,-0.160,-0.030
3.674,-0.030,-0.025
3.676,0.025,-0.025
3.678,0.040,-0.025
3.680,0.005,-0.025
3.682,-0.070,-0.030
3.684,-0.195,-0.035
3.686,-0.240,-0.035
3.688,-0.250,-0.040
3.690,-0.220,-0.040
3.692,-0.150,-0.040
3.694,-0.020,-0.040
3.696,0.020,-0.045
3.698,0.040,-0.045
3.700,-0.005,-0.045
3.702,-0.075,-0.050
3.704,-0.195,-0.055
3.706,-0.245,-0.055
3.708,-0.255,-0.050
3.710,-0.215,-0.050
3.712,-0.150,-0.040
3.714,-0.010,-0.035
3.716,0.035,-0.030
3.718,0.040,-0.025
3.720,-0.005,-0.025
3.722,-0.080,-0.030
3.724,-0.205,-0.035
3.726,-0.245,-0.040
3.728,-0.265,-0.045
3.730,-0.210,-0.045
3.732,-0.135,-0.045
3.734,0.005,-0.045
3.736,0.045,-0.040
3.738,0.050,-0.035
3.740,0.000,-0.030
3.742,-0.080,-0.030
3.744,-0.210,-0.030
3.746,-0.240,-0.035
3.748,-0.250,-0.040
3.750,-0.205,-0.045
3.752,-0.135,-0.050
3.754,-0.005,-0.050
3.756,0.030,-0.055
3.758,0.040,-0.055
3.760,-0.015,-0.055
3.762,-0.090,-0.055
3.764,-0.215,-0.055
3.766,-0.240,-0.050
3.768,-0.250,-0.050
3.770,-0.195,-0.045
3.772,-0.115,-0.040
3.774,0.010,-0.035
3.776,0.045,-0.030
3.778,0.050,-0.025
3.780,-0.005,-0.025
3.782,-0.100,-0.025
3.784,-0.210,-0.025
3.786,-0.240,-0.030
3.788,-0.230,-0.035
3.790,-0.175,-0.040
3.792,-0.090,-0.040
3.794,0.020,-0.045
3.796,0.040,-0.045
3.798,0.055,-0.040
3.800,-0.015,-0.035
3.802,-0.115,-0.030
3.804,-0.210,-0.030
3.806,-0.235,-0.030
3.808,-0.230,-0.030
3.810,-0.170,-0.035
3.812,-0.070,-0.045
3.814,0.035,-0.050
3.816,0.050,-0.055
3.818,0.050,-0.055
3.820,-0.005,-0.055
3.822,-0.090,-0.045
3.824,-0.195,-0.040
3.826,-0.220,-0.030
3.828,-0.205,-0.020
3.830,-0.130,-0.010
3.832,-0.020,-0.010
3.834,0.085,-0.005
3.836,0.110,-0.005
3.838,0.105,-0.005
3.840,0.045,-0.005
3.842,-0.065,-0.005
3.844,-0.165,-0.005
3.846,-0.210,-0.005
3.848,-0.200,-0.005
3.850,-0.145,-0.005
3.852,-0.035,-0.015
3.854,0.040,-0.020
3.856,0.050,-0.035
3.858,0.040,-0.045
3.860,-0.015,-0.060
3.862,-0.145,-0.070
3.864,-0.225,-0.075
3.866,-0.245,-0.075
3.868,-0.225,-0.075
3.870,-0.155,-0.070
3.872,-0.050,-0.065
3.874,0.035,-0.060
3.876,0.050,-0.055
3.878,0.045,-0.050
3.880,-0.020,-0.050
3.882,-0.135,-0.050
3.884,-0.215,-0.045
3.886,-0.235,-0.045
3.888,-0.215,-0.040
3.890,-0.145,-0.040
3.892,-0.020,-0.035
3.894,0.040,-0.035
3.896,0.060,-0.035
3.898,0.040,-0.040
3.900,-0.025,-0.045
3.902,-0.155,-0.050
3.904,-0.225,-0.055
3.906,-0.240,-0.055
3.908,-0.210,-0.055
3.910,-0.150,-0.055
3.912,-0.015,-0.050
3.914,0.035,-0.045
3.916,0.060,-0.040
3.918,0.035,-0.035
3.920,-0.035,-0.035
3.922,-0.155,-0.040
3.924,-0.230,-0.045
3.926,-0.240,-0.050
3.928,-0.220,-0.060
3.930,-0.155,-0.065
3.932,-0.035,-0.060
3.934,0.035,-0.040
3.936,0.100,-0.010
3.938,0.130,0.045
3.940,0.150,0.115
3.942,0.115,0.205
3.944,0.170,0.305
3.946,0.250,0.410
3.948,0.370,0.510
3.950,0.545,0.595
3.952,0.770,0.655
3.954,0.880,0.675
3.956,0.825,0.660
3.958,0.655,0.605
3.960,0.475,0.515
3.962,0.245,0.395
3.964,0.090,0.260
3.966,-0.050,0.120
3.968,-0.155,-0.015
3.970,-0.260,-0.130
3.972,-0.250,-0.225
3.974,-0.255,-0.295
3.976,-0.230,-0.335
3.978,-0.265,-0.350
3.980,-0.320,-0.350
3.982,-0.450,-0.335
3.984,-0.465,-0.310
3.986,-0.445,-0.285
3.988,-0.380,-0.255
3.990,-0.285,-0.225
3.992,-0.100,-0.195
3.994,-0.045,-0.170
3.996,-0.015,-0.145
3.998,-0.025,-0.120
4.000,-0.080,-0.100
4.002,-0.200,-0.085
4.004,-0.225,-0.070
4.006,-0.225,-0.060
4.008,-0.170,-0.055
4.010,-0.095,-0.050
4.012,0.045,-0.045
4.014,0.070,-0.040
4.016,0.085,-0.035
4.018,0.055,-0.030
4.020,-0.030,-0.020
4.022,-0.155,-0.015
4.024,-0.180,-0.010
4.026,-0.190,-0.010
4.028,-0.140,-0.010
4.030,-0.045,-0.010
4.032,0.075,-0.015
4.034,0.110,-0.020
4.036,0.120,-0.025
4.038,0.075,-0.025
4.040,-0.015,-0.025
4.042,-0.130,-0.020
4.044,-0.165,-0.010
4.046,-0.170,0.000
4.048,-0.110,0.005
4.050,-0.025,0.015
4.052,0.100,0.015
4.054,0.130,0.020
4.056,0.135,0.015
4.058,0.090,0.015
4.060,0.010,0.010
4.062,-0.105,0.005
4.064,-0.145,0.005
4.066,-0.135,0.005
4.068,-0.080,0.005
4.070,0.005,0.010
4.072,0.125,0.015
4.074,0.155,0.025
4.076,0.150,0.030
4.078,0.100,0.035
4.080,0.010,0.040
4.082,-0.095,0.045
4.084,-0.120,0.045
4.086,-0.120,0.045
4.088,-0.055,0.045
4.090,0.030,0.045
4.092,0.155,0.045
4.094,0.180,0.045
4.096,0.190,0.045
4.098,0.135,0.050
4.100,0.030,0.055
4.102,-0.065,0.065
4.104,-0.090,0.070
4.106,-0.070,0.075
4.108,-0.010,0.080
4.110,0.095,0.085
4.112,0.215,0.090
4.114,0.225,0.090
4.116,0.225,0.095
4.118,0.165,0.095
4.120,0.060,0.105
4.122,-0.015,0.110
4.124,-0.015,0.120
4.126,0.000,0.135
4.128,0.055,0.145
4.130,0.180,0.155
4.132,0.270,0.160
4.134,0.305,0.165
4.136,0.305,0.170
4.138,0.245,0.175
4.140,0.140,0.180
4.142,0.060,0.190
4.144,0.050,0.200
4.146,0.085,0.205
4.148,0.145,0.220
4.150,0.270,0.230
4.152,0.350,0.235
4.154,0.385,0.245
4.156,0.365,0.245
4.158,0.310,0.250
4.160,0.200,0.250
4.162,0.125,0.245
4.164,0.105,0.245
4.166,0.135,0.245
4.168,0.205,0.245
4.170,0.310,0.250
4.172,0.385,0.250
4.174,0.405,0.255
4.176,0.375,0.260
4.178,0.300,0.260
4.180,0.180,0.260
4.182,0.100,0.255
4.184,0.065,0.245
4.186,0.070,0.230
4.188,0.125,0.210
4.190,0.240,0.185
4.192,0.275,0.160
4.194,0.270,0.135
4.196,0.225,0.110
4.198,0.150,0.090
4.200,0.000,0.075
4.202,-0.075,0.060
4.204,-0.100,0.050
4.206,-0.085,0.045
4.208,-0.040,0.040
4.210,0.080,0.030
4.212,0.120,0.020
4.214,0.130,0.005
4.216,0.090,-0.010
4.218,0.025,-0.025
4.220,-0.115,-0.035
4.222,-0.170,-0.040
4.224,-0.195,-0.045
4.226,-0.155,-0.045
4.228,-0.095,-0.045
4.230,0.015,-0.045
4.232,0.075,-0.040
4.234,0.095,-0.040
4.236,0.055,-0.045
4.238,-0.020,-0.050
4.240,-0.155,-0.055
4.242,-0.205,-0.055
4.244,-0.220,-0.060
4.246,-0.185,-0.060
4.248,-0.120,-0.060
4.250,0.015,-0.060
4.252,0.050,-0.060
4.254,0.065,-0.060
4.256,0.040,-0.065
4.258,-0.035,-0.070
4.260,-0.160,-0.075
4.262,-0.215,-0.080
4.264,-0.230,-0.085
4.266,-0.195,-0.085
4.268,-0.115,-0.085
4.270,0.010,-0.080
4.272,0.065,-0.080
4.274,0.065,-0.075
4.276,0.035,-0.075
4.278,-0.040,-0.075
4.280,-0.175,-0.075
4.282,-0.225,-0.080
4.284,-0.225,-0.080
4.286,-0.180,-0.085
4.288,-0.095,-0.085
4.290,0.030,-0.085
4.292,0.060,-0.080
4.294,0.080,-0.075
4.296,0.030,-0.070
4.298,-0.060,-0.065
4.300,-0.185,-0.060
4.302,-0.215,-0.060
4.304,-0.220,-0.065
4.306,-0.185,-0.070
4.308,-0.095,-0.080
4.310,0.030,-0.085
4.312,0.060,-0.090
4.314,0.070,-0.095
4.316,0.020,-0.095
4.318,-0.060,-0.090
4.320,-0.180,-0.085
4.322,-0.220,-0.075
4.324,-0.220,-0.070
4.326,-0.160,-0.065
4.328,-0.075,-0.060
4.330,0.045,-0.055
4.332,0.080,-0.055
4.334,0.085,-0.055
4.336,0.035,-0.055
4.338,-0.055,-0.055
4.340,-0.185,-0.055
4.342,-0.200,-0.055
4.344,-0.210,-0.055
4.346,-0.150,-0.055
4.348,-0.060,-0.055
4.350,0.065,-0.055
4.352,0.085,-0.055
4.354,0.080,-0.055
4.356,0.020,-0.055
4.358,-0.065,-0.060
4.360,-0.170,-0.060
4.362,-0.195,-0.060
4.364,-0.200,-0.060
4.366,-0.150,-0.060
4.368,-0.040,-0.065
4.370,0.075,-0.065
4.372,0.085,-0.060
4.374,0.085,-0.060
4.376,0.030,-0.055
4.378,-0.070,-0.050
4.380,-0.180,-0.045
4.382,-0.190,-0.035
4.384,-0.200,-0.035
4.386,-0.140,-0.035
4.388,-0.025,-0.035
4.390,0.065,-0.040
4.392,0.095,-0.045
4.394,0.080,-0.050
4.396,0.030,-0.055
4.398,-0.085,-0.055
4.400,-0.185,-0.055
4.402,-0.195,-0.050
4.404,-0.200,-0.045
4.406,-0.135,-0.040
4.408,-0.030,-0.040
4.410,0.065,-0.040
4.412,0.090,-0.045
4.414,0.070,-0.045
4.416,0.015,-0.050
4.418,-0.095,-0.055
4.420,-0.180,-0.055
4.422,-0.205,-0.055
4.424,-0.195,-0.050
4.426,-0.140,-0.045
4.428,-0.005,-0.040
4.430,0.065,-0.040
4.432,0.075,-0.040
4.434,0.060,-0.045
4.436,-0.005,-0.050
4.438,-0.120,-0.060
4.440,-0.195,-0.070
4.442,-0.210,-0.075
4.444,-0.200,-0.080
4.446,-0.130,-0.085
4.448,-0.015,-0.080
4.450,0.060,-0.080
4.452,0.075,-0.075
4.454,0.050,-0.070
4.456,-0.005,-0.065
4.458,-0.135,-0.060
4.460,-0.190,-0.055
4.462,-0.205,-0.055
4.464,-0.180,-0.050
4.466,-0.125,-0.050
4.468,0.000,-0.055
4.470,0.065,-0.055
4.472,0.075,-0.060
4.474,0.045,-0.065
4.476,-0.015,-0.070
4.478,-0.145,-0.075
4.480,-0.190,-0.075
4.482,-0.205,-0.075
4.484,-0.175,-0.075
4.486,-0.105,-0.075
4.488,0.015,-0.070
4.490,0.080,-0.065
4.492,0.095,-0.065
4.494,0.065,-0.060
4.496,0.000,-0.055
4.498,-0.135,-0.050
4.500,-0.195,-0.050
4.502,-0.225,-0.045
4.504,-0.165,-0.045
4.506,-0.105,-0.045
4.508,0.030,-0.045
4.510,0.075,-0.045
4.512,0.100,-0.050
4.514,0.065,-0.050
4.516,0.005,-0.055
4.518,-0.145,-0.055
4.520,-0.190,-0.050
4.522,-0.210,-0.045
4.524,-0.155,-0.040
4.526,-0.080,-0.030
4.528,0.060,-0.020
4.530,0.115,-0.010
4.532,0.150,0.000
4.534,0.105,0.005
4.536,0.030,0.005
4.538,-0.095,0.005
4.540,-0.160,0.005
4.542,-0.180,0.000
4.544,-0.155,-0.005
4.546,-0.085,-0.015
4.548,0.045,-0.025
4.550,0.080,-0.035
4.552,0.080,-0.050
4.554,0.025,-0.065
4.556,-0.035,-0.075
4.558,-0.180,-0.085
4.560,-0.220,-0.085
4.562,-0.235,-0.080
4.564,-0.175,-0.075
4.566,-0.100,-0.065
4.568,0.025,-0.055
4.570,0.065,-0.050
4.572,0.070,-0.050
4.574,0.025,-0.055
4.576,-0.045,-0.065
4.578,-0.180,-0.075
4.580,-0.230,-0.085
4.582,-0.230,-0.090
4.584,-0.180,-0.085
4.586,-0.095,-0.080
4.588,0.040,-0.065
4.590,0.060,-0.050
4.592,0.075,-0.030
4.594,0.015,-0.015
4.596,-0.070,0.005
4.598,-0.200,0.030
4.600,0.095,0.070
4.602,0.070,0.125
4.604,0.130,0.200
4.606,0.225,0.295
4.608,0.365,0.395
4.610,0.555,0.495
4.612,0.755,0.575
4.614,0.820,0.625
4.616,0.765,0.635
4.618,0.600,0.590
4.620,0.385,0.500
4.622,0.185,0.370
4.624,0.070,0.220
4.626,-0.055,0.070
4.628,-0.150,-0.070
4.630,-0.180,-0.185
4.632,-0.205,-0.265
4.634,-0.220,-0.310
4.636,-0.225,-0.325
4.638,-0.295,-0.325
4.640,-0.395,-0.310
4.642,-0.480,-0.295
4.644,-0.475,-0.285
4.646,-0.445,-0.275
4.648,-0.350,-0.270
4.650,-0.205,-0.255
4.652,-0.090,-0.240
4.654,-0.035,-0.215
4.656,-0.025,-0.180
4.658,-0.075,-0.140
4.660,-0.165,-0.105
4.662,-0.230,-0.075
4.664,-0.235,-0.055
4.666,-0.210,-0.045
4.668,-0.140,-0.045
4.670,-0.015,-0.050
4.672,0.070,-0.055
4.674,0.080,-0.060
4.676,0.065,-0.060
4.678,0.010,-0.050
4.680,-0.115,-0.040
4.682,-0.180,-0.025
4.684,-0.195,-0.015
4.686,-0.165,-0.005
4.688,-0.095,0.000
4.690,0.020,0.000
4.692,0.085,-0.005
4.694,0.110,-0.010
4.696,0.085,-0.010
4.698,0.015,-0.015
4.700,-0.100,-0.010
4.702,-0.160,-0.005
4.704,-0.180,0.005
4.706,-0.160,0.010
4.708,-0.095,0.015
4.710,0.040,0.020
4.712,0.110,0.015
4.714,0.125,0.010
4.716,0.090,0.005
4.718,0.030,0.000
4.720,-0.095,-0.005
4.722,-0.160,-0.010
4.724,-0.170,-0.005
4.726,-0.130,0.000
4.728,-0.070,0.005
4.730,0.070,0.015
4.732,0.120,0.025
4.734,0.140,0.030
4.736,0.120,0.035
4.738,0.040,0.035
4.740,-0.080,0.035
4.742,-0.140,0.035
4.744,-0.150,0.030
4.746,-0.120,0.030
4.748,-0.050,0.030
4.750,0.080,0.030
4.752,0.145,0.035
4.754,0.170,0.035
4.756,0.140,0.040
4.758,0.070,0.045
4.760,-0.060,0.050
4.762,-0.105,0.055
4.764,-0.120,0.060
4.766,-0.070,0.065
4.768,0.005,0.070
4.770,0.150,0.075
4.772,0.200,0.080
4.774,0.210,0.085
4.776,0.175,0.090
4.778,0.110,0.100
4.780,-0.025,0.105
4.782,-0.055,0.110
4.784,-0.060,0.120
4.786,-0.025,0.130
4.788,0.070,0.140
4.790,0.215,0.145
4.792,0.265,0.155
4.794,0.280,0.160
4.796,0.250,0.165
4.798,0.175,0.170
4.800,0.045,0.175
4.802,0.015,0.185
4.804,0.025,0.195
4.806,0.080,0.205
4.808,0.160,0.215
4.810,0.295,0.225
4.812,0.340,0.230
4.814,0.350,0.235
4.816,0.305,0.240
4.818,0.230,0.240
4.820,0.100,0.235
4.822,0.070,0.235
4.824,0.065,0.240
4.826,0.115,0.240
4.828,0.200,0.245
4.830,0.330,0.250
4.832,0.360,0.255
4.834,0.365,0.260
4.836,0.305,0.260
4.838,0.225,0.260
4.840,0.095,0.250
4.842,0.045,0.240
4.844,0.020,0.230
4.846,0.070,0.215
4.848,0.140,0.200
4.850,0.245,0.180
4.852,0.250,0.165
4.854,0.230,0.150
4.856,0.155,0.130
4.858,0.050,0.115
4.860,-0.085,0.095
4.862,-0.125,0.075
4.864,-0.140,0.060
4.866,-0.110,0.040
4.868,-0.030,0.025
4.870,0.080,0.010
4.872,0.090,0.000
4.874,0.090,-0.005
4.876,0.020,-0.010
4.878,-0.080,-0.015
4.880,-0.215,-0.020
4.882,-0.230,-0.020
4.884,-0.245,-0.025
4.886,-0.180,-0.035
4.888,-0.085,-0.040
4.890,0.020,-0.050
4.892,0.030,-0.055
4.894,0.020,-0.065
4.896,-0.040,-0.070
4.898,-0.140,-0.070
4.900,-0.250,-0.070
4.902,-0.275,-0.070
4.904,-0.260,-0.070
4.906,-0.195,-0.070
4.908,-0.095,-0.070
4.910,-0.010,-0.070
4.912,0.015,-0.070
4.914,0.005,-0.070
4.916,-0.065,-0.070
4.918,-0.170,-0.070
4.920,-0.265,-0.075
4.922,-0.290,-0.075
4.924,-0.280,-0.075
4.926,-0.210,-0.075
4.928,-0.100,-0.075
4.930,-0.015,-0.080
4.932,0.005,-0.080
4.934,-0.010,-0.085
4.936,-0.080,-0.085
4.938,-0.185,-0.090
4.940,-0.270,-0.085
4.942,-0.295,-0.085
4.944,-0.280,-0.080
4.946,-0.195,-0.080
4.948,-0.080,-0.080
4.950,-0.015,-0.080
4.952,0.010,-0.080
4.954,0.000,-0.080
4.956,-0.070,-0.080
4.958,-0.195,-0.080
4.960,-0.275,-0.080
4.962,-0.285,-0.080
4.964,-0.260,-0.075
4.966,-0.190,-0.075
4.968,-0.070,-0.070
4.970,0.000,-0.070
4.972,0.025,-0.075
4.974,-0.010,-0.075
4.976,-0.070,-0.075
4.978,-0.215,-0.075
4.980,-0.275,-0.070
4.982,-0.280,-0.065
4.984,-0.255,-0.060
4.986,-0.185,-0.060
4.988,-0.060,-0.055
4.990,0.005,-0.055
4.992,0.020,-0.060
4.994,-0.005,-0.065
4.996,-0.065,-0.070
4.998,-0.210,-0.070
5.000,-0.270,-0.075
5.002,-0.270,-0.075
5.004,-0.245,-0.070
5.006,-0.180,-0.065
5.008,-0.045,-0.060
5.010,0.015,-0.060
5.012,0.025,-0.060
5.014,-0.010,-0.060
5.016,-0.075,-0.065
5.018,-0.210,-0.070
5.020,-0.265,-0.070
5.022,-0.285,-0.070
5.024,-0.235,-0.065
5.026,-0.170,-0.055
5.028,-0.030,-0.045
5.030,0.020,-0.035
5.032,0.025,-0.030
5.034,-0.005,-0.030
5.036,-0.080,-0.030
5.038,-0.210,-0.035
5.040,-0.260,-0.040
5.042,-0.285,-0.050
5.044,-0.240,-0.055
5.046,-0.170,-0.055
5.048,-0.025,-0.055
5.050,0.015,-0.050
5.052,0.035,-0.050
5.054,-0.015,-0.045
5.056,-0.085,-0.045
5.058,-0.220,-0.045
5.060,-0.265,-0.050
5.062,-0.270,-0.055
5.064,-0.245,-0.060
5.066,-0.165,-0.065
5.068,-0.030,-0.065
5.070,0.005,-0.065
5.072,0.015,-0.065
5.074,-0.020,-0.065
5.076,-0.100,-0.060
5.078,-0.240,-0.060
5.080,-0.275,-0.055
5.082,-0.290,-0.055
5.084,-0.245,-0.050
5.086,-0.165,-0.050
5.088,-0.025,-0.045
5.090,0.020,-0.045
5.092,0.035,-0.045
5.094,-0.030,-0.045
5.096,-0.115,-0.045
5.098,-0.250,-0.045
5.100,-0.280,-0.050
5.102,-0.295,-0.050
5.104,-0.240,-0.055
5.106,-0.145,-0.055
5.108,-0.025,-0.055
5.110,0.000,-0.060
5.112,0.000,-0.060
5.114,-0.045,-0.065
5.116,-0.130,-0.065
5.118,-0.260,-0.065
5.120,-0.290,-0.065
5.122,-0.285,-0.065
5.124,-0.225,-0.065
5.126,-0.140,-0.060
5.128,-0.010,-0.060
5.130,0.000,-0.055
5.132,-0.005,-0.050
5.134,-0.050,-0.050
5.136,-0.145,-0.050
5.138,-0.255,-0.050
5.140,-0.285,-0.055
5.142,-0.290,-0.060
5.144,-0.225,-0.060
5.146,-0.125,-0.065
5.148,-0.015,-0.065
5.150,0.010,-0.065
5.152,0.010,-0.060
5.154,-0.065,-0.050
5.156,-0.160,-0.045
5.158,-0.270,-0.040
5.160,-0.285,-0.035
5.162,-0.270,-0.035
5.164,-0.220,-0.040
5.166,-0.115,-0.050
5.168,-0.010,-0.055
5.170,0.005,-0.065
5.172,0.010,-0.070
5.174,-0.055,-0.070
5.176,-0.155,-0.070
5.178,-0.255,-0.060
5.180,-0.275,-0.045
5.182,-0.250,-0.030
5.184,-0.200,-0.015
5.186,-0.070,-0.005
5.188,0.035,0.005
5.190,0.060,0.005
5.192,0.050,0.005
5.194,-0.010,0.000
5.196,-0.140,-0.005
5.198,-0.230,-0.010
5.200,-0.260,-0.015
5.202,-0.265,-0.020
5.204,-0.205,-0.020
5.206,-0.085,-0.025
5.208,-0.015,-0.025
5.210,0.005,-0.030
5.212,-0.010,-0.035
5.214,-0.075,-0.040
5.216,-0.190,-0.050
5.218,-0.295,-0.055
5.220,-0.325,-0.065
5.222,-0.290,-0.070
5.224,-0.220,-0.075
5.226,-0.105,-0.075
5.228,-0.035,-0.075
5.230,-0.010,-0.075
5.232,-0.025,-0.075
5.234,-0.085,-0.070
5.236,-0.205,-0.070
5.238,-0.290,-0.065
5.240,-0.310,-0.060
5.242,-0.275,-0.060
5.244,-0.210,-0.055
5.246,-0.085,-0.055
5.248,-0.020,-0.050
5.250,0.005,-0.055
5.252,-0.030,-0.055
5.254,-0.100,-0.055
5.256,-0.215,-0.060
5.258,-0.290,-0.065
5.260,-0.310,-0.070
5.262,-0.265,-0.070
5.264,-0.210,-0.070
5.266,-0.085,-0.065
5.268,-0.030,-0.060
5.270,-0.010,-0.055
5.272,-0.030,-0.050
5.274,-0.100,-0.045
5.276,-0.235,-0.045
5.278,-0.285,-0.045
5.280,-0.305,-0.050
5.282,-0.280,-0.055
5.284,-0.200,-0.055
5.286,-0.070,-0.045
5.288,-0.005,-0.030
5.290,0.060,0.005
5.292,0.085,0.060
5.294,0.090,0.130
5.296,0.050,0.215
5.298,0.100,0.315
5.300,0.175,0.415
5.302,0.300,0.505
5.304,0.485,0.580
5.306,0.695,0.625
5.308,0.775,0.640
5.310,0.695,0.615
5.312,0.530,0.555
5.314,0.350,0.460
5.316,0.125,0.345
5.318,-0.030,0.210
5.320,-0.180,0.080
5.322,-0.270,-0.045
5.324,-0.355,-0.150
5.326,-0.315,-0.235
5.328,-0.305,-0.295
5.330,-0.290,-0.330
5.332,-0.330,-0.345
5.334,-0.400,-0.345
5.336,-0.520,-0.330
5.338,-0.535,-0.305
5.340,-0.520,-0.280
5.342,-0.445,-0.255
5.344,-0.350,-0.225
5.346,-0.170,-0.200
5.348,-0.100,-0.175
5.350,-0.070,-0.150
5.352,-0.105,-0.125
5.354,-0.160,-0.105
5.356,-0.285,-0.085
5.358,-0.310,-0.065
5.360,-0.305,-0.055
5.362,-0.240,-0.045
5.364,-0.160,-0.040
5.366,-0.020,-0.035
5.368,0.010,-0.035
5.370,0.015,-0.035
5.372,-0.035,-0.035
5.374,-0.115,-0.030
5.376,-0.240,-0.025
5.378,-0.275,-0.025
5.380,-0.280,-0.020
5.382,-0.220,-0.015
5.384,-0.125,-0.015
5.386,0.010,-0.010
5.388,0.035,-0.010
5.390,0.040,-0.010
5.392,-0.015,-0.010
5.394,-0.110,-0.005
5.396,-0.220,-0.005
5.398,-0.250,-0.005
5.400,-0.255,-0.005
5.402,-0.190,-0.005
5.404,-0.090,-0.005
5.406,0.020,-0.005
5.408,0.050,-0.010
5.410,0.050,-0.010
5.412,-0.005,-0.010
5.414,-0.100,-0.010
5.416,-0.220,-0.005
5.418,-0.245,0.000
5.420,-0.235,0.010
5.422,-0.160,0.015
5.424,-0.070,0.020
5.426,0.030,0.025
5.428,0.070,0.025
5.430,0.060,0.025
5.432,0.000,0.030
5.434,-0.095,0.030
5.436,-0.195,0.030
5.438,-0.225,0.030
5.440,-0.205,0.030
5.442,-0.145,0.030
5.444,-0.035,0.030
5.446,0.075,0.035
5.448,0.100,0.035
5.450,0.085,0.040
5.452,0.035,0.045
5.454,-0.075,0.050
5.456,-0.175,0.060
5.458,-0.180,0.070
5.460,-0.170,0.080
5.462,-0.105,0.090
5.464,0.025,0.100
5.466,0.120,0.105
5.468,0.150,0.105
5.470,0.145,0.110
5.472,0.085,0.105
5.474,-0.035,0.105
5.476,-0.125,0.100
5.478,-0.135,0.100
5.480,-0.110,0.105
5.482,-0.030,0.110
5.484,0.095,0.120
5.486,0.190,0.135
5.488,0.220,0.145
5.490,0.215,0.165
5.492,0.155,0.180
5.494,0.045,0.190
5.496,-0.030,0.200
5.498,-0.045,0.210
5.500,-0.025,0.215
5.502,0.055,0.220
5.504,0.190,0.225
5.506,0.270,0.225
5.508,0.290,0.230
5.510,0.280,0.240
5.512,0.220,0.245
5.514,0.105,0.255
5.516,0.035,0.265
5.518,0.020,0.270
5.520,0.045,0.280
5.522,0.115,0.280
5.524,0.245,0.280
5.526,0.300,0.275
5.528,0.320,0.270
5.530,0.295,0.265
5.532,0.215,0.255
5.534,0.075,0.250
5.536,0.005,0.240
5.538,-0.025,0.230
5.540,-0.010,0.220
5.542,0.045,0.210
5.544,0.160,0.190
5.546,0.190,0.175
5.548,0.195,0.155
5.550,0.150,0.135
5.552,0.070,0.115
5.554,-0.090,0.100
5.556,-0.160,0.085
5.558,-0.190,0.070
5.560,-0.165,0.060
5.562,-0.105,0.045
5.564,0.005,0.035
5.566,0.050,0.020
5.568,0.060,0.010
5.570,0.010,-0.005
5.572,-0.055,-0.015
5.574,-0.205,-0.025
5.576,-0.265,-0.030
5.578,-0.280,-0.035
5.580,-0.240,-0.035
5.582,-0.175,-0.035
5.584,-0.040,-0.035
5.586,0.005,-0.035
5.588,0.010,-0.040
5.590,-0.030,-0.045
5.592,-0.110,-0.050
5.594,-0.250,-0.055
5.596,-0.305,-0.065
5.598,-0.310,-0.065
5.600,-0.260,-0.070
5.602,-0.190,-0.070
5.604,-0.060,-0.065
5.606,-0.015,-0.065
5.608,0.000,-0.070
5.610,-0.055,-0.070
5.612,-0.135,-0.075
5.614,-0.265,-0.075
5.616,-0.310,-0.080
5.618,-0.310,-0.075
5.620,-0.260,-0.075
5.622,-0.190,-0.070
5.624,-0.060,-0.065
5.626,-0.020,-0.065
5.628,-0.015,-0.060
5.630,-0.060,-0.065
5.632,-0.135,-0.065
5.634,-0.270,-0.070
5.636,-0.310,-0.075
5.638,-0.305,-0.080
5.640,-0.265,-0.080
5.642,-0.190,-0.080
5.644,-0.050,-0.075
5.646,-0.015,-0.070
5.648,-0.010,-0.065
5.650,-0.060,-0.060
5.652,-0.145,-0.055
5.654,-0.270,-0.055
5.656,-0.305,-0.060
5.658,-0.300,-0.060
5.660,-0.245,-0.060
5.662,-0.160,-0.065
5.664,-0.035,-0.060
5.666,0.000,-0.060
5.668,0.005,-0.055
5.670,-0.050,-0.055
5.672,-0.140,-0.050
5.674,-0.260,-0.055
5.676,-0.290,-0.055
5.678,-0.280,-0.060
5.680,-0.235,-0.065
5.682,-0.140,-0.070
5.684,-0.015,-0.070
5.686,0.010,-0.070
5.688,0.015,-0.070
5.690,-0.050,-0.065
5.692,-0.145,-0.060
5.694,-0.260,-0.055
5.696,-0.285,-0.055
5.698,-0.270,-0.050
5.700,-0.210,-0.050
5.702,-0.105,-0.050
5.704,-0.005,-0.055
5.706,0.015,-0.055
5.708,0.015,-0.055
5.710,-0.050,-0.055
5.712,-0.150,-0.055
5.714,-0.255,-0.050
5.716,-0.280,-0.050
5.718,-0.275,-0.050
5.720,-0.205,-0.050
5.722,-0.100,-0.050
5.724,0.000,-0.050
5.726,0.025,-0.055
5.728,0.015,-0.055
5.730,-0.050,-0.050
5.732,-0.150,-0.050
5.734,-0.255,-0.045
5.736,-0.275,-0.040
5.738,-0.265,-0.035
5.740,-0.200,-0.030
5.742,-0.080,-0.030
5.744,0.005,-0.035
5.746,0.030,-0.040
5.748,0.015,-0.045
5.750,-0.050,-0.055
5.752,-0.170,-0.060
5.754,-0.255,-0.065
5.756,-0.275,-0.070
5.758,-0.255,-0.070
5.760,-0.185,-0.065
5.762,-0.070,-0.065
5.764,-0.005,-0.060
5.766,0.030,-0.055
5.768,0.015,-0.050
5.770,-0.050,-0.050
5.772,-0.165,-0.045
5.774,-0.255,-0.045
5.776,-0.285,-0.045
5.778,-0.260,-0.045
5.780,-0.175,-0.050
5.782,-0.055,-0.050
5.784,0.010,-0.055
5.786,0.030,-0.055
5.788,0.015,-0.060
5.790,-0.060,-0.060
5.792,-0.180,-0.055
5.794,-0.250,-0.055
5.796,-0.275,-0.050
5.798,-0.245,-0.045
5.800,-0.175,-0.040
5.802,-0.050,-0.035
5.804,0.010,-0.035
5.806,0.035,-0.040
5.808,0.015,-0.045
5.810,-0.060,-0.050
5.812,-0.185,-0.055
5.814,-0.250,-0.055
5.816,-0.270,-0.060
5.818,-0.245,-0.060
5.820,-0.165,-0.060
5.822,-0.040,-0.055
5.824,0.010,-0.055
5.826,0.020,-0.055
5.828,0.000,-0.055
5.830,-0.070,-0.055
5.832,-0.195,-0.060
5.834,-0.255,-0.060
5.836,-0.280,-0.065
5.838,-0.235,-0.065
5.840,-0.160,-0.065
5.842,-0.025,-0.065
5.844,0.025,-0.060
5.846,0.035,-0.060
5.848,0.000,-0.060
5.850,-0.070,-0.060
5.852,-0.195,-0.055
5.854,-0.250,-0.055
5.856,-0.260,-0.055
5.858,-0.230,-0.050
5.860,-0.155,-0.050
5.862,-0.010,-0.050
5.864,0.030,-0.050
5.866,0.050,-0.050
5.868,0.000,-0.050
5.870,-0.065,-0.050
5.872,-0.200,-0.045
5.874,-0.245,-0.045
5.876,-0.250,-0.040
5.878,-0.205,-0.035
5.880,-0.130,-0.030
5.882,0.010,-0.020
5.884,0.050,-0.015
5.886,0.085,-0.015
5.888,0.045,-0.010
5.890,-0.025,-0.005
5.892,-0.160,0.000
5.894,-0.190,0.000
5.896,-0.200,0.005
5.898,-0.150,0.005
5.900,-0.080,0.005
5.902,0.035,0.000
5.904,0.060,-0.005
5.906,0.065,-0.010
5.908,0.005,-0.020
5.910,-0.065,-0.030
5.912,-0.195,-0.040
5.914,-0.240,-0.050
5.916,-0.255,-0.055
5.918,-0.215,-0.055
5.920,-0.130,-0.060
5.922,-0.005,-0.060
5.924,0.030,-0.060
5.926,0.035,-0.060
5.928,-0.020,-0.060
5.930,-0.100,-0.065
5.932,-0.225,-0.065
5.934,-0.250,-0.065
5.936,-0.250,-0.065
5.938,-0.195,-0.065
5.940,-0.115,-0.060
5.942,0.010,-0.055
5.944,0.040,-0.050
5.946,0.045,-0.045
5.948,-0.025,-0.045
5.950,-0.105,-0.050
5.952,-0.220,-0.055
5.954,-0.245,-0.060
5.956,-0.250,-0.065
5.958,-0.190,-0.065
5.960,-0.095,-0.070
5.962,0.015,-0.070
5.964,0.040,-0.065
5.966,0.035,-0.065
5.968,-0.020,-0.060
5.970,-0.105,-0.060
5.972,-0.220,-0.060
5.974,-0.255,-0.060
5.976,-0.245,-0.060
5.978,-0.195,-0.065
5.980,-0.085,-0.065
5.982,0.020,-0.070
5.984,0.040,-0.070
5.986,0.025,-0.065
5.988,-0.030,-0.055
5.990,-0.120,-0.035
5.992,-0.190,-0.005
5.994,-0.145,0.045
5.996,-0.075,0.110
5.998,0.085,0.190
6.000,0.295,0.285
6.002,0.500,0.390
6.004,0.610,0.490
6.006,0.685,0.575
6.008,0.735,0.640
6.010,0.695,0.675
6.012,0.565,0.670
6.014,0.420,0.625
6.016,0.300,0.540
6.018,0.250,0.420
6.020,0.265,0.285
6.022,0.230,0.140
6.024,0.110,0.000
6.026,-0.060,-0.125
6.028,-0.265,-0.220
6.030,-0.440,-0.290
6.032,-0.530,-0.335
6.034,-0.540,-0.350
6.036,-0.515,-0.350
6.038,-0.445,-0.335
6.040,-0.295,-0.310
6.042,-0.190,-0.285
6.044,-0.150,-0.265
6.046,-0.145,-0.240
6.048,-0.170,-0.215
6.050,-0.255,-0.195
6.052,-0.305,-0.165
6.054,-0.300,-0.140
6.056,-0.255,-0.115
6.058,-0.175,-0.090
6.060,-0.040,-0.070
6.062,0.045,-0.055
6.064,0.070,-0.050
6.066,0.045,-0.045
6.068,-0.015,-0.045
6.070,-0.140,-0.045
6.072,-0.200,-0.045
6.074,-0.220,-0.045
6.076,-0.185,-0.040
6.078,-0.110,-0.035
6.080,0.025,-0.030
6.082,0.085,-0.025
6.084,0.095,-0.025
6.086,0.070,-0.020
6.088,0.005,-0.020
6.090,-0.120,-0.020
6.092,-0.185,-0.015
6.094,-0.190,-0.010
6.096,-0.160,-0.005
6.098,-0.095,0.005
6.100,0.040,0.010
6.102,0.105,0.015
6.104,0.120,0.020
6.106,0.080,0.020
6.108,0.010,0.015
6.110,-0.120,0.010
6.112,-0.170,0.005
6.114,-0.180,0.000
6.116,-0.135,0.000
6.118,-0.065,0.000
6.120,0.065,0.000
6.122,0.115,0.000
6.124,0.120,0.005
6.126,0.085,0.000
6.128,0.025,0.000
6.130,-0.115,-0.005
6.132,-0.165,-0.010
6.134,-0.175,-0.010
6.136,-0.135,-0.005
6.138,-0.045,0.000
6.140,0.090,0.005
6.142,0.130,0.015
6.144,0.150,0.020
6.146,0.110,0.030
6.148,0.035,0.030
6.150,-0.095,0.035
6.152,-0.130,0.035
6.154,-0.140,0.035
6.156,-0.090,0.035
6.158,-0.010,0.040
6.160,0.130,0.045
6.162,0.175,0.050
6.164,0.190,0.055
6.166,0.145,0.060
6.168,0.070,0.065
6.170,-0.055,0.070
6.172,-0.085,0.070
6.174,-0.090,0.075
6.176,-0.035,0.080
6.178,0.060,0.085
6.180,0.190,0.095
6.182,0.225,0.105
6.184,0.245,0.120
6.186,0.210,0.130
6.188,0.140,0.140
6.190,0.020,0.145
6.192,-0.005,0.150
6.194,-0.005,0.155
6.196,0.055,0.160
6.198,0.145,0.165
6.200,0.285,0.175
6.202,0.315,0.185
6.204,0.330,0.195
6.206,0.280,0.205
6.208,0.200,0.215
6.210,0.085,0.225
6.212,0.065,0.230
6.214,0.055,0.235
6.216,0.115,0.240
6.218,0.210,0.240
6.220,0.335,0.240
6.222,0.380,0.240
6.224,0.375,0.245
6.226,0.320,0.245
6.228,0.230,0.250
6.230,0.105,0.250
6.232,0.070,0.250
6.234,0.065,0.250
6.236,0.110,0.245
6.238,0.210,0.235
6.240,0.310,0.225
6.242,0.320,0.210
6.244,0.305,0.195
6.246,0.235,0.175
6.248,0.115,0.160
6.250,-0.020,0.145
6.252,-0.055,0.130
6.254,-0.060,0.115
6.256,-0.020,0.100
6.258,0.070,0.085
6.260,0.145,0.070
6.262,0.160,0.055
6.264,0.135,0.040
6.266,0.055,0.025
6.268,-0.055,0.010
6.270,-0.160,-0.005
6.272,-0.190,-0.020
6.274,-0.185,-0.035
6.276,-0.130,-0.045
6.278,-0.040,-0.055
6.280,0.050,-0.065
6.282,0.060,-0.070
6.284,0.050,-0.070
6.286,-0.015,-0.070
6.288,-0.120,-0.070
6.290,-0.225,-0.070
6.292,-0.245,-0.070
6.294,-0.225,-0.070
6.296,-0.160,-0.070
6.298,-0.050,-0.070
6.300,0.030,-0.075
6.302,0.050,-0.080
6.304,0.030,-0.085
6.306,-0.030,-0.090
6.308,-0.145,-0.095
6.310,-0.230,-0.095
6.312,-0.255,-0.090
6.314,-0.235,-0.090
6.316,-0.170,-0.085
6.318,-0.045,-0.085
6.320,0.015,-0.080
6.322,0.040,-0.080
6.324,0.025,-0.080
6.326,-0.045,-0.085
6.328,-0.170,-0.085
6.330,-0.235,-0.085
6.332,-0.250,-0.090
6.334,-0.235,-0.090
6.336,-0.165,-0.090
6.338,-0.045,-0.090
6.340,0.025,-0.095
6.342,0.045,-0.095
6.344,0.015,-0.095
6.346,-0.045,-0.095
6.348,-0.170,-0.095
6.350,-0.240,-0.095
6.352,-0.255,-0.095
6.354,-0.230,-0.090
6.356,-0.155,-0.085
6.358,-0.035,-0.085
6.360,0.035,-0.080
6.362,0.060,-0.080
6.364,0.020,-0.080
6.366,-0.040,-0.085
6.368,-0.175,-0.085
6.370,-0.235,-0.085
6.372,-0.245,-0.085
6.374,-0.225,-0.085
6.376,-0.150,-0.085
6.378,-0.015,-0.090
6.380,0.035,-0.090
6.382,0.060,-0.090
6.384,0.025,-0.090
6.386,-0.045,-0.090
6.388,-0.185,-0.090
6.390,-0.230,-0.085
6.392,-0.245,-0.085
6.394,-0.200,-0.080
6.396,-0.140,-0.075
6.398,-0.005,-0.070
6.400,0.050,-0.065
6.402,0.065,-0.065
6.404,0.025,-0.070
6.406,-0.045,-0.070
6.408,-0.185,-0.075
6.410,-0.220,-0.075
6.412,-0.225,-0.075
6.414,-0.190,-0.070
6.416,-0.105,-0.070
6.418,0.015,-0.065
6.420,0.055,-0.060
6.422,0.070,-0.060
6.424,0.025,-0.060
6.426,-0.045,-0.060
6.428,-0.185,-0.065
6.430,-0.220,-0.065
6.432,-0.230,-0.065
6.434,-0.180,-0.065
6.436,-0.105,-0.060
6.438,0.030,-0.055
6.440,0.065,-0.050
6.442,0.065,-0.045
6.444,0.030,-0.045
6.446,-0.050,-0.050
6.448,-0.185,-0.055
6.450,-0.220,-0.060
6.452,-0.235,-0.070
6.454,-0.180,-0.075
6.456,-0.090,-0.080
6.458,0.035,-0.080
6.460,0.070,-0.075
6.462,0.070,-0.070
6.464,0.015,-0.065
6.466,-0.070,-0.065
6.468,-0.195,-0.060
6.470,-0.230,-0.060
6.472,-0.235,-0.060
6.474,-0.175,-0.065
6.476,-0.100,-0.070
6.478,0.025,-0.070
6.480,0.055,-0.070
6.482,0.065,-0.070
6.484,0.005,-0.070
6.486,-0.080,-0.065
6.488,-0.205,-0.065
6.490,-0.225,-0.060
6.492,-0.235,-0.060
6.494,-0.170,-0.060
6.496,-0.085,-0.060
6.498,0.035,-0.065
6.500,0.065,-0.065
6.502,0.065,-0.065
6.504,0.000,-0.065
6.506,-0.085,-0.065
6.508,-0.205,-0.065
6.510,-0.225,-0.060
6.512,-0.230,-0.060
6.514,-0.165,-0.065
6.516,-0.080,-0.065
6.518,0.035,-0.065
6.520,0.050,-0.065
6.522,0.055,-0.065
6.524,-0.005,-0.060
6.526,-0.105,-0.060
6.528,-0.220,-0.055
6.530,-0.235,-0.055
6.532,-0.225,-0.055
6.534,-0.170,-0.055
6.536,-0.060,-0.055
6.538,0.035,-0.060
6.540,0.050,-0.065
6.542,0.060,-0.070
6.544,-0.015,-0.070
6.546,-0.110,-0.075
6.548,-0.215,-0.075
6.550,-0.250,-0.075
6.552,-0.225,-0.075
6.554,-0.145,-0.070
6.556,-0.040,-0.070
6.558,0.055,-0.070
6.560,0.070,-0.065
6.562,0.055,-0.065
6.564,-0.010,-0.060
6.566,-0.120,-0.060
6.568,-0.215,-0.055
6.570,-0.230,-0.050
6.572,-0.210,-0.045
6.574,-0.145,-0.040
6.576,-0.030,-0.040
6.578,0.055,-0.040
6.580,0.075,-0.040
6.582,0.075,-0.040
6.584,-0.015,-0.045
6.586,-0.125,-0.050
6.588,-0.200,-0.050
6.590,-0.220,-0.050
6.592,-0.190,-0.050
6.594,-0.135,-0.050
6.596,0.000,-0.045
6.598,0.075,-0.040
6.600,0.105,-0.030
6.602,0.100,-0.020
6.604,0.045,-0.015
6.606,-0.080,-0.005
6.608,-0.155,0.000
6.610,-0.175,0.005
6.612,-0.155,0.005
6.614,-0.100,0.005
6.616,0.015,0.000
6.618,0.070,-0.010
6.620,0.080,-0.020
6.622,0.060,-0.025
6.624,-0.020,-0.035
6.626,-0.145,-0.040
6.628,-0.225,-0.045
6.630,-0.240,-0.045
6.632,-0.215,-0.050
6.634,-0.150,-0.055
6.636,-0.020,-0.055
6.638,0.045,-0.060
6.640,0.050,-0.065
6.642,0.020,-0.070
6.644,-0.040,-0.075
6.646,-0.165,-0.075
6.648,-0.230,-0.070
6.650,-0.240,-0.065
6.652,-0.200,-0.060
6.654,-0.130,-0.055
6.656,-0.005,-0.050
6.658,0.045,-0.045
6.660,0.065,-0.045
6.662,0.020,-0.050
6.664,-0.035,-0.055
6.666,-0.175,-0.060
6.668,-0.225,-0.065
6.670,-0.250,-0.065
6.672,-0.210,-0.065
6.674,-0.135,-0.065
6.676,0.000,-0.060
6.678,0.055,-0.060
6.680,0.060,-0.055
6.682,0.015,-0.050
6.684,-0.045,-0.045
6.686,-0.170,-0.040
6.688,-0.230,-0.040
6.690,-0.235,-0.035
6.692,-0.195,-0.035
6.694,-0.120,-0.040
6.696,0.020,-0.040
6.698,0.060,-0.040
6.700,0.060,-0.040
6.702,0.025,-0.030
6.704,-0.035,-0.005
6.706,-0.115,0.035
6.708,-0.080,0.090
6.710,-0.025,0.165
6.712,0.140,0.255
6.714,0.315,0.355
6.716,0.530,0.455
6.718,0.660,0.550
6.720,0.780,0.620
6.722,0.825,0.665
6.724,0.750,0.670
6.726,0.520,0.640
6.728,0.350,0.575
6.730,0.230,0.475
6.732,0.175,0.355
6.734,0.145,0.220
6.736,0.160,0.080
6.738,0.035,-0.045
6.740,-0.125,-0.155
6.742,-0.275,-0.245
6.744,-0.370,-0.305
6.746,-0.495,-0.340
6.748,-0.525,-0.350
6.750,-0.515,-0.340
6.752,-0.435,-0.320
6.754,-0.330,-0.285
6.756,-0.175,-0.250
6.758,-0.120,-0.215
6.760,-0.080,-0.185
6.762,-0.100,-0.155
6.764,-0.160,-0.135
6.766,-0.260,-0.115
6.768,-0.275,-0.100
6.770,-0.260,-0.085
6.772,-0.190,-0.070
6.774,-0.080,-0.060
6.776,0.050,-0.045
6.778,0.075,-0.035
6.780,0.080,-0.030
6.782,0.015,-0.025
6.784,-0.080,-0.020
6.786,-0.180,-0.015
6.788,-0.210,-0.015
6.790,-0.210,-0.015
6.792,-0.145,-0.020
6.794,-0.040,-0.020
6.796,0.070,-0.015
6.798,0.095,-0.010
6.800,0.095,-0.005
6.802,0.050,0.000
6.804,-0.060,0.010
6.806,-0.170,0.015
6.808,-0.190,0.020
6.810,-0.175,0.025
6.812,-0.115,0.025
6.814,-0.015,0.025
6.816,0.090,0.020
6.818,0.115,0.015
6.820,0.115,0.015
6.822,0.050,0.015
6.824,-0.050,0.015
6.826,-0.150,0.020
6.828,-0.180,0.025
6.830,-0.165,0.030
6.832,-0.105,0.035
6.834,0.010,0.035
6.836,0.095,0.035
6.838,0.125,0.035
6.840,0.120,0.035
6.842,0.050,0.035
6.844,-0.055,0.035
6.846,-0.140,0.040
6.848,-0.155,0.045
6.850,-0.145,0.050
6.852,-0.085,0.055
6.854,0.040,0.060
6.856,0.120,0.060
6.858,0.150,0.065
6.860,0.135,0.065
6.862,0.065,0.065
6.864,-0.040,0.070
6.866,-0.115,0.070
6.868,-0.120,0.075
6.870,-0.100,0.080
6.872,-0.035,0.085
6.874,0.085,0.090
6.876,0.170,0.095
6.878,0.180,0.095
6.880,0.165,0.095
6.882,0.115,0.095
6.884,-0.005,0.100
6.886,-0.065,0.100
6.888,-0.085,0.105
6.890,-0.060,0.115
6.892,0.025,0.120
6.894,0.145,0.130
6.896,0.225,0.140
6.898,0.245,0.150
6.900,0.220,0.160
6.902,0.175,0.170
6.904,0.060,0.180
6.906,-0.005,0.190
6.908,-0.010,0.200
6.910,0.020,0.210
6.912,0.110,0.220
6.914,0.255,0.230
6.916,0.315,0.240
6.918,0.330,0.245
6.920,0.305,0.250
6.922,0.250,0.255
6.924,0.115,0.255
6.926,0.065,0.260
6.928,0.050,0.265
6.930,0.085,0.265
6.932,0.170,0.270
6.934,0.310,0.270
6.936,0.350,0.270
6.938,0.365,0.270
6.940,0.325,0.270
6.942,0.260,0.265
6.944,0.125,0.265
6.946,0.060,0.265
6.948,0.050,0.260
6.950,0.080,0.260
6.952,0.130,0.255
6.954,0.255,0.245
6.956,0.290,0.240
6.958,0.290,0.225
6.960,0.235,0.210
6.962,0.140,0.195
6.964,-0.005,0.175
6.966,-0.070,0.160
6.968,-0.100,0.140
6.970,-0.065,0.125
6.972,-0.010,0.110
6.974,0.120,0.095
6.976,0.135,0.075
6.978,0.130,0.060
6.980,0.070,0.045
6.982,-0.005,0.030
6.984,-0.155,0.015
6.986,-0.215,0.005
6.988,-0.230,-0.005
6.990,-0.195,-0.010
6.992,-0.110,-0.010
6.994,0.015,-0.015
6.996,0.045,-0.015
6.998,0.050,-0.020
7.000,-0.010,-0.030
7.002,-0.090,-0.040
7.004,-0.235,-0.050
7.006,-0.275,-0.055
7.008,-0.270,-0.065
7.010,-0.225,-0.065
7.012,-0.145,-0.060
7.014,-0.010,-0.060
7.016,0.020,-0.050
7.018,0.030,-0.045
7.020,-0.030,-0.045
7.022,-0.115,-0.045
7.024,-0.240,-0.045
7.026,-0.275,-0.050
7.028,-0.285,-0.055
7.030,-0.225,-0.060
7.032,-0.135,-0.065
7.034,-0.020,-0.065
7.036,0.010,-0.065
7.038,0.010,-0.065
7.040,-0.040,-0.060
7.042,-0.120,-0.060
7.044,-0.250,-0.060
7.046,-0.280,-0.060
7.048,-0.285,-0.065
7.050,-0.230,-0.065
7.052,-0.130,-0.065
7.054,-0.015,-0.060
7.056,0.010,-0.060
7.058,0.000,-0.055
7.060,-0.050,-0.045
7.062,-0.145,-0.045
7.064,-0.250,-0.040
7.066,-0.275,-0.040
7.068,-0.280,-0.045
7.070,-0.220,-0.050
7.072,-0.115,-0.055
7.074,0.000,-0.060
7.076,0.015,-0.060
7.078,0.010,-0.060
7.080,-0.070,-0.060
7.082,-0.150,-0.050
7.084,-0.250,-0.045
7.086,-0.270,-0.035
7.088,-0.270,-0.030
7.090,-0.205,-0.025
7.092,-0.110,-0.025
7.094,-0.005,-0.030
7.096,0.015,-0.035
7.098,0.015,-0.040
7.100,-0.055,-0.045
7.102,-0.165,-0.050
7.104,-0.250,-0.050
7.106,-0.275,-0.050
7.108,-0.255,-0.050
7.110,-0.195,-0.045
7.112,-0.100,-0.045
7.114,0.000,-0.045
7.116,0.030,-0.045
7.118,0.015,-0.045
7.120,-0.050,-0.045
7.122,-0.165,-0.050
7.124,-0.250,-0.045
7.126,-0.280,-0.045
7.128,-0.255,-0.040
7.130,-0.190,-0.035
7.132,-0.065,-0.030
7.134,0.005,-0.025
7.136,0.020,-0.020
7.138,0.015,-0.020
7.140,-0.060,-0.020
7.142,-0.170,-0.020
7.144,-0.250,-0.020
7.146,-0.265,-0.025
7.148,-0.255,-0.025
7.150,-0.185,-0.030
7.152,-0.070,-0.030
7.154,0.000,-0.030
7.156,0.025,-0.035
7.158,0.005,-0.035
7.160,-0.070,-0.035
7.162,-0.200,-0.040
7.164,-0.275,-0.040
7.166,-0.290,-0.045
7.168,-0.255,-0.045
7.170,-0.195,-0.050
7.172,-0.070,-0.050
7.174,0.000,-0.050
7.176,0.015,-0.050
7.178,-0.015,-0.055
7.180,-0.085,-0.050
7.182,-0.205,-0.050
7.184,-0.270,-0.050
7.186,-0.280,-0.045
7.188,-0.255,-0.040
7.190,-0.185,-0.040
7.192,-0.055,-0.035
7.194,0.000,-0.035
7.196,0.015,-0.035
7.198,-0.030,-0.035
7.200,-0.095,-0.040
7.202,-0.225,-0.045
7.204,-0.280,-0.045
7.206,-0.290,-0.050
7.208,-0.245,-0.050
7.210,-0.185,-0.050
7.212,-0.060,-0.050
7.214,-0.005,-0.045
7.216,0.015,-0.045
7.218,-0.030,-0.045
7.220,-0.100,-0.040
7.222,-0.235,-0.040
7.224,-0.290,-0.040
7.226,-0.295,-0.040
7.228,-0.255,-0.040
7.230,-0.185,-0.040
7.232,-0.060,-0.045
7.234,-0.015,-0.045
7.236,0.010,-0.050
7.238,-0.045,-0.055
7.240,-0.110,-0.060
7.242,-0.245,-0.060
7.244,-0.290,-0.065
7.246,-0.295,-0.065
7.248,-0.250,-0.065
7.250,-0.170,-0.060
7.252,-0.050,-0.055
7.254,-0.010,-0.050
7.256,0.015,-0.045
7.258,-0.035,-0.040
7.260,-0.125,-0.040
7.262,-0.260,-0.035
7.264,-0.290,-0.035
7.266,-0.295,-0.040
7.268,-0.240,-0.040
7.270,-0.165,-0.045
7.272,-0.035,-0.050
7.274,0.005,-0.050
7.276,0.005,-0.055
7.278,-0.045,-0.055
7.280,-0.130,-0.055
7.282,-0.250,-0.055
7.284,-0.290,-0.055
7.286,-0.300,-0.055
7.288,-0.245,-0.055
7.290,-0.150,-0.050
7.292,-0.025,-0.050
7.294,0.015,-0.045
7.296,0.010,-0.045
7.298,-0.045,-0.040
7.300,-0.120,-0.040
7.302,-0.250,-0.035
7.304,-0.280,-0.030
7.306,-0.295,-0.025
7.308,-0.225,-0.020
7.310,-0.140,-0.015
7.312,0.005,-0.010
7.314,0.040,0.000
7.316,0.050,0.005
7.318,-0.005,0.010
7.320,-0.085,0.010
7.322,-0.190,0.015
7.324,-0.230,0.010
7.326,-0.245,0.010
7.328,-0.195,0.005
7.330,-0.105,0.000
7.332,-0.015,-0.005
7.334,0.010,-0.010
7.336,0.010,-0.015
7.338,-0.050,-0.020
7.340,-0.150,-0.025
7.342,-0.270,-0.030
7.344,-0.310,-0.035
7.346,-0.310,-0.045
7.348,-0.240,-0.050
7.350,-0.150,-0.055
7.352,-0.060,-0.060
7.354,-0.025,-0.060
7.356,-0.025,-0.065
7.358,-0.070,-0.060
7.360,-0.180,-0.060
7.362,-0.285,-0.060
7.364,-0.310,-0.055
7.366,-0.305,-0.055
7.368,-0.240,-0.055
7.370,-0.120,-0.055
7.372,-0.040,-0.055
7.374,-0.020,-0.055
7.376,-0.020,-0.050
7.378,-0.080,-0.050
7.380,-0.190,-0.045
7.382,-0.290,-0.040
7.384,-0.310,-0.040
7.386,-0.300,-0.040
7.388,-0.235,-0.040
7.390,-0.125,-0.045
7.392,-0.045,-0.045
7.394,-0.020,-0.050
7.396,-0.020,-0.050
7.398,-0.090,-0.050
7.400,-0.200,-0.045
7.402,-0.300,-0.040
7.404,-0.310,-0.040
7.406,-0.300,-0.040
7.408,-0.235,-0.040
7.410,-0.120,-0.045
7.412,-0.045,-0.050
7.414,-0.020,-0.050
7.416,-0.040,-0.050
7.418,-0.090,-0.035
7.420,-0.175,-0.005
7.422,-0.185,0.045
7.424,-0.140,0.110
7.426,-0.035,0.190
7.428,0.135,0.285
7.430,0.355,0.380
7.432,0.500,0.475
7.434,0.605,0.550
7.436,0.680,0.605
7.438,0.655,0.630
7.440,0.500,0.620
7.442,0.315,0.570
7.444,0.190,0.490
7.446,0.100,0.380
7.448,0.075,0.255
7.450,0.060,0.120
7.452,-0.005,-0.010
7.454,-0.140,-0.130
7.456,-0.295,-0.225
7.458,-0.410,-0.295
7.460,-0.535,-0.340
7.462,-0.585,-0.360
7.464,-0.610,-0.360
7.466,-0.565,-0.345
7.468,-0.475,-0.325
7.470,-0.315,-0.295
7.472,-0.235,-0.270
7.474,-0.200,-0.245
7.476,-0.200,-0.220
7.478,-0.220,-0.195
7.480,-0.330,-0.170
7.482,-0.370,-0.140
7.484,-0.370,-0.115
7.486,-0.310,-0.090
7.488,-0.220,-0.070
7.490,-0.070,-0.050
7.492,-0.015,-0.040
7.494,-0.005,-0.035
7.496,-0.040,-0.035
7.498,-0.105,-0.035
7.500,-0.235,-0.040
7.502,-0.285,-0.040
7.504,-0.290,-0.035
7.506,-0.240,-0.030
7.508,-0.170,-0.025
7.510,-0.030,-0.015
7.512,0.005,-0.010
7.514,0.025,-0.005
7.516,-0.015,0.000
7.518,-0.090,0.000
7.520,-0.220,0.000
7.522,-0.265,-0.005
7.524,-0.275,-0.005
7.526,-0.230,-0.005
7.528,-0.150,-0.005
7.530,-0.010,0.000
7.532,0.025,0.005
7.534,0.045,0.010
7.536,-0.005,0.010
7.538,-0.075,0.015
7.540,-0.210,0.015
7.542,-0.245,0.015
7.544,-0.255,0.020
7.546,-0.195,0.020
7.548,-0.120,0.020
7.550,0.015,0.020
7.552,0.035,0.020
7.554,0.050,0.020
7.556,0.005,0.020
7.558,-0.075,0.025
7.560,-0.200,0.025
7.562,-0.235,0.025
7.564,-0.245,0.025
7.566,-0.180,0.030
7.568,-0.110,0.030
7.570,0.030,0.035
7.572,0.065,0.040
7.574,0.070,0.045
7.576,0.015,0.045
7.578,-0.055,0.050
7.580,-0.185,0.050
7.582,-0.195,0.055
7.584,-0.200,0.055
7.586,-0.145,0.060
7.588,-0.050,0.065
7.590,0.075,0.070
7.592,0.105,0.075
7.594,0.100,0.080
7.596,0.045,0.085
7.598,-0.030,0.090
7.600,-0.130,0.095
7.602,-0.150,0.100
7.604,-0.145,0.105
7.606,-0.085,0.110
7.608,0.010,0.115
7.610,0.130,0.120
7.612,0.160,0.130
7.614,0.160,0.140
7.616,0.115,0.150
7.618,0.025,0.160
7.620,-0.075,0.170
7.622,-0.090,0.175
7.624,-0.090,0.180
7.626,-0.015,0.180
7.628,0.100,0.180
7.630,0.215,0.180
7.632,0.225,0.185
7.634,0.235,0.190
7.636,0.175,0.200
7.638,0.095,0.210
7.640,0.005,0.225
7.642,-0.025,0.235
7.644,-0.010,0.240
7.646,0.050,0.245
7.648,0.160,0.245
7.650,0.250,0.240
7.652,0.270,0.235
7.654,0.260,0.235
7.656,0.200,0.235
7.658,0.095,0.240
7.660,-0.010,0.245
7.662,-0.030,0.250
7.664,-0.025,0.250
7.666,0.035,0.250
7.668,0.130,0.240
7.670,0.205,0.225
7.672,0.210,0.205
7.674,0.175,0.180
7.676,0.100,0.155
7.678,-0.030,0.135
7.680,-0.130,0.120
7.682,-0.165,0.105
7.684,-0.165,0.090
7.686,-0.115,0.080
7.688,-0.015,0.070
7.690,0.055,0.060
7.692,0.050,0.045
7.694,0.030,0.030
7.696,-0.055,0.015
7.698,-0.190,0.000
7.700,-0.260,-0.015
7.702,-0.310,-0.025
7.704,-0.295,-0.030
7.706,-0.230,-0.035
7.708,-0.100,-0.040
7.710,-0.040,-0.045
7.712,-0.030,-0.050
7.714,-0.060,-0.055
7.716,-0.125,-0.060
7.718,-0.245,-0.065
7.720,-0.320,-0.065
7.722,-0.340,-0.065
7.724,-0.315,-0.065
7.726,-0.250,-0.065
7.728,-0.130,-0.065
7.730,-0.065,-0.065
7.732,-0.040,-0.065
7.734,-0.075,-0.065
7.736,-0.150,-0.070
7.738,-0.280,-0.070
7.740,-0.335,-0.075
7.742,-0.360,-0.075
7.744,-0.325,-0.075
7.746,-0.255,-0.075
7.748,-0.115,-0.080
7.750,-0.065,-0.080
7.752,-0.065,-0.090
7.754,-0.095,-0.095
7.756,-0.150,-0.100
7.758,-0.295,-0.105
7.760,-0.340,-0.105
7.762,-0.350,-0.100
7.764,-0.330,-0.095
7.766,-0.250,-0.085
7.768,-0.115,-0.080
7.770,-0.060,-0.075
7.772,-0.065,-0.075
7.774,-0.105,-0.080
7.776,-0.165,-0.085
7.778,-0.305,-0.090
7.780,-0.350,-0.095
7.782,-0.360,-0.100
7.784,-0.305,-0.100
7.786,-0.240,-0.095
7.788,-0.105,-0.090
7.790,-0.070,-0.080
7.792,-0.060,-0.080
7.794,-0.105,-0.075
7.796,-0.175,-0.080
7.798,-0.305,-0.085
7.800,-0.335,-0.090
7.802,-0.340,-0.095
7.804,-0.295,-0.095
7.806,-0.220,-0.095
7.808,-0.090,-0.090
7.810,-0.055,-0.080
7.812,-0.045,-0.075
7.814,-0.090,-0.065
7.816,-0.170,-0.065
7.818,-0.295,-0.065
7.820,-0.335,-0.065
7.822,-0.340,-0.075
7.824,-0.300,-0.080
7.826,-0.215,-0.085
7.828,-0.090,-0.090
7.830,-0.060,-0.085
7.832,-0.050,-0.085
7.834,-0.100,-0.080
7.836,-0.170,-0.075
7.838,-0.295,-0.070
7.840,-0.330,-0.065
7.842,-0.340,-0.065
7.844,-0.290,-0.065
7.846,-0.200,-0.070
7.848,-0.080,-0.070
7.850,-0.045,-0.075
7.852,-0.040,-0.075
7.854,-0.090,-0.075
7.856,-0.175,-0.070
7.858,-0.295,-0.070
7.860,-0.330,-0.065
7.862,-0.325,-0.065
7.864,-0.270,-0.060
7.866,-0.190,-0.060
7.868,-0.065,-0.060
7.870,-0.050,-0.060
7.872,-0.045,-0.065
7.874,-0.095,-0.065
7.876,-0.195,-0.065
7.878,-0.310,-0.065
7.880,-0.335,-0.070
7.882,-0.340,-0.070
7.884,-0.270,-0.075
7.886,-0.185,-0.075
7.888,-0.080,-0.080
7.890,-0.050,-0.080
7.892,-0.060,-0.080
7.894,-0.120,-0.075
7.896,-0.215,-0.070
7.898,-0.315,-0.065
7.900,-0.335,-0.065
7.902,-0.330,-0.060
7.904,-0.270,-0.065
7.906,-0.165,-0.070
7.908,-0.070,-0.075
7.910,-0.055,-0.080
7.912,-0.060,-0.085
7.914,-0.115,-0.085
7.916,-0.220,-0.085
7.918,-0.320,-0.080
7.920,-0.335,-0.075
7.922,-0.325,-0.070
7.924,-0.260,-0.065
7.926,-0.155,-0.060
7.928,-0.065,-0.060
7.930,-0.045,-0.060
7.932,-0.060,-0.065
7.934,-0.125,-0.070
7.936,-0.220,-0.070
7.938,-0.315,-0.070
7.940,-0.335,-0.070
7.942,-0.325,-0.070
7.944,-0.255,-0.070
7.946,-0.130,-0.070
7.948,-0.050,-0.070
7.950,-0.040,-0.075
7.952,-0.060,-0.075
7.954,-0.130,-0.080
7.956,-0.240,-0.080
7.958,-0.320,-0.080
7.960,-0.335,-0.075
7.962,-0.310,-0.070
7.964,-0.260,-0.065
7.966,-0.135,-0.055
7.968,-0.060,-0.050
7.970,-0.040,-0.050
7.972,-0.060,-0.050
7.974,-0.125,-0.050
7.976,-0.250,-0.055
7.978,-0.320,-0.060
7.980,-0.335,-0.060
7.982,-0.295,-0.060
7.984,-0.240,-0.065
7.986,-0.115,-0.065
7.988,-0.060,-0.065
7.990,-0.045,-0.070
7.992,-0.065,-0.075
7.994,-0.135,-0.080
7.996,-0.260,-0.085
7.998,-0.325,-0.085
8.000,-0.340,-0.090
8.002,-0.305,-0.085
8.004,-0.235,-0.085
8.006,-0.115,-0.080
8.008,-0.055,-0.075
8.010,-0.030,-0.070
8.012,-0.070,-0.065
8.014,-0.130,-0.065
8.016,-0.250,-0.065
8.018,-0.315,-0.065
8.020,-0.330,-0.065
8.022,-0.290,-0.060
8.024,-0.215,-0.060
8.026,-0.080,-0.055
8.028,-0.025,-0.045
8.030,0.005,-0.040
8.032,-0.020,-0.035
8.034,-0.080,-0.030
8.036,-0.220,-0.030
8.038,-0.270,-0.025
8.040,-0.290,-0.025
8.042,-0.260,-0.025
8.044,-0.200,-0.025
8.046,-0.080,-0.025
8.048,-0.030,-0.030
8.050,-0.015,-0.035
8.052,-0.065,-0.045
8.054,-0.145,-0.050
8.056,-0.285,-0.060
8.058,-0.335,-0.065
8.060,-0.335,-0.070
8.062,-0.300,-0.070
8.064,-0.230,-0.070
8.066,-0.090,-0.070
8.068,-0.060,-0.070
8.070,-0.045,-0.065
8.072,-0.085,-0.065
8.074,-0.160,-0.065
8.076,-0.290,-0.065
8.078,-0.325,-0.065
8.080,-0.340,-0.065
8.082,-0.295,-0.065
8.084,-0.225,-0.065
8.086,-0.095,-0.065
8.088,-0.055,-0.065
8.090,-0.045,-0.065
8.092,-0.090,-0.070
8.094,-0.165,-0.070
8.096,-0.295,-0.075
8.098,-0.335,-0.080
8.100,-0.340,-0.080
8.102,-0.280,-0.080
8.104,-0.195,-0.080
8.106,-0.070,-0.075
8.108,-0.035,-0.070
8.110,-0.035,-0.065
8.112,-0.090,-0.055
8.114,-0.185,-0.055
8.116,-0.310,-0.050
8.118,-0.335,-0.055
8.120,-0.325,-0.055
8.122,-0.275,-0.065
8.124,-0.195,-0.070
8.126,-0.075,-0.075
8.128,-0.060,-0.080
8.130,-0.045,-0.075
8.132,-0.100,-0.060
8.134,-0.165,-0.035
8.136,-0.220,0.010
8.138,-0.185,0.070
8.140,-0.105,0.145
8.142,0.060,0.235
8.144,0.250,0.335
8.146,0.450,0.435
8.148,0.560,0.520
8.150,0.665,0.590
8.152,0.690,0.635
8.154,0.590,0.640
8.156,0.365,0.605
8.158,0.225,0.535
8.160,0.125,0.435
8.162,0.090,0.310
8.164,0.070,0.170
8.166,0.035,0.030
8.168,-0.090,-0.095
8.170,-0.245,-0.205
8.172,-0.395,-0.285
8.174,-0.500,-0.340
8.176,-0.595,-0.370
8.178,-0.620,-0.375
8.180,-0.600,-0.365
8.182,-0.515,-0.340
8.184,-0.390,-0.315
8.186,-0.270,-0.285
8.188,-0.230,-0.255
8.190,-0.205,-0.225
8.192,-0.215,-0.200
8.194,-0.300,-0.175
8.196,-0.370,-0.150
8.198,-0.365,-0.130
8.200,-0.330,-0.110
8.202,-0.260,-0.090
8.204,-0.140,-0.075
8.206,-0.035,-0.060
8.208,-0.015,-0.050
8.210,-0.020,-0.045
8.212,-0.085,-0.035
8.214,-0.195,-0.035
8.216,-0.275,-0.030
8.218,-0.290,-0.025
8.220,-0.275,-0.025
8.222,-0.205,-0.020
8.224,-0.085,-0.020
8.226,-0.010,-0.020
8.228,0.020,-0.015
8.230,0.005,-0.015
8.232,-0.065,-0.015
8.234,-0.180,-0.015
8.236,-0.255,-0.010
8.238,-0.275,-0.010
8.240,-0.265,-0.005
8.242,-0.200,0.000
8.244,-0.055,0.005
8.246,0.015,0.005
8.248,0.025,0.005
8.250,0.010,0.005
8.252,-0.055,0.005
8.254,-0.175,0.005
8.256,-0.240,0.000
8.258,-0.255,0.000
8.260,-0.230,0.000
8.262,-0.160,0.000
8.264,-0.040,0.000
8.266,0.025,0.005
8.268,0.050,0.005
8.270,0.020,0.010
8.272,-0.040,0.010
8.274,-0.170,0.010
8.276,-0.225,0.010
8.278,-0.240,0.015
8.280,-0.205,0.015
8.282,-0.130,0.015
8.284,-0.010,0.020
8.286,0.050,0.020
8.288,0.070,0.025
8.290,0.035,0.030
8.292,-0.030,0.040
8.294,-0.150,0.045
8.296,-0.195,0.055
8.298,-0.220,0.060
8.300,-0.170,0.065
8.302,-0.100,0.065
8.304,0.030,0.070
8.306,0.095,0.070
8.308,0.115,0.070
8.310,0.085,0.070
8.312,0.015,0.070
8.314,-0.110,0.080
8.316,-0.155,0.085
8.318,-0.165,0.095
8.320,-0.110,0.110
8.322,-0.040,0.120
8.324,0.110,0.135
8.326,0.145,0.140
8.328,0.170,0.150
8.330,0.130,0.150
8.332,0.085,0.155
8.334,-0.040,0.160
8.336,-0.075,0.160
8.338,-0.070,0.165
8.340,-0.020,0.175
8.342,0.055,0.185
8.344,0.195,0.195
8.346,0.250,0.205
8.348,0.260,0.215
8.350,0.215,0.225
8.352,0.155,0.230
8.354,0.025,0.235
8.356,-0.005,0.240
8.358,-0.010,0.245
8.360,0.040,0.250
8.362,0.115,0.255
8.364,0.255,0.260
8.366,0.285,0.265
8.368,0.295,0.265
8.370,0.255,0.265
8.372,0.165,0.265
8.374,0.040,0.260
8.376,0.000,0.255
8.378,-0.020,0.250
8.380,0.025,0.245
8.382,0.105,0.240
8.384,0.215,0.230
8.386,0.235,0.220
8.388,0.225,0.205
8.390,0.155,0.190
8.392,0.040,0.170
8.394,-0.100,0.150
8.396,-0.145,0.130
8.398,-0.175,0.110
8.400,-0.125,0.090
8.402,-0.050,0.075
8.404,0.055,0.060
8.406,0.065,0.050
8.408,0.055,0.040
8.410,-0.010,0.030
8.412,-0.105,0.020
8.414,-0.235,0.005
8.416,-0.275,-0.005
8.418,-0.280,-0.020
8.420,-0.240,-0.030
8.422,-0.150,-0.040
8.424,-0.035,-0.050
8.426,-0.020,-0.055
8.428,-0.025,-0.055
8.430,-0.090,-0.055
8.432,-0.190,-0.055
8.434,-0.300,-0.050
8.436,-0.320,-0.050
8.438,-0.320,-0.055
8.440,-0.260,-0.055
8.442,-0.165,-0.060
8.444,-0.055,-0.065
8.446,-0.040,-0.070
8.448,-0.035,-0.075
8.450,-0.105,-0.075
8.452,-0.205,-0.070
8.454,-0.310,-0.070
8.456,-0.330,-0.065
8.458,-0.320,-0.060
8.460,-0.255,-0.055
8.462,-0.150,-0.055
8.464,-0.055,-0.060
8.466,-0.045,-0.060
8.468,-0.060,-0.065
8.470,-0.130,-0.065
8.472,-0.220,-0.065
8.474,-0.315,-0.065
8.476,-0.325,-0.065
8.478,-0.320,-0.060
8.480,-0.260,-0.060
8.482,-0.150,-0.060
8.484,-0.065,-0.065
8.486,-0.050,-0.065
8.488,-0.060,-0.070
8.490,-0.130,-0.075
8.492,-0.235,-0.075
8.494,-0.305,-0.075
8.496,-0.330,-0.070
8.498,-0.315,-0.070
8.500,-0.245,-0.065
8.502,-0.125,-0.065
8.504,-0.055,-0.060
8.506,-0.035,-0.060
8.508,-0.055,-0.065
8.510,-0.115,-0.065
8.512,-0.230,-0.065
8.514,-0.305,-0.065
8.516,-0.320,-0.065
8.518,-0.300,-0.060
8.520,-0.235,-0.060
8.522,-0.105,-0.055
8.524,-0.035,-0.055
8.526,-0.015,-0.050
8.528,-0.040,-0.050
8.530,-0.110,-0.050
8.532,-0.235,-0.050
8.534,-0.295,-0.045
8.536,-0.315,-0.040
8.538,-0.295,-0.040
8.540,-0.220,-0.035
8.542,-0.085,-0.035
8.544,-0.025,-0.035
8.546,-0.010,-0.035
8.548,-0.040,-0.040
8.550,-0.110,-0.040
8.552,-0.235,-0.045
8.554,-0.300,-0.045
8.556,-0.310,-0.040
8.558,-0.275,-0.040
8.560,-0.210,-0.035
8.562,-0.075,-0.030
8.564,-0.025,-0.030
8.566,-0.015,-0.035
8.568,-0.045,-0.040
8.570,-0.105,-0.045
8.572,-0.240,-0.045
8.574,-0.290,-0.050
8.576,-0.310,-0.050
8.578,-0.270,-0.050
8.580,-0.200,-0.045
8.582,-0.075,-0.045
8.584,-0.030,-0.040
8.586,-0.025,-0.040
8.588,-0.055,-0.040
8.590,-0.110,-0.040
8.592,-0.250,-0.045
8.594,-0.295,-0.050
8.596,-0.310,-0.050
8.598,-0.270,-0.050
8.600,-0.200,-0.050
8.602,-0.060,-0.050
8.604,-0.020,-0.050
8.606,-0.015,-0.050
8.608,-0.060,-0.050
8.610,-0.125,-0.050
8.612,-0.255,-0.050
8.614,-0.300,-0.055
8.616,-0.310,-0.055
8.618,-0.265,-0.050
8.620,-0.195,-0.045
8.622,-0.065,-0.045
8.624,-0.030,-0.040
8.626,-0.020,-0.040
8.628,-0.065,-0.040
8.630,-0.135,-0.045
8.632,-0.270,-0.050
8.634,-0.315,-0.050
8.636,-0.315,-0.055
8.638,-0.265,-0.055
8.640,-0.195,-0.055
8.642,-0.065,-0.045
8.644,-0.015,-0.040
8.646,-0.015,-0.035
8.648,-0.075,-0.030
8.650,-0.160,-0.030
8.652,-0.280,-0.030
8.654,-0.320,-0.035
8.656,-0.315,-0.040
8.658,-0.265,-0.045
8.660,-0.185,-0.050
8.662,-0.065,-0.050
8.664,-0.030,-0.050
8.666,-0.035,-0.050
8.668,-0.080,-0.050
8.670,-0.155,-0.050
8.672,-0.285,-0.050
8.674,-0.310,-0.050
8.676,-0.315,-0.055
8.678,-0.255,-0.055
8.680,-0.165,-0.055
8.682,-0.050,-0.050
8.684,-0.015,-0.050
8.686,-0.020,-0.045
8.688,-0.070,-0.040
8.690,-0.165,-0.035
8.692,-0.280,-0.030
8.694,-0.310,-0.030
8.696,-0.310,-0.035
8.698,-0.245,-0.035
8.700,-0.150,-0.040
8.702,-0.045,-0.045
8.704,-0.020,-0.045
8.706,-0.020,-0.050
8.708,-0.075,-0.045
8.710,-0.170,-0.045
8.712,-0.270,-0.040
8.714,-0.290,-0.035
8.716,-0.290,-0.035
8.718,-0.240,-0.030
8.720,-0.135,-0.035
8.722,-0.035,-0.035
8.724,-0.010,-0.035
8.726,-0.015,-0.040
8.728,-0.060,-0.035
8.730,-0.145,-0.030
8.732,-0.240,-0.025
8.734,-0.250,-0.015
8.736,-0.240,-0.005
8.738,-0.190,0.005
8.740,-0.085,0.010
8.742,-0.005,0.010
8.744,0.010,0.010
8.746,-0.025,0.010
8.748,-0.095,0.000
8.750,-0.185,-0.005
8.752,-0.280,-0.015
8.754,-0.305,-0.025
8.756,-0.305,-0.035
8.758,-0.250,-0.040
8.760,-0.135,-0.050
8.762,-0.055,-0.055
8.764,-0.025,-0.055
8.766,-0.040,-0.055
8.768,-0.105,-0.050
8.770,-0.215,-0.045
8.772,-0.300,-0.040
8.774,-0.320,-0.035
8.776,-0.300,-0.030
8.778,-0.235,-0.030
8.780,-0.120,-0.030
8.782,-0.050,-0.035
8.784,-0.030,-0.045
8.786,-0.050,-0.050
8.788,-0.110,-0.055
8.790,-0.240,-0.060
8.792,-0.300,-0.060
8.794,-0.325,-0.060
8.796,-0.300,-0.060
8.798,-0.235,-0.055
8.800,-0.120,-0.055
8.802,-0.060,-0.055
8.804,-0.030,-0.060
8.806,-0.055,-0.065
8.808,-0.120,-0.070
8.810,-0.250,-0.075
8.812,-0.305,-0.075
8.814,-0.330,-0.070
8.816,-0.305,-0.065
8.818,-0.225,-0.060
8.820,-0.105,-0.050
8.822,-0.040,-0.045
8.824,-0.015,-0.045
8.826,-0.055,-0.045
8.828,-0.130,-0.050
8.830,-0.260,-0.050
8.832,-0.310,-0.040
8.834,-0.310,-0.020
8.836,-0.210,0.015
8.838,-0.085,0.075
8.840,0.130,0.150
8.842,0.270,0.240
8.844,0.380,0.345
8.846,0.445,0.445
8.848,0.470,0.540
8.850,0.445,0.610
8.852,0.470,0.650
8.854,0.470,0.655
8.856,0.405,0.625
8.858,0.355,0.555
8.860,0.365,0.455
8.862,0.320,0.330
8.864,0.220,0.195
8.866,0.040,0.060
8.868,-0.180,-0.065
8.870,-0.465,-0.170
8.872,-0.605,-0.250
8.874,-0.620,-0.305
8.876,-0.580,-0.335
8.878,-0.490,-0.345
8.880,-0.350,-0.335
8.882,-0.300,-0.320
8.884,-0.260,-0.295
8.886,-0.285,-0.265
8.888,-0.340,-0.235
8.890,-0.430,-0.205
8.892,-0.425,-0.180
8.894,-0.400,-0.155
8.896,-0.345,-0.130
8.898,-0.240,-0.105
8.900,-0.095,-0.085
8.902,-0.045,-0.070
8.904,-0.025,-0.055
8.906,-0.065,-0.045
8.908,-0.130,-0.040
8.910,-0.265,-0.040
8.912,-0.300,-0.040
8.914,-0.305,-0.035
8.916,-0.250,-0.030
8.918,-0.170,-0.025
8.920,-0.035,-0.020
8.922,0.000,-0.010
8.924,0.005,-0.005
8.926,-0.045,-0.005
8.928,-0.120,0.000
8.930,-0.245,-0.005
8.932,-0.270,-0.010
8.934,-0.280,-0.010
8.936,-0.225,-0.015
8.938,-0.140,-0.015
8.940,-0.015,-0.015
8.942,0.020,-0.010
8.944,0.015,-0.005
8.946,-0.035,0.005
8.948,-0.105,0.010
8.950,-0.220,0.015
8.952,-0.250,0.020
8.954,-0.250,0.025
8.956,-0.195,0.025
8.958,-0.110,0.030
8.960,0.015,0.030
8.962,0.035,0.025
8.964,0.040,0.025
8.966,-0.015,0.025
8.968,-0.100,0.025
8.970,-0.215,0.025
8.972,-0.240,0.025
8.974,-0.235,0.025
8.976,-0.170,0.025
8.978,-0.070,0.030
8.980,0.045,0.035
8.982,0.070,0.040
8.984,0.065,0.050
8.986,0.000,0.055
8.988,-0.100,0.060
8.990,-0.200,0.070
8.992,-0.215,0.070
8.994,-0.210,0.075
8.996,-0.155,0.075
8.998,-0.035,0.070
9.000,0.060,0.070
9.002,0.090,0.070
9.004,0.090,0.070
9.006,0.030,0.075
9.008,-0.060,0.075
9.010,-0.150,0.085
9.012,-0.175,0.090
9.014,-0.155,0.100
9.016,-0.085,0.105
9.018,0.025,0.115
9.020,0.115,0.120
9.022,0.150,0.125
9.024,0.145,0.130
9.026,0.090,0.140
9.028,0.000,0.145
9.030,-0.090,0.155
9.032,-0.105,0.165
9.034,-0.080,0.170
9.036,0.000,0.180
9.038,0.110,0.190
9.040,0.205,0.195
9.042,0.230,0.205
9.044,0.220,0.210
9.046,0.160,0.220
9.048,0.055,0.225
9.050,-0.020,0.235
9.052,-0.025,0.245
9.054,0.005,0.255
9.056,0.075,0.265
9.058,0.195,0.270
9.060,0.270,0.280
9.062,0.280,0.285
9.064,0.280,0.285
9.066,0.205,0.290
9.068,0.085,0.285
9.070,0.005,0.285
9.072,-0.005,0.280
9.074,0.015,0.275
9.076,0.075,0.265
9.078,0.190,0.260
9.080,0.250,0.255
9.082,0.260,0.245
9.084,0.220,0.235
9.086,0.145,0.225
9.088,0.000,0.215
9.090,-0.090,0.200
9.092,-0.130,0.180
9.094,-0.110,0.160
9.096,-0.065,0.140
9.098,0.050,0.115
9.100,0.095,0.095
9.102,0.090,0.075
9.104,0.040,0.055
9.106,-0.035,0.045
9.108,-0.175,0.030
9.110,-0.245,0.025
9.112,-0.260,0.015
9.114,-0.240,0.010
9.116,-0.190,0.000
9.118,-0.060,-0.005
9.120,-0.025,-0.010
9.122,0.000,-0.020
9.124,-0.040,-0.025
9.126,-0.125,-0.025
9.128,-0.265,-0.025
9.130,-0.305,-0.025
9.132,-0.320,-0.025
9.134,-0.280,-0.030
9.136,-0.220,-0.030
9.138,-0.100,-0.035
9.140,-0.040,-0.040
9.142,-0.035,-0.050
9.144,-0.085,-0.055
9.146,-0.155,-0.060
9.148,-0.285,-0.065
9.150,-0.330,-0.065
9.152,-0.335,-0.065
9.154,-0.295,-0.060
9.156,-0.230,-0.055
9.158,-0.105,-0.055
9.160,-0.065,-0.055
9.162,-0.050,-0.060
9.164,-0.090,-0.065
9.166,-0.160,-0.070
9.168,-0.295,-0.075
9.170,-0.330,-0.080
9.172,-0.340,-0.080
9.174,-0.295,-0.075
9.176,-0.225,-0.070
9.178,-0.100,-0.060
9.180,-0.060,-0.055
9.182,-0.050,-0.055
9.184,-0.100,-0.050
9.186,-0.180,-0.055
9.188,-0.310,-0.055
9.190,-0.350,-0.060
9.192,-0.340,-0.060
9.194,-0.295,-0.060
9.196,-0.215,-0.060
9.198,-0.090,-0.060
9.200,-0.055,-0.055
9.202,-0.055,-0.055
9.204,-0.100,-0.055
9.206,-0.185,-0.055
9.208,-0.310,-0.060
9.210,-0.330,-0.060
9.212,-0.340,-0.065
9.214,-0.290,-0.065
9.216,-0.205,-0.065
9.218,-0.085,-0.065
9.220,-0.055,-0.065
9.222,-0.050,-0.060
9.224,-0.095,-0.060
9.226,-0.185,-0.055
9.228,-0.300,-0.060
9.230,-0.335,-0.060
9.232,-0.330,-0.060
9.234,-0.270,-0.065
9.236,-0.185,-0.065
9.238,-0.070,-0.060
9.240,-0.055,-0.060
9.242,-0.045,-0.055
9.244,-0.105,-0.050
9.246,-0.195,-0.045
9.248,-0.305,-0.045
9.250,-0.330,-0.045
9.252,-0.320,-0.050
9.254,-0.265,-0.050
9.256,-0.165,-0.050
9.258,-0.060,-0.055
9.260,-0.040,-0.055
9.262,-0.040,-0.050
9.264,-0.105,-0.045
9.266,-0.205,-0.040
9.268,-0.305,-0.030
9.270,-0.325,-0.030
9.272,-0.315,-0.025
9.274,-0.250,-0.025
9.276,-0.155,-0.030
9.278,-0.055,-0.040
9.280,-0.040,-0.045
9.282,-0.045,-0.055
9.284,-0.110,-0.060
9.286,-0.210,-0.060
9.288,-0.295,-0.060
9.290,-0.335,-0.055
9.292,-0.315,-0.050
9.294,-0.250,-0.045
9.296,-0.140,-0.040
9.298,-0.060,-0.035
9.300,-0.030,-0.030
9.302,-0.055,-0.035
9.304,-0.115,-0.035
9.306,-0.220,-0.040
9.308,-0.305,-0.040
9.310,-0.325,-0.045
9.312,-0.310,-0.045
9.314,-0.245,-0.045
9.316,-0.135,-0.045
9.318,-0.065,-0.040
9.320,-0.040,-0.040
9.322,-0.050,-0.040
9.324,-0.120,-0.040
9.326,-0.235,-0.040
9.328,-0.315,-0.040
9.330,-0.330,-0.040
9.332,-0.310,-0.040
9.334,-0.240,-0.040
9.336,-0.125,-0.045
9.338,-0.055,-0.045
9.340,-0.035,-0.045
9.342,-0.055,-0.045
9.344,-0.130,-0.045
9.346,-0.250,-0.040
9.348,-0.310,-0.040
9.350,-0.330,-0.035
9.352,-0.300,-0.035
9.354,-0.240,-0.035
9.356,-0.120,-0.035
9.358,-0.055,-0.040
9.360,-0.045,-0.045
9.362,-0.070,-0.055
9.364,-0.140,-0.060
9.366,-0.265,-0.065
9.368,-0.315,-0.065
9.370,-0.330,-0.065
9.372,-0.295,-0.060
9.374,-0.230,-0.055
9.376,-0.105,-0.045
9.378,-0.055,-0.040
9.380,-0.040,-0.040
9.382,-0.075,-0.035
9.384,-0.130,-0.040
9.386,-0.250,-0.040
9.388,-0.300,-0.045
9.390,-0.320,-0.045
9.392,-0.285,-0.045
9.394,-0.215,-0.040
9.396,-0.085,-0.040
9.398,-0.045,-0.035
9.400,-0.035,-0.030
9.402,-0.070,-0.035
9.404,-0.135,-0.035
9.406,-0.255,-0.040
9.408,-0.300,-0.045
9.410,-0.325,-0.050
9.412,-0.285,-0.050
9.414,-0.205,-0.050
9.416,-0.075,-0.045
9.418,-0.035,-0.040
9.420,-0.020,-0.030
9.422,-0.070,-0.025
9.424,-0.130,-0.015
9.426,-0.255,-0.010
9.428,-0.285,-0.005
9.430,-0.285,-0.005
9.432,-0.240,0.000
9.434,-0.155,0.000
9.436,-0.025,0.005
9.438,0.025,0.005
9.440,0.030,0.010
9.442,-0.020,0.005
9.444,-0.110,0.005
9.446,-0.250,-0.005
9.448,-0.300,-0.010
9.450,-0.315,-0.020
9.452,-0.265,-0.030
9.454,-0.195,-0.040
9.456,-0.070,-0.050
9.458,-0.050,-0.050
9.460,-0.045,-0.055
9.462,-0.095,-0.055
9.464,-0.170,-0.050
9.466,-0.295,-0.050
9.468,-0.325,-0.045
9.470,-0.335,-0.045
9.472,-0.290,-0.045
9.474,-0.205,-0.050
9.476,-0.070,-0.050
9.478,-0.045,-0.055
9.480,-0.045,-0.055
9.482,-0.095,-0.060
9.484,-0.175,-0.060
9.486,-0.310,-0.065
9.488,-0.335,-0.065
9.490,-0.340,-0.065
9.492,-0.290,-0.065
9.494,-0.200,-0.065
9.496,-0.070,-0.060
9.498,-0.050,-0.060
9.500,-0.050,-0.055
9.502,-0.105,-0.050
9.504,-0.185,-0.050
9.506,-0.310,-0.050
9.508,-0.330,-0.050
9.510,-0.330,-0.050
9.512,-0.275,-0.050
9.514,-0.185,-0.055
9.516,-0.070,-0.060
9.518,-0.055,-0.060
9.520,-0.050,-0.060
9.522,-0.115,-0.055
9.524,-0.200,-0.055
9.526,-0.315,-0.055
9.528,-0.335,-0.055
9.530,-0.340,-0.055
9.532,-0.275,-0.060
9.534,-0.190,-0.055
9.536,-0.075,-0.040
9.538,-0.005,-0.015
9.540,0.050,0.035
9.542,0.060,0.100
9.544,0.055,0.190
9.546,0.060,0.295
9.548,0.140,0.400
9.550,0.230,0.505
9.552,0.400,0.590
9.554,0.605,0.650
9.556,0.755,0.670
9.558,0.700,0.650
9.560,0.570,0.590
9.562,0.385,0.495
9.564,0.175,0.375
9.566,-0.025,0.240
9.568,-0.175,0.105
9.570,-0.295,-0.020
9.572,-0.405,-0.135
9.574,-0.420,-0.225
9.576,-0.375,-0.290
9.578,-0.350,-0.330
9.580,-0.360,-0.350
9.582,-0.415,-0.355
9.584,-0.510,-0.345
9.586,-0.570,-0.325
9.588,-0.565,-0.295
9.590,-0.530,-0.270
9.592,-0.425,-0.240
9.594,-0.270,-0.210
9.596,-0.165,-0.180
9.598,-0.120,-0.150
9.600,-0.115,-0.125
9.602,-0.165,-0.100
9.604,-0.265,-0.080
9.606,-0.315,-0.065
9.608,-0.330,-0.050
9.610,-0.310,-0.040
9.612,-0.240,-0.035
9.614,-0.110,-0.030
9.616,-0.040,-0.030
9.618,-0.025,-0.035
9.620,-0.050,-0.035
9.622,-0.105,-0.040
9.624,-0.220,-0.040
9.626,-0.290,-0.040
9.628,-0.315,-0.035
9.630,-0.285,-0.030
9.632,-0.205,-0.025
9.634,-0.080,-0.025
9.636,-0.020,-0.020
9.638,-0.005,-0.020
9.640,-0.025,-0.020
9.642,-0.095,-0.020
9.644,-0.220,-0.020
9.646,-0.280,-0.015
9.648,-0.290,-0.010
9.650,-0.255,-0.005
9.652,-0.185,0.005
9.654,-0.055,0.010
9.656,0.005,0.010
9.658,0.015,0.010
9.660,-0.020,0.010
9.662,-0.085,0.005
9.664,-0.215,0.005
9.666,-0.265,0.000
9.668,-0.280,0.000
9.670,-0.240,0.000
9.672,-0.170,0.000
9.674,-0.040,0.005
9.676,0.010,0.010
9.678,0.025,0.010
9.680,-0.005,0.015
9.682,-0.075,0.015
9.684,-0.200,0.020
9.686,-0.240,0.020
9.688,-0.255,0.020
9.690,-0.215,0.025
9.692,-0.140,0.030
9.694,-0.010,0.035
9.696,0.035,0.040
9.698,0.045,0.050
9.700,0.025,0.055
9.702,-0.045,0.055
9.704,-0.185,0.060
9.706,-0.220,0.065
9.708,-0.230,0.065
9.710,-0.170,0.070
9.712,-0.090,0.080
9.714,0.050,0.085
9.716,0.085,0.090
9.718,0.105,0.095
9.720,0.060,0.100
9.722,-0.010,0.105
9.724,-0.135,0.110
9.726,-0.160,0.110
9.728,-0.170,0.115
9.730,-0.110,0.120
9.732,-0.025,0.130
9.734,0.115,0.135
9.736,0.155,0.145
9.738,0.175,0.160
9.740,0.120,0.170
9.742,0.050,0.180
9.744,-0.065,0.190
9.746,-0.085,0.200
9.748,-0.085,0.205
9.750,-0.030,0.210
9.752,0.060,0.215
9.754,0.190,0.220
9.756,0.230,0.225
9.758,0.240,0.230
9.760,0.185,0.235
9.762,0.115,0.240
9.764,0.000,0.250
9.766,-0.035,0.255
9.768,-0.035,0.260
9.770,0.025,0.265
9.772,0.120,0.265
9.774,0.235,0.260
9.776,0.265,0.260
9.778,0.250,0.250
9.780,0.195,0.245
9.782,0.090,0.240
9.784,-0.030,0.230
9.786,-0.075,0.225
9.788,-0.085,0.215
9.790,-0.045,0.205
9.792,0.035,0.190
9.794,0.125,0.175
9.796,0.135,0.155
9.798,0.110,0.130
9.800,0.035,0.110
9.802,-0.080,0.085
9.804,-0.210,0.065
9.806,-0.240,0.045
9.808,-0.255,0.030
9.810,-0.210,0.020
9.812,-0.110,0.010
9.814,-0.030,0.000
9.816,-0.020,-0.005
9.818,-0.020,-0.010
9.820,-0.100,-0.020
9.822,-0.200,-0.025
9.824,-0.305,-0.035
9.826,-0.340,-0.040
9.828,-0.335,-0.045
9.830,-0.280,-0.055
9.832,-0.170,-0.060
9.834,-0.090,-0.060
9.836,-0.070,-0.065
9.838,-0.090,-0.065
9.840,-0.150,-0.065
9.842,-0.255,-0.070
9.844,-0.345,-0.070
9.846,-0.365,-0.070
9.848,-0.350,-0.075
9.850,-0.305,-0.080
9.852,-0.180,-0.085
9.854,-0.095,-0.090
9.856,-0.075,-0.095
9.858,-0.095,-0.095
9.860,-0.160,-0.100
9.862,-0.275,-0.100
9.864,-0.360,-0.095
9.866,-0.375,-0.090
9.868,-0.350,-0.085
9.870,-0.290,-0.080
9.872,-0.175,-0.080
9.874,-0.105,-0.075
9.876,-0.080,-0.075
9.878,-0.100,-0.075
9.880,-0.170,-0.075
9.882,-0.285,-0.075
9.884,-0.360,-0.075
9.886,-0.375,-0.080
9.888,-0.345,-0.080
9.890,-0.290,-0.080
9.892,-0.180,-0.080
9.894,-0.110,-0.085
9.896,-0.090,-0.085
9.898,-0.120,-0.085
9.900,-0.180,-0.090
9.902,-0.305,-0.090
9.904,-0.370,-0.085
9.906,-0.380,-0.085
9.908,-0.350,-0.080
9.910,-0.285,-0.080
9.912,-0.160,-0.075
9.914,-0.095,-0.075
9.916,-0.080,-0.075
9.918,-0.105,-0.075
9.920,-0.170,-0.080
9.922,-0.300,-0.080
9.924,-0.360,-0.085
9.926,-0.370,-0.085
9.928,-0.345,-0.085
9.930,-0.270,-0.085
9.932,-0.140,-0.085
9.934,-0.085,-0.085
9.936,-0.075,-0.090
9.938,-0.105,-0.090
9.940,-0.175,-0.090
9.942,-0.310,-0.090
9.944,-0.360,-0.090
9.946,-0.370,-0.085
9.948,-0.330,-0.080
9.950,-0.265,-0.075
9.952,-0.135,-0.070
9.954,-0.080,-0.070
9.956,-0.075,-0.070
9.958,-0.115,-0.070
9.960,-0.175,-0.075
9.962,-0.305,-0.075
9.964,-0.350,-0.075
9.966,-0.365,-0.075
9.968,-0.320,-0.075
9.970,-0.255,-0.070
9.972,-0.115,-0.065
9.974,-0.080,-0.065
9.976,-0.070,-0.060
9.978,-0.100,-0.060
9.980,-0.175,-0.065
9.982,-0.305,-0.065
9.984,-0.345,-0.065
9.986,-0.360,-0.065
9.988,-0.310,-0.065
9.990,-0.245,-0.065
9.992,-0.115,-0.060
9.994,-0.075,-0.055
9.996,-0.075,-0.055
9.998,-0.110,-0.060
