'Elapsed time','ECG I','ECG I filtered'
'seconds','mV','mV'
0.000,-0.045,-0.025
0.002,-0.055,-0.035
0.004,-0.010,-0.040
0.006,-0.050,-0.040
0.008,-0.100,-0.040
0.010,-0.105,-0.040
0.012,-0.085,-0.035
0.014,-0.075,-0.025
0.016,-0.015,-0.025
0.018,0.000,-0.020
0.020,-0.030,-0.025
0.022,-0.040,-0.030
0.024,-0.045,-0.040
0.026,-0.115,-0.045
0.028,-0.120,-0.055
0.030,-0.140,-0.060
0.032,-0.075,-0.060
0.034,-0.085,-0.060
0.036,-0.040,-0.050
0.038,-0.040,-0.045
0.040,-0.025,-0.035
0.042,0.010,-0.025
0.044,-0.015,-0.020
0.046,-0.040,-0.015
0.048,-0.065,-0.015
0.050,-0.115,-0.020
0.052,-0.080,-0.020
0.054,-0.075,-0.025
0.056,-0.010,-0.030
0.058,-0.005,-0.030
0.060,-0.030,-0.030
0.062,0.000,-0.030
0.064,-0.020,-0.030
0.066,-0.140,-0.025
0.068,-0.085,-0.030
0.070,-0.035,-0.030
0.072,-0.030,-0.030
0.074,-0.120,-0.035
0.076,-0.050,-0.035
0.078,0.005,-0.035
0.080,0.000,-0.035
0.082,-0.045,-0.035
0.084,-0.050,-0.035
0.086,-0.085,-0.030
0.088,-0.105,-0.025
0.090,-0.090,-0.025
0.092,-0.080,-0.025
0.094,-0.055,-0.025
0.096,0.000,-0.025
0.098,-0.020,-0.030
0.100,-0.005,-0.030
0.102,-0.015,-0.035
0.104,-0.040,-0.040
0.106,-0.100,-0.040
0.108,-0.085,-0.040
0.110,-0.110,-0.040
0.112,-0.115,-0.035
0.114,-0.085,-0.035
0.116,-0.020,-0.030
0.118,0.035,-0.030
0.120,0.055,-0.030
0.122,-0.020,-0.030
0.124,-0.055,-0.030
0.126,-0.145,-0.035
0.128,-0.105,-0.035
0.130,-0.065,-0.035
0.132,-0.095,-0.035
0.134,-0.090,-0.035
0.136,-0.015,-0.035
0.138,0.020,-0.030
0.140,0.010,-0.025
0.142,-0.025,-0.020
0.144,-0.030,-0.015
0.146,-0.075,-0.015
0.148,-0.125,-0.010
0.150,-0.100,-0.010
0.152,-0.045,-0.010
0.154,0.000,-0.010
0.156,-0.005,-0.015
0.158,-0.010,-0.015
0.160,0.020,-0.020
0.162,0.010,-0.020
0.164,-0.070,-0.020
0.166,-0.110,-0.015
0.168,-0.065,-0.015
0.170,-0.050,-0.015
0.172,-0.080,-0.020
0.174,-0.040,-0.020
0.176,-0.035,-0.020
0.178,0.040,-0.020
0.180,0.050,-0.010
0.182,0.030,-0.005
0.184,0.005,0.010
0.186,-0.050,0.025
0.188,-0.050,0.035
0.190,-0.020,0.050
0.192,0.055,0.055
0.194,0.035,0.060
0.196,0.055,0.055
0.198,0.030,0.050
0.200,0.070,0.040
0.202,0.025,0.035
0.204,-0.030,0.035
0.206,-0.055,0.040
0.208,0.000,0.045
0.210,-0.030,0.055
0.212,-0.040,0.065
0.214,0.115,0.070
0.216,0.140,0.070
0.218,0.040,0.065
0.220,0.010,0.050
0.222,-0.010,0.035
0.224,0.025,0.025
0.226,-0.025,0.010
0.228,-0.025,0.000
0.230,-0.080,-0.005
0.232,-0.105,0.000
0.234,-0.005,0.000
0.236,-0.005,0.005
0.238,0.000,0.010
0.240,0.005,0.010
0.242,0.000,0.010
0.244,-0.020,0.000
0.246,-0.090,-0.005
0.248,-0.105,-0.015
0.250,-0.100,-0.025
0.252,-0.055,-0.030
0.254,-0.040,-0.030
0.256,-0.005,-0.030
0.258,0.005,-0.025
0.260,-0.050,-0.020
0.262,-0.070,-0.015
0.264,-0.050,-0.010
0.266,-0.080,-0.010
0.268,-0.045,-0.010
0.270,-0.025,-0.010
0.272,-0.050,-0.015
0.274,-0.025,-0.015
0.276,-0.025,-0.020
0.278,-0.050,-0.025
0.280,-0.055,-0.030
0.282,-0.075,-0.030
0.284,-0.105,-0.030
0.286,-0.085,-0.025
0.288,-0.090,-0.020
0.290,-0.075,-0.015
0.292,-0.070,-0.010
0.294,-0.005,-0.010
0.296,-0.010,-0.010
0.298,-0.025,-0.010
0.300,-0.045,-0.015
0.302,-0.090,-0.020
0.304,-0.120,-0.020
0.306,-0.125,-0.020
0.308,-0.105,-0.020
0.310,-0.030,-0.015
0.312,-0.005,-0.015
0.314,0.020,-0.010
0.316,-0.005,-0.005
0.318,0.015,-0.005
0.320,0.000,-0.010
0.322,-0.100,-0.010
0.324,-0.100,-0.010
0.326,-0.090,-0.005
0.328,-0.060,0.000
0.330,-0.035,0.015
0.332,0.050,0.035
0.334,0.075,0.060
0.336,0.145,0.080
0.338,0.135,0.100
0.340,0.065,0.110
0.342,0.065,0.115
0.344,0.025,0.110
0.346,-0.040,0.100
0.348,-0.075,0.090
0.350,0.015,0.085
0.352,0.085,0.090
0.354,0.165,0.100
0.356,0.175,0.120
0.358,0.210,0.145
0.360,0.185,0.170
0.362,0.155,0.185
0.364,0.055,0.185
0.366,0.015,0.165
0.368,-0.010,0.125
0.370,-0.035,0.075
0.372,-0.040,0.010
0.374,-0.035,-0.055
0.376,-0.080,-0.110
0.378,-0.185,-0.155
0.380,-0.225,-0.175
0.382,-0.260,-0.175
0.384,-0.305,-0.160
0.386,-0.240,-0.125
0.388,-0.140,-0.090
0.390,-0.050,-0.050
0.392,-0.030,-0.015
0.394,-0.005,0.010
0.396,0.015,0.020
0.398,0.050,0.025
0.400,-0.005,0.025
0.402,-0.060,0.015
0.404,-0.120,0.010
0.406,-0.130,0.005
0.408,-0.095,0.000
0.410,0.010,0.000
0.412,-0.005,0.005
0.414,0.010,0.005
0.416,0.015,0.010
0.418,-0.020,0.010
0.420,-0.080,0.005
0.422,-0.085,0.005
0.424,-0.095,0.000
0.426,-0.060,-0.010
0.428,-0.105,-0.015
0.430,-0.090,-0.020
0.432,-0.070,-0.025
0.434,-0.035,-0.025
0.436,-0.020,-0.025
0.438,0.000,-0.025
0.440,-0.085,-0.020
0.442,-0.095,-0.010
0.444,-0.135,-0.005
0.446,-0.075,0.005
0.448,-0.045,0.015
0.450,-0.035,0.020
0.452,-0.005,0.025
0.454,0.030,0.025
0.456,0.010,0.025
0.458,0.010,0.020
0.460,-0.040,0.015
0.462,-0.040,0.010
0.464,-0.145,0.000
0.466,-0.115,-0.005
0.468,-0.125,-0.010
0.470,-0.105,-0.010
0.472,-0.050,-0.010
0.474,-0.005,-0.005
0.476,0.050,0.005
0.478,0.050,0.015
0.480,-0.020,0.025
0.482,-0.035,0.030
0.484,-0.100,0.035
0.486,-0.095,0.040
0.488,-0.065,0.040
0.490,-0.075,0.035
0.492,-0.050,0.030
0.494,0.055,0.030
0.496,0.035,0.025
0.498,-0.005,0.025
0.500,-0.025,0.025
0.502,-0.045,0.030
0.504,-0.055,0.035
0.506,-0.090,0.035
0.508,-0.060,0.040
0.510,-0.050,0.040
0.512,-0.005,0.040
0.514,0.010,0.040
0.516,0.000,0.040
0.518,-0.010,0.040
0.520,0.020,0.045
0.522,-0.035,0.050
0.524,-0.095,0.060
0.526,-0.020,0.065
0.528,0.005,0.075
0.530,-0.005,0.085
0.532,0.055,0.090
0.534,0.045,0.095
0.536,0.035,0.095
0.538,0.025,0.095
0.540,0.055,0.095
0.542,0.020,0.095
0.544,-0.020,0.095
0.546,-0.020,0.100
0.548,0.000,0.100
0.550,0.060,0.110
0.552,0.070,0.115
0.554,0.095,0.125
0.556,0.085,0.140
0.558,0.115,0.150
0.560,0.060,0.160
0.562,0.070,0.170
0.564,0.050,0.180
0.566,0.040,0.185
0.568,0.120,0.185
0.570,0.100,0.185
0.572,0.110,0.180
0.574,0.110,0.180
0.576,0.105,0.175
0.578,0.095,0.175
0.580,0.105,0.175
0.582,0.120,0.185
0.584,0.095,0.195
0.586,0.130,0.210
0.588,0.160,0.225
0.590,0.135,0.235
0.592,0.175,0.245
0.594,0.195,0.250
0.596,0.190,0.245
0.598,0.155,0.240
0.600,0.100,0.230
0.602,0.085,0.215
0.604,0.080,0.205
0.606,0.025,0.200
0.608,0.100,0.195
0.610,0.145,0.195
0.612,0.145,0.195
0.614,0.135,0.190
0.616,0.150,0.190
0.618,0.165,0.185
0.620,0.100,0.175
0.622,-0.025,0.160
0.624,-0.015,0.145
0.626,-0.035,0.130
0.628,-0.015,0.115
0.630,0.005,0.100
0.632,0.030,0.090
0.634,0.020,0.085
0.636,0.030,0.080
0.638,-0.010,0.075
0.640,-0.020,0.075
0.642,-0.035,0.070
0.644,-0.050,0.065
0.646,-0.095,0.055
0.648,-0.095,0.050
0.650,-0.065,0.045
0.652,0.005,0.035
0.654,-0.050,0.030
0.656,-0.020,0.025
0.658,-0.030,0.020
0.660,-0.115,0.015
0.662,-0.115,0.015
0.664,-0.135,0.010
0.666,-0.160,0.005
0.668,-0.140,0.000
0.670,-0.115,-0.005
0.672,-0.060,-0.010
0.674,-0.025,-0.015
0.676,-0.065,-0.015
0.678,-0.080,-0.020
0.680,-0.130,-0.020
0.682,-0.160,-0.020
0.684,-0.165,-0.020
0.686,-0.160,-0.020
0.688,-0.120,-0.020
0.690,-0.110,-0.025
0.692,-0.085,-0.030
0.694,-0.110,-0.035
0.696,-0.090,-0.040
0.698,-0.150,-0.045
0.700,-0.190,-0.045
0.702,-0.245,-0.050
0.704,-0.215,-0.050
0.706,-0.205,-0.050
0.708,-0.150,-0.050
0.710,-0.135,-0.050
0.712,-0.090,-0.050
0.714,-0.095,-0.055
0.716,-0.155,-0.055
0.718,-0.170,-0.060
0.720,-0.190,-0.065
0.722,-0.240,-0.075
0.724,-0.255,-0.075
0.726,-0.220,-0.080
0.728,-0.225,-0.080
0.730,-0.210,-0.080
0.732,-0.135,-0.080
0.734,-0.135,-0.080
0.736,-0.175,-0.080
0.738,-0.235,-0.080
0.740,-0.210,-0.080
0.742,-0.200,-0.080
0.744,-0.210,-0.080
0.746,-0.260,-0.075
0.748,-0.230,-0.075
0.750,-0.135,-0.070
0.752,-0.130,-0.065
0.754,-0.170,-0.060
0.756,-0.150,-0.055
0.758,-0.110,-0.050
0.760,-0.165,-0.045
0.762,-0.235,-0.040
0.764,-0.220,-0.035
0.766,-0.215,-0.035
0.768,-0.160,-0.030
0.770,-0.090,-0.025
0.772,-0.075,-0.020
0.774,-0.095,-0.015
0.776,-0.100,-0.005
0.778,-0.155,-0.005
0.780,-0.145,0.000
0.782,-0.155,0.000
0.784,-0.100,-0.005
0.786,-0.155,-0.005
0.788,-0.190,-0.010
0.790,-0.115,-0.015
0.792,-0.100,-0.020
0.794,-0.115,-0.020
0.796,-0.130,-0.020
0.798,-0.120,-0.020
0.800,-0.125,-0.015
0.802,-0.135,-0.010
0.804,-0.135,0.000
0.806,-0.155,0.005
0.808,-0.170,0.015
0.810,-0.090,0.020
0.812,-0.095,0.025
0.814,-0.110,0.030
0.816,-0.120,0.025
0.818,-0.090,0.025
0.820,-0.135,0.020
0.822,-0.155,0.015
0.824,-0.155,0.010
0.826,-0.120,0.005
0.828,-0.085,0.000
0.830,-0.130,0.000
0.832,-0.115,-0.005
0.834,-0.165,-0.005
0.836,-0.125,-0.010
0.838,-0.160,-0.010
0.840,-0.185,-0.010
0.842,-0.200,-0.010
0.844,-0.150,-0.010
0.846,-0.180,-0.010
0.848,-0.155,-0.005
0.850,-0.085,0.000
0.852,-0.055,0.010
0.854,-0.065,0.015
0.856,-0.085,0.020
0.858,-0.110,0.020
0.860,-0.170,0.015
0.862,-0.200,0.010
0.864,-0.200,0.000
0.866,-0.220,-0.010
0.868,-0.160,-0.015
0.870,-0.115,-0.020
0.872,-0.075,-0.020
0.874,-0.110,-0.020
0.876,-0.180,-0.010
0.878,-0.145,0.000
0.880,-0.190,0.005
0.882,-0.190,0.010
0.884,-0.165,0.015
0.886,-0.110,0.010
0.888,-0.115,0.005
0.890,-0.075,0.000
0.892,-0.140,-0.010
0.894,-0.135,-0.015
0.896,-0.145,-0.020
0.898,-0.165,-0.020
0.900,-0.185,-0.015
0.902,-0.165,-0.010
0.904,-0.175,-0.010
0.906,-0.160,-0.005
0.908,-0.190,-0.005
0.910,-0.135,-0.005
0.912,-0.135,-0.010
0.914,-0.155,-0.015
0.916,-0.150,-0.020
0.918,-0.160,-0.025
0.920,-0.215,-0.025
0.922,-0.195,-0.020
0.924,-0.165,-0.010
0.926,-0.150,0.000
0.928,-0.175,0.010
0.930,-0.105,0.025
0.932,-0.125,0.035
0.934,-0.140,0.040
0.936,-0.155,0.040
0.938,-0.085,0.040
0.940,-0.125,0.035
0.942,-0.175,0.025
0.944,-0.185,0.015
0.946,-0.180,0.005
0.948,-0.160,0.000
0.950,-0.135,-0.005
0.952,-0.130,-0.005
0.954,-0.125,-0.005
0.956,-0.135,0.000
0.958,-0.165,0.000
0.960,-0.200,0.005
0.962,-0.185,0.005
0.964,-0.165,0.000
0.966,-0.180,0.000
0.968,-0.195,-0.005
0.970,-0.210,-0.010
0.972,-0.170,-0.015
0.974,-0.125,-0.015
0.976,-0.105,-0.020
0.978,-0.130,-0.020
0.980,-0.220,-0.020
0.982,-0.245,-0.020
0.984,-0.240,-0.020
0.986,-0.200,-0.020
0.988,-0.190,-0.025
0.990,-0.145,-0.030
0.992,-0.160,-0.035
0.994,-0.205,-0.040
0.996,-0.205,-0.045
0.998,-0.200,-0.050
1.000,-0.280,-0.055
1.002,-0.265,-0.060
1.004,-0.230,-0.055
1.006,-0.185,-0.055
1.008,-0.170,-0.050
1.010,-0.155,-0.045
1.012,-0.165,-0.040
1.014,-0.165,-0.035
1.016,-0.180,-0.030
1.018,-0.245,-0.030
1.020,-0.310,-0.025
1.022,-0.215,-0.025
1.024,-0.195,-0.020
1.026,-0.175,-0.020
1.028,-0.190,-0.015
1.030,-0.150,-0.010
1.032,-0.160,-0.010
1.034,-0.190,-0.010
1.036,-0.190,-0.015
1.038,-0.220,-0.020
1.040,-0.255,-0.025
1.042,-0.210,-0.030
1.044,-0.250,-0.030
1.046,-0.210,-0.030
1.048,-0.175,-0.020
1.050,-0.135,-0.010
1.052,-0.140,0.005
1.054,-0.080,0.020
1.056,-0.135,0.030
1.058,-0.210,0.035
1.060,-0.245,0.030
1.062,-0.220,0.020
1.064,-0.225,0.005
1.066,-0.205,-0.015
1.068,-0.195,-0.030
1.070,-0.205,-0.045
1.072,-0.240,-0.055
1.074,-0.170,-0.060
1.076,-0.195,-0.060
1.078,-0.270,-0.055
1.080,-0.300,-0.050
1.082,-0.315,-0.050
1.084,-0.270,-0.050
1.086,-0.260,-0.055
1.088,-0.255,-0.060
1.090,-0.240,-0.070
1.092,-0.235,-0.075
1.094,-0.220,-0.085
1.096,-0.225,-0.085
1.098,-0.285,-0.085
1.100,-0.290,-0.085
1.102,-0.310,-0.080
1.104,-0.300,-0.080
1.106,-0.295,-0.080
1.108,-0.265,-0.080
1.110,-0.260,-0.080
1.112,-0.270,-0.085
1.114,-0.230,-0.095
1.116,-0.235,-0.095
1.118,-0.295,-0.100
1.120,-0.310,-0.100
1.122,-0.305,-0.100
1.124,-0.295,-0.095
1.126,-0.270,-0.090
1.128,-0.240,-0.080
1.130,-0.215,-0.075
1.132,-0.220,-0.070
1.134,-0.220,-0.065
1.136,-0.265,-0.060
1.138,-0.310,-0.060
1.140,-0.325,-0.065
1.142,-0.335,-0.070
1.144,-0.245,-0.070
1.146,-0.245,-0.075
1.148,-0.215,-0.075
1.150,-0.225,-0.075
1.152,-0.220,-0.075
1.154,-0.235,-0.070
1.156,-0.295,-0.070
1.158,-0.350,-0.065
1.160,-0.305,-0.060
1.162,-0.240,-0.055
1.164,-0.220,-0.050
1.166,-0.265,-0.040
1.168,-0.250,-0.035
1.170,-0.190,-0.025
1.172,-0.165,-0.015
1.174,-0.170,-0.005
1.176,-0.135,0.000
1.178,-0.135,0.000
1.180,-0.195,0.000
1.182,-0.290,-0.005
1.184,-0.285,-0.015
1.186,-0.265,-0.020
1.188,-0.170,-0.020
1.190,-0.185,-0.015
1.192,-0.195,0.000
1.194,-0.140,0.025
1.196,-0.100,0.050
1.198,-0.095,0.080
1.200,-0.060,0.105
1.202,-0.085,0.125
1.204,-0.100,0.125
1.206,-0.155,0.110
1.208,-0.190,0.080
1.210,-0.195,0.030
1.212,-0.205,-0.025
1.214,-0.240,-0.085
1.216,-0.315,-0.140
1.218,-0.435,-0.190
1.220,-0.445,-0.225
1.222,-0.485,-0.245
1.224,-0.480,-0.245
1.226,-0.420,-0.230
1.228,-0.385,-0.205
1.230,-0.380,-0.175
1.232,-0.310,-0.140
1.234,-0.245,-0.105
1.236,-0.275,-0.080
1.238,-0.320,-0.060
1.240,-0.265,-0.050
1.242,-0.275,-0.045
1.244,-0.245,-0.045
1.246,-0.245,-0.050
1.248,-0.215,-0.055
1.250,-0.260,-0.060
1.252,-0.245,-0.065
1.254,-0.275,-0.065
1.256,-0.245,-0.060
1.258,-0.245,-0.055
1.260,-0.275,-0.050
1.262,-0.310,-0.045
1.264,-0.270,-0.040
1.266,-0.225,-0.035
1.268,-0.195,-0.030
1.270,-0.165,-0.025
1.272,-0.175,-0.025
1.274,-0.220,-0.020
1.276,-0.210,-0.020
1.278,-0.290,-0.015
1.280,-0.265,-0.015
1.282,-0.295,-0.015
1.284,-0.230,-0.020
1.286,-0.200,-0.025
1.288,-0.145,-0.025
1.290,-0.195,-0.030
1.292,-0.260,-0.030
1.294,-0.230,-0.025
1.296,-0.210,-0.020
1.298,-0.255,-0.010
1.300,-0.230,0.000
1.302,-0.230,0.005
1.304,-0.200,0.010
1.306,-0.175,0.010
1.308,-0.150,0.005
1.310,-0.185,0.000
1.312,-0.220,-0.005
1.314,-0.250,-0.010
1.316,-0.235,-0.015
1.318,-0.230,-0.015
1.320,-0.210,-0.010
1.322,-0.200,0.000
1.324,-0.215,0.005
1.326,-0.220,0.015
1.328,-0.175,0.020
1.330,-0.130,0.025
1.332,-0.170,0.025
1.334,-0.200,0.020
1.336,-0.195,0.020
1.338,-0.215,0.015
1.340,-0.205,0.015
1.342,-0.185,0.020
1.344,-0.150,0.025
1.346,-0.130,0.035
1.348,-0.105,0.040
1.350,-0.125,0.050
1.352,-0.145,0.055
1.354,-0.140,0.055
1.356,-0.195,0.050
1.358,-0.195,0.045
1.360,-0.185,0.040
1.362,-0.190,0.030
1.364,-0.180,0.030
1.366,-0.160,0.030
1.368,-0.115,0.035
1.370,-0.130,0.050
1.372,-0.130,0.060
1.374,-0.115,0.075
1.376,-0.150,0.085
1.378,-0.180,0.090
1.380,-0.115,0.090
1.382,-0.150,0.090
1.384,-0.150,0.085
1.386,-0.115,0.080
1.388,-0.065,0.075
1.390,-0.090,0.075
1.392,-0.075,0.080
1.394,-0.120,0.090
1.396,-0.175,0.100
1.398,-0.155,0.115
1.400,-0.070,0.130
1.402,-0.040,0.140
1.404,-0.060,0.155
1.406,-0.050,0.165
1.408,0.000,0.175
1.410,0.025,0.190
1.412,0.060,0.200
1.414,0.045,0.210
1.416,0.015,0.225
1.418,0.005,0.235
1.420,0.020,0.245
1.422,0.010,0.255
1.424,0.000,0.260
1.426,0.050,0.265
1.428,0.070,0.265
1.430,0.140,0.260
1.432,0.110,0.260
1.434,0.050,0.255
1.436,-0.005,0.255
1.438,-0.040,0.250
1.440,0.005,0.245
1.442,0.015,0.240
1.444,0.010,0.235
1.446,0.015,0.225
1.448,0.045,0.215
1.450,0.025,0.200
1.452,-0.010,0.190
1.454,0.025,0.185
1.456,-0.040,0.180
1.458,-0.060,0.175
1.460,-0.060,0.175
1.462,-0.035,0.175
1.464,-0.010,0.170
1.466,0.005,0.165
1.468,-0.030,0.160
1.470,-0.035,0.150
1.472,-0.055,0.140
1.474,-0.090,0.125
1.476,-0.160,0.110
1.478,-0.175,0.095
1.480,-0.180,0.085
1.482,-0.160,0.075
1.484,-0.165,0.060
1.486,-0.140,0.050
1.488,-0.130,0.040
1.490,-0.115,0.025
1.492,-0.170,0.015
1.494,-0.215,0.005
1.496,-0.225,0.000
1.498,-0.230,0.000
1.500,-0.215,0.000
1.502,-0.195,0.010
1.504,-0.180,0.020
1.506,-0.100,0.025
1.508,-0.110,0.030
1.510,-0.195,0.035
1.512,-0.190,0.030
1.514,-0.205,0.020
1.516,-0.220,0.005
1.518,-0.250,-0.005
1.520,-0.310,-0.020
1.522,-0.245,-0.025
1.524,-0.220,-0.030
1.526,-0.120,-0.030
1.528,-0.175,-0.030
1.530,-0.195,-0.030
1.532,-0.215,-0.025
1.534,-0.220,-0.025
1.536,-0.255,-0.030
1.538,-0.290,-0.035
1.540,-0.280,-0.040
1.542,-0.250,-0.040
1.544,-0.210,-0.040
1.546,-0.190,-0.040
1.548,-0.210,-0.035
1.550,-0.170,-0.030
1.552,-0.205,-0.025
1.554,-0.225,-0.020
1.556,-0.265,-0.015
1.558,-0.280,-0.020
1.560,-0.295,-0.025
1.562,-0.280,-0.030
1.564,-0.225,-0.040
1.566,-0.195,-0.045
1.568,-0.180,-0.050
1.570,-0.180,-0.050
1.572,-0.255,-0.050
1.574,-0.250,-0.050
1.576,-0.290,-0.045
1.578,-0.280,-0.045
1.580,-0.280,-0.045
1.582,-0.260,-0.050
1.584,-0.240,-0.060
1.586,-0.190,-0.065
1.588,-0.240,-0.075
1.590,-0.245,-0.080
1.592,-0.245,-0.080
1.594,-0.245,-0.080
1.596,-0.275,-0.070
1.598,-0.290,-0.060
1.600,-0.290,-0.050
1.602,-0.215,-0.040
1.604,-0.225,-0.035
1.606,-0.195,-0.030
1.608,-0.155,-0.025
1.610,-0.125,-0.025
1.612,-0.200,-0.030
1.614,-0.230,-0.030
1.616,-0.250,-0.035
1.618,-0.245,-0.035
1.620,-0.215,-0.035
1.622,-0.245,-0.030
1.624,-0.205,-0.030
1.626,-0.170,-0.025
1.628,-0.180,-0.020
1.630,-0.175,-0.015
1.632,-0.165,-0.010
1.634,-0.205,-0.005
1.636,-0.185,0.000
1.638,-0.220,0.000
1.640,-0.245,0.000
1.642,-0.225,0.000
1.644,-0.170,-0.005
1.646,-0.170,-0.010
1.648,-0.155,-0.015
1.650,-0.195,-0.015
1.652,-0.200,-0.020
1.654,-0.220,-0.020
1.656,-0.240,-0.020
1.658,-0.210,-0.020
1.660,-0.230,-0.020
1.662,-0.195,-0.020
1.664,-0.195,-0.020
1.666,-0.135,-0.020
1.668,-0.195,-0.020
1.670,-0.185,-0.025
1.672,-0.225,-0.025
1.674,-0.270,-0.030
1.676,-0.290,-0.030
1.678,-0.215,-0.030
1.680,-0.190,-0.025
1.682,-0.205,-0.025
1.684,-0.155,-0.020
1.686,-0.160,-0.015
1.688,-0.145,-0.015
1.690,-0.160,-0.010
1.692,-0.200,-0.010
1.694,-0.240,-0.010
1.696,-0.265,-0.015
1.698,-0.260,-0.020
1.700,-0.240,-0.025
1.702,-0.185,-0.030
1.704,-0.180,-0.035
1.706,-0.165,-0.040
1.708,-0.160,-0.040
1.710,-0.195,-0.040
1.712,-0.250,-0.040
1.714,-0.265,-0.035
1.716,-0.265,-0.035
1.718,-0.210,-0.035
1.720,-0.195,-0.035
1.722,-0.225,-0.035
1.724,-0.210,-0.040
1.726,-0.180,-0.040
1.728,-0.175,-0.040
1.730,-0.170,-0.040
1.732,-0.175,-0.040
1.734,-0.215,-0.035
1.736,-0.265,-0.030
1.738,-0.265,-0.025
1.740,-0.200,-0.020
1.742,-0.210,-0.015
1.744,-0.150,-0.015
1.746,-0.145,-0.020
1.748,-0.160,-0.020
1.750,-0.155,-0.025
1.752,-0.215,-0.025
1.754,-0.265,-0.030
1.756,-0.280,-0.030
1.758,-0.190,-0.025
1.760,-0.175,-0.025
1.762,-0.215,-0.030
1.764,-0.160,-0.035
1.766,-0.175,-0.040
1.768,-0.225,-0.050
1.770,-0.240,-0.060
1.772,-0.230,-0.065
1.774,-0.260,-0.070
1.776,-0.250,-0.065
1.778,-0.200,-0.055
1.780,-0.175,-0.040
1.782,-0.220,-0.025
1.784,-0.140,-0.015
1.786,-0.155,-0.005
1.788,-0.175,0.000
1.790,-0.200,-0.005
1.792,-0.215,-0.015
1.794,-0.265,-0.035
1.796,-0.275,-0.050
1.798,-0.275,-0.065
1.800,-0.240,-0.075
1.802,-0.220,-0.080
1.804,-0.210,-0.085
1.806,-0.245,-0.080
1.808,-0.185,-0.080
1.810,-0.200,-0.075
1.812,-0.250,-0.075
1.814,-0.265,-0.075
1.816,-0.290,-0.080
1.818,-0.290,-0.085
1.820,-0.275,-0.090
1.822,-0.245,-0.090
1.824,-0.195,-0.095
1.826,-0.185,-0.090
1.828,-0.200,-0.090
1.830,-0.255,-0.085
1.832,-0.280,-0.080
1.834,-0.340,-0.080
1.836,-0.265,-0.080
1.838,-0.265,-0.080
1.840,-0.245,-0.080
1.842,-0.225,-0.080
1.844,-0.190,-0.080
1.846,-0.205,-0.080
1.848,-0.215,-0.080
1.850,-0.210,-0.080
1.852,-0.240,-0.080
1.854,-0.275,-0.080
1.856,-0.275,-0.085
1.858,-0.270,-0.090
1.860,-0.285,-0.100
1.862,-0.310,-0.105
1.864,-0.280,-0.110
1.866,-0.210,-0.110
1.868,-0.185,-0.110
1.870,-0.155,-0.105
1.872,-0.220,-0.095
1.874,-0.245,-0.085
1.876,-0.275,-0.075
1.878,-0.275,-0.070
1.880,-0.235,-0.065
1.882,-0.200,-0.065
1.884,-0.175,-0.060
1.886,-0.150,-0.060
1.888,-0.180,-0.055
1.890,-0.200,-0.050
1.892,-0.245,-0.045
1.894,-0.220,-0.035
1.896,-0.185,-0.030
1.898,-0.205,-0.025
1.900,-0.175,-0.020
1.902,-0.165,-0.020
1.904,-0.115,-0.020
1.906,-0.090,-0.020
1.908,-0.085,-0.015
1.910,-0.150,-0.015
1.912,-0.180,-0.010
1.914,-0.235,-0.005
1.916,-0.185,-0.005
1.918,-0.180,-0.005
1.920,-0.170,0.000
1.922,-0.180,0.000
1.924,-0.125,0.000
1.926,-0.085,0.000
1.928,-0.070,0.010
1.930,-0.075,0.015
1.932,-0.090,0.025
1.934,-0.080,0.040
1.936,-0.155,0.050
1.938,-0.190,0.055
1.940,-0.115,0.050
1.942,-0.075,0.045
1.944,-0.055,0.030
1.946,-0.120,0.010
1.948,-0.150,-0.015
1.950,-0.170,-0.035
1.952,-0.195,-0.055
1.954,-0.240,-0.070
1.956,-0.235,-0.080
1.958,-0.235,-0.080
1.960,-0.240,-0.075
1.962,-0.195,-0.070
1.964,-0.155,-0.060
1.966,-0.140,-0.050
1.968,-0.180,-0.045
1.970,-0.180,-0.045
1.972,-0.165,-0.050
1.974,-0.200,-0.060
1.976,-0.255,-0.070
1.978,-0.285,-0.080
1.980,-0.255,-0.090
1.982,-0.185,-0.095
1.984,-0.205,-0.100
1.986,-0.225,-0.100
1.988,-0.185,-0.095
1.990,-0.180,-0.090
1.992,-0.200,-0.085
1.994,-0.225,-0.080
1.996,-0.195,-0.075
1.998,-0.185,-0.070
2.000,-0.200,-0.065
2.002,-0.185,-0.065
2.004,-0.225,-0.060
2.006,-0.195,-0.055
2.008,-0.190,-0.055
2.010,-0.140,-0.050
2.012,-0.145,-0.045
2.014,-0.185,-0.045
2.016,-0.220,-0.045
2.018,-0.190,-0.050
2.020,-0.235,-0.050
2.022,-0.200,-0.055
2.024,-0.115,-0.060
2.026,-0.145,-0.060
2.028,-0.150,-0.060
2.030,-0.170,-0.060
2.032,-0.185,-0.055
2.034,-0.240,-0.050
2.036,-0.195,-0.045
2.038,-0.155,-0.045
2.040,-0.170,-0.040
2.042,-0.140,-0.040
2.044,-0.115,-0.035
2.046,-0.100,-0.030
2.048,-0.085,-0.020
2.050,-0.100,-0.005
2.052,-0.145,0.010
2.054,-0.120,0.025
2.056,-0.115,0.040
2.058,-0.065,0.045
2.060,-0.055,0.050
2.062,-0.065,0.050
2.064,-0.070,0.040
2.066,-0.110,0.035
2.068,-0.125,0.030
2.070,-0.135,0.035
2.072,-0.115,0.045
2.074,-0.040,0.065
2.076,0.050,0.090
2.078,0.075,0.115
2.080,0.070,0.135
2.082,0.055,0.150
2.084,0.015,0.145
2.086,-0.010,0.130
2.088,-0.055,0.095
2.090,-0.115,0.050
2.092,-0.140,-0.005
2.094,-0.185,-0.060
2.096,-0.240,-0.110
2.098,-0.290,-0.150
2.100,-0.330,-0.180
2.102,-0.295,-0.190
2.104,-0.260,-0.185
2.106,-0.290,-0.170
2.108,-0.245,-0.145
2.110,-0.190,-0.120
2.112,-0.215,-0.090
2.114,-0.190,-0.065
2.116,-0.135,-0.040
2.118,-0.160,-0.025
2.120,-0.165,-0.015
2.122,-0.075,-0.010
2.124,-0.095,-0.005
2.126,-0.100,-0.010
2.128,-0.160,-0.010
2.130,-0.170,-0.015
2.132,-0.175,-0.025
2.134,-0.140,-0.030
2.136,-0.150,-0.035
2.138,-0.155,-0.035
2.140,-0.145,-0.040
2.142,-0.120,-0.035
2.144,-0.110,-0.035
2.146,-0.095,-0.030
2.148,-0.105,-0.025
2.150,-0.155,-0.020
2.152,-0.130,-0.015
2.154,-0.125,-0.010
2.156,-0.140,-0.005
2.158,-0.140,-0.005
2.160,-0.115,-0.005
2.162,-0.095,-0.005
2.164,-0.110,-0.010
2.166,-0.070,-0.010
2.168,-0.060,-0.010
2.170,-0.120,-0.015
2.172,-0.140,-0.015
2.174,-0.170,-0.015
2.176,-0.185,-0.015
2.178,-0.175,-0.015
2.180,-0.100,-0.015
2.182,-0.045,-0.015
2.184,-0.050,-0.010
2.186,-0.040,-0.005
2.188,-0.070,0.005
2.190,-0.075,0.010
2.192,-0.105,0.015
2.194,-0.125,0.020
2.196,-0.090,0.020
2.198,-0.065,0.015
2.200,-0.065,0.010
2.202,-0.085,0.000
2.204,-0.085,-0.010
2.206,-0.095,-0.020
2.208,-0.115,-0.030
2.210,-0.110,-0.035
2.212,-0.180,-0.035
2.214,-0.130,-0.030
2.216,-0.115,-0.020
2.218,-0.090,-0.010
2.220,-0.085,0.000
2.222,-0.045,0.010
2.224,-0.030,0.015
2.226,-0.050,0.015
2.228,-0.100,0.015
2.230,-0.105,0.010
2.232,-0.155,0.005
2.234,-0.115,0.005
2.236,-0.100,0.005
2.238,-0.110,0.005
2.240,-0.065,0.010
2.242,0.000,0.015
2.244,0.015,0.020
2.246,-0.045,0.020
2.248,-0.060,0.025
2.250,-0.085,0.025
2.252,-0.100,0.020
2.254,-0.080,0.020
2.256,-0.060,0.020
2.258,-0.005,0.020
2.260,-0.015,0.025
2.262,-0.105,0.030
2.264,-0.045,0.040
2.266,-0.015,0.050
2.268,-0.030,0.060
2.270,-0.040,0.070
2.272,-0.035,0.075
2.274,-0.030,0.075
2.276,-0.035,0.080
2.278,-0.015,0.080
2.280,0.045,0.080
2.282,0.030,0.085
2.284,0.045,0.090
2.286,0.065,0.100
2.288,0.050,0.115
2.290,0.015,0.130
2.292,0.025,0.140
2.294,0.060,0.155
2.296,0.095,0.170
2.298,0.095,0.180
2.300,0.135,0.185
2.302,0.135,0.185
2.304,0.135,0.190
2.306,0.135,0.185
2.308,0.105,0.185
2.310,0.075,0.185
2.312,0.060,0.185
2.314,0.060,0.185
2.316,0.090,0.190
2.318,0.105,0.195
2.320,0.180,0.200
2.322,0.160,0.205
2.324,0.150,0.205
2.326,0.120,0.205
2.328,0.105,0.200
2.330,0.070,0.195
2.332,0.055,0.185
2.334,0.060,0.170
2.336,0.030,0.155
2.338,0.070,0.140
2.340,0.090,0.125
2.342,0.060,0.110
2.344,0.075,0.100
2.346,0.020,0.095
2.348,-0.025,0.085
2.350,-0.080,0.085
2.352,-0.010,0.080
2.354,0.005,0.080
2.356,-0.015,0.080
2.358,0.010,0.075
2.360,0.030,0.070
2.362,0.015,0.065
2.364,0.000,0.060
2.366,-0.035,0.050
2.368,-0.030,0.040
2.370,-0.095,0.025
2.372,-0.120,0.015
2.374,-0.125,0.005
2.376,-0.115,-0.005
2.378,-0.120,-0.015
2.380,-0.050,-0.025
2.382,-0.055,-0.030
2.384,-0.040,-0.035
2.386,-0.085,-0.040
2.388,-0.105,-0.040
2.390,-0.170,-0.040
2.392,-0.160,-0.040
2.394,-0.135,-0.035
2.396,-0.095,-0.030
2.398,-0.075,-0.030
2.400,-0.065,-0.025
2.402,-0.080,-0.020
2.404,-0.065,-0.020
2.406,-0.095,-0.020
2.408,-0.110,-0.025
2.410,-0.150,-0.030
2.412,-0.145,-0.040
2.414,-0.165,-0.045
2.416,-0.110,-0.050
2.418,-0.080,-0.055
2.420,-0.050,-0.055
2.422,-0.085,-0.055
2.424,-0.115,-0.050
2.426,-0.160,-0.050
2.428,-0.130,-0.050
2.430,-0.195,-0.050
2.432,-0.140,-0.050
2.434,-0.170,-0.050
2.436,-0.075,-0.045
2.438,-0.065,-0.040
2.440,-0.035,-0.035
2.442,-0.060,-0.030
2.444,-0.095,-0.025
2.446,-0.070,-0.020
2.448,-0.065,-0.020
2.450,-0.135,-0.020
2.452,-0.130,-0.025
2.454,-0.140,-0.030
2.456,-0.100,-0.035
2.458,-0.050,-0.035
2.460,-0.015,-0.035
2.462,-0.075,-0.030
2.464,-0.045,-0.020
2.466,-0.050,-0.010
2.468,-0.095,0.000
2.470,-0.140,0.000
2.472,-0.090,0.000
2.474,-0.105,-0.010
2.476,-0.135,-0.025
2.478,-0.110,-0.040
2.480,-0.075,-0.050
2.482,-0.075,-0.060
2.484,-0.070,-0.065
2.486,-0.115,-0.060
2.488,-0.130,-0.050
2.490,-0.130,-0.040
2.492,-0.095,-0.025
2.494,-0.105,-0.015
2.496,-0.070,-0.005
2.498,-0.065,-0.005
2.500,-0.070,-0.010
2.502,-0.070,-0.020
2.504,-0.065,-0.030
2.506,-0.085,-0.035
2.508,-0.120,-0.040
2.510,-0.185,-0.045
2.512,-0.195,-0.040
2.514,-0.110,-0.040
2.516,-0.045,-0.035
2.518,-0.050,-0.035
2.520,-0.075,-0.035
2.522,-0.055,-0.035
2.524,-0.060,-0.035
2.526,-0.100,-0.035
2.528,-0.120,-0.035
2.530,-0.120,-0.035
2.532,-0.130,-0.030
2.534,-0.095,-0.030
2.536,-0.075,-0.025
2.538,-0.055,-0.025
2.540,-0.050,-0.025
2.542,-0.095,-0.030
2.544,-0.135,-0.035
2.546,-0.085,-0.045
2.548,-0.140,-0.050
2.550,-0.170,-0.055
2.552,-0.115,-0.060
2.554,-0.120,-0.060
2.556,-0.150,-0.060
2.558,-0.110,-0.055
2.560,-0.060,-0.050
2.562,-0.040,-0.045
2.564,-0.055,-0.045
2.566,-0.080,-0.040
2.568,-0.115,-0.035
2.570,-0.140,-0.035
2.572,-0.135,-0.035
2.574,-0.140,-0.030
2.576,-0.090,-0.030
2.578,0.015,-0.025
2.580,-0.055,-0.025
2.582,-0.065,-0.020
2.584,-0.050,-0.020
2.586,-0.080,-0.015
2.588,-0.100,-0.010
2.590,-0.090,-0.005
2.592,-0.105,0.000
2.594,-0.060,0.005
2.596,-0.035,0.010
2.598,-0.040,0.015
2.600,-0.005,0.020
2.602,0.030,0.025
2.604,0.035,0.025
2.606,-0.030,0.025
2.608,-0.075,0.020
2.610,-0.110,0.020
2.612,-0.100,0.015
2.614,-0.080,0.010
2.616,-0.050,0.005
2.618,0.020,0.005
2.620,0.025,0.000
2.622,-0.040,-0.005
2.624,-0.065,-0.005
2.626,-0.055,-0.010
2.628,-0.110,-0.010
2.630,-0.095,-0.010
2.632,-0.110,-0.010
2.634,-0.060,-0.010
2.636,-0.055,-0.010
2.638,-0.060,-0.010
2.640,-0.080,-0.015
2.642,-0.090,-0.020
2.644,-0.040,-0.030
2.646,-0.085,-0.035
2.648,-0.145,-0.045
2.650,-0.125,-0.050
2.652,-0.140,-0.055
2.654,-0.140,-0.060
2.656,-0.165,-0.060
2.658,-0.095,-0.060
2.660,-0.055,-0.060
2.662,-0.010,-0.060
2.664,-0.115,-0.055
2.666,-0.095,-0.055
2.668,-0.100,-0.055
2.670,-0.130,-0.050
2.672,-0.170,-0.050
2.674,-0.125,-0.045
2.676,-0.130,-0.040
2.678,-0.085,-0.035
2.680,-0.030,-0.030
2.682,-0.020,-0.030
2.684,-0.045,-0.025
2.686,-0.115,-0.025
2.688,-0.085,-0.020
2.690,-0.040,-0.020
2.692,-0.135,-0.020
2.694,-0.110,-0.020
2.696,-0.095,-0.020
2.698,-0.020,-0.025
2.700,-0.060,-0.025
2.702,-0.055,-0.030
2.704,-0.045,-0.030
2.706,-0.035,-0.030
2.708,-0.070,-0.030
2.710,-0.085,-0.025
2.712,-0.115,-0.020
2.714,-0.120,-0.010
2.716,-0.080,-0.005
2.718,-0.015,0.000
2.720,0.010,0.005
2.722,-0.020,0.005
2.724,-0.035,0.000
2.726,-0.070,-0.005
2.728,-0.090,-0.010
2.730,-0.095,-0.020
2.732,-0.075,-0.025
2.734,-0.090,-0.030
2.736,-0.090,-0.030
2.738,-0.055,-0.030
2.740,-0.040,-0.030
2.742,-0.020,-0.030
2.744,-0.070,-0.030
2.746,-0.105,-0.030
2.748,-0.115,-0.030
2.750,-0.100,-0.035
2.752,-0.115,-0.030
2.754,-0.090,-0.030
2.756,-0.055,-0.025
2.758,0.000,-0.015
2.760,0.000,-0.005
2.762,0.025,0.010
2.764,-0.025,0.020
2.766,-0.075,0.025
2.768,-0.120,0.030
2.770,-0.090,0.025
2.772,-0.070,0.025
2.774,-0.010,0.015
2.776,0.030,0.010
2.778,0.010,0.005
2.780,-0.045,0.005
2.782,-0.015,0.010
2.784,-0.025,0.010
2.786,-0.040,0.015
2.788,-0.025,0.020
2.790,-0.035,0.020
2.792,-0.070,0.020
2.794,-0.055,0.020
2.796,-0.025,0.015
2.798,0.020,0.015
2.800,0.035,0.015
2.802,0.055,0.025
2.804,0.035,0.035
2.806,0.020,0.045
2.808,0.010,0.060
2.810,-0.025,0.070
2.812,-0.055,0.075
2.814,-0.030,0.075
2.816,0.000,0.070
2.818,0.045,0.065
2.820,0.080,0.055
2.822,0.060,0.050
2.824,-0.015,0.040
2.826,0.000,0.040
2.828,-0.010,0.040
2.830,-0.020,0.045
2.832,-0.040,0.045
2.834,-0.025,0.045
2.836,0.020,0.045
2.838,0.005,0.045
2.840,0.060,0.040
2.842,0.065,0.035
2.844,-0.015,0.030
2.846,-0.025,0.025
2.848,-0.030,0.025
2.850,-0.035,0.030
2.852,-0.050,0.030
2.854,-0.055,0.025
2.856,-0.025,0.020
2.858,0.005,0.015
2.860,0.005,0.000
2.862,-0.045,-0.010
2.864,-0.085,-0.025
2.866,-0.080,-0.035
2.868,-0.130,-0.040
2.870,-0.130,-0.040
2.872,-0.115,-0.040
2.874,-0.070,-0.030
2.876,0.030,-0.020
2.878,0.025,-0.015
2.880,-0.045,-0.010
2.882,-0.060,-0.005
2.884,-0.075,-0.005
2.886,-0.065,-0.010
2.888,-0.050,-0.015
2.890,-0.105,-0.020
2.892,-0.050,-0.025
2.894,-0.060,-0.025
2.896,-0.020,-0.025
2.898,-0.070,-0.025
2.900,-0.095,-0.025
2.902,-0.080,-0.025
2.904,-0.105,-0.030
2.906,-0.105,-0.030
2.908,-0.060,-0.035
2.910,-0.115,-0.035
2.912,-0.075,-0.035
2.914,-0.075,-0.035
2.916,-0.055,-0.030
2.918,-0.015,-0.030
2.920,-0.020,-0.025
2.922,-0.015,-0.025
2.924,-0.070,-0.025
2.926,-0.140,-0.030
2.928,-0.155,-0.030
2.930,-0.145,-0.030
2.932,-0.075,-0.030
2.934,-0.075,-0.030
2.936,0.005,-0.025
2.938,-0.015,-0.015
2.940,0.005,-0.005
2.942,-0.025,0.005
2.944,-0.025,0.015
2.946,-0.050,0.025
2.948,-0.050,0.035
2.950,-0.020,0.040
2.952,0.010,0.050
2.954,0.035,0.055
2.956,0.065,0.055
2.958,0.080,0.060
2.960,0.065,0.060
2.962,0.070,0.060
2.964,0.010,0.065
2.966,-0.055,0.065
2.968,-0.050,0.075
2.970,-0.035,0.085
2.972,-0.020,0.105
2.974,0.095,0.130
2.976,0.220,0.155
2.978,0.260,0.180
2.980,0.290,0.205
2.982,0.230,0.215
2.984,0.125,0.215
2.986,0.015,0.200
2.988,0.055,0.170
2.990,0.025,0.130
2.992,0.005,0.075
2.994,-0.005,0.015
2.996,-0.045,-0.040
2.998,-0.105,-0.085
3.000,-0.160,-0.120
3.002,-0.190,-0.135
3.004,-0.220,-0.135
3.006,-0.220,-0.120
3.008,-0.160,-0.095
3.010,-0.115,-0.065
3.012,-0.020,-0.030
3.014,0.020,0.000
3.016,0.055,0.025
3.018,0.030,0.040
3.020,0.035,0.050
3.022,0.015,0.055
3.024,-0.040,0.055
3.026,-0.080,0.050
3.028,-0.010,0.045
3.030,-0.030,0.045
3.032,0.020,0.045
3.034,0.015,0.045
3.036,0.010,0.045
3.038,0.005,0.050
3.040,0.065,0.055
3.042,0.040,0.055
3.044,0.010,0.060
3.046,-0.010,0.055
3.048,-0.035,0.055
3.050,-0.065,0.045
3.052,-0.040,0.040
3.054,0.025,0.035
3.056,0.065,0.025
3.058,0.040,0.020
3.060,0.025,0.015
3.062,-0.005,0.010
3.064,-0.040,0.010
3.066,-0.070,0.010
3.068,-0.055,0.010
3.070,-0.080,0.015
3.072,-0.045,0.015
3.074,0.015,0.020
3.076,0.015,0.030
3.078,0.010,0.035
3.080,0.015,0.040
3.082,0.045,0.050
3.084,-0.005,0.050
3.086,-0.045,0.055
3.088,-0.025,0.055
3.090,-0.015,0.055
3.092,-0.045,0.050
3.094,0.010,0.045
3.096,0.060,0.045
3.098,0.045,0.045
3.100,0.015,0.045
3.102,0.030,0.050
3.104,-0.030,0.055
3.106,-0.030,0.065
3.108,0.025,0.070
3.110,0.010,0.075
3.112,0.000,0.080
3.114,0.045,0.080
3.116,0.105,0.080
3.118,0.060,0.080
3.120,0.050,0.075
3.122,0.030,0.070
3.124,-0.020,0.070
3.126,-0.005,0.070
3.128,0.040,0.075
3.130,-0.005,0.075
3.132,0.030,0.080
3.134,0.070,0.085
3.136,0.080,0.090
3.138,0.070,0.095
3.140,0.080,0.100
3.142,0.075,0.105
3.144,0.050,0.110
3.146,0.015,0.115
3.148,0.020,0.120
3.150,0.030,0.120
3.152,0.070,0.120
3.154,0.135,0.120
3.156,0.160,0.120
3.158,0.115,0.120
3.160,0.105,0.120
3.162,0.090,0.125
3.164,0.075,0.130
3.166,0.075,0.140
3.168,0.075,0.155
3.170,0.080,0.165
3.172,0.080,0.180
3.174,0.165,0.190
3.176,0.175,0.195
3.178,0.175,0.195
3.180,0.135,0.195
3.182,0.175,0.190
3.184,0.110,0.190
3.186,0.075,0.190
3.188,0.115,0.195
3.190,0.155,0.210
3.192,0.195,0.225
3.194,0.235,0.245
3.196,0.325,0.265
3.198,0.300,0.280
3.200,0.260,0.290
3.202,0.210,0.295
3.204,0.175,0.295
3.206,0.195,0.290
3.208,0.220,0.280
3.210,0.185,0.270
3.212,0.185,0.265
3.214,0.255,0.265
3.216,0.275,0.260
3.218,0.260,0.260
3.220,0.225,0.260
3.222,0.205,0.255
3.224,0.130,0.245
3.226,0.110,0.235
3.228,0.105,0.225
3.230,0.160,0.215
3.232,0.110,0.205
3.234,0.200,0.195
3.236,0.205,0.195
3.238,0.175,0.190
3.240,0.130,0.185
3.242,0.120,0.180
3.244,0.080,0.165
3.246,0.030,0.150
3.248,-0.010,0.130
3.250,0.005,0.110
3.252,0.015,0.085
3.254,0.025,0.065
3.256,0.015,0.050
3.258,0.045,0.040
3.260,0.010,0.030
3.262,-0.050,0.025
3.264,-0.095,0.015
3.266,-0.080,0.005
3.268,-0.095,-0.005
3.270,-0.065,-0.015
3.272,-0.130,-0.030
3.274,-0.105,-0.040
3.276,-0.100,-0.045
3.278,-0.040,-0.050
3.280,-0.070,-0.050
3.282,-0.115,-0.050
3.284,-0.155,-0.045
3.286,-0.160,-0.050
3.288,-0.175,-0.050
3.290,-0.105,-0.060
3.292,-0.105,-0.065
3.294,-0.100,-0.075
3.296,-0.145,-0.080
3.298,-0.140,-0.085
3.300,-0.110,-0.090
3.302,-0.085,-0.090
3.304,-0.160,-0.090
3.306,-0.225,-0.095
3.308,-0.240,-0.095
3.310,-0.190,-0.095
3.312,-0.130,-0.100
3.314,-0.140,-0.100
3.316,-0.110,-0.100
3.318,-0.115,-0.100
3.320,-0.145,-0.095
3.322,-0.145,-0.090
3.324,-0.195,-0.090
3.326,-0.190,-0.090
3.328,-0.215,-0.090
3.330,-0.200,-0.100
3.332,-0.180,-0.105
3.334,-0.140,-0.115
3.336,-0.150,-0.120
3.338,-0.165,-0.125
3.340,-0.155,-0.125
3.342,-0.185,-0.120
3.344,-0.200,-0.110
3.346,-0.220,-0.100
3.348,-0.230,-0.095
3.350,-0.180,-0.095
3.352,-0.145,-0.095
3.354,-0.090,-0.100
3.356,-0.145,-0.100
3.358,-0.130,-0.105
3.360,-0.155,-0.105
3.362,-0.205,-0.100
3.364,-0.195,-0.095
3.366,-0.160,-0.085
3.368,-0.180,-0.075
3.370,-0.180,-0.075
3.372,-0.135,-0.070
3.374,-0.100,-0.075
3.376,-0.120,-0.085
3.378,-0.165,-0.095
3.380,-0.180,-0.105
3.382,-0.155,-0.110
3.384,-0.190,-0.110
3.386,-0.205,-0.105
3.388,-0.220,-0.100
3.390,-0.170,-0.090
3.392,-0.080,-0.080
3.394,-0.100,-0.075
3.396,-0.150,-0.075
3.398,-0.170,-0.075
3.400,-0.165,-0.080
3.402,-0.160,-0.090
3.404,-0.160,-0.095
3.406,-0.205,-0.100
3.408,-0.180,-0.105
3.410,-0.165,-0.100
3.412,-0.140,-0.095
3.414,-0.125,-0.090
3.416,-0.110,-0.085
3.418,-0.075,-0.075
3.420,-0.120,-0.075
3.422,-0.155,-0.070
3.424,-0.175,-0.070
3.426,-0.200,-0.065
3.428,-0.170,-0.065
3.430,-0.140,-0.065
3.432,-0.105,-0.065
3.434,-0.120,-0.070
3.436,-0.160,-0.070
3.438,-0.145,-0.070
3.440,-0.065,-0.070
3.442,-0.125,-0.070
3.444,-0.215,-0.075
3.446,-0.205,-0.075
3.448,-0.180,-0.075
3.450,-0.175,-0.075
3.452,-0.085,-0.075
3.454,-0.115,-0.075
3.456,-0.120,-0.080
3.458,-0.145,-0.085
3.460,-0.175,-0.085
3.462,-0.200,-0.090
3.464,-0.200,-0.090
3.466,-0.180,-0.090
3.468,-0.130,-0.085
3.470,-0.150,-0.080
3.472,-0.155,-0.075
3.474,-0.110,-0.070
3.476,-0.110,-0.070
3.478,-0.110,-0.075
3.480,-0.180,-0.080
3.482,-0.210,-0.085
3.484,-0.210,-0.090
3.486,-0.185,-0.095
3.488,-0.180,-0.095
3.490,-0.145,-0.090
3.492,-0.185,-0.080
3.494,-0.120,-0.070
3.496,-0.070,-0.060
3.498,-0.100,-0.050
3.500,-0.105,-0.045
3.502,-0.175,-0.045
3.504,-0.210,-0.045
3.506,-0.180,-0.055
3.508,-0.160,-0.065
3.510,-0.170,-0.075
3.512,-0.145,-0.085
3.514,-0.135,-0.090
3.516,-0.135,-0.095
3.518,-0.160,-0.100
3.520,-0.200,-0.100
3.522,-0.220,-0.100
3.524,-0.260,-0.095
3.526,-0.225,-0.095
3.528,-0.155,-0.095
3.530,-0.115,-0.100
3.532,-0.160,-0.100
3.534,-0.170,-0.100
3.536,-0.150,-0.100
3.538,-0.190,-0.100
3.540,-0.215,-0.105
3.542,-0.240,-0.105
3.544,-0.270,-0.110
3.546,-0.290,-0.120
3.548,-0.195,-0.125
3.550,-0.190,-0.135
3.552,-0.205,-0.140
3.554,-0.240,-0.140
3.556,-0.215,-0.145
3.558,-0.180,-0.140
3.560,-0.185,-0.135
3.562,-0.270,-0.130
3.564,-0.255,-0.120
3.566,-0.195,-0.110
3.568,-0.220,-0.105
3.570,-0.190,-0.100
3.572,-0.190,-0.095
3.574,-0.130,-0.095
3.576,-0.145,-0.095
3.578,-0.200,-0.095
3.580,-0.210,-0.100
3.582,-0.245,-0.100
3.584,-0.225,-0.100
3.586,-0.240,-0.100
3.588,-0.175,-0.095
3.590,-0.150,-0.095
3.592,-0.140,-0.090
3.594,-0.125,-0.090
3.596,-0.145,-0.085
3.598,-0.190,-0.085
3.600,-0.210,-0.085
3.602,-0.255,-0.085
3.604,-0.215,-0.085
3.606,-0.210,-0.085
3.608,-0.205,-0.080
3.610,-0.140,-0.080
3.612,-0.165,-0.075
3.614,-0.140,-0.075
3.616,-0.110,-0.070
3.618,-0.125,-0.070
3.620,-0.150,-0.065
3.622,-0.245,-0.065
3.624,-0.220,-0.065
3.626,-0.190,-0.065
3.628,-0.175,-0.065
3.630,-0.170,-0.065
3.632,-0.120,-0.070
3.634,-0.150,-0.070
3.636,-0.170,-0.075
3.638,-0.185,-0.080
3.640,-0.225,-0.080
3.642,-0.210,-0.085
3.644,-0.225,-0.085
3.646,-0.205,-0.085
3.648,-0.160,-0.080
3.650,-0.120,-0.075
3.652,-0.140,-0.065
3.654,-0.135,-0.050
3.656,-0.110,-0.040
3.658,-0.145,-0.030
3.660,-0.150,-0.020
3.662,-0.180,-0.020
3.664,-0.165,-0.020
3.666,-0.145,-0.025
3.668,-0.110,-0.030
3.670,-0.110,-0.035
3.672,-0.165,-0.045
3.674,-0.160,-0.045
3.676,-0.125,-0.045
3.678,-0.090,-0.040
3.680,-0.170,-0.030
3.682,-0.160,-0.020
3.684,-0.115,-0.010
3.686,-0.135,0.000
3.688,-0.100,0.010
3.690,-0.085,0.015
3.692,-0.085,0.015
3.694,-0.075,0.010
3.696,-0.090,0.000
3.698,-0.100,-0.005
3.700,-0.145,-0.015
3.702,-0.160,-0.025
3.704,-0.200,-0.035
3.706,-0.205,-0.040
3.708,-0.210,-0.040
3.710,-0.150,-0.045
3.712,-0.120,-0.050
3.714,-0.115,-0.050
3.716,-0.155,-0.055
3.718,-0.185,-0.055
3.720,-0.205,-0.060
3.722,-0.195,-0.060
3.724,-0.190,-0.060
3.726,-0.200,-0.060
3.728,-0.170,-0.060
3.730,-0.160,-0.060
3.732,-0.155,-0.060
3.734,-0.180,-0.055
3.736,-0.170,-0.055
3.738,-0.185,-0.055
3.740,-0.165,-0.060
3.742,-0.235,-0.060
3.744,-0.205,-0.060
3.746,-0.185,-0.060
3.748,-0.160,-0.060
3.750,-0.155,-0.060
3.752,-0.125,-0.055
3.754,-0.165,-0.050
3.756,-0.165,-0.045
3.758,-0.190,-0.040
3.760,-0.220,-0.040
3.762,-0.235,-0.040
3.764,-0.245,-0.040
3.766,-0.220,-0.045
3.768,-0.205,-0.050
3.770,-0.125,-0.055
3.772,-0.095,-0.060
3.774,-0.085,-0.060
3.776,-0.165,-0.060
3.778,-0.215,-0.055
3.780,-0.235,-0.050
3.782,-0.235,-0.045
3.784,-0.215,-0.040
3.786,-0.190,-0.035
3.788,-0.190,-0.035
3.790,-0.115,-0.040
3.792,-0.120,-0.040
3.794,-0.155,-0.040
3.796,-0.150,-0.040
3.798,-0.155,-0.035
3.800,-0.225,-0.025
3.802,-0.200,-0.015
3.804,-0.155,0.000
3.806,-0.120,0.010
3.808,-0.065,0.015
3.810,-0.065,0.020
3.812,-0.070,0.020
3.814,-0.060,0.015
3.816,-0.145,0.010
3.818,-0.185,0.005
3.820,-0.235,0.005
3.822,-0.205,0.015
3.824,-0.165,0.035
3.826,-0.070,0.055
3.828,0.060,0.080
3.830,0.070,0.100
3.832,0.035,0.110
3.834,0.000,0.110
3.836,-0.090,0.090
3.838,-0.120,0.055
3.840,-0.245,0.010
3.842,-0.275,-0.045
3.844,-0.285,-0.105
3.846,-0.280,-0.155
3.848,-0.355,-0.195
3.850,-0.340,-0.215
3.852,-0.375,-0.220
3.854,-0.365,-0.205
3.856,-0.275,-0.180
3.858,-0.315,-0.150
3.860,-0.325,-0.110
3.862,-0.235,-0.080
3.864,-0.180,-0.050
3.866,-0.135,-0.030
3.868,-0.150,-0.020
3.870,-0.115,-0.015
3.872,-0.125,-0.015
3.874,-0.125,-0.015
3.876,-0.155,-0.020
3.878,-0.165,-0.020
3.880,-0.230,-0.025
3.882,-0.215,-0.020
3.884,-0.200,-0.020
3.886,-0.125,-0.015
3.888,-0.150,-0.010
3.890,-0.130,-0.010
3.892,-0.150,-0.005
3.894,-0.130,0.000
3.896,-0.140,0.000
3.898,-0.175,0.005
3.900,-0.210,0.005
3.902,-0.185,0.010
3.904,-0.185,0.010
3.906,-0.150,0.010
3.908,-0.125,0.010
3.910,-0.130,0.010
3.912,-0.115,0.010
3.914,-0.150,0.010
3.916,-0.155,0.010
3.918,-0.145,0.015
3.920,-0.130,0.015
3.922,-0.145,0.015
3.924,-0.200,0.020
3.926,-0.165,0.025
3.928,-0.130,0.025
3.930,-0.125,0.030
3.932,-0.100,0.030
3.934,-0.115,0.030
3.936,-0.145,0.030
3.938,-0.140,0.030
3.940,-0.140,0.030
3.942,-0.175,0.030
3.944,-0.170,0.030
3.946,-0.150,0.030
3.948,-0.160,0.030
3.950,-0.100,0.035
3.952,-0.095,0.035
3.954,-0.095,0.035
3.956,-0.125,0.040
3.958,-0.135,0.040
3.960,-0.180,0.045
3.962,-0.160,0.050
3.964,-0.150,0.055
3.966,-0.155,0.055
3.968,-0.145,0.060
3.970,-0.060,0.060
3.972,-0.100,0.060
3.974,-0.090,0.055
3.976,-0.080,0.055
3.978,-0.080,0.050
3.980,-0.150,0.050
3.982,-0.140,0.050
3.984,-0.150,0.055
3.986,-0.145,0.055
3.988,-0.105,0.060
3.990,-0.045,0.065
3.992,-0.090,0.070
3.994,-0.085,0.070
3.996,-0.075,0.075
3.998,-0.125,0.075
4.000,-0.130,0.080
4.002,-0.120,0.085
4.004,-0.100,0.090
4.006,-0.040,0.100
4.008,-0.025,0.115
4.010,-0.045,0.130
4.012,-0.015,0.140
4.014,0.005,0.155
4.016,-0.035,0.165
4.018,-0.070,0.170
4.020,-0.040,0.175
4.022,-0.025,0.175
4.024,-0.055,0.180
4.026,0.020,0.180
4.028,0.070,0.185
4.030,0.040,0.195
4.032,0.080,0.210
4.034,0.060,0.225
4.036,0.020,0.240
4.038,-0.010,0.250
4.040,-0.030,0.260
4.042,0.040,0.265
4.044,0.065,0.270
4.046,0.075,0.265
4.048,0.120,0.265
4.050,0.165,0.260
4.052,0.120,0.255
4.054,0.045,0.255
4.056,0.050,0.260
4.058,0.030,0.265
4.060,0.045,0.275
4.062,0.050,0.280
4.064,0.075,0.290
4.066,0.090,0.290
4.068,0.185,0.295
4.070,0.120,0.290
4.072,0.100,0.285
4.074,0.080,0.275
4.076,0.075,0.260
4.078,-0.005,0.250
4.080,0.015,0.235
4.082,-0.030,0.225
4.084,0.015,0.210
4.086,0.045,0.200
4.088,0.070,0.195
4.090,-0.005,0.185
4.092,0.005,0.180
4.094,0.005,0.175
4.096,-0.005,0.165
4.098,-0.105,0.160
4.100,-0.110,0.150
4.102,-0.085,0.140
4.104,-0.085,0.130
4.106,-0.060,0.115
4.108,-0.025,0.105
4.110,-0.075,0.095
4.112,-0.130,0.085
4.114,-0.150,0.075
4.116,-0.135,0.065
4.118,-0.190,0.060
4.120,-0.225,0.055
4.122,-0.175,0.055
4.124,-0.185,0.050
4.126,-0.130,0.045
4.128,-0.090,0.045
4.130,-0.130,0.040
4.132,-0.135,0.040
4.134,-0.175,0.035
4.136,-0.225,0.035
4.138,-0.275,0.030
4.140,-0.230,0.025
4.142,-0.235,0.020
4.144,-0.240,0.015
4.146,-0.200,0.005
4.148,-0.185,0.000
4.150,-0.190,-0.005
4.152,-0.215,-0.010
4.154,-0.240,-0.010
4.156,-0.215,-0.010
4.158,-0.265,-0.005
4.160,-0.215,0.000
4.162,-0.240,0.005
4.164,-0.195,0.010
4.166,-0.210,0.010
4.168,-0.175,0.010
4.170,-0.190,0.005
4.172,-0.195,-0.005
4.174,-0.240,-0.015
4.176,-0.285,-0.030
4.178,-0.325,-0.045
4.180,-0.295,-0.055
4.182,-0.305,-0.065
4.184,-0.350,-0.070
4.186,-0.305,-0.075
4.188,-0.225,-0.075
4.190,-0.260,-0.070
4.192,-0.235,-0.065
4.194,-0.220,-0.060
4.196,-0.275,-0.055
4.198,-0.350,-0.055
4.200,-0.345,-0.060
4.202,-0.325,-0.065
4.204,-0.340,-0.075
4.206,-0.320,-0.085
4.208,-0.295,-0.090
4.210,-0.300,-0.095
4.212,-0.275,-0.095
4.214,-0.300,-0.090
4.216,-0.340,-0.080
4.218,-0.390,-0.075
4.220,-0.320,-0.065
4.222,-0.320,-0.060
4.224,-0.330,-0.060
4.226,-0.285,-0.065
4.228,-0.225,-0.070
4.230,-0.235,-0.070
4.232,-0.225,-0.075
4.234,-0.310,-0.075
4.236,-0.340,-0.070
4.238,-0.330,-0.060
4.240,-0.305,-0.055
4.242,-0.315,-0.050
4.244,-0.330,-0.050
4.246,-0.265,-0.050
4.248,-0.205,-0.060
4.250,-0.255,-0.070
4.252,-0.290,-0.080
4.254,-0.310,-0.085
4.256,-0.370,-0.090
4.258,-0.400,-0.085
4.260,-0.345,-0.075
4.262,-0.290,-0.060
4.264,-0.205,-0.045
4.266,-0.210,-0.030
4.268,-0.235,-0.020
4.270,-0.280,-0.010
4.272,-0.260,-0.005
4.274,-0.220,-0.005
4.276,-0.250,-0.005
4.278,-0.315,-0.005
4.280,-0.255,0.000
4.282,-0.235,0.000
4.284,-0.235,0.005
4.286,-0.220,0.005
4.288,-0.210,0.005
4.290,-0.230,0.005
4.292,-0.220,0.000
4.294,-0.240,-0.010
4.296,-0.300,-0.015
4.298,-0.335,-0.025
4.300,-0.335,-0.035
4.302,-0.335,-0.040
4.304,-0.290,-0.045
4.306,-0.220,-0.045
4.308,-0.185,-0.050
4.310,-0.245,-0.045
4.312,-0.295,-0.045
4.314,-0.265,-0.040
4.316,-0.325,-0.040
4.318,-0.355,-0.035
4.320,-0.315,-0.030
4.322,-0.290,-0.025
4.324,-0.285,-0.020
4.326,-0.230,-0.015
4.328,-0.210,-0.015
4.330,-0.165,-0.015
4.332,-0.215,-0.015
4.334,-0.285,-0.020
4.336,-0.345,-0.020
4.338,-0.365,-0.025
4.340,-0.335,-0.025
4.342,-0.265,-0.025
4.344,-0.225,-0.025
4.346,-0.200,-0.025
4.348,-0.235,-0.020
4.350,-0.225,-0.020
4.352,-0.250,-0.020
4.354,-0.285,-0.025
4.356,-0.360,-0.030
4.358,-0.340,-0.035
4.360,-0.320,-0.040
4.362,-0.330,-0.045
4.364,-0.305,-0.050
4.366,-0.255,-0.050
4.368,-0.235,-0.050
4.370,-0.235,-0.050
4.372,-0.285,-0.045
4.374,-0.275,-0.045
4.376,-0.360,-0.040
4.378,-0.390,-0.040
4.380,-0.340,-0.040
4.382,-0.315,-0.040
4.384,-0.300,-0.045
4.386,-0.270,-0.050
4.388,-0.275,-0.055
4.390,-0.255,-0.060
4.392,-0.300,-0.060
4.394,-0.305,-0.065
4.396,-0.305,-0.070
4.398,-0.370,-0.070
4.400,-0.370,-0.075
4.402,-0.330,-0.075
4.404,-0.345,-0.075
4.406,-0.285,-0.075
4.408,-0.275,-0.075
4.410,-0.225,-0.070
4.412,-0.295,-0.070
4.414,-0.340,-0.070
4.416,-0.415,-0.070
4.418,-0.395,-0.070
4.420,-0.365,-0.070
4.422,-0.335,-0.070
4.424,-0.325,-0.070
4.426,-0.300,-0.065
4.428,-0.260,-0.060
4.430,-0.230,-0.055
4.432,-0.270,-0.045
4.434,-0.290,-0.040
4.436,-0.355,-0.030
4.438,-0.295,-0.025
4.440,-0.350,-0.025
4.442,-0.270,-0.025
4.444,-0.295,-0.025
4.446,-0.275,-0.035
4.448,-0.255,-0.040
4.450,-0.230,-0.050
4.452,-0.290,-0.055
4.454,-0.300,-0.060
4.456,-0.360,-0.060
4.458,-0.340,-0.060
4.460,-0.345,-0.055
4.462,-0.335,-0.050
4.464,-0.305,-0.045
4.466,-0.255,-0.045
4.468,-0.260,-0.045
4.470,-0.240,-0.045
4.472,-0.285,-0.050
4.474,-0.305,-0.050
4.476,-0.320,-0.050
4.478,-0.335,-0.055
4.480,-0.315,-0.050
4.482,-0.290,-0.045
4.484,-0.290,-0.040
4.486,-0.265,-0.030
4.488,-0.270,-0.025
4.490,-0.235,-0.020
4.492,-0.275,-0.015
4.494,-0.305,-0.010
4.496,-0.290,-0.010
4.498,-0.290,-0.010
4.500,-0.340,-0.015
4.502,-0.285,-0.020
4.504,-0.270,-0.020
4.506,-0.230,-0.025
4.508,-0.235,-0.030
4.510,-0.230,-0.030
4.512,-0.300,-0.030
4.514,-0.325,-0.025
4.516,-0.325,-0.020
4.518,-0.270,-0.015
4.520,-0.260,-0.010
4.522,-0.270,0.000
4.524,-0.255,0.010
4.526,-0.210,0.020
4.528,-0.205,0.030
4.530,-0.170,0.040
4.532,-0.210,0.045
4.534,-0.235,0.045
4.536,-0.265,0.045
4.538,-0.280,0.045
4.540,-0.270,0.035
4.542,-0.250,0.025
4.544,-0.220,0.010
4.546,-0.250,-0.005
4.548,-0.260,-0.025
4.550,-0.325,-0.040
4.552,-0.295,-0.050
4.554,-0.300,-0.055
4.556,-0.355,-0.060
4.558,-0.310,-0.060
4.560,-0.350,-0.055
4.562,-0.345,-0.050
4.564,-0.260,-0.045
4.566,-0.255,-0.040
4.568,-0.270,-0.040
4.570,-0.310,-0.040
4.572,-0.325,-0.045
4.574,-0.360,-0.050
4.576,-0.355,-0.055
4.578,-0.350,-0.055
4.580,-0.360,-0.055
4.582,-0.305,-0.055
4.584,-0.285,-0.050
4.586,-0.255,-0.045
4.588,-0.270,-0.040
4.590,-0.275,-0.040
4.592,-0.295,-0.035
4.594,-0.320,-0.040
4.596,-0.370,-0.040
4.598,-0.370,-0.040
4.600,-0.335,-0.040
4.602,-0.295,-0.040
4.604,-0.220,-0.035
4.606,-0.230,-0.035
4.608,-0.245,-0.030
4.610,-0.265,-0.025
4.612,-0.310,-0.020
4.614,-0.370,-0.020
4.616,-0.350,-0.025
4.618,-0.330,-0.025
4.620,-0.290,-0.030
4.622,-0.265,-0.030
4.624,-0.215,-0.030
4.626,-0.245,-0.030
4.628,-0.225,-0.030
4.630,-0.300,-0.025
4.632,-0.295,-0.025
4.634,-0.310,-0.020
4.636,-0.340,-0.020
4.638,-0.320,-0.020
4.640,-0.285,-0.020
4.642,-0.295,-0.015
4.644,-0.235,-0.005
4.646,-0.180,0.005
4.648,-0.140,0.020
4.650,-0.210,0.035
4.652,-0.220,0.045
4.654,-0.220,0.055
4.656,-0.245,0.055
4.658,-0.255,0.055
4.660,-0.265,0.050
4.662,-0.270,0.045
4.664,-0.240,0.040
4.666,-0.210,0.040
4.668,-0.185,0.050
4.670,-0.140,0.065
4.672,-0.090,0.085
4.674,-0.090,0.105
4.676,-0.085,0.125
4.678,-0.170,0.130
4.680,-0.170,0.120
4.682,-0.215,0.095
4.684,-0.270,0.055
4.686,-0.275,0.000
4.688,-0.315,-0.055
4.690,-0.345,-0.110
4.692,-0.415,-0.155
4.694,-0.465,-0.190
4.696,-0.470,-0.205
4.698,-0.520,-0.205
4.700,-0.455,-0.190
4.702,-0.420,-0.170
4.704,-0.365,-0.145
4.706,-0.340,-0.115
4.708,-0.300,-0.095
4.710,-0.310,-0.080
4.712,-0.320,-0.070
4.714,-0.315,-0.060
4.716,-0.315,-0.055
4.718,-0.310,-0.050
4.720,-0.330,-0.045
4.722,-0.270,-0.040
4.724,-0.240,-0.035
4.726,-0.320,-0.030
4.728,-0.265,-0.025
4.730,-0.260,-0.020
4.732,-0.295,-0.020
4.734,-0.320,-0.015
4.736,-0.295,-0.015
4.738,-0.300,-0.010
4.740,-0.290,-0.010
4.742,-0.240,-0.010
4.744,-0.220,-0.005
4.746,-0.225,-0.010
4.748,-0.255,-0.010
4.750,-0.280,-0.010
4.752,-0.295,-0.015
4.754,-0.290,-0.015
4.756,-0.305,-0.015
4.758,-0.325,-0.010
4.760,-0.250,-0.005
4.762,-0.210,0.005
4.764,-0.195,0.015
4.766,-0.225,0.025
4.768,-0.190,0.025
4.770,-0.235,0.025
4.772,-0.280,0.020
4.774,-0.305,0.010
4.776,-0.310,0.000
4.778,-0.350,-0.015
4.780,-0.290,-0.025
4.782,-0.255,-0.030
4.784,-0.235,-0.030
4.786,-0.225,-0.020
4.788,-0.195,-0.010
4.790,-0.255,0.005
4.792,-0.255,0.020
4.794,-0.285,0.030
4.796,-0.235,0.035
4.798,-0.250,0.035
4.800,-0.250,0.035
4.802,-0.220,0.030
4.804,-0.205,0.025
4.806,-0.180,0.020
4.808,-0.225,0.020
4.810,-0.185,0.025
4.812,-0.230,0.030
4.814,-0.240,0.040
4.816,-0.225,0.050
4.818,-0.225,0.055
4.820,-0.235,0.060
4.822,-0.195,0.065
4.824,-0.170,0.060
4.826,-0.155,0.055
4.828,-0.200,0.055
4.830,-0.230,0.050
4.832,-0.200,0.050
4.834,-0.230,0.055
4.836,-0.240,0.055
4.838,-0.205,0.060
4.840,-0.180,0.060
4.842,-0.170,0.060
4.844,-0.160,0.060
4.846,-0.160,0.055
4.848,-0.165,0.055
4.850,-0.155,0.050
4.852,-0.215,0.050
4.854,-0.280,0.050
4.856,-0.250,0.055
4.858,-0.220,0.060
4.860,-0.150,0.070
4.862,-0.085,0.080
4.864,-0.095,0.090
4.866,-0.125,0.100
4.868,-0.150,0.110
4.870,-0.135,0.120
4.872,-0.165,0.130
4.874,-0.140,0.140
4.876,-0.135,0.145
4.878,-0.100,0.155
4.880,-0.090,0.160
4.882,-0.025,0.165
4.884,-0.045,0.165
4.886,-0.050,0.170
4.888,-0.065,0.175
4.890,-0.085,0.185
4.892,-0.120,0.195
4.894,-0.050,0.205
4.896,-0.050,0.215
4.898,-0.055,0.225
4.900,-0.010,0.235
4.902,0.030,0.245
4.904,0.055,0.250
4.906,0.015,0.250
4.908,0.040,0.250
4.910,0.020,0.250
4.912,-0.040,0.245
4.914,-0.035,0.240
4.916,-0.040,0.235
4.918,-0.010,0.235
4.920,-0.050,0.230
4.922,0.015,0.230
4.924,0.000,0.225
4.926,-0.015,0.220
4.928,-0.005,0.210
4.930,-0.015,0.200
4.932,-0.070,0.185
4.934,-0.110,0.175
4.936,-0.145,0.165
4.938,-0.125,0.150
4.940,-0.150,0.145
4.942,-0.085,0.135
4.944,-0.075,0.130
4.946,-0.045,0.130
4.948,-0.065,0.125
4.950,-0.140,0.125
4.952,-0.150,0.115
4.954,-0.150,0.110
4.956,-0.200,0.095
4.958,-0.210,0.085
4.960,-0.185,0.070
4.962,-0.160,0.050
4.964,-0.185,0.035
4.966,-0.155,0.025
4.968,-0.230,0.015
4.970,-0.275,0.005
4.972,-0.270,0.005
4.974,-0.220,0.000
4.976,-0.275,0.000
4.978,-0.290,-0.005
4.980,-0.245,-0.010
4.982,-0.200,-0.015
4.984,-0.230,-0.020
4.986,-0.220,-0.025
4.988,-0.260,-0.030
4.990,-0.305,-0.030
4.992,-0.345,-0.030
4.994,-0.305,-0.030
4.996,-0.310,-0.025
4.998,-0.265,-0.025
5.000,-0.230,-0.020
5.002,-0.220,-0.020
5.004,-0.260,-0.025
5.006,-0.270,-0.025
5.008,-0.280,-0.030
5.010,-0.260,-0.035
5.012,-0.290,-0.040
5.014,-0.325,-0.040
5.016,-0.300,-0.040
5.018,-0.300,-0.040
5.020,-0.250,-0.035
5.022,-0.190,-0.035
5.024,-0.240,-0.030
5.026,-0.265,-0.030
5.028,-0.305,-0.030
5.030,-0.335,-0.035
5.032,-0.355,-0.045
5.034,-0.280,-0.050
5.036,-0.315,-0.060
5.038,-0.355,-0.070
5.040,-0.275,-0.080
5.042,-0.230,-0.090
5.044,-0.270,-0.090
5.046,-0.290,-0.095
5.048,-0.350,-0.090
5.050,-0.360,-0.085
5.052,-0.380,-0.080
5.054,-0.305,-0.075
5.056,-0.295,-0.070
5.058,-0.315,-0.065
5.060,-0.270,-0.065
5.062,-0.265,-0.065
5.064,-0.305,-0.070
5.066,-0.280,-0.075
5.068,-0.295,-0.075
5.070,-0.320,-0.080
5.072,-0.370,-0.080
5.074,-0.330,-0.075
5.076,-0.315,-0.075
5.078,-0.265,-0.070
5.080,-0.230,-0.065
5.082,-0.245,-0.060
5.084,-0.280,-0.060
5.086,-0.300,-0.065
5.088,-0.300,-0.065
5.090,-0.315,-0.070
5.092,-0.325,-0.075
5.094,-0.315,-0.075
5.096,-0.320,-0.075
5.098,-0.290,-0.070
5.100,-0.265,-0.065
5.102,-0.235,-0.060
5.104,-0.220,-0.050
5.106,-0.245,-0.045
5.108,-0.270,-0.045
5.110,-0.315,-0.045
5.112,-0.305,-0.050
5.114,-0.295,-0.055
5.116,-0.330,-0.060
5.118,-0.295,-0.060
5.120,-0.245,-0.060
5.122,-0.180,-0.055
5.124,-0.235,-0.050
5.126,-0.235,-0.040
5.128,-0.245,-0.035
5.130,-0.250,-0.030
5.132,-0.305,-0.025
5.134,-0.305,-0.025
5.136,-0.290,-0.030
5.138,-0.295,-0.035
5.140,-0.245,-0.040
5.142,-0.200,-0.040
5.144,-0.240,-0.040
5.146,-0.185,-0.040
5.148,-0.170,-0.035
5.150,-0.285,-0.025
5.152,-0.310,-0.020
5.154,-0.290,-0.015
5.156,-0.265,-0.015
5.158,-0.210,-0.010
5.160,-0.200,-0.015
5.162,-0.170,-0.020
5.164,-0.180,-0.020
5.166,-0.250,-0.025
5.168,-0.280,-0.030
5.170,-0.300,-0.035
5.172,-0.310,-0.040
5.174,-0.295,-0.045
5.176,-0.260,-0.045
5.178,-0.245,-0.050
5.180,-0.215,-0.050
5.182,-0.205,-0.050
5.184,-0.205,-0.045
5.186,-0.230,-0.040
5.188,-0.250,-0.035
5.190,-0.260,-0.030
5.192,-0.275,-0.025
5.194,-0.280,-0.025
5.196,-0.280,-0.020
5.198,-0.255,-0.020
5.200,-0.205,-0.025
5.202,-0.175,-0.025
5.204,-0.190,-0.030
5.206,-0.250,-0.035
5.208,-0.250,-0.035
5.210,-0.290,-0.035
5.212,-0.285,-0.030
5.214,-0.270,-0.030
5.216,-0.270,-0.025
5.218,-0.265,-0.025
5.220,-0.210,-0.030
5.222,-0.195,-0.035
5.224,-0.225,-0.040
5.226,-0.295,-0.050
5.228,-0.295,-0.060
5.230,-0.295,-0.070
5.232,-0.300,-0.075
5.234,-0.340,-0.080
5.236,-0.325,-0.080
5.238,-0.275,-0.075
5.240,-0.225,-0.075
5.242,-0.205,-0.065
5.244,-0.225,-0.060
5.246,-0.285,-0.055
5.248,-0.275,-0.055
5.250,-0.345,-0.055
5.252,-0.315,-0.055
5.254,-0.295,-0.060
5.256,-0.325,-0.065
5.258,-0.315,-0.065
5.260,-0.215,-0.070
5.262,-0.240,-0.070
5.264,-0.240,-0.070
5.266,-0.205,-0.065
5.268,-0.255,-0.060
5.270,-0.335,-0.060
5.272,-0.340,-0.055
5.274,-0.360,-0.055
5.276,-0.275,-0.055
5.278,-0.230,-0.060
5.280,-0.215,-0.060
5.282,-0.245,-0.065
5.284,-0.235,-0.065
5.286,-0.235,-0.065
5.288,-0.250,-0.060
5.290,-0.280,-0.055
5.292,-0.265,-0.045
5.294,-0.265,-0.035
5.296,-0.240,-0.030
5.298,-0.230,-0.025
5.300,-0.225,-0.020
5.302,-0.205,-0.025
5.304,-0.240,-0.030
5.306,-0.225,-0.035
5.308,-0.220,-0.040
5.310,-0.255,-0.045
5.312,-0.305,-0.045
5.314,-0.330,-0.045
5.316,-0.270,-0.040
5.318,-0.215,-0.040
5.320,-0.180,-0.035
5.322,-0.205,-0.035
5.324,-0.240,-0.035
5.326,-0.230,-0.035
5.328,-0.225,-0.035
5.330,-0.275,-0.035
5.332,-0.260,-0.035
5.334,-0.275,-0.035
5.336,-0.250,-0.035
5.338,-0.290,-0.035
5.340,-0.175,-0.030
5.342,-0.220,-0.030
5.344,-0.200,-0.030
5.346,-0.220,-0.035
5.348,-0.255,-0.035
5.350,-0.305,-0.035
5.352,-0.275,-0.035
5.354,-0.285,-0.035
5.356,-0.260,-0.030
5.358,-0.195,-0.025
5.360,-0.175,-0.020
5.362,-0.160,-0.020
5.364,-0.175,-0.020
5.366,-0.235,-0.020
5.368,-0.250,-0.020
5.370,-0.270,-0.025
5.372,-0.295,-0.030
5.374,-0.275,-0.035
5.376,-0.225,-0.035
5.378,-0.165,-0.035
5.380,-0.185,-0.035
5.382,-0.200,-0.030
5.384,-0.205,-0.025
5.386,-0.225,-0.015
5.388,-0.225,-0.010
5.390,-0.250,-0.010
5.392,-0.260,-0.005
5.394,-0.270,-0.005
5.396,-0.275,-0.010
5.398,-0.195,-0.015
5.400,-0.150,-0.020
5.402,-0.150,-0.030
5.404,-0.215,-0.035
5.406,-0.260,-0.045
5.408,-0.290,-0.050
5.410,-0.300,-0.050
5.412,-0.275,-0.055
5.414,-0.260,-0.055
5.416,-0.280,-0.050
5.418,-0.245,-0.050
5.420,-0.210,-0.045
5.422,-0.165,-0.045
5.424,-0.185,-0.040
5.426,-0.235,-0.035
5.428,-0.265,-0.035
5.430,-0.305,-0.030
5.432,-0.290,-0.020
5.434,-0.275,-0.015
5.436,-0.190,-0.005
5.438,-0.140,0.005
5.440,-0.110,0.010
5.442,-0.135,0.015
5.444,-0.180,0.020
5.446,-0.210,0.020
5.448,-0.245,0.015
5.450,-0.225,0.005
5.452,-0.205,0.000
5.454,-0.225,-0.010
5.456,-0.270,-0.015
5.458,-0.165,-0.020
5.460,-0.190,-0.015
5.462,-0.150,-0.010
5.464,-0.140,0.000
5.466,-0.165,0.015
5.468,-0.215,0.025
5.470,-0.210,0.035
5.472,-0.190,0.040
5.474,-0.140,0.040
5.476,-0.145,0.035
5.478,-0.160,0.030
5.480,-0.155,0.015
5.482,-0.145,0.000
5.484,-0.155,-0.010
5.486,-0.225,-0.025
5.488,-0.310,-0.040
5.490,-0.270,-0.050
5.492,-0.310,-0.055
5.494,-0.285,-0.060
5.496,-0.280,-0.065
5.498,-0.235,-0.065
5.500,-0.220,-0.065
5.502,-0.230,-0.060
5.504,-0.220,-0.055
5.506,-0.235,-0.050
5.508,-0.270,-0.045
5.510,-0.300,-0.045
5.512,-0.310,-0.045
5.514,-0.290,-0.050
5.516,-0.265,-0.060
5.518,-0.255,-0.065
5.520,-0.215,-0.075
5.522,-0.235,-0.080
5.524,-0.240,-0.080
5.526,-0.275,-0.075
5.528,-0.300,-0.070
5.530,-0.295,-0.060
5.532,-0.240,-0.050
5.534,-0.240,-0.045
5.536,-0.265,-0.040
5.538,-0.220,-0.040
5.540,-0.225,-0.045
5.542,-0.210,-0.055
5.544,-0.275,-0.070
5.546,-0.300,-0.080
5.548,-0.320,-0.085
5.550,-0.320,-0.090
5.552,-0.310,-0.085
5.554,-0.270,-0.075
5.556,-0.195,-0.065
5.558,-0.150,-0.050
5.560,-0.205,-0.035
5.562,-0.195,-0.025
5.564,-0.235,-0.020
5.566,-0.275,-0.020
5.568,-0.305,-0.025
5.570,-0.265,-0.030
5.572,-0.260,-0.040
5.574,-0.275,-0.050
5.576,-0.250,-0.060
5.578,-0.240,-0.060
5.580,-0.215,-0.060
5.582,-0.170,-0.055
5.584,-0.235,-0.040
5.586,-0.245,-0.025
5.588,-0.220,-0.005
5.590,-0.200,0.020
5.592,-0.135,0.040
5.594,-0.185,0.055
5.596,-0.120,0.065
5.598,-0.060,0.065
5.600,-0.070,0.060
5.602,-0.130,0.050
5.604,-0.140,0.040
5.606,-0.220,0.030
5.608,-0.250,0.030
5.610,-0.230,0.035
5.612,-0.195,0.050
5.614,-0.110,0.070
5.616,-0.010,0.100
5.618,0.085,0.130
5.620,0.075,0.160
5.622,0.015,0.175
5.624,-0.035,0.180
5.626,-0.055,0.170
5.628,-0.150,0.140
5.630,-0.200,0.100
5.632,-0.210,0.050
5.634,-0.185,-0.005
5.636,-0.215,-0.055
5.638,-0.240,-0.100
5.640,-0.335,-0.135
5.642,-0.335,-0.155
5.644,-0.350,-0.155
5.646,-0.345,-0.145
5.648,-0.355,-0.125
5.650,-0.310,-0.095
5.652,-0.230,-0.065
5.654,-0.220,-0.040
5.656,-0.185,-0.015
5.658,-0.140,0.000
5.660,-0.165,0.010
5.662,-0.210,0.015
5.664,-0.205,0.010
5.666,-0.215,0.005
5.668,-0.205,0.000
5.670,-0.225,-0.005
5.672,-0.215,-0.005
5.674,-0.185,-0.010
5.676,-0.185,-0.010
5.678,-0.195,-0.010
5.680,-0.235,-0.010
5.682,-0.215,-0.010
5.684,-0.190,-0.010
5.686,-0.200,-0.015
5.688,-0.245,-0.020
5.690,-0.250,-0.020
5.692,-0.225,-0.025
5.694,-0.220,-0.025
5.696,-0.210,-0.025
5.698,-0.185,-0.020
5.700,-0.190,-0.020
5.702,-0.180,-0.015
5.704,-0.200,-0.010
5.706,-0.270,-0.005
5.708,-0.205,0.000
5.710,-0.190,0.005
5.712,-0.205,0.010
5.714,-0.205,0.015
5.716,-0.160,0.020
5.718,-0.130,0.020
5.720,-0.135,0.025
5.722,-0.160,0.025
5.724,-0.195,0.025
5.726,-0.225,0.025
5.728,-0.220,0.020
5.730,-0.205,0.015
5.732,-0.200,0.015
5.734,-0.220,0.010
5.736,-0.210,0.010
5.738,-0.135,0.010
5.740,-0.100,0.010
5.742,-0.135,0.010
5.744,-0.190,0.015
5.746,-0.250,0.015
5.748,-0.240,0.015
5.750,-0.205,0.015
5.752,-0.170,0.020
5.754,-0.160,0.025
5.756,-0.105,0.030
5.758,-0.125,0.035
5.760,-0.100,0.040
5.762,-0.140,0.045
5.764,-0.170,0.050
5.766,-0.165,0.055
5.768,-0.180,0.050
5.770,-0.175,0.045
5.772,-0.205,0.040
5.774,-0.170,0.035
5.776,-0.130,0.030
5.778,-0.085,0.025
5.780,-0.075,0.025
5.782,-0.135,0.025
5.784,-0.155,0.030
5.786,-0.215,0.035
5.788,-0.215,0.040
5.790,-0.180,0.040
5.792,-0.190,0.040
5.794,-0.180,0.040
5.796,-0.125,0.040
5.798,-0.090,0.040
5.800,-0.130,0.040
5.802,-0.145,0.045
5.804,-0.125,0.055
5.806,-0.090,0.065
5.808,-0.130,0.080
5.810,-0.180,0.090
5.812,-0.120,0.100
5.814,-0.085,0.110
5.816,-0.065,0.115
5.818,-0.040,0.120
5.820,-0.060,0.125
5.822,-0.060,0.130
5.824,-0.025,0.135
5.826,-0.085,0.140
5.828,-0.030,0.145
5.830,-0.065,0.155
5.832,-0.035,0.165
5.834,-0.015,0.180
5.836,0.020,0.190
5.838,0.060,0.200
5.840,0.065,0.210
5.842,0.025,0.220
5.844,0.040,0.230
5.846,-0.020,0.235
5.848,0.055,0.245
5.850,0.010,0.245
5.852,0.040,0.245
5.854,0.055,0.245
5.856,0.080,0.240
5.858,0.040,0.235
5.860,0.030,0.230
5.862,0.050,0.225
5.864,0.050,0.220
5.866,0.010,0.215
5.868,0.010,0.210
5.870,-0.025,0.205
5.872,0.000,0.200
5.874,0.045,0.195
5.876,0.040,0.190
5.878,-0.030,0.180
5.880,-0.015,0.170
5.882,-0.005,0.160
5.884,-0.055,0.150
5.886,-0.065,0.145
5.888,-0.085,0.135
5.890,-0.150,0.130
5.892,-0.105,0.125
5.894,-0.035,0.120
5.896,0.020,0.110
5.898,-0.015,0.105
5.900,-0.085,0.095
5.902,-0.125,0.090
5.904,-0.145,0.080
5.906,-0.160,0.065
5.908,-0.150,0.055
5.910,-0.170,0.045
5.912,-0.170,0.035
5.914,-0.140,0.025
5.916,-0.125,0.020
5.918,-0.150,0.015
5.920,-0.165,0.010
5.922,-0.210,0.005
5.924,-0.225,0.000
5.926,-0.230,-0.005
5.928,-0.230,-0.010
5.930,-0.230,-0.020
5.932,-0.210,-0.025
5.934,-0.245,-0.030
5.936,-0.170,-0.030
5.938,-0.190,-0.030
5.940,-0.190,-0.030
5.942,-0.175,-0.025
5.944,-0.215,-0.025
5.946,-0.260,-0.025
5.948,-0.245,-0.025
5.950,-0.280,-0.030
5.952,-0.270,-0.035
5.954,-0.245,-0.040
5.956,-0.200,-0.045
5.958,-0.220,-0.050
5.960,-0.190,-0.055
5.962,-0.195,-0.055
5.964,-0.265,-0.055
5.966,-0.265,-0.055
5.968,-0.270,-0.055
5.970,-0.300,-0.055
5.972,-0.265,-0.060
5.974,-0.245,-0.065
5.976,-0.210,-0.070
5.978,-0.180,-0.070
5.980,-0.225,-0.075
5.982,-0.260,-0.070
5.984,-0.315,-0.070
5.986,-0.330,-0.065
5.988,-0.260,-0.060
5.990,-0.250,-0.055
5.992,-0.270,-0.055
5.994,-0.225,-0.060
5.996,-0.185,-0.065
5.998,-0.205,-0.070
6.000,-0.205,-0.075
6.002,-0.270,-0.075
6.004,-0.280,-0.070
6.006,-0.320,-0.065
6.008,-0.280,-0.055
6.010,-0.295,-0.045
6.012,-0.235,-0.040
6.014,-0.195,-0.035
6.016,-0.165,-0.035
6.018,-0.210,-0.035
6.020,-0.170,-0.040
6.022,-0.215,-0.045
6.024,-0.315,-0.045
6.026,-0.280,-0.045
6.028,-0.265,-0.040
6.030,-0.215,-0.035
6.032,-0.190,-0.030
6.034,-0.135,-0.025
6.036,-0.165,-0.020
6.038,-0.195,-0.015
6.040,-0.250,-0.020
6.042,-0.240,-0.025
6.044,-0.220,-0.025
6.046,-0.260,-0.030
6.048,-0.250,-0.035
6.050,-0.255,-0.035
6.052,-0.220,-0.035
6.054,-0.150,-0.030
6.056,-0.150,-0.030
6.058,-0.160,-0.030
6.060,-0.230,-0.030
6.062,-0.255,-0.030
6.064,-0.205,-0.035
6.066,-0.270,-0.040
6.068,-0.265,-0.045
6.070,-0.225,-0.050
6.072,-0.205,-0.055
6.074,-0.190,-0.065
6.076,-0.270,-0.070
6.078,-0.220,-0.070
6.080,-0.235,-0.070
6.082,-0.240,-0.070
6.084,-0.270,-0.070
6.086,-0.275,-0.065
6.088,-0.305,-0.060
6.090,-0.245,-0.055
6.092,-0.245,-0.050
6.094,-0.200,-0.050
6.096,-0.190,-0.045
6.098,-0.220,-0.045
6.100,-0.220,-0.045
6.102,-0.215,-0.040
6.104,-0.245,-0.040
6.106,-0.245,-0.040
6.108,-0.260,-0.035
6.110,-0.185,-0.030
6.112,-0.205,-0.025
6.114,-0.210,-0.020
6.116,-0.205,-0.015
6.118,-0.165,-0.015
6.120,-0.175,-0.015
6.122,-0.200,-0.015
6.124,-0.250,-0.015
6.126,-0.215,-0.010
6.128,-0.220,-0.010
6.130,-0.230,-0.005
6.132,-0.180,0.000
6.134,-0.120,0.005
6.136,-0.145,0.010
6.138,-0.175,0.010
6.140,-0.195,0.015
6.142,-0.165,0.015
6.144,-0.185,0.015
6.146,-0.225,0.015
6.148,-0.205,0.020
6.150,-0.145,0.020
6.152,-0.100,0.025
6.154,-0.090,0.030
6.156,-0.125,0.040
6.158,-0.145,0.045
6.160,-0.140,0.050
6.162,-0.100,0.055
6.164,-0.125,0.055
6.166,-0.180,0.045
6.168,-0.210,0.040
6.170,-0.195,0.025
6.172,-0.150,0.015
6.174,-0.120,0.000
6.176,-0.160,-0.010
6.178,-0.165,-0.020
6.180,-0.220,-0.025
6.182,-0.235,-0.025
6.184,-0.215,-0.025
6.186,-0.200,-0.020
6.188,-0.220,-0.015
6.190,-0.185,-0.010
6.192,-0.200,-0.005
6.194,-0.140,0.000
6.196,-0.160,0.000
6.198,-0.160,0.000
6.200,-0.190,-0.005
6.202,-0.185,-0.010
6.204,-0.235,-0.020
6.206,-0.250,-0.025
6.208,-0.260,-0.035
6.210,-0.250,-0.040
6.212,-0.215,-0.045
6.214,-0.165,-0.045
6.216,-0.175,-0.040
6.218,-0.155,-0.035
6.220,-0.175,-0.025
6.222,-0.195,-0.015
6.224,-0.200,0.000
6.226,-0.180,0.010
6.228,-0.195,0.015
6.230,-0.200,0.020
6.232,-0.155,0.025
6.234,-0.120,0.025
6.236,-0.140,0.025
6.238,-0.155,0.020
6.240,-0.130,0.020
6.242,-0.145,0.025
6.244,-0.185,0.030
6.246,-0.195,0.035
6.248,-0.205,0.035
6.250,-0.125,0.040
6.252,-0.095,0.040
6.254,-0.105,0.040
6.256,-0.135,0.035
6.258,-0.170,0.025
6.260,-0.175,0.020
6.262,-0.155,0.015
6.264,-0.130,0.015
6.266,-0.125,0.015
6.268,-0.200,0.015
6.270,-0.195,0.020
6.272,-0.125,0.025
6.274,-0.130,0.030
6.276,-0.125,0.030
6.278,-0.115,0.030
6.280,-0.155,0.025
6.282,-0.165,0.020
6.284,-0.165,0.020
6.286,-0.170,0.015
6.288,-0.185,0.020
6.290,-0.185,0.020
6.292,-0.185,0.025
6.294,-0.115,0.030
6.296,-0.115,0.030
6.298,-0.140,0.030
6.300,-0.175,0.030
6.302,-0.190,0.025
6.304,-0.205,0.025
6.306,-0.185,0.020
6.308,-0.175,0.015
6.310,-0.175,0.015
6.312,-0.135,0.015
6.314,-0.125,0.015
6.316,-0.145,0.015
6.318,-0.150,0.015
6.320,-0.145,0.015
6.322,-0.190,0.010
6.324,-0.230,0.005
6.326,-0.205,0.000
6.328,-0.180,-0.005
6.330,-0.140,-0.005
6.332,-0.120,-0.005
6.334,-0.105,-0.005
6.336,-0.150,-0.005
6.338,-0.175,0.000
6.340,-0.200,0.000
6.342,-0.225,0.000
6.344,-0.220,0.000
6.346,-0.210,0.005
6.348,-0.170,0.005
6.350,-0.150,0.015
6.352,-0.125,0.020
6.354,-0.080,0.030
6.356,-0.095,0.045
6.358,-0.140,0.055
6.360,-0.090,0.065
6.362,-0.145,0.070
6.364,-0.190,0.070
6.366,-0.185,0.065
6.368,-0.180,0.060
6.370,-0.155,0.050
6.372,-0.080,0.045
6.374,-0.065,0.040
6.376,-0.100,0.040
6.378,-0.105,0.045
6.380,-0.075,0.055
6.382,-0.165,0.065
6.384,-0.145,0.070
6.386,-0.155,0.080
6.388,-0.145,0.085
6.390,-0.110,0.085
6.392,-0.035,0.085
6.394,-0.050,0.080
6.396,-0.025,0.080
6.398,-0.045,0.080
6.400,-0.085,0.085
6.402,-0.105,0.085
6.404,-0.115,0.090
6.406,-0.135,0.090
6.408,-0.110,0.085
6.410,-0.085,0.085
6.412,-0.050,0.075
6.414,-0.120,0.070
6.416,-0.110,0.060
6.418,-0.130,0.050
6.420,-0.105,0.045
6.422,-0.165,0.040
6.424,-0.150,0.040
6.426,-0.170,0.035
6.428,-0.140,0.030
6.430,-0.165,0.025
6.432,-0.145,0.020
6.434,-0.110,0.015
6.436,-0.110,0.010
6.438,-0.130,0.010
6.440,-0.140,0.010
6.442,-0.205,0.010
6.444,-0.235,0.015
6.446,-0.205,0.015
6.448,-0.150,0.015
6.450,-0.160,0.015
6.452,-0.125,0.005
6.454,-0.135,0.000
6.456,-0.115,-0.015
6.458,-0.200,-0.025
6.460,-0.210,-0.030
6.462,-0.235,-0.035
6.464,-0.210,-0.030
6.466,-0.255,-0.025
6.468,-0.180,-0.010
6.470,-0.150,0.000
6.472,-0.110,0.010
6.474,-0.110,0.020
6.476,-0.075,0.020
6.478,-0.145,0.020
6.480,-0.215,0.010
6.482,-0.290,-0.005
6.484,-0.225,-0.025
6.486,-0.240,-0.040
6.488,-0.260,-0.050
6.490,-0.215,-0.055
6.492,-0.150,-0.055
6.494,-0.165,-0.050
6.496,-0.185,-0.040
6.498,-0.200,-0.025
6.500,-0.150,-0.015
6.502,-0.245,-0.010
6.504,-0.225,-0.005
6.506,-0.230,-0.010
6.508,-0.230,-0.020
6.510,-0.215,-0.030
6.512,-0.185,-0.035
6.514,-0.190,-0.035
6.516,-0.170,-0.030
6.518,-0.150,-0.020
6.520,-0.145,-0.005
6.522,-0.210,0.015
6.524,-0.150,0.030
6.526,-0.135,0.040
6.528,-0.140,0.045
6.530,-0.080,0.045
6.532,-0.055,0.045
6.534,-0.135,0.040
6.536,-0.170,0.040
6.538,-0.180,0.045
6.540,-0.150,0.055
6.542,-0.165,0.075
6.544,-0.040,0.105
6.546,0.040,0.130
6.548,0.030,0.150
6.550,0.045,0.165
6.552,-0.020,0.165
6.554,-0.020,0.150
6.556,-0.060,0.125
6.558,-0.090,0.090
6.560,-0.180,0.045
6.562,-0.220,-0.005
6.564,-0.200,-0.050
6.566,-0.260,-0.090
6.568,-0.300,-0.120
6.570,-0.340,-0.145
6.572,-0.325,-0.155
6.574,-0.325,-0.155
6.576,-0.345,-0.150
6.578,-0.310,-0.140
6.580,-0.280,-0.120
6.582,-0.250,-0.105
6.584,-0.225,-0.085
6.586,-0.230,-0.070
6.588,-0.220,-0.060
6.590,-0.200,-0.050
6.592,-0.165,-0.045
6.594,-0.205,-0.045
6.596,-0.215,-0.050
6.598,-0.245,-0.055
6.600,-0.270,-0.060
6.602,-0.270,-0.065
6.604,-0.245,-0.070
6.606,-0.235,-0.065
6.608,-0.205,-0.060
6.610,-0.145,-0.050
6.612,-0.165,-0.035
6.614,-0.160,-0.025
6.616,-0.165,-0.015
6.618,-0.200,-0.010
6.620,-0.235,-0.010
6.622,-0.265,-0.020
6.624,-0.255,-0.030
6.626,-0.200,-0.040
6.628,-0.245,-0.055
6.630,-0.185,-0.060
6.632,-0.120,-0.065
6.634,-0.110,-0.060
6.636,-0.220,-0.055
6.638,-0.215,-0.045
6.640,-0.250,-0.035
6.642,-0.220,-0.025
6.644,-0.245,-0.025
6.646,-0.240,-0.025
6.648,-0.200,-0.030
6.650,-0.155,-0.035
6.652,-0.180,-0.040
6.654,-0.185,-0.045
6.656,-0.185,-0.050
6.658,-0.220,-0.045
6.660,-0.220,-0.040
6.662,-0.240,-0.030
6.664,-0.280,-0.025
6.666,-0.200,-0.020
6.668,-0.175,-0.015
6.670,-0.165,-0.010
6.672,-0.125,-0.010
6.674,-0.125,-0.010
6.676,-0.120,-0.010
6.678,-0.175,-0.005
6.680,-0.240,-0.005
6.682,-0.210,0.000
6.684,-0.215,0.000
6.686,-0.200,0.000
6.688,-0.170,0.000
6.690,-0.095,-0.005
6.692,-0.125,-0.010
6.694,-0.130,-0.015
6.696,-0.205,-0.015
6.698,-0.175,-0.015
6.700,-0.195,-0.010
6.702,-0.180,0.000
6.704,-0.200,0.005
6.706,-0.160,0.015
6.708,-0.145,0.020
6.710,-0.080,0.020
6.712,-0.105,0.020
6.714,-0.150,0.020
6.716,-0.150,0.015
6.718,-0.140,0.015
6.720,-0.150,0.020
6.722,-0.125,0.025
6.724,-0.185,0.035
6.726,-0.135,0.050
6.728,-0.145,0.060
6.730,-0.050,0.070
6.732,-0.005,0.075
6.734,-0.025,0.080
6.736,-0.060,0.075
6.738,-0.085,0.075
6.740,-0.170,0.070
6.742,-0.165,0.070
6.744,-0.150,0.075
6.746,-0.060,0.085
6.748,-0.010,0.095
6.750,0.010,0.110
6.752,-0.030,0.120
6.754,-0.010,0.130
6.756,0.015,0.135
6.758,0.005,0.135
6.760,-0.080,0.135
6.762,-0.070,0.135
6.764,-0.065,0.135
6.766,-0.040,0.135
6.768,-0.020,0.145
6.770,0.045,0.150
6.772,0.030,0.160
6.774,0.020,0.170
6.776,0.035,0.175
6.778,0.000,0.175
6.780,-0.040,0.175
6.782,-0.030,0.165
6.784,-0.030,0.160
6.786,-0.030,0.150
6.788,0.000,0.145
6.790,0.030,0.140
6.792,0.020,0.140
6.794,0.010,0.145
6.796,0.040,0.150
6.798,0.000,0.155
6.800,-0.055,0.155
6.802,-0.065,0.150
6.804,-0.075,0.140
6.806,-0.075,0.130
6.808,-0.040,0.120
6.810,-0.005,0.105
6.812,-0.025,0.095
6.814,-0.065,0.085
6.816,-0.085,0.080
6.818,-0.135,0.075
6.820,-0.160,0.070
6.822,-0.140,0.070
6.824,-0.130,0.065
6.826,-0.095,0.060
6.828,-0.080,0.050
6.830,-0.110,0.040
6.832,-0.120,0.030
6.834,-0.155,0.015
6.836,-0.180,0.000
6.838,-0.180,-0.010
6.840,-0.220,-0.020
6.842,-0.225,-0.030
6.844,-0.240,-0.040
6.846,-0.225,-0.045
6.848,-0.175,-0.055
6.850,-0.200,-0.060
6.852,-0.230,-0.065
6.854,-0.195,-0.075
6.856,-0.235,-0.080
6.858,-0.280,-0.090
6.860,-0.295,-0.095
6.862,-0.275,-0.105
6.864,-0.235,-0.105
6.866,-0.260,-0.110
6.868,-0.235,-0.110
6.870,-0.225,-0.110
6.872,-0.230,-0.105
6.874,-0.210,-0.100
6.876,-0.235,-0.100
6.878,-0.275,-0.095
6.880,-0.320,-0.095
6.882,-0.290,-0.095
6.884,-0.265,-0.095
6.886,-0.230,-0.095
6.888,-0.190,-0.095
6.890,-0.205,-0.095
6.892,-0.195,-0.095
6.894,-0.230,-0.095
6.896,-0.250,-0.095
6.898,-0.320,-0.100
6.900,-0.300,-0.100
6.902,-0.275,-0.105
6.904,-0.310,-0.105
6.906,-0.300,-0.110
6.908,-0.220,-0.115
6.910,-0.200,-0.115
6.912,-0.215,-0.110
6.914,-0.315,-0.105
6.916,-0.285,-0.100
6.918,-0.310,-0.095
6.920,-0.260,-0.090
6.922,-0.260,-0.090
6.924,-0.270,-0.090
6.926,-0.270,-0.095
6.928,-0.255,-0.100
6.930,-0.250,-0.105
6.932,-0.270,-0.110
6.934,-0.260,-0.115
6.936,-0.285,-0.120
6.938,-0.310,-0.120
6.940,-0.310,-0.115
6.942,-0.315,-0.110
6.944,-0.310,-0.105
6.946,-0.300,-0.100
6.948,-0.235,-0.095
6.950,-0.215,-0.095
6.952,-0.220,-0.095
6.954,-0.240,-0.100
6.956,-0.215,-0.100
6.958,-0.305,-0.100
6.960,-0.310,-0.100
6.962,-0.305,-0.100
6.964,-0.265,-0.095
6.966,-0.250,-0.090
6.968,-0.190,-0.085
6.970,-0.190,-0.085
6.972,-0.205,-0.080
6.974,-0.300,-0.080
6.976,-0.250,-0.080
6.978,-0.250,-0.085
6.980,-0.260,-0.085
6.982,-0.280,-0.085
6.984,-0.245,-0.080
6.986,-0.200,-0.075
6.988,-0.160,-0.070
6.990,-0.170,-0.060
6.992,-0.170,-0.055
6.994,-0.205,-0.050
6.996,-0.200,-0.045
6.998,-0.290,-0.050
7.000,-0.290,-0.050
7.002,-0.230,-0.055
7.004,-0.220,-0.060
7.006,-0.215,-0.065
7.008,-0.180,-0.065
7.010,-0.160,-0.065
7.012,-0.145,-0.060
7.014,-0.155,-0.050
7.016,-0.205,-0.045
7.018,-0.240,-0.035
7.020,-0.220,-0.030
7.022,-0.225,-0.025
7.024,-0.215,-0.025
7.026,-0.180,-0.025
7.028,-0.170,-0.030
7.030,-0.165,-0.030
7.032,-0.170,-0.035
7.034,-0.185,-0.040
7.036,-0.205,-0.045
7.038,-0.240,-0.045
7.040,-0.255,-0.050
7.042,-0.235,-0.050
7.044,-0.240,-0.055
7.046,-0.185,-0.055
7.048,-0.160,-0.055
7.050,-0.205,-0.055
7.052,-0.225,-0.050
7.054,-0.190,-0.045
7.056,-0.175,-0.040
7.058,-0.215,-0.035
7.060,-0.225,-0.035
7.062,-0.225,-0.035
7.064,-0.215,-0.035
7.066,-0.185,-0.045
7.068,-0.160,-0.050
7.070,-0.185,-0.060
7.072,-0.220,-0.070
7.074,-0.215,-0.075
7.076,-0.270,-0.080
7.078,-0.305,-0.085
7.080,-0.290,-0.090
7.082,-0.275,-0.090
7.084,-0.260,-0.095
7.086,-0.220,-0.095
7.088,-0.215,-0.100
7.090,-0.245,-0.105
7.092,-0.245,-0.105
7.094,-0.195,-0.105
7.096,-0.305,-0.100
7.098,-0.300,-0.095
7.100,-0.230,-0.085
7.102,-0.240,-0.075
7.104,-0.245,-0.065
7.106,-0.210,-0.060
7.108,-0.170,-0.060
7.110,-0.140,-0.060
7.112,-0.170,-0.070
7.114,-0.265,-0.075
7.116,-0.270,-0.085
7.118,-0.300,-0.090
7.120,-0.270,-0.090
7.122,-0.285,-0.090
7.124,-0.240,-0.085
7.126,-0.185,-0.080
7.128,-0.175,-0.075
7.130,-0.205,-0.070
7.132,-0.195,-0.065
7.134,-0.235,-0.065
7.136,-0.270,-0.070
7.138,-0.295,-0.075
7.140,-0.280,-0.075
7.142,-0.240,-0.075
7.144,-0.210,-0.070
7.146,-0.170,-0.065
7.148,-0.145,-0.060
7.150,-0.150,-0.055
7.152,-0.155,-0.045
7.154,-0.215,-0.040
7.156,-0.230,-0.040
7.158,-0.240,-0.040
7.160,-0.250,-0.040
7.162,-0.230,-0.040
7.164,-0.215,-0.040
7.166,-0.200,-0.045
7.168,-0.190,-0.045
7.170,-0.140,-0.040
7.172,-0.155,-0.040
7.174,-0.200,-0.035
7.176,-0.210,-0.035
7.178,-0.215,-0.035
7.180,-0.210,-0.035
7.182,-0.210,-0.035
7.184,-0.210,-0.035
7.186,-0.185,-0.035
7.188,-0.170,-0.035
7.190,-0.200,-0.030
7.192,-0.150,-0.030
7.194,-0.170,-0.030
7.196,-0.210,-0.030
7.198,-0.200,-0.030
7.200,-0.200,-0.030
7.202,-0.190,-0.030
7.204,-0.225,-0.035
7.206,-0.150,-0.040
7.208,-0.170,-0.040
7.210,-0.205,-0.045
7.212,-0.210,-0.045
7.214,-0.165,-0.045
7.216,-0.195,-0.045
7.218,-0.240,-0.040
7.220,-0.230,-0.040
7.222,-0.180,-0.035
7.224,-0.155,-0.035
7.226,-0.100,-0.030
7.228,-0.145,-0.030
7.230,-0.200,-0.035
7.232,-0.230,-0.035
7.234,-0.240,-0.040
7.236,-0.215,-0.040
7.238,-0.220,-0.045
7.240,-0.235,-0.045
7.242,-0.130,-0.045
7.244,-0.185,-0.040
7.246,-0.155,-0.035
7.248,-0.155,-0.030
7.250,-0.145,-0.025
7.252,-0.165,-0.020
7.254,-0.180,-0.020
7.256,-0.195,-0.020
7.258,-0.150,-0.020
7.260,-0.210,-0.025
7.262,-0.185,-0.030
7.264,-0.155,-0.035
7.266,-0.135,-0.035
7.268,-0.165,-0.030
7.270,-0.145,-0.025
7.272,-0.160,-0.015
7.274,-0.195,-0.005
7.276,-0.145,0.005
7.278,-0.175,0.015
7.280,-0.200,0.020
7.282,-0.115,0.020
7.284,-0.130,0.020
7.286,-0.100,0.010
7.288,-0.120,0.000
7.290,-0.125,-0.010
7.292,-0.155,-0.025
7.294,-0.180,-0.035
7.296,-0.200,-0.045
7.298,-0.245,-0.050
7.300,-0.245,-0.050
7.302,-0.205,-0.050
7.304,-0.165,-0.045
7.306,-0.160,-0.045
7.308,-0.140,-0.040
7.310,-0.125,-0.040
7.312,-0.175,-0.035
7.314,-0.220,-0.040
7.316,-0.250,-0.040
7.318,-0.210,-0.045
7.320,-0.250,-0.050
7.322,-0.230,-0.050
7.324,-0.230,-0.055
7.326,-0.165,-0.055
7.328,-0.135,-0.050
7.330,-0.150,-0.045
7.332,-0.155,-0.040
7.334,-0.160,-0.030
7.336,-0.210,-0.025
7.338,-0.215,-0.015
7.340,-0.220,-0.015
7.342,-0.165,-0.015
7.344,-0.175,-0.020
7.346,-0.160,-0.025
7.348,-0.195,-0.035
7.350,-0.165,-0.045
7.352,-0.170,-0.055
7.354,-0.180,-0.055
7.356,-0.240,-0.060
7.358,-0.240,-0.055
7.360,-0.215,-0.055
7.362,-0.215,-0.045
7.364,-0.195,-0.040
7.366,-0.120,-0.035
7.368,-0.110,-0.035
7.370,-0.165,-0.030
7.372,-0.190,-0.030
7.374,-0.185,-0.030
7.376,-0.215,-0.025
7.378,-0.260,-0.025
7.380,-0.190,-0.025
7.382,-0.185,-0.030
7.384,-0.180,-0.035
7.386,-0.170,-0.040
7.388,-0.195,-0.045
7.390,-0.205,-0.055
7.392,-0.195,-0.055
7.394,-0.200,-0.055
7.396,-0.250,-0.045
7.398,-0.240,-0.030
7.400,-0.140,-0.010
7.402,-0.125,0.010
7.404,-0.100,0.035
7.406,-0.055,0.050
7.408,0.005,0.060
7.410,-0.045,0.060
7.412,-0.060,0.055
7.414,-0.120,0.045
7.416,-0.205,0.035
7.418,-0.205,0.025
7.420,-0.175,0.030
7.422,-0.080,0.040
7.424,-0.010,0.060
7.426,0.035,0.085
7.428,0.090,0.110
7.430,0.045,0.135
7.432,0.005,0.150
7.434,-0.075,0.145
7.436,-0.115,0.130
7.438,-0.150,0.100
7.440,-0.165,0.055
7.442,-0.150,0.005
7.444,-0.140,-0.045
7.446,-0.150,-0.090
7.448,-0.275,-0.125
7.450,-0.300,-0.150
7.452,-0.285,-0.155
7.454,-0.320,-0.155
7.456,-0.345,-0.140
7.458,-0.280,-0.120
7.460,-0.230,-0.095
7.462,-0.155,-0.065
7.464,-0.120,-0.040
7.466,-0.145,-0.015
7.468,-0.120,0.000
7.470,-0.095,0.015
7.472,-0.075,0.025
7.474,-0.115,0.030
7.476,-0.205,0.025
7.478,-0.180,0.020
7.480,-0.135,0.015
7.482,-0.135,0.005
7.484,-0.120,-0.005
7.486,-0.100,-0.010
7.488,-0.140,-0.010
7.490,-0.115,-0.010
7.492,-0.140,-0.005
7.494,-0.150,0.000
7.496,-0.165,0.010
7.498,-0.150,0.020
7.500,-0.115,0.030
7.502,-0.080,0.035
7.504,-0.050,0.040
7.506,-0.065,0.040
7.508,-0.090,0.040
7.510,-0.100,0.040
7.512,-0.075,0.035
7.514,-0.160,0.035
7.516,-0.195,0.030
7.518,-0.150,0.025
7.520,-0.070,0.025
7.522,-0.110,0.025
7.524,-0.075,0.020
7.526,-0.095,0.020
7.528,-0.090,0.025
7.530,-0.065,0.025
7.532,-0.120,0.030
7.534,-0.135,0.035
7.536,-0.130,0.045
7.538,-0.105,0.050
7.540,-0.095,0.060
7.542,-0.090,0.070
7.544,-0.005,0.075
7.546,-0.035,0.075
7.548,-0.035,0.075
7.550,-0.040,0.070
7.552,-0.060,0.065
7.554,-0.150,0.055
7.556,-0.170,0.050
7.558,-0.135,0.045
7.560,-0.075,0.045
7.562,-0.080,0.050
7.564,-0.070,0.055
7.566,-0.040,0.065
7.568,-0.005,0.070
7.570,-0.030,0.080
7.572,-0.045,0.085
7.574,-0.100,0.090
7.576,-0.125,0.090
7.578,-0.080,0.090
7.580,-0.030,0.085
7.582,-0.045,0.085
7.584,-0.010,0.085
7.586,-0.020,0.085
7.588,0.000,0.085
7.590,-0.045,0.090
7.592,-0.050,0.090
7.594,-0.085,0.090
7.596,-0.095,0.090
7.598,-0.065,0.090
7.600,-0.035,0.090
7.602,-0.075,0.090
7.604,-0.030,0.095
7.606,0.035,0.105
7.608,0.045,0.115
7.610,0.060,0.125
7.612,0.010,0.140
7.614,-0.045,0.150
7.616,-0.035,0.160
7.618,-0.015,0.165
7.620,0.020,0.170
7.622,0.055,0.170
7.624,0.070,0.175
7.626,0.065,0.180
7.628,0.080,0.185
7.630,0.115,0.200
7.632,0.070,0.210
7.634,0.020,0.230
7.636,0.080,0.240
7.638,0.080,0.255
7.640,0.095,0.260
7.642,0.095,0.265
7.644,0.160,0.265
7.646,0.210,0.265
7.648,0.200,0.260
7.650,0.145,0.260
7.652,0.115,0.260
7.654,0.115,0.265
7.656,0.105,0.270
7.658,0.085,0.275
7.660,0.155,0.280
7.662,0.155,0.285
7.664,0.190,0.285
7.666,0.175,0.280
7.668,0.135,0.275
7.670,0.155,0.275
7.672,0.165,0.270
7.674,0.130,0.270
7.676,0.085,0.265
7.678,0.110,0.265
7.680,0.105,0.265
7.682,0.105,0.265
7.684,0.135,0.255
7.686,0.180,0.245
7.688,0.165,0.230
7.690,0.100,0.220
7.692,0.045,0.205
7.694,0.000,0.190
7.696,-0.005,0.185
7.698,0.020,0.180
7.700,0.030,0.175
7.702,0.070,0.175
7.704,0.095,0.175
7.706,0.090,0.170
7.708,0.050,0.160
7.710,-0.010,0.145
7.712,-0.035,0.130
7.714,-0.065,0.110
7.716,-0.115,0.090
7.718,-0.095,0.075
7.720,-0.060,0.060
7.722,-0.035,0.050
7.724,-0.060,0.050
7.726,-0.080,0.050
7.728,-0.045,0.050
7.730,-0.040,0.055
7.732,-0.090,0.055
7.734,-0.110,0.050
7.736,-0.150,0.045
7.738,-0.145,0.035
7.740,-0.155,0.025
7.742,-0.110,0.015
7.744,-0.080,0.010
7.746,-0.075,0.010
7.748,-0.085,0.010
7.750,-0.100,0.015
7.752,-0.140,0.020
7.754,-0.110,0.030
7.756,-0.120,0.035
7.758,-0.135,0.035
7.760,-0.145,0.035
7.762,-0.095,0.030
7.764,-0.075,0.020
7.766,-0.075,0.010
7.768,-0.085,0.005
7.770,-0.165,-0.005
7.772,-0.185,-0.010
7.774,-0.160,-0.010
7.776,-0.165,-0.005
7.778,-0.140,0.000
7.780,-0.115,0.000
7.782,-0.085,0.005
7.784,-0.080,0.005
7.786,-0.075,0.000
7.788,-0.120,-0.005
7.790,-0.125,-0.010
7.792,-0.170,-0.015
7.794,-0.180,-0.015
7.796,-0.180,-0.020
7.798,-0.130,-0.020
7.800,-0.165,-0.020
7.802,-0.105,-0.020
7.804,-0.100,-0.020
7.806,-0.125,-0.020
7.808,-0.160,-0.020
7.810,-0.140,-0.020
7.812,-0.185,-0.025
7.814,-0.195,-0.030
7.816,-0.235,-0.030
7.818,-0.150,-0.030
7.820,-0.100,-0.030
7.822,-0.090,-0.030
7.824,-0.110,-0.030
7.826,-0.160,-0.030
7.828,-0.195,-0.030
7.830,-0.165,-0.030
7.832,-0.185,-0.030
7.834,-0.180,-0.030
7.836,-0.215,-0.025
7.838,-0.155,-0.020
7.840,-0.120,-0.015
7.842,-0.095,-0.010
7.844,-0.065,0.000
7.846,-0.050,0.005
7.848,-0.090,0.005
7.850,-0.100,0.005
7.852,-0.135,0.000
7.854,-0.210,-0.005
7.856,-0.250,-0.015
7.858,-0.190,-0.025
7.860,-0.115,-0.030
7.862,-0.030,-0.030
7.864,-0.065,-0.030
7.866,-0.075,-0.020
7.868,-0.145,-0.015
7.870,-0.110,-0.005
7.872,-0.170,0.005
7.874,-0.170,0.010
7.876,-0.125,0.010
7.878,-0.150,0.000
7.880,-0.135,-0.010
7.882,-0.115,-0.020
7.884,-0.100,-0.030
7.886,-0.105,-0.035
7.888,-0.135,-0.040
7.890,-0.160,-0.035
7.892,-0.145,-0.030
7.894,-0.145,-0.020
7.896,-0.175,-0.010
7.898,-0.125,0.000
7.900,-0.110,0.005
7.902,-0.065,0.005
7.904,-0.070,0.005
7.906,-0.095,-0.005
7.908,-0.110,-0.010
7.910,-0.135,-0.020
7.912,-0.230,-0.025
7.914,-0.175,-0.030
7.916,-0.120,-0.030
7.918,-0.155,-0.025
7.920,-0.140,-0.020
7.922,-0.075,-0.015
7.924,-0.100,-0.015
7.926,-0.095,-0.010
7.928,-0.060,-0.010
7.930,-0.150,-0.005
7.932,-0.160,-0.005
7.934,-0.165,-0.010
7.936,-0.110,-0.010
7.938,-0.125,-0.010
7.940,-0.140,-0.010
7.942,-0.080,-0.010
7.944,-0.105,-0.015
7.946,-0.125,-0.020
7.948,-0.150,-0.025
7.950,-0.155,-0.030
7.952,-0.180,-0.030
7.954,-0.160,-0.035
7.956,-0.145,-0.030
7.958,-0.120,-0.025
7.960,-0.110,-0.020
7.962,-0.070,-0.015
7.964,-0.095,-0.010
7.966,-0.105,-0.005
7.968,-0.130,-0.010
7.970,-0.135,-0.015
7.972,-0.180,-0.020
7.974,-0.170,-0.030
7.976,-0.150,-0.040
7.978,-0.125,-0.045
7.980,-0.095,-0.050
7.982,-0.085,-0.045
7.984,-0.085,-0.040
7.986,-0.115,-0.035
7.988,-0.135,-0.025
7.990,-0.180,-0.020
7.992,-0.175,-0.020
7.994,-0.170,-0.020
7.996,-0.170,-0.025
7.998,-0.175,-0.030
8.000,-0.140,-0.040
8.002,-0.075,-0.045
8.004,-0.095,-0.045
8.006,-0.135,-0.045
8.008,-0.155,-0.045
8.010,-0.150,-0.040
8.012,-0.140,-0.040
8.014,-0.175,-0.035
8.016,-0.180,-0.035
8.018,-0.145,-0.040
8.020,-0.100,-0.045
8.022,-0.130,-0.045
8.024,-0.130,-0.045
8.026,-0.125,-0.045
8.028,-0.145,-0.040
8.030,-0.190,-0.035
8.032,-0.185,-0.035
8.034,-0.105,-0.030
8.036,-0.130,-0.030
8.038,-0.155,-0.035
8.040,-0.105,-0.045
8.042,-0.090,-0.055
8.044,-0.155,-0.065
8.046,-0.165,-0.080
8.048,-0.170,-0.085
8.050,-0.215,-0.085
8.052,-0.195,-0.080
8.054,-0.180,-0.075
8.056,-0.145,-0.065
8.058,-0.160,-0.055
8.060,-0.120,-0.050
8.062,-0.120,-0.045
8.064,-0.130,-0.050
8.066,-0.125,-0.055
8.068,-0.120,-0.060
8.070,-0.125,-0.065
8.072,-0.175,-0.070
8.074,-0.245,-0.070
8.076,-0.180,-0.065
8.078,-0.175,-0.060
8.080,-0.100,-0.055
8.082,-0.125,-0.050
8.084,-0.130,-0.050
8.086,-0.115,-0.050
8.088,-0.135,-0.055
8.090,-0.210,-0.065
8.092,-0.205,-0.070
8.094,-0.200,-0.080
8.096,-0.185,-0.080
8.098,-0.175,-0.080
8.100,-0.145,-0.075
8.102,-0.180,-0.065
8.104,-0.070,-0.055
8.106,-0.055,-0.045
8.108,-0.130,-0.030
8.110,-0.170,-0.025
8.112,-0.145,-0.020
8.114,-0.130,-0.015
8.116,-0.125,-0.020
8.118,-0.100,-0.020
8.120,-0.070,-0.030
8.122,-0.090,-0.035
8.124,-0.080,-0.045
8.126,-0.105,-0.050
8.128,-0.135,-0.060
8.130,-0.220,-0.065
8.132,-0.215,-0.070
8.134,-0.230,-0.070
8.136,-0.165,-0.070
8.138,-0.125,-0.065
8.140,-0.070,-0.060
8.142,-0.070,-0.050
8.144,-0.090,-0.040
8.146,-0.105,-0.030
8.148,-0.110,-0.025
8.150,-0.175,-0.025
8.152,-0.200,-0.025
8.154,-0.150,-0.025
8.156,-0.100,-0.030
8.158,-0.100,-0.035
8.160,-0.085,-0.040
8.162,-0.065,-0.045
8.164,-0.095,-0.045
8.166,-0.135,-0.045
8.168,-0.165,-0.045
8.170,-0.170,-0.045
8.172,-0.165,-0.050
8.174,-0.195,-0.055
8.176,-0.165,-0.060
8.178,-0.170,-0.065
8.180,-0.130,-0.070
8.182,-0.115,-0.075
8.184,-0.110,-0.070
8.186,-0.080,-0.065
8.188,-0.110,-0.055
8.190,-0.210,-0.040
8.192,-0.165,-0.025
8.194,-0.115,-0.010
8.196,-0.105,-0.005
8.198,-0.090,0.000
8.200,-0.080,-0.005
8.202,-0.070,-0.015
8.204,-0.045,-0.030
8.206,-0.110,-0.040
8.208,-0.180,-0.055
8.210,-0.170,-0.065
8.212,-0.160,-0.065
8.214,-0.120,-0.055
8.216,-0.100,-0.045
8.218,-0.120,-0.030
8.220,-0.075,-0.015
8.222,-0.010,-0.005
8.224,-0.025,0.000
8.226,-0.105,0.000
8.228,-0.120,-0.005
8.230,-0.170,-0.010
8.232,-0.120,-0.015
8.234,-0.075,-0.020
8.236,-0.080,-0.015
8.238,-0.040,-0.010
8.240,0.005,0.005
8.242,-0.015,0.015
8.244,-0.035,0.030
8.246,-0.040,0.040
8.248,-0.070,0.040
8.250,-0.100,0.035
8.252,-0.120,0.025
8.254,-0.120,0.005
8.256,-0.120,-0.015
8.258,-0.075,-0.030
8.260,-0.025,-0.045
8.262,-0.065,-0.055
8.264,-0.065,-0.060
8.266,-0.150,-0.055
8.268,-0.175,-0.050
8.270,-0.140,-0.040
8.272,-0.140,-0.030
8.274,-0.125,-0.025
8.276,-0.105,-0.020
8.278,-0.065,-0.025
8.280,-0.065,-0.025
8.282,-0.080,-0.035
8.284,-0.085,-0.040
8.286,-0.110,-0.045
8.288,-0.130,-0.045
8.290,-0.165,-0.050
8.292,-0.200,-0.050
8.294,-0.130,-0.050
8.296,-0.095,-0.055
8.298,-0.075,-0.055
8.300,-0.115,-0.055
8.302,-0.115,-0.060
8.304,-0.105,-0.060
8.306,-0.125,-0.060
8.308,-0.115,-0.055
8.310,-0.120,-0.050
8.312,-0.150,-0.040
8.314,-0.110,-0.035
8.316,-0.075,-0.030
8.318,-0.095,-0.030
8.320,-0.105,-0.035
8.322,-0.115,-0.045
8.324,-0.105,-0.055
8.326,-0.105,-0.065
8.328,-0.155,-0.075
8.330,-0.170,-0.080
8.332,-0.170,-0.080
8.334,-0.145,-0.080
8.336,-0.140,-0.075
8.338,-0.145,-0.070
8.340,-0.120,-0.065
8.342,-0.085,-0.065
8.344,-0.105,-0.070
8.346,-0.100,-0.080
8.348,-0.190,-0.090
8.350,-0.220,-0.095
8.352,-0.215,-0.105
8.354,-0.170,-0.105
8.356,-0.125,-0.100
8.358,-0.085,-0.085
8.360,-0.050,-0.070
8.362,-0.055,-0.050
8.364,-0.110,-0.030
8.366,-0.075,-0.015
8.368,-0.105,-0.005
8.370,-0.065,0.000
8.372,-0.055,0.000
8.374,-0.015,-0.010
8.376,-0.075,-0.015
8.378,-0.075,-0.020
8.380,-0.075,-0.025
8.382,-0.100,-0.020
8.384,-0.080,-0.015
8.386,-0.095,0.000
8.388,-0.060,0.015
8.390,-0.040,0.035
8.392,0.040,0.055
8.394,0.085,0.075
8.396,0.105,0.090
8.398,0.115,0.100
8.400,0.090,0.105
8.402,0.025,0.095
8.404,-0.050,0.070
8.406,-0.095,0.035
8.408,-0.135,-0.005
8.410,-0.135,-0.055
8.412,-0.185,-0.100
8.414,-0.190,-0.145
8.416,-0.260,-0.175
8.418,-0.265,-0.195
8.420,-0.225,-0.200
8.422,-0.185,-0.185
8.424,-0.190,-0.165
8.426,-0.150,-0.130
8.428,-0.155,-0.100
8.430,-0.150,-0.070
8.432,-0.145,-0.045
8.434,-0.090,-0.030
8.436,-0.055,-0.025
8.438,-0.005,-0.025
8.440,-0.065,-0.030
8.442,-0.035,-0.040
8.444,-0.060,-0.045
8.446,-0.120,-0.045
8.448,-0.140,-0.045
8.450,-0.125,-0.040
8.452,-0.130,-0.035
8.454,-0.110,-0.035
8.456,-0.070,-0.035
8.458,-0.020,-0.035
8.460,-0.055,-0.035
8.462,-0.055,-0.035
8.464,-0.055,-0.040
8.466,-0.065,-0.040
8.468,-0.100,-0.035
8.470,-0.120,-0.030
8.472,-0.100,-0.025
8.474,-0.095,-0.015
8.476,-0.085,-0.005
8.478,0.005,0.005
8.480,-0.025,0.005
8.482,-0.065,0.010
8.484,0.000,0.010
8.486,-0.015,0.005
8.488,-0.090,0.000
8.490,-0.125,-0.005
8.492,-0.090,-0.010
8.494,-0.040,-0.015
8.496,-0.060,-0.010
8.498,-0.050,-0.010
8.500,-0.070,-0.005
8.502,0.005,0.000
8.504,-0.030,0.005
8.506,-0.055,0.010
8.508,-0.065,0.010
8.510,-0.090,0.005
8.512,-0.085,0.000
8.514,-0.080,-0.005
8.516,-0.030,-0.010
8.518,0.000,-0.015
8.520,-0.050,-0.020
8.522,-0.020,-0.025
8.524,-0.025,-0.025
8.526,-0.070,-0.020
8.528,-0.090,-0.015
8.530,-0.075,-0.010
8.532,-0.100,-0.005
8.534,-0.060,0.000
8.536,-0.015,0.005
8.538,0.005,0.010
8.540,0.035,0.020
8.542,0.010,0.025
8.544,0.005,0.030
8.546,-0.020,0.035
8.548,-0.075,0.045
8.550,-0.035,0.050
8.552,-0.030,0.050
8.554,-0.010,0.050
8.556,0.005,0.050
8.558,0.050,0.050
8.560,0.030,0.045
8.562,0.015,0.045
8.564,0.035,0.045
8.566,0.020,0.045
8.568,0.000,0.050
8.570,-0.025,0.055
8.572,-0.025,0.060
8.574,0.015,0.070
8.576,0.020,0.075
8.578,0.075,0.075
8.580,0.105,0.080
8.582,0.100,0.080
8.584,0.090,0.080
8.586,0.020,0.085
8.588,0.015,0.090
8.590,0.005,0.100
8.592,0.045,0.110
8.594,0.110,0.125
8.596,0.155,0.140
8.598,0.175,0.155
8.600,0.200,0.170
8.602,0.155,0.175
8.604,0.150,0.185
8.606,0.125,0.185
8.608,0.105,0.190
8.610,0.115,0.190
8.612,0.125,0.195
8.614,0.180,0.200
8.616,0.250,0.205
8.618,0.225,0.210
8.620,0.180,0.215
8.622,0.170,0.215
8.624,0.210,0.215
8.626,0.170,0.215
8.628,0.125,0.210
8.630,0.095,0.205
8.632,0.125,0.200
8.634,0.180,0.195
8.636,0.205,0.195
8.638,0.210,0.195
8.640,0.170,0.195
8.642,0.170,0.195
8.644,0.145,0.195
8.646,0.155,0.195
8.648,0.135,0.190
8.650,0.095,0.185
8.652,0.125,0.175
8.654,0.145,0.165
8.656,0.120,0.155
8.658,0.100,0.140
8.660,0.140,0.135
8.662,0.150,0.125
8.664,0.125,0.120
8.666,0.070,0.115
8.668,0.010,0.110
8.670,0.000,0.105
8.672,0.015,0.090
8.674,0.035,0.075
8.676,0.070,0.055
8.678,0.045,0.030
8.680,0.040,0.010
8.682,-0.050,-0.010
8.684,-0.085,-0.025
8.686,-0.150,-0.035
8.688,-0.155,-0.035
8.690,-0.060,-0.035
8.692,0.000,-0.035
8.694,-0.025,-0.035
8.696,-0.005,-0.035
8.698,-0.030,-0.035
8.700,-0.010,-0.045
8.702,-0.135,-0.050
8.704,-0.120,-0.060
8.706,-0.135,-0.065
8.708,-0.055,-0.070
8.710,-0.125,-0.065
8.712,-0.100,-0.060
8.714,-0.085,-0.045
8.716,-0.040,-0.035
8.718,-0.045,-0.025
8.720,-0.010,-0.020
8.722,-0.020,-0.020
8.724,-0.070,-0.025
8.726,-0.080,-0.035
8.728,-0.115,-0.045
8.730,-0.145,-0.055
8.732,-0.075,-0.060
8.734,-0.080,-0.060
8.736,-0.050,-0.055
8.738,-0.025,-0.045
8.740,0.010,-0.035
8.742,-0.010,-0.025
8.744,-0.060,-0.020
8.746,-0.105,-0.020
8.748,-0.080,-0.020
8.750,-0.125,-0.030
8.752,-0.120,-0.040
8.754,-0.055,-0.050
8.756,-0.025,-0.055
8.758,-0.040,-0.055
8.760,-0.020,-0.055
8.762,-0.045,-0.045
8.764,-0.085,-0.035
8.766,-0.105,-0.025
8.768,-0.065,-0.020
8.770,-0.080,-0.015
8.772,-0.040,-0.015
8.774,0.020,-0.020
8.776,0.020,-0.030
8.778,-0.050,-0.040
8.780,-0.035,-0.050
8.782,-0.090,-0.055
8.784,-0.105,-0.055
8.786,-0.095,-0.055
8.788,-0.070,-0.050
8.790,-0.090,-0.045
8.792,-0.070,-0.035
8.794,-0.035,-0.025
8.796,0.035,-0.020
8.798,-0.030,-0.020
8.800,0.025,-0.020
8.802,-0.030,-0.025
8.804,-0.045,-0.030
8.806,-0.125,-0.035
8.808,-0.120,-0.040
8.810,-0.105,-0.045
8.812,-0.040,-0.045
8.814,0.010,-0.040
8.816,0.040,-0.035
8.818,0.000,-0.030
8.820,-0.020,-0.020
8.822,-0.015,-0.015
8.824,-0.040,-0.010
8.826,-0.075,-0.005
8.828,-0.030,-0.005
8.830,-0.050,-0.010
8.832,-0.065,-0.015
8.834,-0.025,-0.020
8.836,0.010,-0.025
8.838,0.025,-0.030
8.840,-0.045,-0.035
8.842,-0.040,-0.040
8.844,-0.050,-0.040
8.846,-0.100,-0.040
8.848,-0.080,-0.040
8.850,-0.080,-0.040
8.852,-0.075,-0.035
8.854,-0.045,-0.030
8.856,0.000,-0.030
8.858,0.005,-0.030
8.860,-0.015,-0.030
8.862,-0.045,-0.035
8.864,-0.085,-0.040
8.866,-0.130,-0.045
8.868,-0.100,-0.050
8.870,-0.125,-0.055
8.872,-0.095,-0.060
8.874,-0.040,-0.055
8.876,0.025,-0.050
8.878,0.015,-0.040
8.880,-0.030,-0.025
8.882,-0.005,-0.015
8.884,-0.005,0.000
8.886,-0.065,0.005
8.888,-0.020,0.010
8.890,0.005,0.010
8.892,-0.035,0.005
8.894,-0.020,-0.005
8.896,0.000,-0.015
8.898,-0.035,-0.025
8.900,0.000,-0.030
8.902,-0.025,-0.030
8.904,-0.070,-0.030
8.906,-0.070,-0.020
8.908,-0.095,-0.015
8.910,-0.025,-0.005
8.912,0.000,0.000
8.914,0.065,0.005
8.916,0.060,0.005
8.918,0.020,0.005
8.920,-0.005,0.000
8.922,-0.010,-0.010
8.924,-0.060,-0.015
8.926,-0.045,-0.020
8.928,-0.070,-0.020
8.930,-0.035,-0.020
8.932,0.010,-0.015
8.934,0.020,-0.015
8.936,0.015,-0.010
8.938,0.050,-0.005
8.940,-0.015,-0.005
8.942,-0.065,-0.005
8.944,-0.085,-0.010
8.946,-0.095,-0.015
8.948,-0.080,-0.020
8.950,-0.010,-0.025
8.952,-0.030,-0.030
8.954,-0.005,-0.030
8.956,0.070,-0.030
8.958,0.010,-0.020
8.960,-0.010,-0.015
8.962,-0.010,-0.005
8.964,-0.070,0.000
8.966,-0.020,0.000
8.968,-0.035,0.000
8.970,-0.030,-0.010
8.972,-0.040,-0.020
8.974,0.000,-0.030
8.976,-0.025,-0.040
8.978,-0.005,-0.045
8.980,0.005,-0.050
8.982,-0.010,-0.045
8.984,-0.055,-0.040
8.986,-0.035,-0.030
8.988,-0.035,-0.020
8.990,-0.070,-0.015
8.992,-0.070,-0.015
8.994,0.025,-0.015
8.996,-0.010,-0.015
8.998,0.010,-0.020
9.000,0.045,-0.025
9.002,0.010,-0.025
9.004,0.000,-0.020
9.006,0.000,-0.015
9.008,-0.070,-0.005
9.010,-0.020,0.005
9.012,-0.005,0.010
9.014,0.070,0.015
9.016,0.050,0.015
9.018,0.035,0.010
9.020,-0.010,0.005
9.022,-0.025,-0.005
9.024,-0.015,-0.010
9.026,-0.055,-0.020
9.028,-0.040,-0.020
9.030,-0.005,-0.020
9.032,0.015,-0.020
9.034,-0.005,-0.020
9.036,0.005,-0.015
9.038,0.060,-0.015
9.040,0.005,-0.020
9.042,-0.075,-0.020
9.044,-0.085,-0.020
9.046,0.015,-0.020
9.048,-0.045,-0.020
9.050,0.020,-0.015
9.052,0.030,-0.015
9.054,-0.020,-0.010
9.056,-0.005,-0.010
9.058,0.035,-0.005
9.060,0.015,-0.010
9.062,-0.020,-0.010
9.064,-0.005,-0.015
9.066,-0.060,-0.015
9.068,-0.050,-0.020
9.070,0.015,-0.015
9.072,0.015,-0.015
9.074,0.050,-0.005
9.076,0.050,0.000
9.078,0.070,0.005
9.080,0.035,0.010
9.082,-0.010,0.015
9.084,-0.025,0.015
9.086,0.005,0.015
9.088,0.005,0.015
9.090,-0.015,0.010
9.092,0.030,0.010
9.094,0.085,0.005
9.096,0.040,0.000
9.098,0.090,0.000
9.100,0.020,-0.005
9.102,-0.050,-0.005
9.104,-0.050,-0.010
9.106,-0.025,-0.010
9.108,-0.045,-0.015
9.110,-0.035,-0.015
9.112,0.015,-0.015
9.114,0.040,-0.015
9.116,0.040,-0.015
9.118,0.005,-0.010
9.120,0.005,-0.005
9.122,0.015,-0.005
9.124,-0.035,-0.005
9.126,-0.040,-0.005
9.128,-0.040,-0.005
9.130,-0.010,-0.010
9.132,0.065,-0.015
9.134,0.015,-0.020
9.136,0.015,-0.020
9.138,-0.010,-0.025
9.140,-0.005,-0.025
9.142,0.005,-0.020
9.144,-0.030,-0.020
9.146,-0.060,-0.015
9.148,-0.050,-0.015
9.150,-0.040,-0.010
9.152,0.065,-0.005
9.154,0.115,-0.005
9.156,0.080,0.000
9.158,0.010,0.005
9.160,-0.005,0.010
9.162,0.015,0.015
9.164,0.020,0.015
9.166,0.045,0.015
9.168,0.020,0.010
9.170,0.040,0.005
9.172,0.030,-0.005
9.174,0.035,-0.020
9.176,-0.010,-0.030
9.178,-0.025,-0.035
9.180,-0.015,-0.040
9.182,0.000,-0.040
9.184,-0.065,-0.030
9.186,-0.040,-0.020
9.188,0.045,0.000
9.190,0.090,0.015
9.192,0.120,0.030
9.194,0.135,0.045
9.196,0.075,0.050
9.198,0.025,0.055
9.200,0.035,0.055
9.202,0.020,0.050
9.204,0.020,0.045
9.206,0.035,0.040
9.208,0.025,0.035
9.210,0.035,0.030
9.212,0.090,0.025
9.214,0.050,0.025
9.216,0.100,0.025
9.218,0.115,0.025
9.220,0.060,0.020
9.222,-0.020,0.020
9.224,-0.030,0.020
9.226,-0.005,0.020
9.228,0.070,0.015
9.230,0.045,0.020
9.232,0.080,0.020
9.234,0.100,0.020
9.236,0.120,0.025
9.238,0.080,0.030
9.240,0.030,0.035
9.242,-0.005,0.040
9.244,0.035,0.045
9.246,0.060,0.045
9.248,0.050,0.045
9.250,0.060,0.040
9.252,0.070,0.030
9.254,0.060,0.020
9.256,0.065,0.005
9.258,0.010,-0.015
9.260,-0.055,-0.030
9.262,-0.070,-0.045
9.264,-0.095,-0.055
9.266,-0.075,-0.060
9.268,-0.025,-0.055
9.270,0.040,-0.045
9.272,0.040,-0.035
9.274,-0.015,-0.020
9.276,0.070,-0.010
9.278,0.070,0.000
9.280,0.025,0.005
9.282,-0.030,0.000
9.284,-0.080,-0.010
9.286,-0.090,-0.020
9.288,-0.040,-0.025
9.290,0.035,-0.035
9.292,0.080,-0.035
9.294,0.090,-0.035
9.296,0.050,-0.030
9.298,-0.015,-0.025
9.300,-0.035,-0.025
9.302,-0.065,-0.020
9.304,-0.030,-0.025
9.306,-0.055,-0.030
9.308,-0.040,-0.035
9.310,0.030,-0.040
9.312,0.075,-0.045
9.314,0.045,-0.045
9.316,0.020,-0.040
9.318,-0.005,-0.035
9.320,0.005,-0.030
9.322,-0.015,-0.025
9.324,-0.020,-0.025
9.326,-0.050,-0.025
9.328,-0.020,-0.025
9.330,0.035,-0.030
9.332,0.100,-0.035
9.334,0.005,-0.035
9.336,0.025,-0.035
9.338,0.055,-0.035
9.340,-0.030,-0.035
9.342,-0.105,-0.030
9.344,-0.075,-0.030
9.346,-0.020,-0.025
9.348,0.010,-0.020
9.350,0.060,-0.015
9.352,0.075,-0.005
9.354,0.060,0.010
9.356,0.080,0.030
9.358,0.115,0.050
9.360,0.070,0.070
9.362,0.035,0.085
9.364,0.080,0.090
9.366,0.085,0.090
9.368,0.100,0.080
9.370,0.105,0.060
9.372,0.085,0.040
9.374,0.065,0.020
9.376,0.015,0.005
9.378,-0.005,-0.005
9.380,0.040,0.005
9.382,0.070,0.020
9.384,0.020,0.045
9.386,0.095,0.075
9.388,0.200,0.105
9.390,0.220,0.125
9.392,0.205,0.140
9.394,0.205,0.135
9.396,0.130,0.120
9.398,0.075,0.085
9.400,0.000,0.045
9.402,-0.010,-0.005
9.404,-0.045,-0.055
9.406,-0.090,-0.100
9.408,-0.150,-0.140
9.410,-0.155,-0.165
9.412,-0.155,-0.180
9.414,-0.125,-0.180
9.416,-0.130,-0.165
9.418,-0.090,-0.145
9.420,-0.045,-0.120
9.422,0.000,-0.090
9.424,-0.045,-0.065
9.426,-0.040,-0.040
9.428,-0.020,-0.025
9.430,0.020,-0.015
9.432,0.030,-0.010
9.434,0.035,-0.010
9.436,0.025,-0.015
9.438,0.025,-0.020
9.440,-0.020,-0.030
9.442,-0.030,-0.030
9.444,-0.025,-0.035
9.446,-0.020,-0.035
9.448,-0.005,-0.030
9.450,0.030,-0.025
9.452,0.065,-0.020
9.454,0.100,-0.010
9.456,0.060,-0.010
9.458,0.050,-0.005
9.460,0.000,-0.005
9.462,-0.045,-0.010
9.464,-0.095,-0.015
9.466,-0.070,-0.020
9.468,0.050,-0.025
9.470,0.050,-0.025
9.472,0.065,-0.025
9.474,0.080,-0.020
9.476,0.080,-0.010
9.478,0.055,-0.005
9.480,0.010,0.005
9.482,0.000,0.010
9.484,-0.035,0.010
9.486,0.000,0.010
9.488,0.010,0.005
9.490,0.080,0.000
9.492,0.090,-0.010
9.494,0.035,-0.015
9.496,0.020,-0.015
9.498,0.050,-0.015
9.500,0.055,-0.010
9.502,0.005,-0.005
9.504,0.005,0.000
9.506,0.040,0.010
9.508,-0.005,0.010
9.510,0.025,0.015
9.512,0.110,0.015
9.514,0.115,0.015
9.516,0.075,0.015
9.518,0.030,0.010
9.520,0.020,0.010
9.522,0.005,0.010
9.524,-0.005,0.015
9.526,0.040,0.015
9.528,0.060,0.015
9.530,0.075,0.015
9.532,0.045,0.015
9.534,0.060,0.020
9.536,0.075,0.020
9.538,0.125,0.025
9.540,0.060,0.030
9.542,0.030,0.040
9.544,0.020,0.045
9.546,0.085,0.050
9.548,0.120,0.055
9.550,0.170,0.060
9.552,0.115,0.065
9.554,0.095,0.070
9.556,0.065,0.070
9.558,0.135,0.075
9.560,0.060,0.080
9.562,0.095,0.085
9.564,0.115,0.085
9.566,0.130,0.090
9.568,0.130,0.095
9.570,0.155,0.095
9.572,0.175,0.095
9.574,0.160,0.090
9.576,0.145,0.090
9.578,0.130,0.090
9.580,0.065,0.085
9.582,0.090,0.090
9.584,0.095,0.090
9.586,0.125,0.095
9.588,0.165,0.100
9.590,0.195,0.105
9.592,0.210,0.115
9.594,0.205,0.120
9.596,0.230,0.125
9.598,0.160,0.130
9.600,0.135,0.135
9.602,0.135,0.140
9.604,0.090,0.150
9.606,0.170,0.155
9.608,0.195,0.165
9.610,0.260,0.175
9.612,0.275,0.180
9.614,0.265,0.185
9.616,0.225,0.185
9.618,0.190,0.185
9.620,0.185,0.180
9.622,0.175,0.175
9.624,0.140,0.170
9.626,0.190,0.160
9.628,0.205,0.155
9.630,0.235,0.150
9.632,0.210,0.150
9.634,0.195,0.150
9.636,0.195,0.150
9.638,0.200,0.150
9.640,0.150,0.150
9.642,0.180,0.150
9.644,0.150,0.150
9.646,0.125,0.145
9.648,0.195,0.140
9.650,0.225,0.135
9.652,0.200,0.125
9.654,0.165,0.115
9.656,0.125,0.105
9.658,0.095,0.095
9.660,0.080,0.085
9.662,0.100,0.075
9.664,0.055,0.065
9.666,0.070,0.055
9.668,0.105,0.045
9.670,0.140,0.040
9.672,0.115,0.030
9.674,0.060,0.025
9.676,0.060,0.020
9.678,0.015,0.015
9.680,-0.015,0.010
9.682,-0.010,0.000
9.684,-0.020,-0.005
9.686,-0.025,-0.015
9.688,0.065,-0.020
9.690,0.085,-0.025
9.692,0.025,-0.030
9.694,0.010,-0.030
9.696,0.040,-0.025
9.698,0.020,-0.020
9.700,0.030,-0.010
9.702,-0.015,-0.005
9.704,-0.030,0.000
9.706,0.035,0.005
9.708,0.040,0.000
9.710,0.045,-0.005
9.712,0.055,-0.010
9.714,0.025,-0.020
9.716,0.025,-0.025
9.718,-0.020,-0.030
9.720,-0.005,-0.030
9.722,0.010,-0.030
9.724,0.015,-0.025
9.726,0.015,-0.025
9.728,0.005,-0.025
9.730,0.015,-0.025
9.732,-0.010,-0.030
9.734,-0.005,-0.035
9.736,0.025,-0.045
9.738,0.000,-0.050
9.740,-0.035,-0.055
9.742,-0.040,-0.060
9.744,-0.040,-0.065
9.746,-0.015,-0.065
9.748,0.005,-0.070
9.750,-0.035,-0.070
9.752,-0.015,-0.075
9.754,-0.015,-0.080
9.756,-0.045,-0.085
9.758,-0.110,-0.090
9.760,-0.100,-0.095
9.762,-0.090,-0.095
9.764,-0.110,-0.090
9.766,-0.060,-0.085
9.768,0.000,-0.080
9.770,0.000,-0.075
9.772,-0.015,-0.075
9.774,-0.040,-0.075
9.776,-0.045,-0.080
9.778,-0.090,-0.080
9.780,-0.060,-0.085
9.782,-0.110,-0.085
9.784,-0.110,-0.080
9.786,-0.055,-0.070
9.788,0.035,-0.065
9.790,0.040,-0.055
9.792,0.075,-0.050
9.794,0.035,-0.045
9.796,-0.075,-0.045
9.798,-0.110,-0.045
9.800,-0.090,-0.050
9.802,-0.050,-0.055
9.804,-0.035,-0.060
9.806,-0.015,-0.060
9.808,0.040,-0.055
9.810,0.040,-0.050
9.812,0.015,-0.040
9.814,-0.020,-0.035
9.816,0.010,-0.030
9.818,-0.040,-0.030
9.820,-0.030,-0.035
9.822,-0.045,-0.035
9.824,-0.045,-0.040
9.826,-0.005,-0.045
9.828,0.040,-0.045
9.830,0.040,-0.045
9.832,0.040,-0.040
9.834,0.020,-0.040
9.836,0.015,-0.035
9.838,-0.030,-0.030
9.840,-0.030,-0.025
9.842,-0.045,-0.025
9.844,-0.045,-0.025
9.846,-0.020,-0.025
9.848,0.080,-0.025
9.850,0.060,-0.020
9.852,0.035,-0.020
9.854,0.020,-0.020
9.856,0.025,-0.020
9.858,0.025,-0.020
9.860,-0.010,-0.020
9.862,-0.040,-0.025
9.864,-0.035,-0.025
9.866,-0.015,-0.020
9.868,0.065,-0.020
9.870,0.060,-0.015
9.872,0.070,-0.010
9.874,0.050,0.000
9.876,0.015,0.010
9.878,-0.025,0.015
9.880,0.025,0.020
9.882,0.015,0.020
9.884,0.005,0.020
9.886,0.005,0.015
9.888,0.070,0.010
9.890,0.075,0.005
9.892,0.065,-0.005
9.894,0.070,-0.010
9.896,0.010,-0.010
9.898,-0.010,-0.015
9.900,-0.010,-0.015
9.902,-0.035,-0.015
9.904,-0.015,-0.020
9.906,0.010,-0.020
9.908,0.055,-0.020
9.910,0.015,-0.020
9.912,0.080,-0.020
9.914,0.010,-0.025
9.916,-0.030,-0.025
9.918,-0.095,-0.030
9.920,-0.035,-0.035
9.922,0.005,-0.035
9.924,-0.010,-0.040
9.926,-0.015,-0.045
9.928,0.010,-0.045
9.930,-0.010,-0.050
9.932,-0.015,-0.050
9.934,0.030,-0.050
9.936,0.015,-0.050
9.938,-0.045,-0.055
9.940,-0.065,-0.055
9.942,-0.055,-0.060
9.944,-0.020,-0.060
9.946,-0.055,-0.065
9.948,-0.005,-0.070
9.950,0.025,-0.070
9.952,-0.005,-0.070
9.954,-0.090,-0.065
9.956,-0.065,-0.065
9.958,-0.045,-0.060
9.960,-0.055,-0.055
9.962,-0.060,-0.055
9.964,-0.055,-0.055
9.966,-0.030,-0.060
9.968,0.025,-0.060
9.970,-0.025,-0.065
9.972,-0.045,-0.070
9.974,-0.020,-0.070
9.976,-0.045,-0.070
9.978,-0.090,-0.065
9.980,-0.090,-0.060
9.982,-0.100,-0.055
9.984,-0.040,-0.050
9.986,0.065,-0.050
9.988,0.040,-0.050
9.990,-0.015,-0.050
9.992,-0.010,-0.055
9.994,-0.025,-0.055
9.996,-0.015,-0.060
9.998,-0.095,-0.060
