'Elapsed time','ECG I','ECG I filtered'
'seconds','mV','mV'
0.000,0.385,0.090
0.002,0.480,0.060
0.004,0.485,0.080
0.006,0.445,0.110
0.008,0.500,0.170
0.010,0.430,0.255
0.012,0.570,0.350
0.014,0.550,0.425
0.016,0.790,0.470
0.018,0.840,0.465
0.020,0.945,0.405
0.022,0.735,0.300
0.024,0.495,0.165
0.026,0.215,0.025
0.028,0.205,-0.105
0.030,-0.150,-0.205
0.032,-0.230,-0.260
0.034,-0.030,-0.275
0.036,-0.015,-0.260
0.038,0.040,-0.225
0.040,0.385,-0.195
0.042,0.160,-0.180
0.044,0.135,-0.180
0.046,0.050,-0.205
0.048,0.070,-0.240
0.050,-0.230,-0.270
0.052,-0.120,-0.295
0.054,-0.150,-0.295
0.056,-0.065,-0.280
0.058,0.060,-0.245
0.060,0.270,-0.205
0.062,0.325,-0.165
0.064,0.210,-0.135
0.066,0.155,-0.125
0.068,0.100,-0.135
0.070,-0.025,-0.155
0.072,-0.140,-0.180
0.074,-0.055,-0.200
0.076,-0.035,-0.215
0.078,0.080,-0.220
0.080,0.270,-0.215
0.082,0.270,-0.205
0.084,0.140,-0.190
0.086,0.010,-0.185
0.088,-0.075,-0.185
0.090,-0.125,-0.190
0.092,-0.095,-0.200
0.094,-0.095,-0.210
0.096,0.070,-0.215
0.098,0.105,-0.215
0.100,0.240,-0.200
0.102,0.205,-0.185
0.104,0.145,-0.160
0.106,0.055,-0.145
0.108,0.055,-0.130
0.110,-0.030,-0.130
0.112,-0.090,-0.135
0.114,0.050,-0.150
0.116,0.125,-0.170
0.118,0.010,-0.190
0.120,0.170,-0.205
0.122,0.160,-0.205
0.124,0.145,-0.200
0.126,-0.020,-0.185
0.128,0.025,-0.165
0.130,-0.030,-0.140
0.132,-0.050,-0.125
0.134,0.020,-0.110
0.136,0.105,-0.110
0.138,0.165,-0.125
0.140,0.290,-0.145
0.142,0.215,-0.170
0.144,0.175,-0.200
0.146,-0.045,-0.225
0.148,-0.235,-0.240
0.150,-0.205,-0.245
0.152,-0.095,-0.235
0.154,-0.115,-0.215
0.156,0.050,-0.190
0.158,0.125,-0.160
0.160,0.290,-0.130
0.162,0.315,-0.110
0.164,0.205,-0.100
0.166,0.035,-0.100
0.168,-0.035,-0.105
0.170,-0.080,-0.115
0.172,0.010,-0.125
0.174,0.080,-0.130
0.176,0.090,-0.130
0.178,0.195,-0.120
0.180,0.240,-0.100
0.182,0.270,-0.080
0.184,0.240,-0.065
0.186,0.105,-0.050
0.188,0.010,-0.050
0.190,0.035,-0.050
0.192,0.050,-0.065
0.194,0.005,-0.080
0.196,0.055,-0.100
0.198,0.145,-0.110
0.200,0.220,-0.120
0.202,0.180,-0.125
0.204,0.175,-0.120
0.206,0.140,-0.110
0.208,-0.005,-0.100
0.210,-0.015,-0.085
0.212,-0.025,-0.075
0.214,0.035,-0.070
0.216,0.080,-0.060
0.218,0.265,-0.055
0.220,0.305,-0.045
0.222,0.140,-0.040
0.224,0.235,-0.030
0.226,0.260,-0.020
0.228,0.135,-0.015
0.230,0.005,-0.010
0.232,0.035,-0.015
0.234,0.135,-0.020
0.236,0.065,-0.025
0.238,0.235,-0.030
0.240,0.355,-0.035
0.242,0.255,-0.040
0.244,0.195,-0.035
0.246,0.135,-0.025
0.248,0.015,-0.015
0.250,0.075,-0.005
0.252,0.100,0.005
0.254,0.085,0.010
0.256,0.125,0.015
0.258,0.345,0.020
0.260,0.350,0.025
0.262,0.295,0.030
0.264,0.210,0.035
0.266,0.160,0.045
0.268,0.090,0.055
0.270,0.185,0.065
0.272,0.135,0.070
0.274,0.195,0.065
0.276,0.245,0.050
0.278,0.250,0.030
0.280,0.255,0.010
0.282,0.270,-0.015
0.284,0.225,-0.035
0.286,0.010,-0.045
0.288,-0.010,-0.045
0.290,0.115,-0.045
0.292,0.045,-0.040
0.294,0.035,-0.035
0.296,0.065,-0.035
0.298,0.205,-0.040
0.300,0.195,-0.060
0.302,0.165,-0.085
0.304,0.060,-0.110
0.306,0.045,-0.135
0.308,-0.055,-0.150
0.310,-0.205,-0.160
0.312,-0.145,-0.160
0.314,-0.035,-0.150
0.316,0.030,-0.135
0.318,0.210,-0.120
0.320,0.270,-0.110
0.322,0.105,-0.110
0.324,0.085,-0.115
0.326,-0.060,-0.125
0.328,-0.110,-0.140
0.330,-0.175,-0.150
0.332,-0.175,-0.155
0.334,-0.040,-0.150
0.336,-0.015,-0.140
0.338,0.190,-0.125
0.340,0.295,-0.110
0.342,0.125,-0.095
0.344,-0.010,-0.085
0.346,0.005,-0.085
0.348,-0.015,-0.095
0.350,-0.070,-0.110
0.352,-0.140,-0.130
0.354,-0.065,-0.145
0.356,-0.030,-0.155
0.358,0.090,-0.160
0.360,0.035,-0.160
0.362,0.175,-0.145
0.364,0.065,-0.130
0.366,0.035,-0.115
0.368,-0.140,-0.100
0.370,-0.150,-0.095
0.372,-0.035,-0.095
0.374,0.000,-0.105
0.376,0.000,-0.120
0.378,0.155,-0.140
0.380,0.085,-0.155
0.382,-0.015,-0.165
0.384,0.015,-0.165
0.386,-0.055,-0.155
0.388,-0.135,-0.140
0.390,-0.105,-0.120
0.392,-0.085,-0.100
0.394,0.050,-0.080
0.396,0.085,-0.070
0.398,0.175,-0.065
0.400,0.170,-0.070
0.402,0.215,-0.075
0.404,0.025,-0.085
0.406,-0.025,-0.090
0.408,-0.160,-0.095
0.410,-0.115,-0.095
0.412,-0.085,-0.095
0.414,-0.015,-0.095
0.416,0.135,-0.100
0.418,0.180,-0.100
0.420,0.125,-0.105
0.422,0.100,-0.110
0.424,-0.020,-0.110
0.426,-0.075,-0.105
0.428,-0.180,-0.100
0.430,-0.180,-0.090
0.432,0.065,-0.080
0.434,0.065,-0.070
0.436,0.070,-0.065
0.438,0.235,-0.065
0.440,0.155,-0.070
0.442,0.135,-0.080
0.444,-0.070,-0.095
0.446,-0.100,-0.110
0.448,-0.160,-0.120
0.450,-0.160,-0.125
0.452,-0.005,-0.125
0.454,-0.060,-0.120
0.456,0.075,-0.120
0.458,0.185,-0.115
0.460,0.105,-0.120
0.462,0.100,-0.125
0.464,-0.170,-0.130
0.466,-0.125,-0.135
0.468,-0.145,-0.140
0.470,-0.155,-0.140
0.472,-0.150,-0.135
0.474,0.015,-0.130
0.476,0.025,-0.120
0.478,0.165,-0.110
0.480,0.115,-0.105
0.482,-0.005,-0.100
0.484,-0.005,-0.105
0.486,-0.095,-0.105
0.488,-0.215,-0.110
0.490,-0.150,-0.110
0.492,0.010,-0.110
0.494,-0.030,-0.105
0.496,0.055,-0.095
0.498,0.180,-0.085
0.500,0.220,-0.075
0.502,0.080,-0.060
0.504,0.015,-0.055
0.506,-0.105,-0.050
0.508,-0.110,-0.050
0.510,-0.105,-0.055
0.512,-0.015,-0.065
0.514,0.005,-0.075
0.516,0.045,-0.090
0.518,0.210,-0.100
0.520,0.075,-0.110
0.522,-0.010,-0.115
0.524,-0.080,-0.115
0.526,-0.150,-0.110
0.528,-0.095,-0.105
0.530,-0.140,-0.095
0.532,-0.095,-0.090
0.534,-0.125,-0.080
0.536,0.205,-0.075
0.538,0.160,-0.075
0.540,0.090,-0.075
0.542,-0.010,-0.085
0.544,-0.005,-0.090
0.546,-0.110,-0.100
0.548,-0.165,-0.110
0.550,-0.165,-0.115
0.552,-0.155,-0.120
0.554,-0.060,-0.125
0.556,0.025,-0.125
0.558,0.075,-0.125
0.560,0.065,-0.125
0.562,0.030,-0.120
0.564,0.115,-0.110
0.566,-0.180,-0.100
0.568,-0.215,-0.090
0.570,-0.095,-0.080
0.572,-0.110,-0.070
0.574,-0.040,-0.070
0.576,0.170,-0.070
0.578,0.180,-0.085
0.580,0.070,-0.100
0.582,-0.025,-0.125
0.584,-0.070,-0.140
0.586,-0.260,-0.155
0.588,-0.205,-0.160
0.590,-0.270,-0.150
0.592,-0.150,-0.130
0.594,-0.020,-0.105
0.596,0.230,-0.075
0.598,0.185,-0.050
0.600,0.140,-0.035
0.602,0.040,-0.030
0.604,-0.065,-0.035
0.606,-0.130,-0.045
0.608,-0.120,-0.055
0.610,-0.110,-0.065
0.612,-0.110,-0.070
0.614,0.090,-0.070
0.616,0.130,-0.060
0.618,0.175,-0.050
0.620,0.130,-0.045
0.622,-0.010,-0.035
0.624,-0.045,-0.035
0.626,-0.120,-0.040
0.628,-0.155,-0.050
0.630,-0.030,-0.060
0.632,-0.125,-0.065
0.634,0.055,-0.060
0.636,0.140,-0.055
0.638,0.185,-0.045
0.640,0.190,-0.030
0.642,0.125,-0.020
0.644,0.045,-0.010
0.646,-0.140,-0.010
0.648,-0.105,-0.015
0.650,-0.145,-0.030
0.652,-0.065,-0.040
0.654,0.015,-0.055
0.656,0.070,-0.065
0.658,0.070,-0.070
0.660,0.115,-0.075
0.662,0.015,-0.075
0.664,0.025,-0.080
0.666,-0.135,-0.090
0.668,-0.160,-0.100
0.670,-0.245,-0.115
0.672,-0.175,-0.135
0.674,-0.125,-0.145
0.676,0.005,-0.155
0.678,0.070,-0.150
0.680,0.070,-0.140
0.682,0.020,-0.125
0.684,-0.085,-0.110
0.686,-0.200,-0.095
0.688,-0.185,-0.085
0.690,-0.140,-0.085
0.692,-0.135,-0.090
0.694,-0.050,-0.105
0.696,-0.020,-0.115
0.698,0.025,-0.120
0.700,-0.025,-0.115
0.702,-0.010,-0.105
0.704,0.055,-0.080
0.706,-0.100,-0.050
0.708,-0.090,-0.025
0.710,-0.105,-0.010
0.712,-0.105,0.000
0.714,0.050,-0.010
0.716,0.075,-0.020
0.718,0.140,-0.030
0.720,0.180,-0.030
0.722,0.090,-0.005
0.724,-0.005,0.045
0.726,0.075,0.130
0.728,0.145,0.240
0.730,0.170,0.365
0.732,0.505,0.485
0.734,0.735,0.585
0.736,0.780,0.650
0.738,1.040,0.670
0.740,0.865,0.640
0.742,0.610,0.565
0.744,0.470,0.455
0.746,0.110,0.335
0.748,0.005,0.210
0.750,-0.065,0.100
0.752,-0.015,0.015
0.754,0.010,-0.045
0.756,0.025,-0.080
0.758,0.170,-0.095
0.760,0.080,-0.095
0.762,-0.045,-0.095
0.764,-0.230,-0.095
0.766,-0.275,-0.095
0.768,-0.185,-0.100
0.770,-0.105,-0.105
0.772,-0.025,-0.110
0.774,-0.085,-0.110
0.776,0.090,-0.105
0.778,0.005,-0.095
0.780,0.070,-0.085
0.782,-0.035,-0.080
0.784,-0.180,-0.075
0.786,-0.215,-0.075
0.788,-0.185,-0.080
0.790,-0.125,-0.090
0.792,-0.055,-0.095
0.794,0.080,-0.100
0.796,0.035,-0.095
0.798,0.040,-0.085
0.800,-0.015,-0.075
0.802,-0.115,-0.060
0.804,-0.110,-0.050
0.806,-0.150,-0.045
0.808,-0.130,-0.045
0.810,-0.160,-0.055
0.812,-0.005,-0.060
0.814,0.080,-0.070
0.816,0.175,-0.080
0.818,0.090,-0.080
0.820,-0.090,-0.075
0.822,-0.140,-0.065
0.824,-0.175,-0.055
0.826,-0.095,-0.045
0.828,-0.155,-0.045
0.830,-0.095,-0.045
0.832,-0.035,-0.055
0.834,0.035,-0.070
0.836,0.050,-0.090
0.838,-0.050,-0.100
0.840,-0.075,-0.105
0.842,-0.010,-0.105
0.844,-0.190,-0.100
0.846,-0.350,-0.090
0.848,-0.170,-0.075
0.850,-0.010,-0.070
0.852,-0.020,-0.065
0.854,0.065,-0.070
0.856,0.105,-0.075
0.858,0.105,-0.085
0.860,-0.150,-0.090
0.862,-0.165,-0.090
0.864,-0.170,-0.085
0.866,-0.110,-0.075
0.868,-0.095,-0.060
0.870,-0.255,-0.045
0.872,0.060,-0.035
0.874,0.215,-0.030
0.876,0.100,-0.030
0.878,0.005,-0.030
0.880,-0.020,-0.030
0.882,-0.035,-0.030
0.884,-0.220,-0.020
0.886,-0.080,-0.010
0.888,-0.095,0.005
0.890,0.060,0.015
0.892,0.105,0.020
0.894,0.035,0.020
0.896,0.060,0.005
0.898,0.145,-0.010
0.900,0.055,-0.035
0.902,0.025,-0.050
0.904,-0.300,-0.060
0.906,-0.290,-0.055
0.908,-0.115,-0.040
0.910,0.030,-0.015
0.912,0.125,0.015
0.914,0.180,0.045
0.916,0.190,0.075
0.918,0.175,0.090
0.920,0.165,0.095
0.922,0.025,0.090
0.924,-0.125,0.080
0.926,-0.060,0.065
0.928,0.040,0.055
0.930,0.015,0.045
0.932,0.040,0.040
0.934,0.105,0.040
0.936,0.190,0.040
0.938,0.145,0.045
0.940,0.120,0.045
0.942,0.020,0.050
0.944,-0.210,0.050
0.946,-0.015,0.050
0.948,-0.105,0.050
0.950,0.065,0.055
0.952,0.055,0.065
0.954,0.100,0.075
0.956,0.185,0.085
0.958,0.395,0.100
0.960,0.120,0.115
0.962,0.010,0.130
0.964,0.000,0.140
0.966,0.015,0.145
0.968,0.060,0.145
0.970,0.085,0.140
0.972,0.140,0.130
0.974,0.255,0.120
0.976,0.300,0.105
0.978,0.150,0.090
0.980,-0.010,0.080
0.982,0.150,0.070
0.984,-0.180,0.070
0.986,-0.175,0.075
0.988,0.055,0.085
0.990,0.155,0.100
0.992,0.160,0.115
0.994,0.340,0.125
0.996,0.200,0.130
0.998,0.120,0.130
1.000,0.020,0.120
1.002,0.030,0.105
1.004,0.015,0.085
1.006,-0.065,0.065
1.008,-0.010,0.050
1.010,0.000,0.035
1.012,0.075,0.030
1.014,0.165,0.030
1.016,0.235,0.030
1.018,0.045,0.035
1.020,-0.085,0.040
1.022,-0.090,0.045
1.024,-0.075,0.045
1.026,0.005,0.040
1.028,0.065,0.035
1.030,-0.085,0.030
1.032,-0.005,0.025
1.034,0.190,0.015
1.036,0.125,0.010
1.038,0.040,0.005
1.040,-0.085,-0.005
1.042,-0.115,-0.015
1.044,-0.185,-0.025
1.046,-0.215,-0.040
1.048,-0.130,-0.055
1.050,-0.045,-0.065
1.052,-0.045,-0.080
1.054,0.055,-0.085
1.056,-0.025,-0.085
1.058,-0.085,-0.080
1.060,-0.065,-0.070
1.062,-0.100,-0.060
1.064,-0.240,-0.045
1.066,-0.160,-0.030
1.068,-0.045,-0.015
1.070,0.035,-0.010
1.072,0.035,-0.005
1.074,0.030,-0.010
1.076,0.060,-0.015
1.078,-0.025,-0.025
1.080,-0.065,-0.035
1.082,-0.080,-0.045
1.084,-0.120,-0.045
1.086,-0.215,-0.045
1.088,-0.310,-0.035
1.090,-0.010,-0.030
1.092,0.065,-0.020
1.094,0.085,-0.010
1.096,0.145,-0.005
1.098,0.095,-0.005
1.100,-0.060,-0.010
1.102,-0.175,-0.020
1.104,-0.270,-0.030
1.106,-0.330,-0.040
1.108,-0.140,-0.050
1.110,-0.015,-0.050
1.112,0.055,-0.050
1.114,0.145,-0.045
1.116,0.175,-0.035
1.118,-0.020,-0.030
1.120,-0.105,-0.020
1.122,-0.235,-0.015
1.124,-0.195,-0.015
1.126,-0.230,-0.015
1.128,-0.105,-0.020
1.130,0.000,-0.025
1.132,0.165,-0.030
1.134,0.085,-0.035
1.136,-0.020,-0.035
1.138,-0.045,-0.040
1.140,-0.035,-0.035
1.142,-0.195,-0.035
1.144,-0.185,-0.030
1.146,-0.215,-0.025
1.148,-0.150,-0.020
1.150,0.015,-0.020
1.152,0.055,-0.015
1.154,0.200,-0.010
1.156,0.065,-0.010
1.158,0.025,-0.005
1.160,-0.120,-0.005
1.162,-0.165,-0.005
1.164,-0.215,-0.010
1.166,-0.180,-0.015
1.168,-0.050,-0.020
1.170,-0.010,-0.025
1.172,0.095,-0.025
1.174,0.135,-0.030
1.176,-0.160,-0.025
1.178,0.065,-0.020
1.180,-0.030,-0.015
1.182,-0.175,-0.010
1.184,-0.190,-0.010
1.186,-0.120,-0.015
1.188,-0.120,-0.030
1.190,-0.130,-0.050
1.192,0.115,-0.070
1.194,-0.030,-0.090
1.196,-0.095,-0.105
1.198,-0.105,-0.115
1.200,-0.160,-0.110
1.202,-0.290,-0.095
1.204,-0.245,-0.070
1.206,-0.100,-0.040
1.208,-0.115,-0.010
1.210,-0.060,0.015
1.212,0.200,0.035
1.214,0.080,0.040
1.216,0.065,0.035
1.218,0.150,0.025
1.220,-0.015,0.010
1.222,-0.200,-0.005
1.224,-0.220,-0.015
1.226,-0.330,-0.020
1.228,0.000,-0.015
1.230,-0.005,-0.010
1.232,0.035,0.000
1.234,0.155,0.010
1.236,0.135,0.015
1.238,-0.035,0.010
1.240,-0.145,-0.005
1.242,-0.220,-0.025
1.244,-0.235,-0.045
1.246,-0.245,-0.070
1.248,-0.135,-0.090
1.250,-0.090,-0.100
1.252,0.030,-0.105
1.254,0.065,-0.105
1.256,-0.035,-0.095
1.258,-0.175,-0.080
1.260,-0.225,-0.065
1.262,-0.365,-0.050
1.264,-0.165,-0.035
1.266,-0.090,-0.025
1.268,0.115,-0.015
1.270,-0.005,-0.005
1.272,0.055,0.000
1.274,0.085,0.005
1.276,0.060,0.005
1.278,-0.030,0.000
1.280,-0.150,-0.005
1.282,-0.220,-0.015
1.284,-0.165,-0.025
1.286,-0.090,-0.040
1.288,-0.095,-0.055
1.290,-0.135,-0.070
1.292,-0.015,-0.080
1.294,0.030,-0.080
1.296,0.030,-0.080
1.298,-0.090,-0.070
1.300,-0.190,-0.055
1.302,-0.260,-0.045
1.304,-0.140,-0.030
1.306,-0.100,-0.020
1.308,-0.145,-0.015
1.310,-0.045,-0.015
1.312,0.105,-0.010
1.314,0.125,-0.010
1.316,0.030,-0.005
1.318,0.000,0.000
1.320,-0.060,0.015
1.322,-0.125,0.030
1.324,-0.180,0.045
1.326,-0.065,0.055
1.328,-0.005,0.060
1.330,0.045,0.060
1.332,0.100,0.055
1.334,0.090,0.040
1.336,0.050,0.020
1.338,-0.125,-0.005
1.340,-0.040,-0.020
1.342,-0.200,-0.035
1.344,-0.235,-0.040
1.346,-0.165,-0.040
1.348,-0.130,-0.035
1.350,-0.020,-0.020
1.352,0.115,-0.010
1.354,-0.020,0.005
1.356,0.195,0.010
1.358,-0.095,0.010
1.360,-0.095,0.005
1.362,-0.155,-0.005
1.364,-0.140,-0.020
1.366,-0.225,-0.040
1.368,-0.090,-0.055
1.370,-0.110,-0.075
1.372,-0.065,-0.085
1.374,-0.075,-0.095
1.376,-0.090,-0.095
1.378,-0.045,-0.090
1.380,-0.130,-0.075
1.382,-0.175,-0.060
1.384,-0.270,-0.050
1.386,-0.190,-0.035
1.388,-0.120,-0.030
1.390,-0.060,-0.030
1.392,0.070,-0.035
1.394,0.080,-0.045
1.396,0.105,-0.060
1.398,-0.130,-0.070
1.400,-0.235,-0.080
1.402,-0.335,-0.080
1.404,-0.330,-0.075
1.406,-0.245,-0.060
1.408,-0.025,-0.035
1.410,0.055,0.000
1.412,0.155,0.035
1.414,0.180,0.075
1.416,0.145,0.125
1.418,0.185,0.175
1.420,0.090,0.240
1.422,0.010,0.310
1.424,0.260,0.385
1.426,0.310,0.470
1.428,0.445,0.550
1.430,0.695,0.615
1.432,0.755,0.655
1.434,0.945,0.665
1.436,0.705,0.635
1.438,0.560,0.570
1.440,0.340,0.465
1.442,0.055,0.335
1.444,-0.155,0.195
1.446,-0.205,0.065
1.448,-0.130,-0.040
1.450,0.075,-0.120
1.452,-0.210,-0.155
1.454,-0.010,-0.160
1.456,-0.050,-0.135
1.458,-0.060,-0.100
1.460,-0.190,-0.060
1.462,-0.365,-0.030
1.464,-0.225,-0.020
1.466,-0.105,-0.025
1.468,-0.065,-0.040
1.470,-0.140,-0.065
1.472,0.020,-0.085
1.474,0.090,-0.100
1.476,-0.145,-0.095
1.478,-0.100,-0.080
1.480,-0.145,-0.060
1.482,-0.260,-0.030
1.484,-0.225,-0.010
1.486,-0.100,0.005
1.488,-0.085,0.010
1.490,0.010,0.000
1.492,0.070,-0.010
1.494,0.020,-0.025
1.496,0.055,-0.040
1.498,-0.190,-0.045
1.500,-0.230,-0.045
1.502,-0.155,-0.045
1.504,-0.250,-0.040
1.506,-0.035,-0.045
1.508,-0.205,-0.050
1.510,0.085,-0.065
1.512,-0.095,-0.080
1.514,-0.210,-0.095
1.516,-0.070,-0.100
1.518,-0.160,-0.100
1.520,-0.230,-0.080
1.522,-0.175,-0.055
1.524,-0.060,-0.020
1.526,0.000,0.010
1.528,-0.190,0.035
1.530,0.060,0.050
1.532,0.075,0.050
1.534,0.135,0.035
1.536,0.070,0.015
1.538,-0.070,-0.010
1.540,-0.280,-0.030
1.542,-0.260,-0.045
1.544,-0.220,-0.050
1.546,-0.130,-0.045
1.548,-0.045,-0.030
1.550,0.185,-0.010
1.552,0.015,0.005
1.554,0.110,0.020
1.556,0.045,0.030
1.558,-0.095,0.035
1.560,-0.210,0.035
1.562,-0.315,0.030
1.564,-0.065,0.025
1.566,-0.060,0.025
1.568,0.010,0.020
1.570,0.080,0.020
1.572,0.140,0.020
1.574,0.070,0.025
1.576,-0.060,0.025
1.578,-0.045,0.030
1.580,-0.220,0.030
1.582,-0.325,0.030
1.584,0.015,0.025
1.586,-0.015,0.025
1.588,-0.015,0.020
1.590,0.040,0.020
1.592,0.085,0.025
1.594,0.015,0.035
1.596,-0.090,0.045
1.598,0.115,0.055
1.600,-0.075,0.065
1.602,-0.275,0.075
1.604,-0.050,0.080
1.606,-0.010,0.075
1.608,0.110,0.070
1.610,0.175,0.060
1.612,0.050,0.050
1.614,-0.055,0.045
1.616,0.035,0.045
1.618,-0.040,0.050
1.620,0.035,0.060
1.622,-0.200,0.070
1.624,-0.045,0.085
1.626,0.050,0.095
1.628,0.000,0.100
1.630,0.175,0.105
1.632,0.315,0.105
1.634,0.060,0.105
1.636,0.060,0.110
1.638,-0.020,0.115
1.640,-0.100,0.125
1.642,-0.080,0.140
1.644,0.125,0.155
1.646,0.050,0.170
1.648,0.125,0.185
1.650,0.270,0.195
1.652,0.335,0.195
1.654,0.250,0.195
1.656,0.140,0.190
1.658,0.000,0.185
1.660,-0.135,0.180
1.662,-0.045,0.175
1.664,0.150,0.170
1.666,0.150,0.170
1.668,0.110,0.170
1.670,0.265,0.170
1.672,0.255,0.170
1.674,0.110,0.170
1.676,0.115,0.165
1.678,0.015,0.160
1.680,0.010,0.160
1.682,-0.120,0.160
1.684,0.080,0.160
1.686,0.150,0.165
1.688,0.240,0.165
1.690,0.160,0.170
1.692,0.150,0.165
1.694,0.220,0.155
1.696,0.070,0.140
1.698,-0.050,0.115
1.700,-0.065,0.090
1.702,-0.170,0.060
1.704,-0.045,0.040
1.706,-0.010,0.025
1.708,-0.005,0.020
1.710,0.090,0.025
1.712,-0.020,0.045
1.714,0.045,0.070
1.716,0.100,0.095
1.718,0.125,0.115
1.720,-0.010,0.125
1.722,-0.090,0.130
1.724,-0.015,0.120
1.726,-0.025,0.105
1.728,0.050,0.080
1.730,0.195,0.060
1.732,0.115,0.040
1.734,0.025,0.025
1.736,-0.080,0.015
1.738,-0.165,0.010
1.740,-0.115,0.010
1.742,-0.135,0.005
1.744,-0.230,0.005
1.746,-0.025,-0.005
1.748,0.010,-0.015
1.750,0.075,-0.025
1.752,0.040,-0.035
1.754,-0.105,-0.045
1.756,-0.145,-0.045
1.758,-0.155,-0.045
1.760,-0.225,-0.040
1.762,-0.170,-0.035
1.764,-0.080,-0.025
1.766,-0.080,-0.020
1.768,0.020,-0.015
1.770,-0.005,-0.015
1.772,0.010,-0.010
1.774,0.045,-0.005
1.776,-0.025,0.000
1.778,-0.265,0.010
1.780,-0.090,0.015
1.782,-0.140,0.025
1.784,-0.035,0.030
1.786,-0.025,0.030
1.788,0.015,0.025
1.790,0.045,0.015
1.792,-0.015,0.005
1.794,-0.085,-0.005
1.796,0.080,-0.015
1.798,-0.245,-0.020
1.800,-0.145,-0.020
1.802,-0.180,-0.020
1.804,-0.130,-0.015
1.806,-0.050,-0.010
1.808,0.095,-0.005
1.810,0.075,-0.005
1.812,-0.065,-0.005
1.814,0.000,-0.010
1.816,0.070,-0.010
1.818,-0.225,-0.010
1.820,-0.250,-0.010
1.822,-0.310,0.000
1.824,-0.070,0.010
1.826,0.160,0.025
1.828,0.075,0.035
1.830,0.070,0.045
1.832,0.130,0.050
1.834,0.005,0.045
1.836,-0.080,0.040
1.838,-0.150,0.030
1.840,-0.135,0.015
1.842,-0.115,0.005
1.844,-0.140,-0.005
1.846,-0.195,-0.005
1.848,0.110,-0.005
1.850,0.095,-0.005
1.852,0.070,0.000
1.854,0.010,0.010
1.856,-0.050,0.010
1.858,-0.075,0.015
1.860,-0.150,0.010
1.862,-0.205,0.005
1.864,-0.155,0.000
1.866,-0.035,-0.010
1.868,0.025,-0.020
1.870,0.060,-0.025
1.872,0.075,-0.030
1.874,0.005,-0.030
1.876,-0.025,-0.025
1.878,-0.255,-0.020
1.880,-0.200,-0.010
1.882,-0.195,-0.005
1.884,-0.095,0.000
1.886,-0.140,0.000
1.888,0.155,-0.005
1.890,0.100,-0.015
1.892,-0.075,-0.030
1.894,0.075,-0.040
1.896,0.025,-0.055
1.898,-0.335,-0.060
1.900,-0.355,-0.060
1.902,-0.220,-0.055
1.904,-0.110,-0.045
1.906,0.040,-0.035
1.908,0.135,-0.025
1.910,0.065,-0.020
1.912,0.015,-0.020
1.914,-0.110,-0.025
1.916,-0.140,-0.035
1.918,-0.140,-0.045
1.920,-0.335,-0.055
1.922,-0.175,-0.060
1.924,-0.085,-0.060
1.926,-0.070,-0.055
1.928,0.060,-0.045
1.930,0.050,-0.025
1.932,0.095,-0.010
1.934,0.035,0.010
1.936,-0.140,0.025
1.938,-0.245,0.035
1.940,-0.090,0.040
1.942,-0.080,0.035
1.944,-0.085,0.025
1.946,-0.030,0.005
1.948,0.160,-0.015
1.950,0.130,-0.040
1.952,-0.135,-0.065
1.954,-0.135,-0.080
1.956,-0.200,-0.090
1.958,-0.205,-0.095
1.960,-0.260,-0.085
1.962,-0.195,-0.065
1.964,-0.100,-0.040
1.966,0.065,-0.015
1.968,0.010,0.015
1.970,0.160,0.040
1.972,0.190,0.060
1.974,0.030,0.070
1.976,0.010,0.075
1.978,-0.140,0.070
1.980,-0.225,0.060
1.982,-0.035,0.050
1.984,0.075,0.035
1.986,-0.005,0.020
1.988,0.145,0.010
1.990,0.060,0.000
1.992,0.130,-0.005
1.994,-0.115,0.000
1.996,-0.140,0.005
1.998,-0.225,0.010
2.000,-0.120,0.015
2.002,-0.005,0.020
2.004,-0.020,0.020
2.006,0.110,0.015
2.008,0.035,-0.005
2.010,0.045,-0.030
2.012,-0.035,-0.060
2.014,-0.090,-0.090
2.016,-0.230,-0.120
2.018,-0.355,-0.135
2.020,-0.340,-0.145
2.022,-0.250,-0.140
2.024,-0.205,-0.120
2.026,-0.025,-0.095
2.028,0.085,-0.065
2.030,0.110,-0.035
2.032,0.035,-0.015
2.034,-0.015,0.000
2.036,-0.085,0.000
2.038,-0.255,-0.005
2.040,-0.185,-0.020
2.042,-0.180,-0.035
2.044,0.030,-0.050
2.046,-0.105,-0.060
2.048,0.050,-0.070
2.050,0.045,-0.070
2.052,0.020,-0.070
2.054,-0.215,-0.070
2.056,-0.160,-0.070
2.058,-0.245,-0.075
2.060,-0.205,-0.080
2.062,-0.220,-0.080
2.064,-0.195,-0.080
2.066,0.075,-0.075
2.068,0.025,-0.060
2.070,0.025,-0.040
2.072,-0.105,-0.015
2.074,0.010,0.020
2.076,-0.115,0.060
2.078,-0.065,0.105
2.080,0.125,0.160
2.082,0.190,0.225
2.084,0.270,0.295
2.086,0.385,0.375
2.088,0.595,0.460
2.090,0.585,0.540
2.092,0.690,0.610
2.094,0.690,0.655
2.096,0.545,0.665
2.098,0.565,0.635
2.100,0.460,0.565
2.102,0.365,0.460
2.104,0.325,0.325
2.106,0.235,0.180
2.108,-0.010,0.045
2.110,-0.140,-0.070
2.112,-0.120,-0.155
2.114,-0.105,-0.200
2.116,-0.335,-0.205
2.118,-0.410,-0.185
2.120,-0.375,-0.145
2.122,-0.130,-0.100
2.124,0.005,-0.060
2.126,0.160,-0.035
2.128,0.020,-0.020
2.130,0.000,-0.020
2.132,-0.005,-0.030
2.134,-0.095,-0.045
2.136,-0.275,-0.060
2.138,-0.180,-0.070
2.140,-0.220,-0.075
2.142,-0.115,-0.085
2.144,-0.100,-0.085
2.146,0.015,-0.090
2.148,0.070,-0.090
2.150,0.025,-0.090
2.152,-0.155,-0.080
2.154,-0.190,-0.070
2.156,-0.285,-0.055
2.158,-0.150,-0.035
2.160,-0.035,-0.015
2.162,-0.035,0.000
2.164,0.040,0.010
2.166,0.120,0.005
2.168,0.035,-0.010
2.170,-0.015,-0.030
2.172,-0.035,-0.060
2.174,-0.140,-0.085
2.176,-0.275,-0.110
2.178,-0.290,-0.125
2.180,-0.250,-0.130
2.182,-0.160,-0.125
2.184,0.030,-0.115
2.186,-0.035,-0.105
2.188,-0.090,-0.090
2.190,0.020,-0.080
2.192,-0.055,-0.075
2.194,-0.105,-0.070
2.196,-0.190,-0.075
2.198,-0.200,-0.075
2.200,-0.280,-0.075
2.202,-0.175,-0.075
2.204,-0.015,-0.070
2.206,0.050,-0.065
2.208,0.310,-0.055
2.210,-0.020,-0.045
2.212,-0.050,-0.040
2.214,-0.215,-0.030
2.216,-0.240,-0.030
2.218,-0.150,-0.030
2.220,-0.160,-0.035
2.222,-0.055,-0.040
2.224,0.080,-0.045
2.226,0.095,-0.045
2.228,0.110,-0.050
2.230,-0.025,-0.045
2.232,-0.115,-0.035
2.234,-0.065,-0.025
2.236,-0.200,-0.010
2.238,-0.140,0.000
2.240,-0.085,0.005
2.242,-0.005,0.010
2.244,0.060,0.005
2.246,0.105,-0.005
2.248,0.085,-0.020
2.250,-0.045,-0.035
2.252,-0.035,-0.040
2.254,-0.205,-0.045
2.256,-0.185,-0.045
2.258,-0.220,-0.035
2.260,-0.125,-0.025
2.262,0.155,-0.015
2.264,0.075,-0.005
2.266,0.110,0.000
2.268,0.050,0.000
2.270,-0.030,-0.005
2.272,-0.085,-0.005
2.274,-0.075,-0.010
2.276,-0.150,-0.005
2.278,-0.085,0.005
2.280,0.005,0.015
2.282,0.020,0.025
2.284,0.080,0.040
2.286,0.200,0.045
2.288,0.070,0.045
2.290,0.130,0.040
2.292,-0.030,0.030
2.294,-0.035,0.025
2.296,-0.180,0.020
2.298,-0.130,0.025
2.300,-0.025,0.035
2.302,0.135,0.050
2.304,0.125,0.070
2.306,0.185,0.090
2.308,0.235,0.110
2.310,0.150,0.120
2.312,0.215,0.120
2.314,-0.090,0.115
2.316,-0.075,0.110
2.318,0.000,0.100
2.320,0.050,0.095
2.322,-0.010,0.090
2.324,0.205,0.090
2.326,0.200,0.090
2.328,0.215,0.085
2.330,0.145,0.080
2.332,0.125,0.075
2.334,-0.095,0.065
2.336,-0.185,0.055
2.338,-0.125,0.045
2.340,-0.055,0.040
2.342,0.005,0.040
2.344,0.140,0.050
2.346,0.270,0.065
2.348,0.305,0.085
2.350,0.175,0.105
2.352,0.015,0.120
2.354,-0.105,0.130
2.356,-0.020,0.130
2.358,0.020,0.130
2.360,0.045,0.120
2.362,0.075,0.105
2.364,0.245,0.090
2.366,0.260,0.075
2.368,0.175,0.060
2.370,-0.020,0.045
2.372,0.010,0.030
2.374,-0.175,0.015
2.376,-0.175,0.000
2.378,-0.140,-0.010
2.380,-0.025,-0.015
2.382,-0.005,-0.020
2.384,0.115,-0.025
2.386,0.095,-0.025
2.388,0.120,-0.030
2.390,-0.100,-0.030
2.392,-0.060,-0.040
2.394,-0.225,-0.045
2.396,-0.180,-0.055
2.398,-0.130,-0.065
2.400,-0.120,-0.070
2.402,-0.120,-0.075
2.404,0.050,-0.070
2.406,0.080,-0.065
2.408,0.020,-0.055
2.410,-0.015,-0.040
2.412,0.025,-0.030
2.414,-0.190,-0.025
2.416,-0.190,-0.025
2.418,-0.210,-0.030
2.420,-0.035,-0.040
2.422,-0.055,-0.060
2.424,0.095,-0.075
2.426,0.015,-0.090
2.428,-0.070,-0.100
2.430,-0.070,-0.105
2.432,-0.130,-0.105
2.434,-0.300,-0.100
2.436,-0.165,-0.095
2.438,-0.255,-0.085
2.440,-0.140,-0.075
2.442,-0.020,-0.070
2.444,0.215,-0.065
2.446,0.085,-0.065
2.448,-0.135,-0.065
2.450,-0.040,-0.070
2.452,-0.225,-0.075
2.454,-0.180,-0.075
2.456,-0.195,-0.080
2.458,-0.195,-0.080
2.460,-0.150,-0.085
2.462,-0.050,-0.085
2.464,0.095,-0.085
2.466,0.020,-0.085
2.468,-0.070,-0.085
2.470,-0.015,-0.090
2.472,-0.100,-0.095
2.474,-0.290,-0.100
2.476,-0.260,-0.110
2.478,-0.220,-0.115
2.480,-0.170,-0.125
2.482,-0.055,-0.125
2.484,0.030,-0.125
2.486,0.020,-0.115
2.488,-0.015,-0.100
2.490,-0.095,-0.075
2.492,-0.085,-0.055
2.494,-0.235,-0.030
2.496,-0.115,-0.015
2.498,-0.120,-0.005
2.500,-0.010,0.000
2.502,0.150,-0.005
2.504,0.070,-0.020
2.506,0.060,-0.035
2.508,-0.045,-0.050
2.510,-0.135,-0.065
2.512,-0.080,-0.075
2.514,-0.285,-0.080
2.516,-0.255,-0.080
2.518,-0.100,-0.075
2.520,0.020,-0.070
2.522,0.010,-0.070
2.524,0.045,-0.070
2.526,-0.005,-0.070
2.528,-0.075,-0.075
2.530,-0.140,-0.080
2.532,-0.100,-0.085
2.534,-0.230,-0.085
2.536,-0.240,-0.085
2.538,-0.145,-0.075
2.540,-0.015,-0.065
2.542,0.030,-0.055
2.544,0.045,-0.040
2.546,0.060,-0.035
2.548,0.050,-0.030
2.550,-0.075,-0.035
2.552,-0.155,-0.045
2.554,-0.280,-0.060
2.556,-0.115,-0.075
2.558,-0.185,-0.090
2.560,-0.130,-0.105
2.562,-0.030,-0.115
2.564,0.030,-0.120
2.566,-0.005,-0.120
2.568,-0.130,-0.115
2.570,-0.125,-0.105
2.572,-0.180,-0.100
2.574,-0.230,-0.090
2.576,-0.190,-0.085
2.578,-0.175,-0.080
2.580,-0.070,-0.080
2.582,0.000,-0.080
2.584,0.045,-0.080
2.586,0.080,-0.080
2.588,-0.055,-0.075
2.590,-0.160,-0.065
2.592,-0.145,-0.060
2.594,-0.150,-0.050
2.596,-0.180,-0.045
2.598,-0.140,-0.045
2.600,0.010,-0.050
2.602,0.000,-0.065
2.604,-0.010,-0.080
2.606,0.025,-0.095
2.608,-0.095,-0.115
2.610,-0.125,-0.125
2.612,-0.230,-0.130
2.614,-0.250,-0.125
2.616,-0.310,-0.110
2.618,-0.095,-0.095
2.620,-0.110,-0.075
2.622,-0.005,-0.055
2.624,0.150,-0.040
2.626,0.115,-0.030
2.628,0.015,-0.025
2.630,-0.065,-0.025
2.632,-0.250,-0.030
2.634,-0.155,-0.035
2.636,-0.105,-0.040
2.638,-0.005,-0.040
2.640,-0.005,-0.035
2.642,-0.020,-0.030
2.644,0.030,-0.020
2.646,0.085,-0.005
2.648,0.140,0.005
2.650,0.015,0.015
2.652,-0.110,0.015
2.654,-0.145,0.010
2.656,-0.165,0.000
2.658,-0.055,-0.020
2.660,-0.020,-0.040
2.662,0.070,-0.060
2.664,-0.010,-0.080
2.666,-0.065,-0.100
2.668,-0.070,-0.105
2.670,-0.085,-0.110
2.672,-0.190,-0.100
2.674,-0.205,-0.090
2.676,-0.245,-0.075
2.678,-0.140,-0.065
2.680,-0.110,-0.055
2.682,0.100,-0.055
2.684,0.105,-0.060
2.686,0.065,-0.070
2.688,-0.145,-0.085
2.690,-0.145,-0.100
2.692,-0.285,-0.110
2.694,-0.245,-0.115
2.696,-0.215,-0.110
2.698,-0.085,-0.095
2.700,0.025,-0.075
2.702,0.040,-0.060
2.704,0.090,-0.040
2.706,0.075,-0.030
2.708,-0.050,-0.030
2.710,-0.150,-0.040
2.712,-0.280,-0.060
2.714,-0.190,-0.080
2.716,-0.145,-0.100
2.718,-0.190,-0.115
2.720,-0.130,-0.120
2.722,0.015,-0.115
2.724,0.035,-0.105
2.726,-0.020,-0.085
2.728,-0.055,-0.065
2.730,-0.190,-0.045
2.732,-0.195,-0.020
2.734,-0.110,0.005
2.736,0.000,0.040
2.738,0.110,0.080
2.740,0.215,0.145
2.742,0.365,0.225
2.744,0.435,0.320
2.746,0.520,0.425
2.748,0.505,0.525
2.750,0.440,0.605
2.752,0.590,0.655
2.754,0.640,0.665
2.756,0.645,0.630
2.758,0.580,0.550
2.760,0.560,0.440
2.762,0.450,0.305
2.764,0.000,0.170
2.766,-0.050,0.050
2.768,-0.125,-0.045
2.770,-0.115,-0.105
2.772,-0.250,-0.130
2.774,-0.200,-0.125
2.776,-0.120,-0.105
2.778,-0.095,-0.080
2.780,-0.050,-0.055
2.782,0.045,-0.040
2.784,0.105,-0.035
2.786,-0.065,-0.040
2.788,-0.105,-0.055
2.790,-0.065,-0.070
2.792,-0.195,-0.080
2.794,-0.185,-0.085
2.796,-0.195,-0.085
2.798,-0.095,-0.080
2.800,0.030,-0.075
2.802,0.090,-0.070
2.804,-0.030,-0.070
2.806,-0.095,-0.075
2.808,-0.075,-0.090
2.810,-0.210,-0.100
2.812,-0.270,-0.110
2.814,-0.300,-0.115
2.816,-0.180,-0.115
2.818,-0.105,-0.110
2.820,0.000,-0.100
2.822,0.050,-0.090
2.824,-0.045,-0.075
2.826,-0.015,-0.065
2.828,-0.005,-0.055
2.830,-0.110,-0.050
2.832,-0.130,-0.050
2.834,-0.270,-0.050
2.836,-0.240,-0.055
2.838,-0.175,-0.060
2.840,0.050,-0.065
2.842,0.175,-0.070
2.844,0.015,-0.070
2.846,-0.005,-0.070
2.848,-0.075,-0.065
2.850,-0.120,-0.060
2.852,-0.250,-0.055
2.854,-0.155,-0.045
2.856,-0.105,-0.035
2.858,0.020,-0.030
2.860,-0.040,-0.025
2.862,0.040,-0.020
2.864,0.110,-0.015
2.866,0.115,-0.015
2.868,0.010,-0.020
2.870,-0.120,-0.020
2.872,-0.185,-0.020
2.874,-0.175,-0.020
2.876,-0.090,-0.020
2.878,-0.055,-0.020
2.880,-0.015,-0.015
2.882,0.140,-0.020
2.884,0.075,-0.025
2.886,-0.005,-0.030
2.888,-0.110,-0.045
2.890,-0.140,-0.055
2.892,-0.190,-0.070
2.894,-0.250,-0.080
2.896,-0.185,-0.085
2.898,-0.085,-0.080
2.900,0.035,-0.070
2.902,0.045,-0.055
2.904,0.075,-0.035
2.906,0.025,-0.015
2.908,-0.070,0.000
2.910,-0.025,0.010
2.912,-0.015,0.020
2.914,-0.210,0.020
2.916,-0.100,0.015
2.918,-0.050,0.010
2.920,0.110,0.005
2.922,0.165,0.000
2.924,0.045,-0.005
2.926,-0.060,-0.005
2.928,-0.005,0.000
2.930,-0.105,0.000
2.932,-0.165,0.005
2.934,-0.140,0.005
2.936,-0.025,0.010
2.938,0.010,0.015
2.940,0.115,0.020
2.942,0.200,0.030
2.944,0.075,0.045
2.946,-0.010,0.060
2.948,0.095,0.080
2.950,-0.025,0.090
2.952,-0.015,0.095
2.954,-0.060,0.100
2.956,-0.005,0.095
2.958,0.030,0.085
2.960,0.160,0.080
2.962,0.195,0.070
2.964,0.125,0.070
2.966,0.180,0.070
2.968,0.055,0.075
2.970,-0.195,0.080
2.972,-0.090,0.080
2.974,-0.015,0.085
2.976,-0.010,0.080
2.978,0.200,0.080
2.980,0.195,0.075
2.982,0.110,0.075
2.984,0.060,0.080
2.986,0.110,0.090
2.988,0.045,0.105
2.990,0.040,0.120
2.992,-0.055,0.130
2.994,0.100,0.140
2.996,0.080,0.135
2.998,0.130,0.130
3.000,0.140,0.115
3.002,0.210,0.095
3.004,0.075,0.085
3.006,0.095,0.080
3.008,0.000,0.080
3.010,-0.100,0.090
3.012,0.040,0.105
3.014,0.015,0.120
3.016,0.115,0.125
3.018,0.090,0.125
3.020,0.195,0.110
3.022,0.195,0.090
3.024,0.065,0.060
3.026,0.035,0.035
3.028,-0.010,0.015
3.030,-0.160,0.005
3.032,-0.090,0.005
3.034,-0.145,0.015
3.036,-0.065,0.030
3.038,0.120,0.045
3.040,0.155,0.050
3.042,0.140,0.050
3.044,0.005,0.035
3.046,0.005,0.010
3.048,-0.090,-0.015
3.050,-0.175,-0.045
3.052,-0.190,-0.065
3.054,-0.255,-0.080
3.056,-0.180,-0.080
3.058,-0.120,-0.070
3.060,0.100,-0.055
3.062,0.060,-0.035
3.064,0.060,-0.020
3.066,0.035,-0.010
3.068,-0.070,-0.005
3.070,-0.200,-0.010
3.072,-0.110,-0.020
3.074,-0.205,-0.030
3.076,-0.095,-0.035
3.078,-0.110,-0.040
3.080,0.040,-0.040
3.082,0.070,-0.035
3.084,0.085,-0.030
3.086,0.015,-0.025
3.088,-0.020,-0.025
3.090,-0.245,-0.025
3.092,-0.225,-0.035
3.094,-0.165,-0.040
3.096,-0.095,-0.050
3.098,-0.075,-0.060
3.100,0.030,-0.065
3.102,0.095,-0.065
3.104,0.050,-0.065
3.106,-0.125,-0.060
3.108,-0.120,-0.050
3.110,-0.195,-0.040
3.112,-0.350,-0.035
3.114,-0.170,-0.030
3.116,-0.035,-0.025
3.118,0.045,-0.025
3.120,0.095,-0.025
3.122,0.075,-0.025
3.124,0.035,-0.030
3.126,-0.035,-0.030
3.128,-0.155,-0.030
3.130,-0.210,-0.035
3.132,-0.255,-0.040
3.134,-0.175,-0.045
3.136,-0.020,-0.055
3.138,-0.010,-0.060
3.140,0.005,-0.070
3.142,0.005,-0.075
3.144,0.045,-0.080
3.146,-0.150,-0.075
3.148,-0.230,-0.065
3.150,-0.275,-0.050
3.152,-0.160,-0.035
3.154,-0.110,-0.020
3.156,-0.040,-0.005
3.158,-0.005,0.005
3.160,0.240,0.010
3.162,0.015,0.005
3.164,-0.105,-0.005
3.166,0.010,-0.015
3.168,0.025,-0.025
3.170,-0.305,-0.030
3.172,-0.200,-0.035
3.174,-0.095,-0.035
3.176,-0.005,-0.035
3.178,-0.020,-0.030
3.180,0.075,-0.030
3.182,0.045,-0.030
3.184,-0.105,-0.030
3.186,-0.060,-0.035
3.188,-0.120,-0.040
3.190,-0.225,-0.045
3.192,-0.230,-0.050
3.194,-0.230,-0.050
3.196,-0.095,-0.045
3.198,-0.035,-0.040
3.200,0.165,-0.030
3.202,0.175,-0.020
3.204,0.010,-0.015
3.206,-0.025,-0.015
3.208,-0.210,-0.015
3.210,-0.295,-0.020
3.212,-0.220,-0.030
3.214,-0.085,-0.040
3.216,-0.100,-0.050
3.218,0.095,-0.055
3.220,0.090,-0.065
3.222,-0.015,-0.065
3.224,-0.090,-0.060
3.226,-0.175,-0.050
3.228,-0.210,-0.040
3.230,-0.170,-0.025
3.232,-0.150,-0.015
3.234,-0.005,0.000
3.236,0.010,0.005
3.238,0.085,0.010
3.240,0.080,0.010
3.242,0.090,0.010
3.244,-0.075,0.005
3.246,-0.045,0.005
3.248,-0.130,0.005
3.250,-0.170,0.005
3.252,-0.120,0.010
3.254,-0.070,0.015
3.256,-0.090,0.020
3.258,0.170,0.025
3.260,0.140,0.025
3.262,0.015,0.030
3.264,0.010,0.025
3.266,0.055,0.025
3.268,-0.145,0.020
3.270,-0.140,0.015
3.272,-0.165,0.005
3.274,-0.065,-0.005
3.276,0.040,-0.015
3.278,0.000,-0.025
3.280,0.080,-0.035
3.282,-0.040,-0.045
3.284,-0.040,-0.055
3.286,-0.125,-0.065
3.288,-0.175,-0.070
3.290,-0.325,-0.075
3.292,-0.215,-0.080
3.294,-0.075,-0.080
3.296,-0.100,-0.085
3.298,-0.065,-0.085
3.300,0.010,-0.085
3.302,0.000,-0.080
3.304,-0.040,-0.075
3.306,-0.140,-0.070
3.308,-0.225,-0.060
3.310,-0.225,-0.050
3.312,-0.210,-0.040
3.314,-0.105,-0.035
3.316,-0.025,-0.030
3.318,0.160,-0.025
3.320,0.205,-0.030
3.322,-0.005,-0.030
3.324,-0.060,-0.035
3.326,-0.130,-0.035
3.328,-0.400,-0.035
3.330,-0.115,-0.035
3.332,-0.140,-0.030
3.334,-0.135,-0.030
3.336,0.025,-0.030
3.338,0.080,-0.035
3.340,0.035,-0.040
3.342,-0.070,-0.040
3.344,-0.065,-0.040
3.346,-0.095,-0.030
3.348,-0.185,-0.010
3.350,-0.100,0.025
3.352,-0.210,0.075
3.354,0.190,0.145
3.356,0.170,0.220
3.358,0.425,0.305
3.360,0.545,0.395
3.362,0.500,0.470
3.364,0.460,0.535
3.366,0.620,0.580
3.368,0.420,0.595
3.370,0.510,0.575
3.372,0.375,0.525
3.374,0.475,0.445
3.376,0.355,0.340
3.378,0.280,0.225
3.380,0.100,0.105
3.382,-0.070,0.000
3.384,-0.165,-0.090
3.386,-0.195,-0.150
3.388,-0.405,-0.180
3.390,-0.280,-0.180
3.392,-0.210,-0.160
3.394,-0.110,-0.125
3.396,-0.180,-0.085
3.398,0.030,-0.055
3.400,0.010,-0.030
3.402,0.040,-0.020
3.404,-0.045,-0.025
3.406,-0.060,-0.035
3.408,-0.265,-0.050
3.410,-0.215,-0.065
3.412,-0.100,-0.070
3.414,-0.180,-0.070
3.416,-0.120,-0.065
3.418,0.105,-0.050
3.420,0.100,-0.040
3.422,0.105,-0.025
3.424,-0.095,-0.020
3.426,-0.225,-0.015
3.428,-0.145,-0.015
3.430,-0.205,-0.020
3.432,-0.175,-0.025
3.434,-0.025,-0.030
3.436,-0.045,-0.030
3.438,0.080,-0.035
3.440,0.050,-0.040
3.442,0.025,-0.045
3.444,-0.105,-0.050
3.446,-0.125,-0.055
3.448,-0.165,-0.055
3.450,-0.280,-0.055
3.452,-0.260,-0.050
3.454,-0.055,-0.045
3.456,-0.025,-0.035
3.458,0.015,-0.025
3.460,0.190,-0.010
3.462,-0.025,-0.005
3.464,-0.005,0.000
3.466,-0.100,-0.005
3.468,-0.180,-0.010
3.470,-0.190,-0.020
3.472,-0.185,-0.030
3.474,-0.015,-0.035
3.476,-0.050,-0.040
3.478,-0.015,-0.045
3.480,0.030,-0.040
3.482,0.065,-0.030
3.484,-0.010,-0.020
3.486,-0.145,-0.010
3.488,-0.220,0.000
3.490,-0.150,0.000
3.492,-0.080,0.000
3.494,-0.035,-0.005
3.496,-0.035,-0.010
3.498,0.145,-0.020
3.500,0.010,-0.025
3.502,-0.040,-0.025
3.504,-0.060,-0.025
3.506,-0.110,-0.020
3.508,-0.105,-0.010
3.510,-0.090,0.000
3.512,-0.135,0.005
3.514,-0.035,0.010
3.516,0.065,0.010
3.518,0.155,0.010
3.520,0.010,0.005
3.522,0.020,0.000
3.524,0.030,0.000
3.526,-0.090,0.005
3.528,-0.250,0.015
3.530,-0.105,0.030
3.532,-0.005,0.040
3.534,0.015,0.050
3.536,0.130,0.055
3.538,0.105,0.050
3.540,0.145,0.040
3.542,0.040,0.030
3.544,-0.060,0.020
3.546,-0.105,0.010
3.548,-0.160,0.005
3.550,-0.120,0.010
3.552,-0.065,0.020
3.554,-0.045,0.035
3.556,0.135,0.055
3.558,0.170,0.070
3.560,0.235,0.080
3.562,0.060,0.085
3.564,0.010,0.090
3.566,-0.080,0.090
3.568,-0.035,0.090
3.570,-0.015,0.090
3.572,0.070,0.095
3.574,0.105,0.105
3.576,0.110,0.120
3.578,0.120,0.130
3.580,0.200,0.135
3.582,0.250,0.140
3.584,0.105,0.135
3.586,0.005,0.125
3.588,-0.165,0.110
3.590,-0.025,0.100
3.592,0.070,0.090
3.594,0.070,0.085
3.596,0.145,0.085
3.598,0.200,0.090
3.600,0.140,0.095
3.602,0.110,0.105
3.604,0.120,0.115
3.606,0.010,0.120
3.608,-0.100,0.120
3.610,-0.060,0.120
3.612,0.085,0.120
3.614,0.090,0.120
3.616,0.230,0.120
3.618,0.230,0.125
3.620,0.130,0.130
3.622,0.190,0.135
3.624,0.100,0.140
3.626,-0.035,0.135
3.628,-0.085,0.125
3.630,-0.070,0.115
3.632,-0.060,0.100
3.634,0.150,0.085
3.636,0.235,0.075
3.638,0.125,0.065
3.640,0.095,0.060
3.642,0.050,0.055
3.644,0.025,0.055
3.646,-0.080,0.050
3.648,-0.145,0.045
3.650,-0.155,0.035
3.652,-0.150,0.020
3.654,0.075,0.010
3.656,0.170,0.000
3.658,0.105,-0.010
3.660,0.015,-0.015
3.662,-0.030,-0.010
3.664,-0.060,-0.010
3.666,-0.180,-0.005
3.668,-0.160,-0.005
3.670,-0.105,-0.010
3.672,0.025,-0.015
3.674,-0.045,-0.025
3.676,0.080,-0.040
3.678,-0.025,-0.050
3.680,-0.015,-0.055
3.682,-0.085,-0.060
3.684,-0.115,-0.055
3.686,-0.180,-0.050
3.688,-0.220,-0.045
3.690,-0.060,-0.045
3.692,-0.080,-0.045
3.694,-0.095,-0.055
3.696,-0.005,-0.065
3.698,-0.020,-0.075
3.700,-0.090,-0.085
3.702,-0.085,-0.090
3.704,-0.135,-0.085
3.706,-0.210,-0.075
3.708,-0.145,-0.065
3.710,-0.130,-0.055
3.712,-0.105,-0.045
3.714,-0.025,-0.045
3.716,0.045,-0.050
3.718,0.000,-0.055
3.720,-0.020,-0.065
3.722,-0.045,-0.075
3.724,-0.160,-0.080
3.726,-0.230,-0.075
3.728,-0.300,-0.070
3.730,-0.140,-0.055
3.732,-0.050,-0.045
3.734,-0.030,-0.035
3.736,0.095,-0.025
3.738,0.080,-0.020
3.740,0.010,-0.015
3.742,-0.055,-0.015
3.744,-0.065,-0.010
3.746,-0.120,-0.010
3.748,-0.105,-0.005
3.750,-0.090,-0.005
3.752,-0.045,-0.005
3.754,-0.010,-0.015
3.756,0.040,-0.025
3.758,0.045,-0.035
3.760,0.005,-0.055
3.762,-0.120,-0.070
3.764,-0.215,-0.080
3.766,-0.250,-0.085
3.768,-0.265,-0.085
3.770,-0.175,-0.075
3.772,-0.010,-0.060
3.774,0.060,-0.040
3.776,0.125,-0.020
3.778,0.145,-0.005
3.780,-0.005,0.005
3.782,-0.035,0.010
3.784,-0.105,0.005
3.786,-0.150,-0.005
3.788,-0.155,-0.020
3.790,-0.130,-0.035
3.792,-0.070,-0.050
3.794,-0.125,-0.060
3.796,0.030,-0.065
3.798,0.030,-0.065
3.800,0.045,-0.055
3.802,-0.065,-0.045
3.804,-0.130,-0.035
3.806,-0.185,-0.025
3.808,-0.175,-0.025
3.810,-0.185,-0.035
3.812,-0.015,-0.050
3.814,0.035,-0.065
3.816,-0.025,-0.090
3.818,0.015,-0.105
3.820,-0.200,-0.115
3.822,-0.145,-0.115
3.824,-0.195,-0.105
3.826,-0.195,-0.085
3.828,-0.130,-0.065
3.830,-0.070,-0.040
3.832,-0.020,-0.015
3.834,0.075,0.000
3.836,0.115,0.005
3.838,0.140,0.000
3.840,-0.020,-0.010
3.842,-0.095,-0.025
3.844,-0.175,-0.040
3.846,-0.270,-0.055
3.848,-0.345,-0.065
3.850,-0.090,-0.075
3.852,-0.030,-0.075
3.854,0.050,-0.070
3.856,0.125,-0.065
3.858,0.005,-0.060
3.860,-0.050,-0.050
3.862,-0.075,-0.035
3.864,-0.140,-0.025
3.866,-0.185,-0.015
3.868,-0.115,-0.005
3.870,-0.070,0.000
3.872,0.080,0.005
3.874,0.150,0.005
3.876,0.125,0.010
3.878,0.045,0.015
3.880,0.050,0.020
3.882,-0.095,0.030
3.884,-0.180,0.045
3.886,-0.125,0.055
3.888,0.020,0.060
3.890,0.050,0.065
3.892,0.080,0.060
3.894,0.195,0.045
3.896,0.180,0.025
3.898,-0.015,0.000
3.900,-0.120,-0.025
3.902,-0.095,-0.045
3.904,-0.245,-0.055
3.906,-0.245,-0.060
3.908,-0.050,-0.060
3.910,-0.095,-0.050
3.912,-0.020,-0.040
3.914,0.155,-0.035
3.916,0.065,-0.030
3.918,-0.080,-0.030
3.920,-0.085,-0.035
3.922,0.010,-0.040
3.924,-0.205,-0.045
3.926,-0.200,-0.050
3.928,-0.170,-0.050
3.930,-0.150,-0.045
3.932,-0.125,-0.045
3.934,0.145,-0.040
3.936,0.085,-0.040
3.938,0.070,-0.045
3.940,-0.040,-0.055
3.942,-0.075,-0.065
3.944,-0.330,-0.070
3.946,-0.275,-0.080
3.948,-0.130,-0.080
3.950,-0.140,-0.080
3.952,-0.075,-0.075
3.954,0.055,-0.070
3.956,0.110,-0.065
3.958,0.135,-0.060
3.960,-0.040,-0.060
3.962,-0.115,-0.060
3.964,-0.335,-0.060
3.966,-0.275,-0.055
3.968,-0.245,-0.045
3.970,-0.080,-0.030
3.972,0.090,-0.005
3.974,0.235,0.030
3.976,0.265,0.080
3.978,0.285,0.135
3.980,0.230,0.205
3.982,0.160,0.280
3.984,0.135,0.360
3.986,0.185,0.435
3.988,0.560,0.500
3.990,0.480,0.545
3.992,0.570,0.570
3.994,0.800,0.570
3.996,0.800,0.535
3.998,0.550,0.475
4.000,0.380,0.390
4.002,0.110,0.285
4.004,-0.085,0.180
4.006,-0.115,0.075
4.008,-0.175,-0.010
4.010,-0.195,-0.080
4.012,-0.065,-0.125
4.014,0.085,-0.145
4.016,-0.020,-0.145
4.018,-0.045,-0.125
4.020,-0.075,-0.100
4.022,-0.145,-0.070
4.024,-0.210,-0.040
4.026,-0.165,-0.020
4.028,-0.115,-0.015
4.030,-0.050,-0.015
4.032,0.055,-0.025
4.034,0.080,-0.045
4.036,0.010,-0.065
4.038,0.040,-0.085
4.040,-0.210,-0.100
4.042,-0.190,-0.110
4.044,-0.145,-0.110
4.046,-0.340,-0.110
4.048,-0.190,-0.100
4.050,-0.080,-0.090
4.052,-0.040,-0.080
4.054,0.005,-0.070
4.056,0.055,-0.065
4.058,-0.005,-0.060
4.060,-0.030,-0.060
4.062,-0.225,-0.060
4.064,-0.160,-0.060
4.066,-0.195,-0.060
4.068,-0.130,-0.060
4.070,-0.045,-0.060
4.072,-0.025,-0.060
4.074,0.005,-0.060
4.076,0.040,-0.060
4.078,-0.005,-0.065
4.080,-0.065,-0.070
4.082,-0.160,-0.070
4.084,-0.285,-0.075
4.086,-0.200,-0.075
4.088,-0.155,-0.070
4.090,-0.110,-0.070
4.092,-0.010,-0.060
4.094,0.100,-0.055
4.096,0.030,-0.045
4.098,0.095,-0.035
4.100,-0.080,-0.030
4.102,-0.155,-0.020
4.104,-0.135,-0.015
4.106,-0.150,-0.015
4.108,-0.035,-0.015
4.110,-0.075,-0.015
4.112,0.050,-0.020
4.114,0.065,-0.025
4.116,0.070,-0.030
4.118,0.005,-0.030
4.120,-0.035,-0.035
4.122,-0.120,-0.040
4.124,-0.190,-0.040
4.126,-0.220,-0.045
4.128,-0.135,-0.045
4.130,-0.025,-0.050
4.132,-0.100,-0.055
4.134,0.105,-0.055
4.136,0.085,-0.060
4.138,0.090,-0.055
4.140,-0.155,-0.050
4.142,-0.145,-0.040
4.144,-0.135,-0.030
4.146,-0.155,-0.020
4.148,-0.115,-0.010
4.150,-0.115,0.000
4.152,0.190,0.005
4.154,0.115,0.005
4.156,0.075,0.005
4.158,0.075,0.005
4.160,-0.005,0.000
4.162,-0.135,0.000
4.164,-0.125,0.005
4.166,-0.205,0.010
4.168,-0.075,0.015
4.170,0.055,0.020
4.172,0.120,0.020
4.174,0.150,0.020
4.176,0.155,0.020
4.178,0.075,0.020
4.180,-0.050,0.020
4.182,-0.195,0.025
4.184,-0.110,0.030
4.186,-0.105,0.040
4.188,-0.060,0.055
4.190,0.100,0.065
4.192,0.250,0.070
4.194,0.210,0.070
4.196,0.115,0.065
4.198,0.135,0.060
4.200,0.095,0.045
4.202,-0.150,0.035
4.204,-0.210,0.030
4.206,-0.130,0.035
4.208,-0.075,0.045
4.210,0.120,0.060
4.212,0.255,0.080
4.214,0.200,0.100
4.216,0.290,0.120
4.218,0.200,0.130
4.220,0.055,0.130
4.222,-0.070,0.130
4.224,-0.080,0.115
4.226,-0.030,0.105
4.228,0.070,0.095
4.230,0.110,0.085
4.232,0.225,0.085
4.234,0.245,0.090
4.236,0.200,0.095
4.238,0.140,0.105
4.240,0.050,0.110
4.242,-0.090,0.115
4.244,-0.075,0.110
4.246,0.065,0.100
4.248,0.030,0.085
4.250,0.030,0.070
4.252,0.305,0.060
4.254,0.150,0.055
4.256,0.120,0.050
4.258,-0.055,0.055
4.260,0.090,0.060
4.262,-0.110,0.065
4.264,-0.035,0.070
4.266,-0.030,0.065
4.268,0.035,0.055
4.270,-0.030,0.040
4.272,0.125,0.025
4.274,0.140,0.005
4.276,0.070,-0.015
4.278,-0.080,-0.030
4.280,-0.050,-0.040
4.282,-0.200,-0.050
4.284,-0.200,-0.050
4.286,-0.090,-0.045
4.288,-0.135,-0.035
4.290,-0.010,-0.030
4.292,0.165,-0.020
4.294,0.130,-0.010
4.296,0.075,-0.005
4.298,-0.040,-0.005
4.300,-0.180,-0.010
4.302,-0.155,-0.025
4.304,-0.185,-0.040
4.306,-0.155,-0.055
4.308,-0.120,-0.075
4.310,-0.030,-0.085
4.312,-0.030,-0.095
4.314,0.015,-0.090
4.316,0.070,-0.085
4.318,-0.115,-0.070
4.320,-0.100,-0.050
4.322,-0.155,-0.030
4.324,-0.190,-0.015
4.326,-0.065,-0.010
4.328,-0.015,-0.010
4.330,0.015,-0.015
4.332,0.070,-0.025
4.334,0.000,-0.040
4.336,0.040,-0.050
4.338,-0.100,-0.060
4.340,-0.180,-0.070
4.342,-0.210,-0.075
4.344,-0.165,-0.075
4.346,-0.035,-0.070
4.348,-0.015,-0.070
4.350,-0.020,-0.065
4.352,-0.140,-0.065
4.354,-0.060,-0.060
4.356,0.060,-0.060
4.358,-0.070,-0.055
4.360,-0.085,-0.050
4.362,-0.120,-0.050
4.364,-0.095,-0.045
4.366,-0.130,-0.045
4.368,-0.075,-0.045
4.370,-0.005,-0.050
4.372,-0.015,-0.060
4.374,-0.045,-0.065
4.376,0.045,-0.070
4.378,-0.090,-0.080
4.380,-0.130,-0.080
4.382,-0.225,-0.080
4.384,-0.205,-0.075
4.386,-0.115,-0.070
4.388,-0.045,-0.065
4.390,0.070,-0.055
4.392,0.075,-0.055
4.394,0.055,-0.050
4.396,-0.100,-0.050
4.398,-0.085,-0.050
4.400,-0.175,-0.050
4.402,-0.135,-0.050
4.404,-0.140,-0.045
4.406,-0.075,-0.045
4.408,-0.120,-0.045
4.410,0.070,-0.045
4.412,0.120,-0.045
4.414,0.085,-0.045
4.416,-0.060,-0.050
4.418,-0.120,-0.050
4.420,-0.160,-0.050
4.422,-0.235,-0.050
4.424,-0.110,-0.050
4.426,-0.085,-0.040
4.428,-0.005,-0.035
4.430,0.120,-0.025
4.432,0.025,-0.015
4.434,0.065,-0.015
4.436,0.110,-0.015
4.438,-0.030,-0.020
4.440,-0.155,-0.030
4.442,-0.285,-0.045
4.444,-0.260,-0.060
4.446,-0.030,-0.070
4.448,-0.030,-0.080
4.450,-0.075,-0.080
4.452,0.075,-0.080
4.454,0.040,-0.070
4.456,0.045,-0.055
4.458,-0.090,-0.035
4.460,-0.265,-0.020
4.462,-0.140,-0.010
4.464,-0.120,-0.010
4.466,-0.095,-0.015
4.468,-0.035,-0.025
4.470,0.125,-0.040
4.472,0.040,-0.060
4.474,0.015,-0.080
4.476,-0.045,-0.095
4.478,-0.140,-0.100
4.480,-0.295,-0.095
4.482,-0.245,-0.085
4.484,-0.200,-0.065
4.486,-0.030,-0.040
4.488,-0.040,-0.015
4.490,0.190,0.005
4.492,0.145,0.020
4.494,0.215,0.030
4.496,0.000,0.035
4.498,-0.055,0.030
4.500,-0.115,0.025
4.502,-0.025,0.020
4.504,-0.175,0.015
4.506,0.025,0.010
4.508,-0.010,0.005
4.510,0.125,-0.005
4.512,0.090,-0.010
4.514,0.100,-0.020
4.516,0.020,-0.035
4.518,-0.160,-0.045
4.520,-0.155,-0.055
4.522,-0.265,-0.065
4.524,-0.315,-0.070
4.526,-0.060,-0.070
4.528,-0.030,-0.065
4.530,0.150,-0.060
4.532,0.095,-0.055
4.534,0.070,-0.050
4.536,-0.145,-0.045
4.538,-0.145,-0.050
4.540,-0.115,-0.055
4.542,-0.150,-0.060
4.544,-0.220,-0.070
4.546,-0.125,-0.075
4.548,-0.090,-0.085
4.550,-0.010,-0.085
4.552,0.110,-0.090
4.554,-0.010,-0.085
4.556,-0.130,-0.080
4.558,-0.080,-0.075
4.560,-0.135,-0.070
4.562,-0.225,-0.060
4.564,-0.185,-0.055
4.566,-0.090,-0.055
4.568,-0.040,-0.055
4.570,0.045,-0.065
4.572,0.095,-0.080
4.574,-0.030,-0.100
4.576,-0.120,-0.115
4.578,-0.140,-0.130
4.580,-0.295,-0.140
4.582,-0.290,-0.135
4.584,-0.275,-0.120
4.586,-0.165,-0.090
4.588,-0.110,-0.050
4.590,0.115,0.000
4.592,0.300,0.045
4.594,0.200,0.095
4.596,0.150,0.140
4.598,0.205,0.190
4.600,0.050,0.240
4.602,0.125,0.295
4.604,0.265,0.360
4.606,0.335,0.430
4.608,0.460,0.500
4.610,0.730,0.565
4.612,0.865,0.615
4.614,0.750,0.635
4.616,0.740,0.620
4.618,0.580,0.560
4.620,0.345,0.465
4.622,0.095,0.345
4.624,0.045,0.215
4.626,-0.075,0.085
4.628,-0.125,-0.025
4.630,-0.035,-0.100
4.632,0.040,-0.145
4.634,-0.005,-0.150
4.636,-0.065,-0.130
4.638,-0.075,-0.095
4.640,-0.260,-0.055
4.642,-0.195,-0.020
4.644,-0.165,-0.005
4.646,0.025,0.000
4.648,0.030,-0.015
4.650,0.055,-0.035
4.652,0.030,-0.060
4.654,-0.015,-0.080
4.656,-0.095,-0.090
4.658,-0.185,-0.090
4.660,-0.260,-0.085
4.662,-0.280,-0.070
4.664,-0.170,-0.060
4.666,-0.045,-0.050
4.668,0.000,-0.045
4.670,0.190,-0.045
4.672,0.045,-0.050
4.674,-0.020,-0.055
4.676,-0.050,-0.060
4.678,-0.110,-0.065
4.680,-0.280,-0.070
4.682,-0.225,-0.065
4.684,-0.200,-0.060
4.686,-0.115,-0.055
4.688,0.030,-0.050
4.690,0.145,-0.050
4.692,0.095,-0.045
4.694,0.115,-0.045
4.696,-0.140,-0.050
4.698,-0.165,-0.050
4.700,-0.220,-0.050
4.702,-0.175,-0.050
4.704,-0.160,-0.050
4.706,-0.010,-0.050
4.708,0.010,-0.050
4.710,0.045,-0.050
4.712,0.110,-0.050
4.714,-0.120,-0.045
4.716,0.010,-0.045
4.718,-0.145,-0.045
4.720,-0.150,-0.040
4.722,-0.190,-0.040
4.724,-0.195,-0.035
4.726,-0.050,-0.030
4.728,0.035,-0.025
4.730,0.155,-0.025
4.732,0.130,-0.020
4.734,0.000,-0.015
4.736,-0.135,-0.015
4.738,-0.100,-0.015
4.740,-0.160,-0.020
4.742,-0.215,-0.025
4.744,-0.035,-0.030
4.746,-0.070,-0.035
4.748,0.035,-0.035
4.750,0.125,-0.035
4.752,0.050,-0.030
4.754,0.080,-0.020
4.756,-0.075,-0.010
4.758,-0.090,0.000
4.760,-0.110,0.010
4.762,-0.185,0.015
4.764,-0.050,0.015
4.766,0.050,0.015
4.768,0.105,0.010
4.770,0.140,0.005
4.772,0.050,0.005
4.774,-0.010,0.005
4.776,0.025,0.010
4.778,-0.050,0.015
4.780,-0.145,0.025
4.782,-0.185,0.035
4.784,-0.020,0.045
4.786,0.085,0.050
4.788,0.145,0.050
4.790,0.190,0.045
4.792,0.090,0.040
4.794,0.040,0.030
4.796,0.090,0.025
4.798,-0.155,0.015
4.800,-0.135,0.015
4.802,-0.100,0.015
4.804,-0.025,0.020
4.806,0.090,0.030
4.808,0.100,0.040
4.810,0.190,0.050
4.812,0.185,0.060
4.814,0.115,0.075
4.816,0.035,0.085
4.818,-0.070,0.090
4.820,-0.125,0.100
4.822,0.000,0.105
4.824,0.060,0.110
4.826,0.130,0.110
4.828,0.200,0.110
4.830,0.185,0.105
4.832,0.150,0.105
4.834,0.125,0.100
4.836,0.170,0.095
4.838,-0.085,0.090
4.840,-0.065,0.090
4.842,-0.040,0.090
4.844,0.120,0.090
4.846,0.090,0.090
4.848,0.225,0.100
4.850,0.175,0.105
4.852,0.170,0.115
4.854,0.180,0.130
4.856,0.095,0.140
4.858,0.025,0.150
4.860,-0.080,0.155
4.862,0.045,0.155
4.864,0.160,0.150
4.866,0.205,0.140
4.868,0.255,0.125
4.870,0.155,0.105
4.872,0.185,0.090
4.874,0.015,0.070
4.876,-0.030,0.060
4.878,-0.035,0.050
4.880,-0.065,0.050
4.882,-0.075,0.055
4.884,0.045,0.060
4.886,0.145,0.065
4.888,0.150,0.070
4.890,0.130,0.070
4.892,0.075,0.065
4.894,0.060,0.060
4.896,-0.010,0.050
4.898,-0.085,0.040
4.900,-0.025,0.030
4.902,-0.105,0.020
4.904,-0.080,0.010
4.906,0.005,0.000
4.908,0.135,-0.015
4.910,0.155,-0.030
4.912,0.015,-0.045
4.914,-0.115,-0.055
4.916,-0.070,-0.065
4.918,-0.325,-0.070
4.920,-0.225,-0.070
4.922,-0.050,-0.065
4.924,-0.100,-0.055
4.926,0.015,-0.040
4.928,0.040,-0.030
4.930,0.010,-0.025
4.932,0.100,-0.025
4.934,-0.035,-0.035
4.936,-0.055,-0.050
4.938,-0.205,-0.065
4.940,-0.285,-0.075
4.942,-0.165,-0.085
4.944,-0.195,-0.085
4.946,-0.090,-0.075
4.948,0.100,-0.060
4.950,0.215,-0.045
4.952,0.100,-0.025
4.954,-0.085,-0.015
4.956,-0.125,-0.010
4.958,-0.110,-0.015
4.960,-0.245,-0.025
4.962,-0.165,-0.035
4.964,0.000,-0.050
4.966,0.020,-0.055
4.968,0.055,-0.055
4.970,0.000,-0.050
4.972,0.035,-0.035
4.974,0.000,-0.020
4.976,-0.100,-0.010
4.978,-0.200,0.000
4.980,-0.115,0.000
4.982,-0.070,-0.010
4.984,-0.070,-0.020
4.986,-0.025,-0.035
4.988,0.005,-0.050
4.990,0.065,-0.060
4.992,0.075,-0.060
4.994,-0.090,-0.055
4.996,-0.085,-0.050
4.998,-0.200,-0.040
5.000,-0.190,-0.030
5.002,-0.175,-0.025
5.004,0.030,-0.025
5.006,0.040,-0.030
5.008,0.075,-0.040
5.010,-0.025,-0.050
5.012,-0.045,-0.060
5.014,-0.075,-0.060
5.016,-0.050,-0.060
5.018,-0.160,-0.055
5.020,-0.175,-0.045
5.022,-0.100,-0.040
5.024,-0.150,-0.040
5.026,0.000,-0.040
5.028,0.020,-0.050
5.030,0.110,-0.055
5.032,-0.030,-0.065
5.034,0.000,-0.070
5.036,-0.200,-0.065
5.038,-0.205,-0.055
5.040,-0.245,-0.040
5.042,-0.080,-0.025
5.044,0.090,-0.005
5.046,0.020,0.010
5.048,0.145,0.020
5.050,0.140,0.025
5.052,0.055,0.020
5.054,-0.090,0.015
5.056,-0.085,0.010
5.058,-0.130,0.000
5.060,-0.155,-0.005
5.062,-0.145,-0.010
5.064,0.090,-0.020
5.066,0.035,-0.030
5.068,0.090,-0.040
5.070,-0.020,-0.050
5.072,-0.025,-0.065
5.074,-0.105,-0.075
5.076,-0.195,-0.085
5.078,-0.230,-0.085
5.080,-0.175,-0.080
5.082,-0.125,-0.070
5.084,-0.020,-0.060
5.086,0.080,-0.050
5.088,0.065,-0.040
5.090,0.050,-0.040
5.092,-0.050,-0.040
5.094,-0.065,-0.050
5.096,-0.140,-0.055
5.098,-0.250,-0.060
5.100,-0.180,-0.065
5.102,-0.185,-0.060
5.104,-0.045,-0.055
5.106,0.020,-0.045
5.108,0.090,-0.030
5.110,0.205,-0.025
5.112,0.040,-0.020
5.114,-0.050,-0.025
5.116,-0.210,-0.030
5.118,-0.205,-0.035
5.120,-0.135,-0.040
5.122,-0.125,-0.040
5.124,-0.120,-0.035
5.126,0.080,-0.025
5.128,0.100,-0.005
5.130,0.205,0.015
5.132,0.105,0.035
5.134,-0.010,0.050
5.136,-0.150,0.055
5.138,-0.070,0.055
5.140,-0.095,0.050
5.142,-0.095,0.035
5.144,0.030,0.020
5.146,0.205,0.010
5.148,0.160,0.000
5.150,0.115,0.000
5.152,-0.065,0.000
5.154,-0.050,0.005
5.156,-0.135,0.005
5.158,-0.180,0.000
5.160,-0.095,-0.005
5.162,-0.135,-0.025
5.164,-0.055,-0.045
5.166,0.125,-0.065
5.168,0.010,-0.085
5.170,0.015,-0.100
5.172,-0.040,-0.100
5.174,-0.150,-0.095
5.176,-0.200,-0.080
5.178,-0.295,-0.060
5.180,-0.150,-0.040
5.182,-0.070,-0.025
5.184,-0.025,-0.020
5.186,0.130,-0.030
5.188,0.120,-0.040
5.190,0.030,-0.060
5.192,-0.120,-0.080
5.194,-0.070,-0.100
5.196,-0.350,-0.105
5.198,-0.295,-0.105
5.200,-0.215,-0.090
5.202,-0.015,-0.075
5.204,-0.085,-0.060
5.206,0.135,-0.045
5.208,0.140,-0.040
5.210,-0.035,-0.040
5.212,-0.015,-0.045
5.214,-0.100,-0.055
5.216,-0.240,-0.065
5.218,-0.265,-0.070
5.220,-0.175,-0.070
5.222,-0.095,-0.060
5.224,-0.055,-0.045
5.226,0.125,-0.020
5.228,0.125,0.005
5.230,0.010,0.040
5.232,0.100,0.075
5.234,0.170,0.120
5.236,0.000,0.175
5.238,0.095,0.245
5.240,0.215,0.325
5.242,0.415,0.410
5.244,0.430,0.500
5.246,0.765,0.580
5.248,0.800,0.635
5.250,0.820,0.655
5.252,0.730,0.635
5.254,0.480,0.575
5.256,0.385,0.480
5.258,0.215,0.360
5.260,0.070,0.230
5.262,-0.085,0.105
5.264,-0.110,0.000
5.266,0.055,-0.070
5.268,0.105,-0.110
5.270,0.025,-0.115
5.272,-0.065,-0.100
5.274,-0.205,-0.075
5.276,-0.210,-0.050
5.278,-0.180,-0.030
5.280,-0.185,-0.030
5.282,-0.115,-0.035
5.284,-0.005,-0.050
5.286,0.090,-0.070
5.288,0.015,-0.085
5.290,0.170,-0.090
5.292,-0.110,-0.085
5.294,-0.155,-0.075
5.296,-0.295,-0.060
5.298,-0.235,-0.045
5.300,-0.150,-0.035
5.302,-0.050,-0.035
5.304,0.010,-0.040
5.306,0.085,-0.045
5.308,0.000,-0.055
5.310,0.060,-0.055
5.312,0.035,-0.055
5.314,-0.180,-0.050
5.316,-0.185,-0.040
5.318,-0.130,-0.030
5.320,-0.165,-0.025
5.322,-0.105,-0.025
5.324,-0.075,-0.035
5.326,0.165,-0.050
5.328,0.095,-0.065
5.330,-0.075,-0.075
5.332,-0.045,-0.080
5.334,-0.240,-0.080
5.336,-0.205,-0.065
5.338,-0.175,-0.050
5.340,-0.080,-0.035
5.342,0.035,-0.020
5.344,0.045,-0.010
5.346,0.070,-0.015
5.348,0.090,-0.020
5.350,-0.030,-0.035
5.352,-0.035,-0.050
5.354,-0.225,-0.060
5.356,-0.135,-0.065
5.358,-0.205,-0.065
5.360,-0.125,-0.060
5.362,-0.105,-0.055
5.364,-0.080,-0.050
5.366,0.105,-0.045
5.368,0.075,-0.045
5.370,0.155,-0.045
5.372,-0.120,-0.045
5.374,-0.220,-0.040
5.376,-0.210,-0.035
5.378,-0.230,-0.030
5.380,-0.130,-0.015
5.382,0.105,-0.005
5.384,0.190,0.000
5.386,0.165,0.000
5.388,0.090,0.000
5.390,-0.025,-0.010
5.392,-0.175,-0.015
5.394,-0.190,-0.025
5.396,-0.145,-0.030
5.398,-0.135,-0.025
5.400,-0.175,-0.020
5.402,0.085,-0.010
5.404,0.210,0.005
5.406,0.245,0.020
5.408,0.040,0.025
5.410,0.035,0.030
5.412,-0.055,0.030
5.414,-0.115,0.030
5.416,-0.165,0.025
5.418,-0.115,0.020
5.420,0.040,0.015
5.422,0.090,0.015
5.424,0.095,0.020
5.426,0.075,0.025
5.428,0.125,0.030
5.430,0.020,0.035
5.432,0.005,0.040
5.434,-0.045,0.040
5.436,-0.075,0.040
5.438,-0.175,0.040
5.440,0.005,0.040
5.442,0.115,0.040
5.444,0.175,0.040
5.446,0.180,0.045
5.448,0.010,0.045
5.450,0.045,0.050
5.452,0.005,0.055
5.454,-0.040,0.060
5.456,-0.100,0.075
5.458,-0.005,0.085
5.460,0.075,0.105
5.462,0.080,0.120
5.464,0.370,0.130
5.466,0.290,0.140
5.468,0.160,0.140
5.470,0.030,0.135
5.472,0.030,0.125
5.474,-0.010,0.110
5.476,-0.100,0.095
5.478,0.030,0.080
5.480,0.130,0.075
5.482,0.120,0.070
5.484,0.170,0.080
5.486,0.205,0.090
5.488,0.185,0.105
5.490,0.070,0.125
5.492,0.115,0.140
5.494,0.005,0.150
5.496,-0.015,0.150
5.498,-0.055,0.145
5.500,0.170,0.135
5.502,0.165,0.125
5.504,0.205,0.110
5.506,0.225,0.095
5.508,0.160,0.090
5.510,0.080,0.085
5.512,0.075,0.080
5.514,-0.125,0.080
5.516,-0.060,0.080
5.518,-0.020,0.075
5.520,0.115,0.065
5.522,0.090,0.055
5.524,0.125,0.040
5.526,0.090,0.025
5.528,0.085,0.010
5.530,-0.080,-0.005
5.532,-0.085,-0.010
5.534,-0.100,-0.015
5.536,-0.140,-0.015
5.538,-0.120,-0.010
5.540,0.020,-0.005
5.542,-0.030,-0.005
5.544,0.070,-0.005
5.546,0.185,-0.005
5.548,0.060,-0.005
5.550,-0.090,-0.010
5.552,-0.050,-0.010
5.554,-0.150,-0.010
5.556,-0.200,-0.005
5.558,-0.165,-0.005
5.560,0.010,0.000
5.562,0.045,-0.005
5.564,0.135,-0.010
5.566,0.100,-0.025
5.568,0.015,-0.040
5.570,-0.085,-0.060
5.572,-0.235,-0.080
5.574,-0.265,-0.095
5.576,-0.210,-0.100
5.578,-0.240,-0.100
5.580,-0.095,-0.095
5.582,0.095,-0.080
5.584,0.030,-0.060
5.586,0.010,-0.040
5.588,0.035,-0.030
5.590,-0.030,-0.025
5.592,-0.120,-0.025
5.594,-0.155,-0.035
5.596,-0.210,-0.050
5.598,-0.165,-0.070
5.600,-0.120,-0.080
5.602,-0.045,-0.090
5.604,-0.040,-0.090
5.606,-0.025,-0.080
5.608,0.115,-0.060
5.610,-0.025,-0.040
5.612,-0.080,-0.020
5.614,-0.170,0.000
5.616,-0.145,0.005
5.618,-0.100,0.005
5.620,0.020,-0.005
5.622,0.045,-0.025
5.624,0.010,-0.045
5.626,0.100,-0.065
5.628,-0.090,-0.075
5.630,-0.070,-0.080
5.632,-0.170,-0.075
5.634,-0.210,-0.060
5.636,-0.200,-0.040
5.638,-0.085,-0.020
5.640,-0.020,-0.005
5.642,0.145,0.005
5.644,0.110,0.005
5.646,0.050,-0.010
5.648,0.055,-0.030
5.650,-0.110,-0.050
5.652,-0.200,-0.070
5.654,-0.285,-0.085
5.656,-0.240,-0.090
5.658,-0.240,-0.085
5.660,-0.050,-0.075
5.662,0.165,-0.060
5.664,0.105,-0.045
5.666,0.050,-0.035
5.668,-0.125,-0.030
5.670,-0.095,-0.035
5.672,-0.075,-0.040
5.674,-0.225,-0.050
5.676,-0.180,-0.055
5.678,-0.090,-0.055
5.680,-0.055,-0.050
5.682,0.065,-0.040
5.684,0.065,-0.030
5.686,-0.005,-0.020
5.688,0.070,-0.015
5.690,0.040,-0.015
5.692,-0.115,-0.020
5.694,-0.370,-0.030
5.696,-0.110,-0.040
5.698,-0.165,-0.045
5.700,-0.085,-0.050
5.702,0.135,-0.055
5.704,0.085,-0.055
5.706,0.025,-0.050
5.708,-0.090,-0.050
5.710,-0.085,-0.050
5.712,-0.225,-0.050
5.714,-0.215,-0.055
5.716,-0.255,-0.060
5.718,-0.045,-0.060
5.720,0.005,-0.060
5.722,0.110,-0.050
5.724,0.050,-0.045
5.726,0.050,-0.040
5.728,-0.125,-0.035
5.730,-0.090,-0.040
5.732,-0.240,-0.045
5.734,-0.115,-0.060
5.736,-0.185,-0.075
5.738,-0.160,-0.090
5.740,-0.070,-0.095
5.742,-0.005,-0.095
5.744,0.050,-0.085
5.746,0.100,-0.065
5.748,-0.115,-0.045
5.750,-0.050,-0.025
5.752,-0.155,-0.010
5.754,-0.220,-0.005
5.756,-0.135,-0.010
5.758,-0.020,-0.020
5.760,0.015,-0.040
5.762,0.000,-0.055
5.764,0.120,-0.070
5.766,-0.045,-0.080
5.768,-0.135,-0.080
5.770,-0.090,-0.070
5.772,-0.225,-0.060
5.774,-0.165,-0.045
5.776,-0.150,-0.030
5.778,-0.080,-0.015
5.780,-0.070,-0.005
5.782,0.150,0.005
5.784,0.115,0.010
5.786,0.085,0.020
5.788,0.010,0.025
5.790,0.010,0.030
5.792,-0.180,0.030
5.794,-0.065,0.030
5.796,-0.120,0.020
5.798,-0.065,0.005
5.800,0.000,-0.015
5.802,0.100,-0.030
5.804,0.070,-0.050
5.806,0.005,-0.060
5.808,-0.135,-0.060
5.810,-0.160,-0.060
5.812,-0.210,-0.050
5.814,-0.290,-0.035
5.816,-0.030,-0.025
5.818,0.015,-0.020
5.820,0.015,-0.020
5.822,0.075,-0.030
5.824,0.010,-0.040
5.826,0.035,-0.055
5.828,-0.120,-0.065
5.830,-0.170,-0.070
5.832,-0.250,-0.075
5.834,-0.170,-0.075
5.836,-0.080,-0.075
5.838,-0.085,-0.070
5.840,-0.130,-0.075
5.842,0.050,-0.080
5.844,-0.025,-0.085
5.846,-0.095,-0.095
5.848,-0.125,-0.100
5.850,-0.125,-0.105
5.852,-0.220,-0.100
5.854,-0.210,-0.090
5.856,-0.170,-0.075
5.858,-0.055,-0.060
5.860,0.030,-0.050
5.862,0.005,-0.040
5.864,0.120,-0.035
5.866,0.025,-0.040
5.868,-0.150,-0.050
5.870,-0.225,-0.060
5.872,-0.265,-0.070
5.874,-0.105,-0.070
5.876,-0.195,-0.065
5.878,-0.100,-0.050
5.880,-0.020,-0.020
5.882,0.075,0.020
5.884,0.285,0.075
5.886,0.290,0.135
5.888,0.280,0.210
5.890,0.130,0.285
5.892,0.135,0.360
5.894,0.090,0.430
5.896,0.410,0.485
5.898,0.670,0.520
5.900,0.620,0.530
5.902,0.780,0.510
5.904,0.580,0.455
5.906,0.355,0.375
5.908,0.335,0.275
5.910,0.025,0.170
5.912,-0.190,0.065
5.914,-0.320,-0.030
5.916,-0.225,-0.095
5.918,-0.170,-0.140
5.920,-0.060,-0.155
5.922,0.045,-0.150
5.924,0.085,-0.125
5.926,-0.110,-0.100
5.928,-0.045,-0.070
5.930,-0.225,-0.050
5.932,-0.265,-0.040
5.934,-0.165,-0.040
5.936,-0.175,-0.045
5.938,-0.050,-0.050
5.940,0.075,-0.055
5.942,0.085,-0.050
5.944,0.075,-0.045
5.946,-0.060,-0.040
5.948,0.010,-0.030
5.950,-0.140,-0.025
5.952,-0.320,-0.025
5.954,-0.200,-0.030
5.956,-0.145,-0.045
5.958,-0.070,-0.065
5.960,-0.005,-0.090
5.962,0.005,-0.110
5.964,-0.005,-0.120
5.966,-0.080,-0.120
5.968,-0.140,-0.110
5.970,-0.210,-0.095
5.972,-0.165,-0.070
5.974,-0.285,-0.045
5.976,-0.195,-0.025
5.978,0.015,-0.010
5.980,0.230,0.000
5.982,0.130,0.000
5.984,0.070,-0.010
5.986,0.115,-0.020
5.988,-0.180,-0.035
5.990,-0.325,-0.045
5.992,-0.220,-0.055
5.994,-0.180,-0.060
5.996,-0.075,-0.060
5.998,-0.040,-0.055
6.000,0.115,-0.045
6.002,0.100,-0.030
6.004,0.075,-0.020
6.006,0.000,-0.005
6.008,-0.075,0.005
6.010,-0.120,0.010
6.012,-0.095,0.015
6.014,-0.130,0.010
6.016,-0.085,0.000
6.018,0.055,-0.015
6.020,0.020,-0.030
6.022,0.015,-0.050
6.024,-0.045,-0.065
6.026,-0.070,-0.080
6.028,-0.075,-0.080
6.030,-0.200,-0.075
6.032,-0.245,-0.060
6.034,-0.145,-0.040
6.036,-0.160,-0.015
6.038,0.000,0.010
6.040,0.170,0.025
6.042,0.190,0.030
6.044,0.140,0.025
6.046,0.000,0.015
6.048,-0.120,0.000
6.050,-0.220,-0.020
6.052,-0.250,-0.035
6.054,-0.240,-0.040
6.056,-0.040,-0.045
6.058,-0.100,-0.035
6.060,0.140,-0.025
6.062,0.215,-0.010
6.064,0.210,0.005
6.066,-0.020,0.020
6.068,-0.155,0.025
6.070,-0.160,0.030
6.072,-0.120,0.030
6.074,-0.115,0.030
6.076,-0.035,0.030
6.078,0.050,0.030
6.080,0.115,0.040
6.082,0.160,0.045
6.084,0.110,0.060
6.086,0.025,0.070
6.088,0.055,0.080
6.090,0.100,0.090
6.092,-0.115,0.095
6.094,-0.070,0.095
6.096,-0.015,0.090
6.098,0.065,0.085
6.100,0.105,0.075
6.102,0.235,0.070
6.104,0.170,0.060
6.106,0.055,0.055
6.108,-0.020,0.055
6.110,-0.165,0.055
6.112,-0.110,0.060
6.114,0.000,0.070
6.116,0.090,0.085
6.118,0.160,0.100
6.120,0.235,0.115
6.122,0.195,0.135
6.124,0.050,0.150
6.126,0.140,0.160
6.128,0.195,0.165
6.130,0.050,0.165
6.132,0.035,0.160
6.134,0.045,0.145
6.136,0.010,0.135
6.138,0.105,0.120
6.140,0.185,0.115
6.142,0.255,0.110
6.144,0.185,0.110
6.146,0.090,0.115
6.148,0.070,0.120
6.150,0.005,0.120
6.152,0.010,0.125
6.154,-0.010,0.120
6.156,0.005,0.110
6.158,0.090,0.100
6.160,0.220,0.085
6.162,0.200,0.070
6.164,0.085,0.060
6.166,-0.025,0.050
6.168,-0.035,0.045
6.170,-0.045,0.045
6.172,-0.095,0.050
6.174,-0.095,0.055
6.176,-0.030,0.055
6.178,0.160,0.055
6.180,0.190,0.050
6.182,0.105,0.045
6.184,0.035,0.035
6.186,-0.075,0.025
6.188,-0.060,0.010
6.190,-0.125,0.000
6.192,-0.195,-0.010
6.194,-0.135,-0.015
6.196,-0.015,-0.020
6.198,0.040,-0.020
6.200,0.115,-0.020
6.202,0.140,-0.015
6.204,0.045,-0.010
6.206,-0.130,-0.005
6.208,-0.245,-0.005
6.210,-0.135,-0.005
6.212,-0.135,-0.010
6.214,-0.070,-0.020
6.216,-0.060,-0.030
6.218,-0.020,-0.035
6.220,-0.040,-0.040
6.222,0.065,-0.040
6.224,0.010,-0.035
6.226,0.000,-0.030
6.228,-0.130,-0.020
6.230,-0.190,-0.010
6.232,-0.115,0.000
6.234,-0.080,0.005
6.236,-0.060,0.005
6.238,0.045,-0.005
6.240,0.120,-0.010
6.242,0.070,-0.020
6.244,-0.015,-0.030
6.246,-0.105,-0.040
6.248,-0.170,-0.050
6.250,-0.205,-0.060
6.252,-0.225,-0.065
6.254,-0.125,-0.070
6.256,-0.115,-0.075
6.258,-0.020,-0.075
6.260,0.065,-0.080
6.262,0.095,-0.080
6.264,-0.070,-0.080
6.266,-0.135,-0.075
6.268,-0.265,-0.075
6.270,-0.270,-0.070
6.272,-0.160,-0.070
6.274,-0.155,-0.065
6.276,-0.030,-0.060
6.278,0.090,-0.055
6.280,-0.010,-0.045
6.282,0.035,-0.035
6.284,-0.010,-0.025
6.286,0.015,-0.010
6.288,-0.115,-0.005
6.290,-0.150,-0.005
6.292,-0.220,-0.010
6.294,-0.080,-0.025
6.296,-0.065,-0.040
6.298,0.045,-0.060
6.300,-0.010,-0.075
6.302,-0.070,-0.085
6.304,-0.040,-0.085
6.306,-0.080,-0.080
6.308,-0.160,-0.065
6.310,-0.200,-0.045
6.312,-0.105,-0.030
6.314,-0.125,-0.015
6.316,-0.015,-0.010
6.318,0.010,-0.005
6.320,0.120,-0.010
6.322,0.155,-0.010
6.324,-0.065,-0.015
6.326,-0.145,-0.020
6.328,-0.185,-0.020
6.330,-0.055,-0.015
6.332,-0.080,-0.015
6.334,-0.170,-0.020
6.336,-0.080,-0.030
6.338,0.160,-0.045
6.340,-0.060,-0.060
6.342,-0.080,-0.075
6.344,-0.050,-0.085
6.346,-0.135,-0.090
6.348,-0.185,-0.085
6.350,-0.205,-0.070
6.352,-0.145,-0.045
6.354,-0.095,-0.020
6.356,-0.045,0.005
6.358,0.130,0.020
6.360,0.165,0.035
6.362,0.120,0.035
6.364,0.020,0.025
6.366,-0.015,0.010
6.368,-0.170,-0.005
6.370,-0.280,-0.020
6.372,-0.165,-0.040
6.374,-0.140,-0.055
6.376,-0.075,-0.065
6.378,0.035,-0.075
6.380,0.090,-0.080
6.382,0.105,-0.085
6.384,-0.165,-0.085
6.386,-0.145,-0.080
6.388,-0.295,-0.070
6.390,-0.275,-0.060
6.392,-0.120,-0.045
6.394,-0.070,-0.030
6.396,-0.005,-0.020
6.398,0.090,-0.015
6.400,0.045,-0.020
6.402,-0.005,-0.030
6.404,-0.010,-0.045
6.406,-0.065,-0.060
6.408,-0.240,-0.080
6.410,-0.270,-0.090
6.412,-0.215,-0.095
6.414,-0.130,-0.090
6.416,-0.115,-0.080
6.418,0.025,-0.065
6.420,0.095,-0.045
6.422,0.140,-0.030
6.424,-0.050,-0.015
6.426,-0.105,-0.010
6.428,-0.220,-0.010
6.430,-0.085,-0.020
6.432,-0.215,-0.030
6.434,-0.095,-0.050
6.436,-0.090,-0.065
6.438,0.025,-0.075
6.440,0.105,-0.080
6.442,-0.010,-0.080
6.444,-0.120,-0.070
6.446,-0.175,-0.055
6.448,-0.220,-0.040
6.450,-0.105,-0.020
6.452,-0.185,-0.010
6.454,0.040,-0.005
6.456,0.010,-0.005
6.458,0.085,-0.015
6.460,0.020,-0.030
6.462,0.045,-0.040
6.464,-0.080,-0.050
6.466,-0.130,-0.050
6.468,-0.220,-0.045
6.470,-0.285,-0.030
6.472,-0.165,-0.015
6.474,0.110,0.005
6.476,0.105,0.025
6.478,0.060,0.035
6.480,0.105,0.045
6.482,0.155,0.040
6.484,0.035,0.035
6.486,-0.145,0.025
6.488,-0.175,0.015
6.490,-0.115,0.000
6.492,-0.005,-0.010
6.494,-0.035,-0.015
6.496,-0.035,-0.025
6.498,0.045,-0.035
6.500,-0.025,-0.045
6.502,-0.095,-0.055
6.504,-0.040,-0.065
6.506,-0.120,-0.075
6.508,-0.270,-0.085
6.510,-0.240,-0.090
6.512,-0.185,-0.090
6.514,-0.075,-0.085
6.516,-0.005,-0.075
6.518,0.115,-0.070
6.520,-0.060,-0.060
6.522,-0.015,-0.050
6.524,-0.050,-0.040
6.526,-0.135,-0.035
6.528,-0.245,-0.025
6.530,-0.145,-0.015
6.532,-0.110,-0.010
6.534,-0.050,-0.005
6.536,0.020,0.000
6.538,0.070,0.000
6.540,0.070,-0.010
6.542,-0.005,-0.020
6.544,-0.085,-0.035
6.546,-0.185,-0.055
6.548,-0.280,-0.070
6.550,-0.220,-0.080
6.552,-0.115,-0.090
6.554,-0.110,-0.085
6.556,-0.050,-0.075
6.558,0.070,-0.060
6.560,0.005,-0.045
6.562,-0.095,-0.025
6.564,-0.010,-0.010
6.566,-0.110,0.005
6.568,-0.170,0.025
6.570,-0.145,0.050
6.572,0.060,0.085
6.574,0.060,0.140
6.576,0.365,0.210
6.578,0.450,0.295
6.580,0.470,0.390
6.582,0.435,0.480
6.584,0.530,0.550
6.586,0.565,0.600
6.588,0.525,0.610
6.590,0.465,0.580
6.592,0.515,0.510
6.594,0.350,0.410
6.596,0.360,0.295
6.598,0.155,0.170
6.600,0.045,0.060
6.602,-0.150,-0.025
6.604,-0.085,-0.085
6.606,-0.195,-0.115
6.608,-0.230,-0.120
6.610,-0.265,-0.105
6.612,-0.195,-0.075
6.614,-0.055,-0.045
6.616,0.070,-0.025
6.618,0.115,-0.005
6.620,0.065,0.000
6.622,-0.005,-0.005
6.624,-0.020,-0.010
6.626,-0.140,-0.020
6.628,-0.260,-0.030
6.630,-0.240,-0.040
6.632,-0.005,-0.045
6.634,-0.065,-0.050
6.636,-0.030,-0.055
6.638,0.030,-0.060
6.640,0.000,-0.060
6.642,-0.015,-0.065
6.644,-0.080,-0.070
6.646,-0.210,-0.070
6.648,-0.230,-0.070
6.650,-0.240,-0.070
6.652,-0.165,-0.065
6.654,-0.125,-0.060
6.656,0.135,-0.050
6.658,0.055,-0.035
6.660,0.040,-0.025
6.662,-0.035,-0.015
6.664,-0.040,-0.010
6.666,-0.175,-0.010
6.668,-0.110,-0.015
6.670,-0.155,-0.025
6.672,-0.125,-0.040
6.674,-0.170,-0.050
6.676,0.005,-0.060
6.678,0.065,-0.070
6.680,0.005,-0.065
6.682,-0.055,-0.060
6.684,0.025,-0.045
6.686,-0.275,-0.025
6.688,-0.210,-0.005
6.690,-0.065,0.010
6.692,0.055,0.020
6.694,-0.020,0.020
6.696,0.015,0.015
6.698,0.155,0.005
6.700,0.055,-0.005
6.702,-0.025,-0.020
6.704,-0.105,-0.030
6.706,-0.230,-0.035
6.708,-0.235,-0.035
6.710,-0.130,-0.030
6.712,-0.070,-0.020
6.714,-0.030,-0.010
6.716,0.125,-0.005
6.718,0.130,0.000
6.720,0.120,0.000
6.722,-0.045,0.000
6.724,-0.105,-0.005
6.726,-0.235,-0.010
6.728,-0.155,-0.015
6.730,-0.135,-0.020
6.732,-0.100,-0.015
6.734,0.075,-0.015
6.736,0.055,-0.005
6.738,0.090,0.000
6.740,0.050,0.010
6.742,0.025,0.020
6.744,0.000,0.025
6.746,-0.130,0.030
6.748,-0.105,0.035
6.750,-0.055,0.035
6.752,-0.030,0.030
6.754,-0.065,0.025
6.756,0.155,0.020
6.758,0.155,0.015
6.760,0.015,0.015
6.762,0.005,0.020
6.764,-0.025,0.025
6.766,-0.130,0.035
6.768,-0.155,0.045
6.770,0.005,0.055
6.772,0.045,0.060
6.774,-0.025,0.060
6.776,0.200,0.060
6.778,0.120,0.060
6.780,0.095,0.055
6.782,-0.030,0.055
6.784,0.030,0.060
6.786,-0.085,0.070
6.788,-0.060,0.080
6.790,-0.065,0.090
6.792,0.100,0.100
6.794,0.200,0.110
6.796,0.245,0.115
6.798,0.260,0.115
6.800,0.105,0.105
6.802,0.070,0.100
6.804,-0.055,0.090
6.806,-0.090,0.085
6.808,0.025,0.085
6.810,-0.035,0.085
6.812,0.060,0.090
6.814,0.150,0.095
6.816,0.225,0.100
6.818,0.225,0.100
6.820,0.105,0.100
6.822,0.035,0.095
6.824,-0.025,0.085
6.826,-0.070,0.085
6.828,-0.050,0.080
6.830,0.015,0.085
6.832,0.105,0.090
6.834,0.085,0.100
6.836,0.250,0.115
6.838,0.310,0.125
6.840,0.145,0.135
6.842,0.000,0.135
6.844,0.030,0.135
6.846,-0.045,0.130
6.848,0.035,0.120
6.850,0.010,0.105
6.852,0.000,0.095
6.854,0.120,0.090
6.856,0.295,0.085
6.858,0.175,0.080
6.860,0.125,0.080
6.862,0.015,0.075
6.864,-0.090,0.070
6.866,-0.125,0.065
6.868,-0.105,0.050
6.870,0.035,0.035
6.872,0.030,0.020
6.874,0.015,0.005
6.876,0.070,-0.005
6.878,0.150,-0.010
6.880,-0.025,-0.010
6.882,-0.065,-0.005
6.884,-0.070,0.000
6.886,-0.190,0.000
6.888,-0.115,0.000
6.890,-0.105,-0.005
6.892,-0.025,-0.015
6.894,-0.030,-0.030
6.896,0.055,-0.045
6.898,0.025,-0.055
6.900,-0.045,-0.060
6.902,-0.140,-0.065
6.904,-0.125,-0.060
6.906,-0.280,-0.055
6.908,-0.220,-0.050
6.910,-0.045,-0.045
6.912,-0.045,-0.045
6.914,0.095,-0.045
6.916,-0.045,-0.050
6.918,0.110,-0.055
6.920,-0.130,-0.055
6.922,-0.120,-0.050
6.924,-0.165,-0.040
6.926,-0.115,-0.030
6.928,-0.075,-0.015
6.930,-0.085,-0.005
6.932,-0.055,0.005
6.934,0.135,0.005
6.936,0.025,-0.005
6.938,-0.030,-0.015
6.940,-0.010,-0.035
6.942,-0.005,-0.050
6.944,-0.175,-0.065
6.946,-0.265,-0.070
6.948,-0.240,-0.070
6.950,-0.150,-0.060
6.952,0.050,-0.045
6.954,0.090,-0.030
6.956,0.035,-0.015
6.958,0.025,-0.005
6.960,-0.050,0.000
6.962,0.030,0.000
6.964,-0.165,-0.010
6.966,-0.210,-0.020
6.968,-0.155,-0.030
6.970,-0.075,-0.040
6.972,-0.030,-0.050
6.974,0.050,-0.055
6.976,0.070,-0.055
6.978,0.005,-0.055
6.980,-0.005,-0.050
6.982,-0.225,-0.045
6.984,-0.185,-0.045
6.986,-0.175,-0.040
6.988,-0.080,-0.035
6.990,-0.095,-0.035
6.992,-0.020,-0.035
6.994,0.065,-0.035
6.996,0.075,-0.035
6.998,0.140,-0.035
7.000,-0.090,-0.040
7.002,-0.140,-0.040
7.004,-0.235,-0.035
7.006,-0.140,-0.030
7.008,-0.185,-0.025
7.010,-0.060,-0.020
7.012,-0.005,-0.010
7.014,0.005,-0.010
7.016,0.150,-0.010
7.018,0.100,-0.015
7.020,0.005,-0.020
7.022,-0.155,-0.025
7.024,-0.170,-0.030
7.026,-0.295,-0.035
7.028,-0.215,-0.035
7.030,-0.030,-0.030
7.032,0.050,-0.020
7.034,0.175,-0.020
7.036,0.090,-0.015
7.038,0.030,-0.020
7.040,-0.040,-0.030
7.042,-0.080,-0.040
7.044,-0.255,-0.050
7.046,-0.230,-0.060
7.048,-0.155,-0.065
7.050,-0.115,-0.065
7.052,-0.130,-0.060
7.054,0.120,-0.050
7.056,0.060,-0.045
7.058,0.035,-0.040
7.060,-0.035,-0.040
7.062,-0.150,-0.040
7.064,-0.265,-0.045
7.066,-0.235,-0.050
7.068,-0.140,-0.055
7.070,-0.070,-0.050
7.072,-0.020,-0.040
7.074,0.060,-0.030
7.076,0.120,-0.020
7.078,0.050,-0.015
7.080,0.015,-0.015
7.082,-0.135,-0.025
7.084,-0.255,-0.040
7.086,-0.235,-0.060
7.088,-0.165,-0.075
7.090,-0.045,-0.090
7.092,-0.110,-0.100
7.094,0.035,-0.095
7.096,0.010,-0.085
7.098,-0.045,-0.065
7.100,-0.070,-0.045
7.102,-0.045,-0.030
7.104,-0.175,-0.020
7.106,-0.165,-0.015
7.108,-0.185,-0.020
7.110,-0.020,-0.035
7.112,-0.005,-0.050
7.114,0.050,-0.065
7.116,-0.030,-0.075
7.118,-0.015,-0.085
7.120,-0.075,-0.090
7.122,-0.260,-0.095
7.124,-0.185,-0.095
7.126,-0.175,-0.090
7.128,-0.230,-0.085
7.130,-0.155,-0.085
7.132,-0.010,-0.080
7.134,0.045,-0.075
7.136,-0.030,-0.065
7.138,0.135,-0.060
7.140,-0.100,-0.050
7.142,-0.180,-0.040
7.144,-0.230,-0.035
7.146,-0.290,-0.030
7.148,-0.030,-0.025
7.150,-0.015,-0.025
7.152,0.000,-0.030
7.154,0.055,-0.035
7.156,0.030,-0.040
7.158,-0.045,-0.050
7.160,-0.015,-0.060
7.162,-0.215,-0.070
7.164,-0.255,-0.080
7.166,-0.205,-0.080
7.168,-0.170,-0.075
7.170,-0.075,-0.065
7.172,0.030,-0.050
7.174,0.090,-0.030
7.176,0.090,-0.010
7.178,0.025,0.010
7.180,0.055,0.020
7.182,-0.055,0.030
7.184,-0.235,0.025
7.186,-0.120,0.020
7.188,-0.125,0.015
7.190,-0.015,0.005
7.192,0.090,0.000
7.194,0.080,0.000
7.196,0.145,0.005
7.198,0.065,0.010
7.200,0.020,0.015
7.202,-0.155,0.015
7.204,-0.175,0.005
7.206,-0.225,-0.015
7.208,-0.090,-0.035
7.210,-0.045,-0.065
7.212,0.010,-0.085
7.214,-0.060,-0.100
7.216,-0.050,-0.100
7.218,-0.020,-0.095
7.220,-0.175,-0.075
7.222,-0.165,-0.050
7.224,-0.110,-0.025
7.226,-0.115,-0.010
7.228,-0.090,-0.005
7.230,-0.120,-0.010
7.232,0.025,-0.030
7.234,0.125,-0.050
7.236,0.020,-0.070
7.238,-0.115,-0.080
7.240,-0.105,-0.085
7.242,-0.210,-0.075
7.244,-0.275,-0.060
7.246,-0.135,-0.045
7.248,-0.220,-0.025
7.250,0.115,-0.020
7.252,0.075,-0.020
7.254,0.035,-0.030
7.256,-0.040,-0.050
7.258,-0.065,-0.075
7.260,-0.110,-0.095
7.262,-0.240,-0.110
7.264,-0.300,-0.110
7.266,-0.175,-0.100
7.268,-0.170,-0.085
7.270,-0.085,-0.060
7.272,0.040,-0.035
7.274,0.085,-0.010
7.276,0.030,0.010
7.278,0.055,0.025
7.280,0.020,0.035
7.282,-0.075,0.050
7.284,-0.065,0.070
7.286,-0.015,0.110
7.288,0.125,0.165
7.290,0.235,0.240
7.292,0.415,0.330
7.294,0.465,0.430
7.296,0.635,0.520
7.298,0.675,0.590
7.300,0.675,0.630
7.302,0.600,0.630
7.304,0.440,0.585
7.306,0.415,0.500
7.308,0.335,0.385
7.310,0.155,0.255
7.312,0.045,0.130
7.314,0.050,0.020
7.316,-0.085,-0.055
7.318,-0.015,-0.100
7.320,-0.075,-0.115
7.322,-0.225,-0.105
7.324,-0.310,-0.080
7.326,-0.155,-0.050
7.328,-0.155,-0.030
7.330,-0.030,-0.020
7.332,0.075,-0.030
7.334,0.055,-0.045
7.336,0.050,-0.060
7.338,-0.120,-0.080
7.340,-0.150,-0.085
7.342,-0.160,-0.080
7.344,-0.295,-0.070
7.346,-0.100,-0.050
7.348,-0.115,-0.035
7.350,-0.055,-0.020
7.352,0.015,-0.015
7.354,0.005,-0.020
7.356,0.090,-0.035
7.358,-0.025,-0.050
7.360,-0.090,-0.065
7.362,-0.280,-0.080
7.364,-0.250,-0.090
7.366,-0.220,-0.095
7.368,-0.140,-0.100
7.370,-0.015,-0.100
7.372,0.080,-0.095
7.374,-0.035,-0.095
7.376,-0.050,-0.085
7.378,-0.035,-0.080
7.380,-0.325,-0.065
7.382,-0.125,-0.050
7.384,-0.130,-0.030
7.386,-0.080,-0.010
7.388,-0.030,0.005
7.390,0.065,0.015
7.392,0.075,0.015
7.394,0.120,0.005
7.396,0.070,-0.005
7.398,-0.110,-0.025
7.400,-0.190,-0.045
7.402,-0.260,-0.060
7.404,-0.205,-0.065
7.406,-0.125,-0.070
7.408,-0.075,-0.060
7.410,0.005,-0.050
7.412,0.045,-0.030
7.414,0.065,-0.015
7.416,0.070,0.000
7.418,0.040,0.015
7.420,0.035,0.020
7.422,-0.230,0.015
7.424,-0.170,0.010
7.426,-0.055,-0.005
7.428,-0.055,-0.020
7.430,-0.020,-0.035
7.432,0.035,-0.050
7.434,-0.005,-0.065
7.436,0.030,-0.070
7.438,-0.160,-0.065
7.440,-0.175,-0.060
7.442,-0.070,-0.045
7.444,-0.205,-0.030
7.446,-0.135,-0.010
7.448,0.000,0.005
7.450,0.020,0.015
7.452,0.180,0.025
7.454,0.125,0.025
7.456,-0.065,0.030
7.458,0.020,0.025
7.460,0.020,0.025
7.462,-0.115,0.020
7.464,-0.115,0.015
7.466,-0.150,0.010
7.468,-0.055,-0.005
7.470,0.080,-0.020
7.472,0.080,-0.030
7.474,0.055,-0.045
7.476,0.020,-0.050
7.478,-0.190,-0.045
7.480,-0.180,-0.030
7.482,-0.255,-0.010
7.484,-0.020,0.025
7.486,0.045,0.055
7.488,0.070,0.085
7.490,0.105,0.110
7.492,0.310,0.120
7.494,0.195,0.120
7.496,0.105,0.115
7.498,-0.055,0.100
7.500,-0.105,0.085
7.502,-0.045,0.075
7.504,-0.040,0.070
7.506,0.035,0.075
7.508,0.080,0.080
7.510,0.125,0.090
7.512,0.185,0.100
7.514,0.265,0.105
7.516,0.090,0.110
7.518,0.060,0.105
7.520,-0.075,0.100
7.522,-0.115,0.095
7.524,-0.015,0.090
7.526,-0.005,0.095
7.528,0.055,0.100
7.530,0.220,0.110
7.532,0.315,0.125
7.534,0.190,0.135
7.536,0.120,0.140
7.538,0.035,0.140
7.540,-0.090,0.135
7.542,0.020,0.120
7.544,-0.055,0.110
7.546,0.075,0.095
7.548,0.065,0.080
7.550,0.240,0.075
7.552,0.135,0.075
7.554,0.080,0.080
7.556,0.080,0.085
7.558,-0.010,0.095
7.560,-0.050,0.105
7.562,0.100,0.110
7.564,-0.045,0.110
7.566,-0.005,0.105
7.568,0.110,0.095
7.570,0.180,0.080
7.572,0.110,0.065
7.574,0.185,0.050
7.576,0.045,0.035
7.578,-0.085,0.025
7.580,-0.145,0.020
7.582,-0.205,0.020
7.584,-0.105,0.025
7.586,0.060,0.030
7.588,0.035,0.040
7.590,0.170,0.045
7.592,0.170,0.050
7.594,0.080,0.045
7.596,-0.060,0.035
7.598,-0.040,0.015
7.600,-0.110,-0.005
7.602,-0.295,-0.030
7.604,-0.195,-0.050
7.606,-0.115,-0.060
7.608,-0.005,-0.065
7.610,0.115,-0.065
7.612,0.065,-0.050
7.614,0.020,-0.030
7.616,-0.105,-0.010
7.618,-0.035,0.010
7.620,-0.195,0.020
7.622,-0.240,0.020
7.624,0.010,0.010
7.626,-0.055,-0.010
7.628,-0.005,-0.035
7.630,0.010,-0.060
7.632,0.030,-0.085
7.634,-0.050,-0.100
7.636,-0.250,-0.110
7.638,-0.190,-0.105
7.640,-0.205,-0.090
7.642,-0.175,-0.070
7.644,-0.170,-0.050
7.646,-0.015,-0.035
7.648,-0.025,-0.020
7.650,-0.035,-0.020
7.652,0.055,-0.020
7.654,0.130,-0.030
7.656,-0.070,-0.045
7.658,-0.100,-0.055
7.660,-0.300,-0.065
7.662,-0.240,-0.070
7.664,-0.170,-0.065
7.666,-0.035,-0.055
7.668,0.065,-0.045
7.670,0.005,-0.030
7.672,-0.020,-0.020
7.674,0.055,-0.015
7.676,0.025,-0.015
7.678,-0.100,-0.020
7.680,-0.250,-0.025
7.682,-0.195,-0.035
7.684,-0.135,-0.045
7.686,-0.115,-0.045
7.688,-0.080,-0.045
7.690,0.035,-0.040
7.692,0.035,-0.030
7.694,0.110,-0.015
7.696,0.010,-0.005
7.698,-0.030,0.005
7.700,-0.240,0.015
7.702,-0.210,0.010
7.704,-0.065,0.005
7.706,-0.010,-0.005
7.708,0.080,-0.020
7.710,0.055,-0.030
7.712,0.005,-0.045
7.714,-0.075,-0.050
7.716,-0.095,-0.055
7.718,-0.190,-0.060
7.720,-0.260,-0.055
7.722,-0.215,-0.050
7.724,-0.080,-0.040
7.726,-0.025,-0.030
7.728,-0.015,-0.025
7.730,0.135,-0.020
7.732,0.095,-0.015
7.734,-0.105,-0.010
7.736,-0.065,-0.015
7.738,-0.150,-0.020
7.740,-0.230,-0.025
7.742,-0.185,-0.035
7.744,-0.075,-0.040
7.746,0.020,-0.050
7.748,-0.070,-0.055
7.750,0.030,-0.060
7.752,0.020,-0.060
7.754,-0.005,-0.060
7.756,-0.060,-0.055
7.758,-0.220,-0.050
7.760,-0.235,-0.045
7.762,-0.200,-0.035
7.764,-0.060,-0.030
7.766,-0.060,-0.025
7.768,0.170,-0.025
7.770,0.000,-0.025
7.772,0.040,-0.025
7.774,-0.035,-0.025
7.776,-0.080,-0.020
7.778,-0.205,-0.020
7.780,-0.235,-0.015
7.782,-0.090,-0.015
7.784,-0.070,-0.010
7.786,-0.055,-0.010
7.788,0.020,-0.010
7.790,0.140,-0.015
7.792,0.155,-0.020
7.794,-0.035,-0.030
7.796,-0.140,-0.040
7.798,-0.260,-0.050
7.800,-0.270,-0.060
7.802,-0.270,-0.065
7.804,-0.100,-0.060
7.806,-0.075,-0.055
7.808,0.070,-0.040
7.810,0.125,-0.025
7.812,0.095,-0.010
7.814,0.055,0.005
7.816,-0.085,0.010
7.818,-0.240,0.010
7.820,-0.145,0.000
7.822,-0.255,-0.015
7.824,-0.015,-0.040
7.826,-0.100,-0.065
7.828,-0.040,-0.085
7.830,-0.005,-0.095
7.832,-0.025,-0.100
7.834,-0.100,-0.095
7.836,-0.085,-0.080
7.838,-0.255,-0.055
7.840,-0.205,-0.035
7.842,-0.155,-0.020
7.844,-0.155,-0.010
7.846,-0.075,-0.010
7.848,0.235,-0.015
7.850,0.015,-0.035
7.852,0.060,-0.050
7.854,-0.005,-0.065
7.856,-0.200,-0.075
7.858,-0.260,-0.080
7.860,-0.290,-0.070
7.862,-0.200,-0.060
7.864,-0.035,-0.040
7.866,-0.020,-0.025
7.868,0.095,-0.015
7.870,0.075,-0.015
7.872,0.050,-0.020
7.874,-0.045,-0.030
7.876,-0.125,-0.045
7.878,-0.285,-0.060
7.880,-0.220,-0.070
7.882,-0.175,-0.075
7.884,-0.155,-0.070
7.886,-0.045,-0.065
7.888,0.055,-0.055
7.890,0.130,-0.045
7.892,0.025,-0.035
7.894,-0.140,-0.030
7.896,-0.120,-0.030
7.898,-0.195,-0.030
7.900,-0.190,-0.035
7.902,-0.230,-0.045
7.904,-0.130,-0.050
7.906,0.010,-0.055
7.908,0.110,-0.055
7.910,0.065,-0.050
7.912,0.030,-0.045
7.914,-0.050,-0.035
7.916,-0.120,-0.025
7.918,-0.255,-0.010
7.920,-0.170,0.000
7.922,-0.140,0.015
7.924,-0.045,0.030
7.926,0.125,0.040
7.928,0.175,0.050
7.930,0.125,0.055
7.932,0.145,0.055
7.934,0.030,0.050
7.936,-0.100,0.040
7.938,-0.210,0.025
7.940,-0.175,0.015
7.942,-0.145,0.000
7.944,-0.145,-0.005
7.946,0.025,-0.015
7.948,0.235,-0.015
7.950,0.090,-0.015
7.952,-0.025,-0.015
7.954,-0.015,-0.015
7.956,-0.055,-0.020
7.958,-0.315,-0.030
7.960,-0.245,-0.045
7.962,-0.185,-0.055
7.964,-0.050,-0.070
7.966,-0.035,-0.075
7.968,0.035,-0.080
7.970,0.020,-0.080
7.972,-0.055,-0.070
7.974,-0.120,-0.065
7.976,-0.090,-0.055
7.978,-0.315,-0.050
7.980,-0.345,-0.050
7.982,-0.105,-0.055
7.984,-0.075,-0.060
7.986,-0.035,-0.065
7.988,0.055,-0.070
7.990,0.065,-0.070
7.992,-0.095,-0.070
7.994,-0.060,-0.065
7.996,-0.140,-0.060
7.998,-0.280,-0.055
8.000,-0.325,-0.055
8.002,-0.160,-0.055
8.004,0.020,-0.055
8.006,-0.095,-0.060
8.008,0.035,-0.060
8.010,0.110,-0.055
8.012,0.015,-0.045
8.014,-0.095,-0.030
8.016,-0.085,-0.010
8.018,-0.175,0.010
8.020,-0.240,0.030
8.022,-0.185,0.050
8.024,0.065,0.080
8.026,0.225,0.115
8.028,0.295,0.165
8.030,0.390,0.225
8.032,0.345,0.305
8.034,0.360,0.390
8.036,0.335,0.475
8.038,0.330,0.550
8.040,0.485,0.600
8.042,0.545,0.620
8.044,0.690,0.600
8.046,0.565,0.540
8.048,0.645,0.450
8.050,0.545,0.335
8.052,0.135,0.215
8.054,-0.065,0.095
8.056,-0.270,-0.005
8.058,-0.305,-0.080
8.060,-0.330,-0.125
8.062,-0.195,-0.140
8.064,-0.160,-0.135
8.066,0.005,-0.115
8.068,-0.045,-0.090
8.070,0.075,-0.065
8.072,-0.060,-0.040
8.074,-0.070,-0.020
8.076,-0.120,-0.015
8.078,-0.225,-0.010
8.080,-0.220,-0.015
8.082,-0.075,-0.020
8.084,-0.035,-0.025
8.086,0.020,-0.030
8.088,0.050,-0.030
8.090,0.040,-0.025
8.092,-0.035,-0.015
8.094,-0.010,-0.005
8.096,-0.115,0.005
8.098,-0.240,0.015
8.100,-0.170,0.025
8.102,-0.105,0.025
8.104,-0.030,0.015
8.106,0.180,0.005
8.108,0.135,-0.010
8.110,-0.015,-0.030
8.112,-0.125,-0.045
8.114,-0.085,-0.060
8.116,-0.205,-0.065
8.118,-0.355,-0.065
8.120,-0.245,-0.065
8.122,-0.080,-0.055
8.124,-0.060,-0.050
8.126,-0.020,-0.040
8.128,0.175,-0.035
8.130,0.030,-0.030
8.132,-0.055,-0.030
8.134,-0.110,-0.030
8.136,-0.275,-0.030
8.138,-0.260,-0.035
8.140,-0.165,-0.035
8.142,0.055,-0.040
8.144,-0.110,-0.040
8.146,0.125,-0.040
8.148,-0.035,-0.040
8.150,0.060,-0.035
8.152,-0.080,-0.030
8.154,-0.160,-0.020
8.156,-0.115,-0.010
8.158,-0.175,-0.005
8.160,-0.160,0.000
8.162,-0.105,0.005
8.164,-0.045,0.000
8.166,0.090,0.000
8.168,0.040,-0.005
8.170,0.140,-0.010
8.172,-0.010,-0.015
8.174,-0.145,-0.015
8.176,-0.190,-0.015
8.178,-0.190,-0.005
8.180,-0.215,0.000
8.182,0.010,0.015
8.184,0.005,0.020
8.186,0.155,0.030
8.188,0.145,0.030
8.190,0.040,0.030
8.192,-0.030,0.025
8.194,-0.060,0.020
8.196,-0.135,0.015
8.198,-0.175,0.010
8.200,-0.170,0.005
8.202,-0.070,0.010
8.204,0.035,0.015
8.206,0.095,0.025
8.208,0.140,0.030
8.210,0.060,0.040
8.212,0.055,0.050
8.214,0.055,0.055
8.216,-0.145,0.055
8.218,-0.125,0.055
8.220,-0.065,0.050
8.222,-0.045,0.050
8.224,-0.035,0.045
8.226,0.120,0.050
8.228,0.225,0.055
8.230,0.120,0.065
8.232,0.020,0.080
8.234,0.015,0.100
8.236,-0.035,0.115
8.238,-0.070,0.125
8.240,0.030,0.135
8.242,0.090,0.135
8.244,0.095,0.130
8.246,0.130,0.120
8.248,0.225,0.105
8.250,0.120,0.095
8.252,0.090,0.080
8.254,-0.010,0.070
8.256,-0.185,0.065
8.258,-0.145,0.065
8.260,0.015,0.070
8.262,0.140,0.070
8.264,0.035,0.075
8.266,0.155,0.085
8.268,0.175,0.090
8.270,0.040,0.100
8.272,0.135,0.110
8.274,0.025,0.115
8.276,-0.010,0.125
8.278,-0.090,0.135
8.280,0.035,0.140
8.282,0.100,0.140
8.284,0.145,0.145
8.286,0.145,0.140
8.288,0.270,0.140
8.290,0.135,0.135
8.292,0.100,0.135
8.294,0.035,0.130
8.296,-0.070,0.130
8.298,-0.030,0.125
8.300,0.055,0.115
8.302,0.135,0.110
8.304,0.065,0.100
8.306,0.190,0.090
8.308,0.120,0.085
8.310,0.080,0.080
8.312,-0.075,0.085
8.314,0.040,0.090
8.316,-0.090,0.095
8.318,-0.030,0.105
8.320,0.025,0.115
8.322,0.085,0.115
8.324,0.190,0.110
8.326,0.185,0.100
8.328,0.205,0.085
8.330,0.000,0.070
8.332,-0.010,0.050
8.334,-0.050,0.030
8.336,-0.170,0.015
8.338,-0.210,-0.005
8.340,-0.175,-0.020
8.342,-0.035,-0.035
8.344,0.035,-0.050
8.346,-0.040,-0.060
8.348,0.010,-0.075
8.350,-0.080,-0.080
8.352,-0.135,-0.080
8.354,-0.255,-0.070
8.356,-0.170,-0.050
8.358,-0.140,-0.030
8.360,-0.075,-0.005
8.362,-0.035,0.015
8.364,-0.005,0.025
8.366,0.110,0.025
8.368,0.145,0.015
8.370,0.020,-0.005
8.372,-0.050,-0.025
8.374,-0.250,-0.045
8.376,-0.235,-0.055
8.378,-0.240,-0.060
8.380,-0.175,-0.050
8.382,-0.170,-0.040
8.384,0.055,-0.020
8.386,0.270,-0.005
8.388,0.100,0.005
8.390,0.005,0.005
8.392,-0.130,-0.005
8.394,-0.210,-0.020
8.396,-0.350,-0.035
8.398,-0.230,-0.050
8.400,-0.110,-0.060
8.402,-0.065,-0.060
8.404,0.070,-0.055
8.406,0.115,-0.045
8.408,0.060,-0.035
8.410,0.045,-0.025
8.412,-0.165,-0.020
8.414,-0.225,-0.020
8.416,-0.270,-0.025
8.418,-0.275,-0.040
8.420,-0.110,-0.050
8.422,-0.045,-0.060
8.424,0.015,-0.060
8.426,0.085,-0.060
8.428,0.090,-0.050
8.430,-0.075,-0.040
8.432,-0.100,-0.025
8.434,-0.260,-0.015
8.436,-0.170,-0.010
8.438,-0.095,-0.015
8.440,-0.135,-0.020
8.442,-0.095,-0.035
8.444,0.065,-0.050
8.446,0.010,-0.065
8.448,-0.010,-0.075
8.450,-0.140,-0.080
8.452,-0.145,-0.075
8.454,-0.215,-0.065
8.456,-0.210,-0.050
8.458,-0.210,-0.035
8.460,0.015,-0.020
8.462,-0.050,-0.010
8.464,0.055,0.000
8.466,0.120,0.000
8.468,-0.035,-0.005
8.470,0.045,-0.010
8.472,-0.045,-0.020
8.474,-0.240,-0.025
8.476,-0.230,-0.030
8.478,-0.185,-0.035
8.480,-0.050,-0.030
8.482,-0.045,-0.025
8.484,0.070,-0.015
8.486,0.150,-0.010
8.488,0.050,-0.010
8.490,-0.090,-0.015
8.492,-0.065,-0.025
8.494,-0.255,-0.035
8.496,-0.250,-0.050
8.498,-0.190,-0.065
8.500,-0.135,-0.070
8.502,-0.100,-0.070
8.504,0.140,-0.065
8.506,0.015,-0.055
8.508,-0.065,-0.040
8.510,-0.120,-0.030
8.512,-0.065,-0.025
8.514,-0.220,-0.025
8.516,-0.165,-0.030
8.518,-0.130,-0.040
8.520,-0.040,-0.055
8.522,-0.065,-0.065
8.524,-0.005,-0.070
8.526,-0.085,-0.070
8.528,-0.060,-0.060
8.530,-0.055,-0.050
8.532,-0.035,-0.040
8.534,-0.150,-0.030
8.536,-0.175,-0.025
8.538,-0.245,-0.025
8.540,-0.075,-0.035
8.542,-0.085,-0.040
8.544,0.015,-0.050
8.546,0.060,-0.050
8.548,0.035,-0.045
8.550,-0.040,-0.035
8.552,-0.065,-0.025
8.554,-0.185,-0.015
8.556,-0.175,-0.015
8.558,-0.120,-0.020
8.560,-0.130,-0.035
8.562,-0.020,-0.055
8.564,-0.060,-0.075
8.566,0.045,-0.090
8.568,-0.095,-0.100
8.570,-0.125,-0.095
8.572,-0.165,-0.085
8.574,-0.105,-0.065
8.576,-0.220,-0.045
8.578,-0.210,-0.025
8.580,-0.105,-0.020
8.582,-0.005,-0.020
8.584,0.095,-0.030
8.586,0.065,-0.045
8.588,-0.045,-0.065
8.590,-0.100,-0.080
8.592,-0.185,-0.090
8.594,-0.235,-0.090
8.596,-0.225,-0.085
8.598,-0.275,-0.075
8.600,-0.080,-0.070
8.602,-0.065,-0.075
8.604,-0.030,-0.080
8.606,-0.030,-0.095
8.608,-0.075,-0.110
8.610,-0.200,-0.125
8.612,-0.210,-0.130
8.614,-0.305,-0.120
8.616,-0.260,-0.100
8.618,-0.205,-0.070
8.620,-0.050,-0.035
8.622,0.115,-0.005
8.624,0.085,0.020
8.626,0.190,0.030
8.628,0.075,0.025
8.630,-0.095,0.010
8.632,-0.125,-0.020
8.634,-0.290,-0.050
8.636,-0.335,-0.070
8.638,-0.205,-0.085
8.640,0.010,-0.085
8.642,0.015,-0.075
8.644,-0.010,-0.050
8.646,0.120,-0.025
8.648,-0.060,0.000
8.650,-0.010,0.015
8.652,-0.110,0.030
8.654,-0.175,0.030
8.656,-0.145,0.025
8.658,-0.075,0.015
8.660,-0.050,0.000
8.662,0.055,-0.010
8.664,0.130,-0.020
8.666,0.130,-0.025
8.668,0.005,-0.030
8.670,-0.090,-0.040
8.672,-0.220,-0.045
8.674,-0.270,-0.050
8.676,-0.235,-0.055
8.678,-0.105,-0.060
8.680,-0.075,-0.065
8.682,0.025,-0.070
8.684,0.075,-0.070
8.686,-0.015,-0.070
8.688,-0.040,-0.070
8.690,-0.070,-0.075
8.692,-0.290,-0.075
8.694,-0.255,-0.085
8.696,-0.200,-0.090
8.698,-0.225,-0.100
8.700,-0.120,-0.100
8.702,0.000,-0.100
8.704,0.045,-0.095
8.706,-0.030,-0.085
8.708,-0.010,-0.075
8.710,-0.165,-0.065
8.712,-0.170,-0.060
8.714,-0.215,-0.055
8.716,-0.330,-0.060
8.718,-0.170,-0.070
8.720,-0.040,-0.080
8.722,-0.005,-0.095
8.724,0.035,-0.100
8.726,-0.035,-0.100
8.728,-0.155,-0.095
8.730,-0.175,-0.085
8.732,-0.205,-0.070
8.734,-0.235,-0.050
8.736,-0.110,-0.035
8.738,-0.100,-0.020
8.740,-0.080,-0.015
8.742,0.080,-0.015
8.744,0.110,-0.015
8.746,0.040,-0.020
8.748,-0.020,-0.025
8.750,-0.110,-0.020
8.752,-0.195,-0.005
8.754,-0.155,0.030
8.756,-0.040,0.080
8.758,0.125,0.150
8.760,0.315,0.230
8.762,0.385,0.325
8.764,0.475,0.415
8.766,0.520,0.490
8.768,0.575,0.545
8.770,0.600,0.560
8.772,0.595,0.540
8.774,0.240,0.475
8.776,0.280,0.380
8.778,0.270,0.260
8.780,0.100,0.135
8.782,-0.060,0.015
8.784,-0.100,-0.080
8.786,-0.080,-0.150
8.788,-0.185,-0.185
8.790,-0.355,-0.190
8.792,-0.305,-0.175
8.794,-0.205,-0.140
8.796,-0.205,-0.105
8.798,-0.085,-0.080
8.800,-0.095,-0.060
8.802,0.005,-0.060
8.804,0.020,-0.070
8.806,-0.045,-0.080
8.808,-0.095,-0.095
8.810,-0.140,-0.105
8.812,-0.240,-0.105
8.814,-0.315,-0.090
8.816,-0.175,-0.070
8.818,-0.025,-0.045
8.820,-0.045,-0.020
8.822,0.115,-0.005
8.824,0.060,0.005
8.826,-0.015,0.005
8.828,0.005,0.000
8.830,-0.080,-0.020
8.832,-0.135,-0.040
8.834,-0.245,-0.060
8.836,-0.190,-0.080
8.838,-0.200,-0.095
8.840,-0.090,-0.100
8.842,0.010,-0.095
8.844,-0.020,-0.090
8.846,-0.010,-0.080
8.848,-0.090,-0.070
8.850,-0.030,-0.060
8.852,-0.220,-0.050
8.854,-0.200,-0.045
8.856,-0.235,-0.045
8.858,-0.155,-0.050
8.860,-0.055,-0.055
8.862,0.135,-0.060
8.864,0.120,-0.065
8.866,0.030,-0.070
8.868,-0.125,-0.075
8.870,-0.210,-0.080
8.872,-0.350,-0.085
8.874,-0.320,-0.085
8.876,-0.140,-0.080
8.878,-0.035,-0.075
8.880,-0.060,-0.065
8.882,0.040,-0.050
8.884,0.135,-0.035
8.886,0.085,-0.015
8.888,-0.035,0.000
8.890,-0.080,0.010
8.892,-0.170,0.020
8.894,-0.165,0.015
8.896,-0.155,0.010
8.898,0.015,-0.005
8.900,-0.005,-0.020
8.902,0.040,-0.040
8.904,0.045,-0.055
8.906,0.045,-0.060
8.908,-0.070,-0.065
8.910,-0.225,-0.055
8.912,-0.235,-0.045
8.914,-0.220,-0.030
8.916,-0.120,-0.015
8.918,0.030,-0.005
8.920,0.110,0.000
8.922,0.150,0.000
8.924,0.075,-0.005
8.926,0.035,-0.015
8.928,-0.130,-0.025
8.930,-0.175,-0.035
8.932,-0.320,-0.045
8.934,-0.125,-0.050
8.936,-0.125,-0.045
8.938,-0.060,-0.045
8.940,0.110,-0.035
8.942,0.065,-0.025
8.944,-0.025,-0.020
8.946,0.070,-0.010
8.948,-0.095,0.000
8.950,-0.150,0.010
8.952,-0.080,0.025
8.954,-0.125,0.035
8.956,0.025,0.045
8.958,0.125,0.060
8.960,0.105,0.070
8.962,0.140,0.080
8.964,0.255,0.085
8.966,0.060,0.085
8.968,0.080,0.085
8.970,-0.100,0.080
8.972,-0.105,0.070
8.974,-0.050,0.060
8.976,0.005,0.055
8.978,0.045,0.050
8.980,0.070,0.055
8.982,0.150,0.060
8.984,0.195,0.065
8.986,0.060,0.080
8.988,0.095,0.095
8.990,-0.030,0.105
8.992,-0.085,0.120
8.994,0.005,0.125
8.996,0.015,0.130
8.998,0.185,0.125
9.000,0.175,0.120
9.002,0.240,0.115
9.004,0.205,0.105
9.006,0.115,0.095
9.008,-0.015,0.085
9.010,-0.170,0.080
9.012,-0.040,0.075
9.014,-0.025,0.075
9.016,-0.050,0.075
9.018,0.045,0.075
9.020,0.220,0.070
9.022,0.205,0.070
9.024,0.160,0.065
9.026,0.125,0.065
9.028,-0.040,0.065
9.030,-0.130,0.070
9.032,-0.110,0.075
9.034,-0.100,0.085
9.036,0.025,0.095
9.038,0.115,0.105
9.040,0.220,0.115
9.042,0.395,0.110
9.044,0.270,0.105
9.046,0.045,0.085
9.048,-0.020,0.060
9.050,-0.230,0.030
9.052,-0.260,0.000
9.054,-0.165,-0.025
9.056,-0.020,-0.045
9.058,0.045,-0.045
9.060,0.100,-0.040
9.062,0.110,-0.025
9.064,-0.025,-0.005
9.066,-0.040,0.015
9.068,-0.005,0.030
9.070,-0.090,0.035
9.072,-0.120,0.030
9.074,-0.135,0.015
9.076,-0.115,-0.005
9.078,-0.055,-0.030
9.080,0.080,-0.050
9.082,0.040,-0.070
9.084,0.020,-0.080
9.086,-0.020,-0.080
9.088,-0.135,-0.080
9.090,-0.260,-0.075
9.092,-0.325,-0.075
9.094,-0.155,-0.075
9.096,-0.185,-0.080
9.098,-0.155,-0.085
9.100,0.075,-0.095
9.102,0.035,-0.095
9.104,0.020,-0.095
9.106,-0.070,-0.090
9.108,-0.145,-0.080
9.110,-0.270,-0.070
9.112,-0.250,-0.060
9.114,-0.155,-0.055
9.116,-0.010,-0.050
9.118,-0.025,-0.050
9.120,0.010,-0.055
9.122,-0.035,-0.065
9.124,-0.070,-0.070
9.126,-0.085,-0.075
9.128,-0.060,-0.075
9.130,-0.105,-0.070
9.132,-0.250,-0.070
9.134,-0.185,-0.065
9.136,-0.110,-0.060
9.138,-0.070,-0.060
9.140,0.095,-0.060
9.142,-0.020,-0.060
9.144,0.010,-0.055
9.146,-0.095,-0.055
9.148,-0.050,-0.050
9.150,-0.220,-0.045
9.152,-0.150,-0.040
9.154,-0.145,-0.040
9.156,-0.135,-0.040
9.158,-0.080,-0.045
9.160,0.040,-0.055
9.162,0.110,-0.065
9.164,-0.050,-0.070
9.166,-0.050,-0.080
9.168,-0.060,-0.080
9.170,-0.265,-0.080
9.172,-0.255,-0.070
9.174,-0.150,-0.065
9.176,-0.045,-0.060
9.178,-0.095,-0.055
9.180,0.075,-0.055
9.182,0.005,-0.055
9.184,0.070,-0.060
9.186,-0.090,-0.065
9.188,-0.145,-0.065
9.190,-0.250,-0.070
9.192,-0.210,-0.065
9.194,-0.170,-0.060
9.196,0.000,-0.050
9.198,-0.045,-0.040
9.200,0.165,-0.035
9.202,0.010,-0.030
9.204,-0.060,-0.025
9.206,-0.045,-0.025
9.208,-0.120,-0.025
9.210,-0.180,-0.030
9.212,-0.130,-0.030
9.214,-0.170,-0.035
9.216,-0.055,-0.040
9.218,-0.035,-0.040
9.220,0.080,-0.045
9.222,0.125,-0.055
9.224,-0.030,-0.065
9.226,-0.040,-0.070
9.228,-0.255,-0.080
9.230,-0.255,-0.090
9.232,-0.235,-0.095
9.234,-0.200,-0.095
9.236,-0.135,-0.095
9.238,-0.110,-0.090
9.240,0.065,-0.080
9.242,0.045,-0.075
9.244,-0.020,-0.060
9.246,-0.090,-0.050
9.248,-0.195,-0.040
9.250,-0.300,-0.035
9.252,-0.160,-0.030
9.254,-0.115,-0.030
9.256,0.015,-0.035
9.258,0.055,-0.045
9.260,0.105,-0.055
9.262,0.000,-0.070
9.264,-0.140,-0.085
9.266,-0.115,-0.090
9.268,-0.240,-0.095
9.270,-0.330,-0.095
9.272,-0.240,-0.090
9.274,-0.105,-0.075
9.276,-0.085,-0.060
9.278,0.135,-0.040
9.280,0.100,-0.025
9.282,0.000,-0.010
9.284,-0.005,-0.005
9.286,-0.005,-0.010
9.288,-0.130,-0.020
9.290,-0.235,-0.035
9.292,-0.180,-0.055
9.294,-0.195,-0.075
9.296,-0.075,-0.090
9.298,-0.020,-0.105
9.300,0.035,-0.110
9.302,-0.055,-0.105
9.304,-0.065,-0.095
9.306,-0.110,-0.085
9.308,-0.170,-0.070
9.310,-0.235,-0.055
9.312,-0.255,-0.045
9.314,-0.030,-0.040
9.316,-0.080,-0.045
9.318,0.005,-0.050
9.320,0.065,-0.060
9.322,0.045,-0.065
9.324,-0.050,-0.075
9.326,-0.125,-0.080
9.328,-0.260,-0.085
9.330,-0.185,-0.085
9.332,-0.260,-0.085
9.334,-0.255,-0.080
9.336,-0.005,-0.080
9.338,-0.065,-0.080
9.340,0.055,-0.080
9.342,-0.010,-0.080
9.344,-0.015,-0.075
9.346,-0.125,-0.070
9.348,-0.155,-0.060
9.350,-0.185,-0.050
9.352,-0.155,-0.040
9.354,-0.195,-0.030
9.356,-0.080,-0.020
9.358,0.155,-0.015
9.360,0.100,-0.010
9.362,0.080,-0.010
9.364,0.035,-0.005
9.366,-0.110,-0.005
9.368,-0.110,-0.005
9.370,-0.215,0.000
9.372,-0.140,0.005
9.374,-0.085,0.005
9.376,-0.005,0.005
9.378,0.155,0.005
9.380,0.120,0.000
9.382,0.030,-0.010
9.384,-0.055,-0.025
9.386,-0.145,-0.045
9.388,-0.225,-0.065
9.390,-0.230,-0.085
9.392,-0.295,-0.100
9.394,-0.165,-0.115
9.396,-0.115,-0.120
9.398,0.030,-0.120
9.400,0.050,-0.110
9.402,-0.080,-0.095
9.404,-0.095,-0.075
9.406,-0.210,-0.055
9.408,-0.200,-0.040
9.410,-0.145,-0.030
9.412,-0.130,-0.025
9.414,-0.050,-0.030
9.416,-0.040,-0.045
9.418,0.145,-0.060
9.420,-0.090,-0.080
9.422,0.000,-0.095
9.424,-0.125,-0.110
9.426,-0.260,-0.115
9.428,-0.295,-0.110
9.430,-0.275,-0.105
9.432,-0.225,-0.095
9.434,-0.165,-0.085
9.436,-0.010,-0.075
9.438,0.085,-0.065
9.440,0.060,-0.055
9.442,0.025,-0.045
9.444,-0.010,-0.040
9.446,-0.065,-0.030
9.448,-0.230,-0.020
9.450,-0.375,-0.010
9.452,-0.100,-0.005
9.454,-0.030,0.005
9.456,0.100,0.015
9.458,0.120,0.035
9.460,0.195,0.070
9.462,0.130,0.120
9.464,0.170,0.190
9.466,0.235,0.275
9.468,0.185,0.370
9.470,0.260,0.470
9.472,0.450,0.550
9.474,0.725,0.600
9.476,0.665,0.615
9.478,0.640,0.585
9.480,0.605,0.505
9.482,0.500,0.395
9.484,0.295,0.260
9.486,-0.050,0.125
9.488,-0.340,0.000
9.490,-0.310,-0.095
9.492,-0.320,-0.155
9.494,-0.200,-0.180
9.496,-0.185,-0.180
9.498,0.040,-0.160
9.500,0.075,-0.130
9.502,-0.040,-0.105
9.504,-0.160,-0.090
9.506,-0.340,-0.080
9.508,-0.370,-0.075
9.510,-0.230,-0.080
9.512,-0.140,-0.075
9.514,-0.005,-0.070
9.516,0.070,-0.060
9.518,0.080,-0.045
9.520,0.025,-0.035
9.522,-0.040,-0.020
9.524,-0.105,-0.015
9.526,-0.180,-0.015
9.528,-0.275,-0.020
9.530,-0.190,-0.025
9.532,-0.040,-0.030
9.534,-0.020,-0.035
9.536,0.020,-0.035
9.538,0.115,-0.030
9.540,0.070,-0.025
9.542,-0.045,-0.020
9.544,-0.180,-0.020
9.546,-0.145,-0.025
9.548,-0.230,-0.030
9.550,-0.195,-0.040
9.552,-0.230,-0.045
9.554,-0.060,-0.045
9.556,0.140,-0.045
9.558,0.105,-0.035
9.560,-0.020,-0.030
9.562,-0.005,-0.020
9.564,-0.125,-0.015
9.566,-0.140,-0.015
9.568,-0.230,-0.020
9.570,-0.265,-0.030
9.572,-0.160,-0.035
9.574,0.020,-0.045
9.576,0.110,-0.045
9.578,0.070,-0.045
9.580,0.045,-0.040
9.582,-0.015,-0.035
9.584,-0.105,-0.035
9.586,-0.265,-0.040
9.588,-0.325,-0.050
9.590,-0.165,-0.065
9.592,-0.110,-0.075
9.594,-0.225,-0.085
9.596,-0.035,-0.090
9.598,0.065,-0.080
9.600,0.020,-0.060
9.602,0.010,-0.030
9.604,-0.055,0.000
9.606,-0.165,0.030
9.608,-0.130,0.055
9.610,-0.005,0.070
9.612,-0.065,0.075
9.614,-0.005,0.065
9.616,0.070,0.055
9.618,0.065,0.035
9.620,0.130,0.020
9.622,0.075,0.010
9.624,-0.035,0.005
9.626,-0.145,0.010
9.628,-0.195,0.015
9.630,-0.220,0.020
9.632,-0.095,0.030
9.634,0.070,0.035
9.636,0.100,0.035
9.638,0.125,0.030
9.640,0.050,0.025
9.642,-0.005,0.025
9.644,0.005,0.020
9.646,-0.180,0.020
9.648,-0.180,0.025
9.650,-0.075,0.030
9.652,-0.010,0.040
9.654,0.000,0.050
9.656,0.075,0.060
9.658,0.085,0.065
9.660,0.145,0.070
9.662,0.030,0.070
9.664,0.065,0.070
9.666,-0.100,0.065
9.668,-0.105,0.060
9.670,-0.075,0.060
9.672,0.020,0.060
9.674,-0.040,0.060
9.676,0.120,0.070
9.678,0.090,0.075
9.680,0.220,0.090
9.682,0.025,0.100
9.684,0.055,0.115
9.686,-0.080,0.125
9.688,0.020,0.130
9.690,-0.080,0.135
9.692,0.100,0.140
9.694,0.065,0.135
9.696,0.255,0.135
9.698,0.120,0.130
9.700,0.210,0.125
9.702,0.040,0.125
9.704,0.155,0.130
9.706,-0.095,0.135
9.708,-0.110,0.145
9.710,0.030,0.150
9.712,0.040,0.160
9.714,0.220,0.165
9.716,0.330,0.170
9.718,0.160,0.165
9.720,0.160,0.160
9.722,0.210,0.150
9.724,0.040,0.135
9.726,-0.165,0.125
9.728,-0.085,0.115
9.730,-0.070,0.105
9.732,0.045,0.100
9.734,0.030,0.095
9.736,0.210,0.100
9.738,0.185,0.105
9.740,0.170,0.110
9.742,0.065,0.110
9.744,0.005,0.115
9.746,-0.125,0.115
9.748,-0.110,0.110
9.750,-0.020,0.105
9.752,0.045,0.095
9.754,0.015,0.080
9.756,0.170,0.070
9.758,0.140,0.060
9.760,0.045,0.050
9.762,-0.030,0.040
9.764,-0.075,0.035
9.766,-0.175,0.035
9.768,-0.170,0.030
9.770,-0.145,0.030
9.772,0.010,0.025
9.774,-0.020,0.020
9.776,0.130,0.015
9.778,0.045,0.010
9.780,0.020,0.005
9.782,-0.060,0.005
9.784,-0.195,0.000
9.786,-0.190,-0.005
9.788,-0.250,-0.005
9.790,-0.155,-0.010
9.792,0.030,-0.015
9.794,-0.050,-0.020
9.796,0.055,-0.030
9.798,0.100,-0.040
9.800,-0.115,-0.045
9.802,-0.165,-0.045
9.804,-0.165,-0.040
9.806,-0.205,-0.030
9.808,-0.235,-0.015
9.810,-0.115,-0.005
9.812,-0.010,0.010
9.814,0.055,0.020
9.816,0.005,0.020
9.818,0.030,0.015
9.820,-0.015,0.000
9.822,-0.045,-0.020
9.824,-0.190,-0.035
9.826,-0.275,-0.055
9.828,-0.230,-0.065
9.830,-0.295,-0.065
9.832,-0.215,-0.060
9.834,0.075,-0.045
9.836,0.080,-0.025
9.838,0.065,-0.010
9.840,-0.065,0.010
9.842,-0.115,0.020
9.844,-0.145,0.020
9.846,-0.230,0.020
9.848,-0.090,0.010
9.850,-0.120,0.000
9.852,-0.105,-0.010
9.854,-0.005,-0.015
9.856,0.075,-0.015
9.858,-0.005,-0.015
9.860,-0.025,-0.005
9.862,-0.155,0.005
9.864,-0.105,0.020
9.866,-0.130,0.025
9.868,-0.200,0.030
9.870,-0.060,0.030
9.872,-0.060,0.025
9.874,0.045,0.015
9.876,0.095,0.010
9.878,0.025,0.005
9.880,-0.075,0.000
9.882,-0.135,0.005
9.884,-0.120,0.015
9.886,-0.210,0.020
9.888,-0.200,0.025
9.890,-0.035,0.030
9.892,-0.025,0.025
9.894,-0.005,0.015
9.896,0.055,0.000
9.898,-0.005,-0.015
9.900,-0.025,-0.030
9.902,-0.200,-0.040
9.904,-0.340,-0.045
9.906,-0.195,-0.035
9.908,-0.170,-0.020
9.910,-0.080,0.000
9.912,0.050,0.020
9.914,0.030,0.040
9.916,-0.005,0.060
9.918,0.160,0.065
9.920,-0.025,0.070
9.922,-0.040,0.065
9.924,-0.150,0.055
9.926,-0.185,0.045
9.928,-0.155,0.030
9.930,-0.105,0.020
9.932,-0.055,0.010
9.934,0.045,0.005
9.936,0.075,0.005
9.938,0.070,0.000
9.940,-0.050,0.000
9.942,-0.175,0.000
9.944,-0.310,0.000
9.946,-0.195,0.000
9.948,-0.175,0.000
9.950,-0.090,0.000
9.952,-0.120,0.000
9.954,0.105,0.005
9.956,0.045,0.010
9.958,0.005,0.015
9.960,-0.025,0.020
9.962,-0.125,0.025
9.964,-0.195,0.025
9.966,-0.155,0.020
9.968,-0.180,0.015
9.970,-0.150,0.005
9.972,-0.030,-0.005
9.974,-0.045,-0.015
9.976,0.075,-0.020
9.978,-0.005,-0.025
9.980,-0.095,-0.020
9.982,-0.250,-0.015
9.984,-0.175,-0.005
9.986,-0.235,0.005
9.988,-0.240,0.015
9.990,-0.080,0.015
9.992,-0.015,0.015
9.994,0.040,0.015
9.996,0.080,0.005
9.998,-0.020,0.000
