'Elapsed time','ECG I','ECG I filtered'
'seconds','mV','mV'
0.000,-0.360,-0.030
0.002,-0.355,-0.040
0.004,-0.380,-0.045
0.006,-0.380,-0.050
0.008,-0.375,-0.055
0.010,-0.375,-0.055
0.012,-0.375,-0.050
0.014,-0.380,-0.045
0.016,-0.380,-0.040
0.018,-0.370,-0.040
0.020,-0.325,-0.040
0.022,-0.360,-0.045
0.024,-0.360,-0.050
0.026,-0.360,-0.055
0.028,-0.360,-0.055
0.030,-0.405,-0.060
0.032,-0.390,-0.060
0.034,-0.390,-0.055
0.036,-0.380,-0.050
0.038,-0.345,-0.045
0.040,-0.320,-0.040
0.042,-0.345,-0.030
0.044,-0.360,-0.025
0.046,-0.360,-0.025
0.048,-0.360,-0.025
0.050,-0.385,-0.025
0.052,-0.350,-0.025
0.054,-0.355,-0.025
0.056,-0.370,-0.025
0.058,-0.340,-0.025
0.060,-0.320,-0.025
0.062,-0.330,-0.020
0.064,-0.340,-0.015
0.066,-0.345,-0.015
0.068,-0.345,-0.010
0.070,-0.355,-0.010
0.072,-0.335,-0.010
0.074,-0.340,-0.015
0.076,-0.355,-0.020
0.078,-0.350,-0.025
0.080,-0.330,-0.030
0.082,-0.345,-0.035
0.084,-0.345,-0.040
0.086,-0.345,-0.040
0.088,-0.370,-0.035
0.090,-0.395,-0.035
0.092,-0.360,-0.030
0.094,-0.340,-0.025
0.096,-0.365,-0.025
0.098,-0.345,-0.030
0.100,-0.325,-0.030
0.102,-0.330,-0.035
0.104,-0.335,-0.040
0.106,-0.335,-0.045
0.108,-0.350,-0.045
0.110,-0.360,-0.040
0.112,-0.345,-0.035
0.114,-0.345,-0.030
0.116,-0.370,-0.025
0.118,-0.340,-0.020
0.120,-0.330,-0.020
0.122,-0.325,-0.020
0.124,-0.325,-0.020
0.126,-0.325,-0.020
0.128,-0.375,-0.025
0.130,-0.380,-0.025
0.132,-0.345,-0.030
0.134,-0.350,-0.025
0.136,-0.355,-0.025
0.138,-0.330,-0.020
0.140,-0.340,-0.020
0.142,-0.345,-0.020
0.144,-0.345,-0.020
0.146,-0.340,-0.025
0.148,-0.375,-0.025
0.150,-0.370,-0.030
0.152,-0.360,-0.030
0.154,-0.340,-0.035
0.156,-0.345,-0.035
0.158,-0.325,-0.030
0.160,-0.320,-0.030
0.162,-0.335,-0.030
0.164,-0.335,-0.025
0.166,-0.330,-0.025
0.168,-0.370,-0.025
0.170,-0.365,-0.025
0.172,-0.335,-0.025
0.174,-0.310,-0.025
0.176,-0.330,-0.020
0.178,-0.300,-0.015
0.180,-0.305,-0.010
0.182,-0.315,0.000
0.184,-0.340,0.005
0.186,-0.320,0.010
0.188,-0.335,0.015
0.190,-0.310,0.020
0.192,-0.295,0.020
0.194,-0.305,0.020
0.196,-0.310,0.020
0.198,-0.275,0.015
0.200,-0.270,0.015
0.202,-0.275,0.020
0.204,-0.285,0.025
0.206,-0.270,0.035
0.208,-0.285,0.045
0.210,-0.265,0.055
0.212,-0.250,0.065
0.214,-0.250,0.070
0.216,-0.255,0.080
0.218,-0.220,0.080
0.220,-0.230,0.080
0.222,-0.225,0.080
0.224,-0.240,0.075
0.226,-0.240,0.070
0.228,-0.275,0.065
0.230,-0.275,0.060
0.232,-0.285,0.055
0.234,-0.280,0.045
0.236,-0.290,0.035
0.238,-0.275,0.025
0.240,-0.280,0.010
0.242,-0.325,-0.005
0.244,-0.360,-0.020
0.246,-0.345,-0.030
0.248,-0.370,-0.035
0.250,-0.345,-0.035
0.252,-0.345,-0.035
0.254,-0.340,-0.030
0.256,-0.340,-0.030
0.258,-0.315,-0.025
0.260,-0.330,-0.030
0.262,-0.335,-0.030
0.264,-0.360,-0.040
0.266,-0.360,-0.045
0.268,-0.390,-0.055
0.270,-0.365,-0.060
0.272,-0.350,-0.060
0.274,-0.355,-0.055
0.276,-0.355,-0.045
0.278,-0.305,-0.040
0.280,-0.325,-0.030
0.282,-0.355,-0.020
0.284,-0.375,-0.015
0.286,-0.340,-0.015
0.288,-0.360,-0.020
0.290,-0.345,-0.025
0.292,-0.355,-0.030
0.294,-0.355,-0.035
0.296,-0.350,-0.035
0.298,-0.325,-0.040
0.300,-0.340,-0.035
0.302,-0.360,-0.035
0.304,-0.340,-0.035
0.306,-0.345,-0.035
0.308,-0.375,-0.035
0.310,-0.350,-0.035
0.312,-0.350,-0.035
0.314,-0.360,-0.035
0.316,-0.355,-0.030
0.318,-0.315,-0.030
0.320,-0.330,-0.025
0.322,-0.340,-0.025
0.324,-0.335,-0.025
0.326,-0.335,-0.030
0.328,-0.370,-0.040
0.330,-0.370,-0.050
0.332,-0.380,-0.060
0.334,-0.370,-0.065
0.336,-0.335,-0.065
0.338,-0.310,-0.050
0.340,-0.305,-0.025
0.342,-0.290,0.020
0.344,-0.230,0.075
0.346,-0.150,0.145
0.348,-0.090,0.220
0.350,0.010,0.300
0.352,0.100,0.380
0.354,0.175,0.455
0.356,0.255,0.520
0.358,0.325,0.570
0.360,0.330,0.605
0.362,0.375,0.620
0.364,0.375,0.610
0.366,0.295,0.575
0.368,0.175,0.520
0.370,0.115,0.450
0.372,0.015,0.360
0.374,-0.095,0.260
0.376,-0.180,0.165
0.378,-0.250,0.080
0.380,-0.320,0.010
0.382,-0.355,-0.040
0.384,-0.335,-0.065
0.386,-0.360,-0.075
0.388,-0.370,-0.070
0.390,-0.340,-0.055
0.392,-0.320,-0.035
0.394,-0.360,-0.020
0.396,-0.355,-0.015
0.398,-0.325,-0.015
0.400,-0.320,-0.020
0.402,-0.320,-0.030
0.404,-0.320,-0.040
0.406,-0.335,-0.050
0.408,-0.345,-0.055
0.410,-0.335,-0.055
0.412,-0.335,-0.050
0.414,-0.360,-0.045
0.416,-0.330,-0.040
0.418,-0.320,-0.035
0.420,-0.330,-0.035
0.422,-0.330,-0.035
0.424,-0.335,-0.035
0.426,-0.330,-0.035
0.428,-0.355,-0.035
0.430,-0.330,-0.030
0.432,-0.325,-0.030
0.434,-0.355,-0.025
0.436,-0.305,-0.020
0.438,-0.310,-0.015
0.440,-0.320,-0.015
0.442,-0.315,-0.015
0.444,-0.310,-0.020
0.446,-0.340,-0.020
0.448,-0.330,-0.025
0.450,-0.315,-0.025
0.452,-0.320,-0.025
0.454,-0.325,-0.025
0.456,-0.305,-0.025
0.458,-0.305,-0.020
0.460,-0.300,-0.020
0.462,-0.300,-0.020
0.464,-0.300,-0.020
0.466,-0.340,-0.020
0.468,-0.320,-0.020
0.470,-0.315,-0.020
0.472,-0.325,-0.020
0.474,-0.345,-0.015
0.476,-0.285,-0.010
0.478,-0.280,-0.005
0.480,-0.285,-0.005
0.482,-0.295,0.000
0.484,-0.295,0.000
0.486,-0.315,0.000
0.488,-0.320,0.000
0.490,-0.315,-0.005
0.492,-0.310,-0.005
0.494,-0.320,-0.005
0.496,-0.295,-0.005
0.498,-0.290,-0.005
0.500,-0.300,-0.005
0.502,-0.305,0.000
0.504,-0.295,0.000
0.506,-0.310,0.005
0.508,-0.295,0.005
0.510,-0.290,0.010
0.512,-0.290,0.010
0.514,-0.300,0.010
0.516,-0.275,0.010
0.518,-0.290,0.010
0.520,-0.295,0.010
0.522,-0.305,0.010
0.524,-0.290,0.010
0.526,-0.285,0.015
0.528,-0.280,0.015
0.530,-0.280,0.020
0.532,-0.275,0.025
0.534,-0.285,0.025
0.536,-0.245,0.030
0.538,-0.245,0.035
0.540,-0.260,0.035
0.542,-0.280,0.035
0.544,-0.265,0.035
0.546,-0.275,0.035
0.548,-0.255,0.035
0.550,-0.265,0.035
0.552,-0.265,0.035
0.554,-0.245,0.040
0.556,-0.210,0.045
0.558,-0.220,0.045
0.560,-0.230,0.050
0.562,-0.225,0.055
0.564,-0.210,0.055
0.566,-0.245,0.055
0.568,-0.230,0.055
0.570,-0.220,0.060
0.572,-0.215,0.065
0.574,-0.200,0.070
0.576,-0.170,0.080
0.578,-0.160,0.090
0.580,-0.175,0.095
0.582,-0.180,0.105
0.584,-0.175,0.115
0.586,-0.200,0.115
0.588,-0.185,0.120
0.590,-0.185,0.120
0.592,-0.185,0.115
0.594,-0.175,0.115
0.596,-0.160,0.110
0.598,-0.175,0.110
0.600,-0.175,0.110
0.602,-0.180,0.110
0.604,-0.170,0.110
0.606,-0.185,0.110
0.608,-0.170,0.115
0.610,-0.180,0.115
0.612,-0.195,0.110
0.614,-0.190,0.110
0.616,-0.160,0.105
0.618,-0.170,0.100
0.620,-0.195,0.095
0.622,-0.195,0.090
0.624,-0.175,0.085
0.626,-0.210,0.080
0.628,-0.205,0.075
0.630,-0.200,0.075
0.632,-0.220,0.075
0.634,-0.230,0.075
0.636,-0.205,0.075
0.638,-0.220,0.070
0.640,-0.235,0.065
0.642,-0.245,0.060
0.644,-0.265,0.050
0.646,-0.290,0.035
0.648,-0.265,0.025
0.650,-0.255,0.015
0.652,-0.265,0.005
0.654,-0.280,0.000
0.656,-0.285,0.000
0.658,-0.300,-0.005
0.660,-0.285,-0.005
0.662,-0.295,-0.005
0.664,-0.300,-0.005
0.666,-0.325,-0.010
0.668,-0.310,-0.015
0.670,-0.305,-0.020
0.672,-0.320,-0.025
0.674,-0.305,-0.030
0.676,-0.285,-0.035
0.678,-0.295,-0.035
0.680,-0.295,-0.035
0.682,-0.295,-0.035
0.684,-0.315,-0.030
0.686,-0.330,-0.030
0.688,-0.325,-0.030
0.690,-0.320,-0.030
0.692,-0.335,-0.030
0.694,-0.310,-0.035
0.696,-0.285,-0.035
0.698,-0.300,-0.035
0.700,-0.320,-0.035
0.702,-0.305,-0.030
0.704,-0.315,-0.025
0.706,-0.330,-0.025
0.708,-0.345,-0.025
0.710,-0.345,-0.025
0.712,-0.350,-0.030
0.714,-0.310,-0.035
0.716,-0.315,-0.045
0.718,-0.315,-0.050
0.720,-0.315,-0.055
0.722,-0.305,-0.055
0.724,-0.315,-0.055
0.726,-0.320,-0.050
0.728,-0.315,-0.045
0.730,-0.330,-0.040
0.732,-0.345,-0.035
0.734,-0.315,-0.035
0.736,-0.305,-0.035
0.738,-0.320,-0.040
0.740,-0.315,-0.045
0.742,-0.310,-0.050
0.744,-0.340,-0.055
0.746,-0.340,-0.060
0.748,-0.315,-0.055
0.750,-0.310,-0.050
0.752,-0.315,-0.045
0.754,-0.295,-0.035
0.756,-0.285,-0.030
0.758,-0.305,-0.025
0.760,-0.325,-0.025
0.762,-0.310,-0.025
0.764,-0.330,-0.030
0.766,-0.315,-0.035
0.768,-0.305,-0.035
0.770,-0.285,-0.040
0.772,-0.325,-0.040
0.774,-0.305,-0.040
0.776,-0.290,-0.040
0.778,-0.300,-0.040
0.780,-0.310,-0.040
0.782,-0.300,-0.040
0.784,-0.335,-0.040
0.786,-0.325,-0.040
0.788,-0.315,-0.035
0.790,-0.295,-0.035
0.792,-0.290,-0.030
0.794,-0.250,-0.025
0.796,-0.260,-0.020
0.798,-0.285,-0.020
0.800,-0.305,-0.015
0.802,-0.290,-0.015
0.804,-0.315,-0.020
0.806,-0.305,-0.020
0.808,-0.300,-0.025
0.810,-0.305,-0.025
0.812,-0.305,-0.025
0.814,-0.270,-0.025
0.816,-0.275,-0.025
0.818,-0.295,-0.025
0.820,-0.295,-0.020
0.822,-0.290,-0.020
0.824,-0.300,-0.020
0.826,-0.295,-0.020
0.828,-0.305,-0.025
0.830,-0.300,-0.025
0.832,-0.295,-0.025
0.834,-0.275,-0.030
0.836,-0.270,-0.035
0.838,-0.300,-0.035
0.840,-0.305,-0.040
0.842,-0.300,-0.040
0.844,-0.325,-0.040
0.846,-0.315,-0.045
0.848,-0.300,-0.045
0.850,-0.310,-0.040
0.852,-0.310,-0.040
0.854,-0.280,-0.035
0.856,-0.295,-0.030
0.858,-0.310,-0.025
0.860,-0.325,-0.020
0.862,-0.290,-0.015
0.864,-0.290,-0.010
0.866,-0.305,-0.010
0.868,-0.310,-0.015
0.870,-0.305,-0.015
0.872,-0.295,-0.020
0.874,-0.285,-0.025
0.876,-0.290,-0.030
0.878,-0.285,-0.035
0.880,-0.300,-0.040
0.882,-0.285,-0.045
0.884,-0.325,-0.045
0.886,-0.315,-0.045
0.888,-0.315,-0.040
0.890,-0.325,-0.040
0.892,-0.325,-0.035
0.894,-0.290,-0.030
0.896,-0.290,-0.030
0.898,-0.300,-0.030
0.900,-0.325,-0.035
0.902,-0.310,-0.035
0.904,-0.325,-0.040
0.906,-0.320,-0.045
0.908,-0.310,-0.045
0.910,-0.290,-0.045
0.912,-0.305,-0.045
0.914,-0.275,-0.040
0.916,-0.290,-0.035
0.918,-0.295,-0.030
0.920,-0.290,-0.025
0.922,-0.295,-0.025
0.924,-0.325,-0.025
0.926,-0.310,-0.025
0.928,-0.310,-0.030
0.930,-0.310,-0.035
0.932,-0.290,-0.035
0.934,-0.260,-0.035
0.936,-0.275,-0.035
0.938,-0.280,-0.030
0.940,-0.260,-0.025
0.942,-0.275,-0.020
0.944,-0.330,-0.015
0.946,-0.300,-0.015
0.948,-0.285,-0.015
0.950,-0.300,-0.020
0.952,-0.285,-0.020
0.954,-0.260,-0.025
0.956,-0.285,-0.030
0.958,-0.275,-0.035
0.960,-0.280,-0.035
0.962,-0.270,-0.030
0.964,-0.285,-0.020
0.966,-0.260,-0.010
0.968,-0.260,0.000
0.970,-0.255,0.010
0.972,-0.235,0.020
0.974,-0.195,0.025
0.976,-0.210,0.030
0.978,-0.210,0.035
0.980,-0.200,0.035
0.982,-0.225,0.035
0.984,-0.240,0.035
0.986,-0.230,0.035
0.988,-0.215,0.035
0.990,-0.240,0.035
0.992,-0.205,0.035
0.994,-0.210,0.035
0.996,-0.235,0.030
0.998,-0.245,0.025
1.000,-0.260,0.020
1.002,-0.270,0.010
1.004,-0.270,0.005
1.006,-0.255,-0.005
1.008,-0.300,-0.010
1.010,-0.310,-0.020
1.012,-0.280,-0.025
1.014,-0.270,-0.030
1.016,-0.290,-0.035
1.018,-0.320,-0.040
1.020,-0.310,-0.045
1.022,-0.325,-0.045
1.024,-0.325,-0.045
1.026,-0.315,-0.045
1.028,-0.310,-0.045
1.030,-0.315,-0.045
1.032,-0.285,-0.045
1.034,-0.285,-0.045
1.036,-0.300,-0.050
1.038,-0.310,-0.055
1.040,-0.310,-0.060
1.042,-0.335,-0.065
1.044,-0.330,-0.065
1.046,-0.330,-0.070
1.048,-0.320,-0.070
1.050,-0.330,-0.070
1.052,-0.305,-0.065
1.054,-0.300,-0.060
1.056,-0.310,-0.055
1.058,-0.325,-0.055
1.060,-0.310,-0.055
1.062,-0.335,-0.055
1.064,-0.320,-0.060
1.066,-0.330,-0.065
1.068,-0.315,-0.075
1.070,-0.345,-0.080
1.072,-0.315,-0.080
1.074,-0.320,-0.080
1.076,-0.325,-0.075
1.078,-0.315,-0.065
1.080,-0.295,-0.055
1.082,-0.295,-0.050
1.084,-0.310,-0.040
1.086,-0.300,-0.040
1.088,-0.305,-0.045
1.090,-0.360,-0.050
1.092,-0.315,-0.060
1.094,-0.305,-0.075
1.096,-0.350,-0.085
1.098,-0.355,-0.090
1.100,-0.345,-0.090
1.102,-0.365,-0.075
1.104,-0.305,-0.055
1.106,-0.245,-0.025
1.108,-0.250,0.015
1.110,-0.210,0.070
1.112,-0.115,0.130
1.114,-0.045,0.200
1.116,0.055,0.275
1.118,0.150,0.350
1.120,0.240,0.430
1.122,0.270,0.500
1.124,0.330,0.560
1.126,0.360,0.600
1.128,0.395,0.615
1.130,0.375,0.605
1.132,0.315,0.565
1.134,0.215,0.495
1.136,0.160,0.410
1.138,0.060,0.310
1.140,-0.060,0.205
1.142,-0.225,0.110
1.144,-0.290,0.030
1.146,-0.315,-0.030
1.148,-0.350,-0.070
1.150,-0.360,-0.085
1.152,-0.310,-0.090
1.154,-0.300,-0.080
1.156,-0.285,-0.065
1.158,-0.300,-0.055
1.160,-0.290,-0.045
1.162,-0.290,-0.045
1.164,-0.295,-0.045
1.166,-0.295,-0.050
1.168,-0.315,-0.050
1.170,-0.320,-0.055
1.172,-0.290,-0.055
1.174,-0.310,-0.055
1.176,-0.310,-0.055
1.178,-0.290,-0.055
1.180,-0.295,-0.055
1.182,-0.330,-0.060
1.184,-0.325,-0.065
1.186,-0.315,-0.070
1.188,-0.330,-0.075
1.190,-0.330,-0.080
1.192,-0.290,-0.080
1.194,-0.300,-0.075
1.196,-0.305,-0.075
1.198,-0.305,-0.065
1.200,-0.300,-0.060
1.202,-0.320,-0.055
1.204,-0.290,-0.050
1.206,-0.280,-0.045
1.208,-0.275,-0.040
1.210,-0.290,-0.035
1.212,-0.255,-0.035
1.214,-0.255,-0.030
1.216,-0.275,-0.030
1.218,-0.290,-0.030
1.220,-0.285,-0.030
1.222,-0.310,-0.030
1.224,-0.290,-0.035
1.226,-0.295,-0.035
1.228,-0.295,-0.040
1.230,-0.280,-0.040
1.232,-0.250,-0.040
1.234,-0.265,-0.040
1.236,-0.265,-0.040
1.238,-0.270,-0.035
1.240,-0.270,-0.035
1.242,-0.295,-0.035
1.244,-0.275,-0.035
1.246,-0.270,-0.035
1.248,-0.310,-0.040
1.250,-0.285,-0.040
1.252,-0.255,-0.040
1.254,-0.270,-0.035
1.256,-0.280,-0.030
1.258,-0.265,-0.025
1.260,-0.290,-0.020
1.262,-0.300,-0.020
1.264,-0.280,-0.015
1.266,-0.275,-0.015
1.268,-0.275,-0.020
1.270,-0.280,-0.025
1.272,-0.260,-0.030
1.274,-0.270,-0.035
1.276,-0.255,-0.035
1.278,-0.250,-0.030
1.280,-0.260,-0.025
1.282,-0.290,-0.020
1.284,-0.280,-0.015
1.286,-0.285,-0.005
1.288,-0.285,0.000
1.290,-0.245,0.000
1.292,-0.205,0.000
1.294,-0.220,-0.005
1.296,-0.245,-0.005
1.298,-0.230,-0.010
1.300,-0.250,-0.005
1.302,-0.260,-0.005
1.304,-0.245,0.000
1.306,-0.225,0.010
1.308,-0.230,0.020
1.310,-0.205,0.025
1.312,-0.210,0.030
1.314,-0.215,0.035
1.316,-0.230,0.035
1.318,-0.210,0.030
1.320,-0.235,0.025
1.322,-0.245,0.020
1.324,-0.225,0.020
1.326,-0.205,0.020
1.328,-0.230,0.020
1.330,-0.180,0.030
1.332,-0.155,0.040
1.334,-0.170,0.050
1.336,-0.175,0.060
1.338,-0.170,0.070
1.340,-0.180,0.080
1.342,-0.180,0.085
1.344,-0.170,0.090
1.346,-0.170,0.090
1.348,-0.170,0.095
1.350,-0.140,0.095
1.352,-0.130,0.090
1.354,-0.140,0.095
1.356,-0.135,0.095
1.358,-0.130,0.095
1.360,-0.150,0.095
1.362,-0.160,0.095
1.364,-0.155,0.100
1.366,-0.135,0.100
1.368,-0.150,0.100
1.370,-0.130,0.100
1.372,-0.130,0.100
1.374,-0.145,0.100
1.376,-0.155,0.100
1.378,-0.145,0.100
1.380,-0.170,0.100
1.382,-0.170,0.095
1.384,-0.170,0.095
1.386,-0.175,0.090
1.388,-0.185,0.085
1.390,-0.140,0.080
1.392,-0.135,0.070
1.394,-0.180,0.065
1.396,-0.175,0.055
1.398,-0.165,0.050
1.400,-0.190,0.045
1.402,-0.200,0.040
1.404,-0.210,0.035
1.406,-0.215,0.030
1.408,-0.235,0.030
1.410,-0.220,0.025
1.412,-0.225,0.020
1.414,-0.225,0.015
1.416,-0.225,0.010
1.418,-0.245,0.005
1.420,-0.280,0.000
1.422,-0.270,-0.005
1.424,-0.260,-0.010
1.426,-0.265,-0.015
1.428,-0.265,-0.025
1.430,-0.245,-0.030
1.432,-0.265,-0.035
1.434,-0.280,-0.040
1.436,-0.280,-0.045
1.438,-0.270,-0.045
1.440,-0.295,-0.050
1.442,-0.300,-0.050
1.444,-0.290,-0.050
1.446,-0.285,-0.045
1.448,-0.280,-0.045
1.450,-0.245,-0.045
1.452,-0.270,-0.045
1.454,-0.290,-0.045
1.456,-0.290,-0.045
1.458,-0.310,-0.045
1.460,-0.310,-0.045
1.462,-0.275,-0.045
1.464,-0.300,-0.045
1.466,-0.300,-0.045
1.468,-0.300,-0.050
1.470,-0.260,-0.050
1.472,-0.280,-0.055
1.474,-0.310,-0.060
1.476,-0.315,-0.070
1.478,-0.290,-0.070
1.480,-0.305,-0.075
1.482,-0.300,-0.075
1.484,-0.280,-0.070
1.486,-0.315,-0.065
1.488,-0.290,-0.060
1.490,-0.260,-0.050
1.492,-0.270,-0.045
1.494,-0.295,-0.045
1.496,-0.300,-0.050
1.498,-0.285,-0.055
1.500,-0.305,-0.060
1.502,-0.290,-0.070
1.504,-0.300,-0.070
1.506,-0.295,-0.070
1.508,-0.290,-0.070
1.510,-0.255,-0.060
1.512,-0.270,-0.050
1.514,-0.270,-0.045
1.516,-0.265,-0.040
1.518,-0.290,-0.040
1.520,-0.310,-0.040
1.522,-0.300,-0.045
1.524,-0.295,-0.050
1.526,-0.310,-0.060
1.528,-0.275,-0.065
1.530,-0.250,-0.065
1.532,-0.270,-0.060
1.534,-0.275,-0.055
1.536,-0.285,-0.045
1.538,-0.285,-0.040
1.540,-0.295,-0.035
1.542,-0.275,-0.030
1.544,-0.270,-0.030
1.546,-0.280,-0.035
1.548,-0.265,-0.040
1.550,-0.240,-0.045
1.552,-0.260,-0.050
1.554,-0.275,-0.050
1.556,-0.285,-0.050
1.558,-0.275,-0.050
1.560,-0.280,-0.050
1.562,-0.290,-0.045
1.564,-0.275,-0.040
1.566,-0.250,-0.040
1.568,-0.240,-0.035
1.570,-0.230,-0.035
1.572,-0.240,-0.035
1.574,-0.245,-0.035
1.576,-0.255,-0.030
1.578,-0.275,-0.030
1.580,-0.285,-0.025
1.582,-0.285,-0.025
1.584,-0.290,-0.020
1.586,-0.285,-0.020
1.588,-0.240,-0.020
1.590,-0.225,-0.020
1.592,-0.250,-0.025
1.594,-0.255,-0.025
1.596,-0.260,-0.025
1.598,-0.270,-0.025
1.600,-0.280,-0.025
1.602,-0.270,-0.025
1.604,-0.265,-0.025
1.606,-0.290,-0.025
1.608,-0.255,-0.025
1.610,-0.240,-0.030
1.612,-0.230,-0.030
1.614,-0.250,-0.035
1.616,-0.260,-0.035
1.618,-0.290,-0.040
1.620,-0.305,-0.040
1.622,-0.295,-0.040
1.624,-0.280,-0.040
1.626,-0.285,-0.040
1.628,-0.250,-0.040
1.630,-0.240,-0.040
1.632,-0.260,-0.040
1.634,-0.265,-0.045
1.636,-0.265,-0.045
1.638,-0.285,-0.045
1.640,-0.280,-0.045
1.642,-0.270,-0.045
1.644,-0.275,-0.045
1.646,-0.280,-0.040
1.648,-0.265,-0.040
1.650,-0.280,-0.035
1.652,-0.260,-0.035
1.654,-0.240,-0.040
1.656,-0.250,-0.040
1.658,-0.275,-0.045
1.660,-0.285,-0.045
1.662,-0.295,-0.045
1.664,-0.285,-0.045
1.666,-0.290,-0.040
1.668,-0.255,-0.035
1.670,-0.250,-0.030
1.672,-0.235,-0.020
1.674,-0.230,-0.015
1.676,-0.235,-0.010
1.678,-0.275,-0.010
1.680,-0.290,-0.010
1.682,-0.260,-0.015
1.684,-0.260,-0.020
1.686,-0.265,-0.020
1.688,-0.225,-0.025
1.690,-0.240,-0.030
1.692,-0.250,-0.030
1.694,-0.255,-0.030
1.696,-0.240,-0.025
1.698,-0.255,-0.020
1.700,-0.225,-0.010
1.702,-0.225,0.000
1.704,-0.225,0.010
1.706,-0.210,0.020
1.708,-0.180,0.030
1.710,-0.175,0.035
1.712,-0.185,0.045
1.714,-0.205,0.050
1.716,-0.185,0.055
1.718,-0.190,0.060
1.720,-0.185,0.060
1.722,-0.160,0.060
1.724,-0.165,0.060
1.726,-0.180,0.055
1.728,-0.155,0.055
1.730,-0.170,0.050
1.732,-0.185,0.045
1.734,-0.180,0.045
1.736,-0.205,0.035
1.738,-0.220,0.030
1.740,-0.215,0.020
1.742,-0.230,0.010
1.744,-0.240,0.000
1.746,-0.255,-0.015
1.748,-0.235,-0.025
1.750,-0.250,-0.040
1.752,-0.285,-0.050
1.754,-0.290,-0.060
1.756,-0.285,-0.065
1.758,-0.275,-0.070
1.760,-0.275,-0.070
1.762,-0.275,-0.065
1.764,-0.270,-0.060
1.766,-0.275,-0.060
1.768,-0.250,-0.055
1.770,-0.270,-0.050
1.772,-0.310,-0.050
1.774,-0.295,-0.050
1.776,-0.260,-0.050
1.778,-0.285,-0.050
1.780,-0.280,-0.050
1.782,-0.285,-0.050
1.784,-0.300,-0.045
1.786,-0.305,-0.045
1.788,-0.270,-0.045
1.790,-0.275,-0.045
1.792,-0.275,-0.050
1.794,-0.275,-0.055
1.796,-0.275,-0.060
1.798,-0.300,-0.065
1.800,-0.290,-0.075
1.802,-0.275,-0.075
1.804,-0.305,-0.075
1.806,-0.310,-0.075
1.808,-0.260,-0.065
1.810,-0.275,-0.060
1.812,-0.270,-0.055
1.814,-0.280,-0.050
1.816,-0.280,-0.045
1.818,-0.300,-0.045
1.820,-0.265,-0.045
1.822,-0.270,-0.045
1.824,-0.285,-0.045
1.826,-0.260,-0.045
1.828,-0.235,-0.045
1.830,-0.260,-0.045
1.832,-0.275,-0.050
1.834,-0.290,-0.050
1.836,-0.300,-0.060
1.838,-0.335,-0.065
1.840,-0.310,-0.070
1.842,-0.310,-0.075
1.844,-0.300,-0.070
1.846,-0.270,-0.055
1.848,-0.220,-0.025
1.850,-0.220,0.015
1.852,-0.150,0.070
1.854,-0.095,0.135
1.856,-0.005,0.205
1.858,0.085,0.280
1.860,0.170,0.355
1.862,0.240,0.425
1.864,0.285,0.480
1.866,0.330,0.525
1.868,0.380,0.545
1.870,0.380,0.550
1.872,0.365,0.530
1.874,0.265,0.490
1.876,0.175,0.430
1.878,0.105,0.355
1.880,0.035,0.270
1.882,-0.085,0.175
1.884,-0.220,0.090
1.886,-0.275,0.015
1.888,-0.275,-0.050
1.890,-0.300,-0.095
1.892,-0.340,-0.120
1.894,-0.330,-0.125
1.896,-0.335,-0.120
1.898,-0.335,-0.105
1.900,-0.285,-0.085
1.902,-0.260,-0.070
1.904,-0.280,-0.055
1.906,-0.260,-0.040
1.908,-0.240,-0.035
1.910,-0.250,-0.030
1.912,-0.270,-0.030
1.914,-0.265,-0.035
1.916,-0.285,-0.035
1.918,-0.290,-0.040
1.920,-0.270,-0.040
1.922,-0.255,-0.045
1.924,-0.275,-0.050
1.926,-0.260,-0.055
1.928,-0.250,-0.055
1.930,-0.250,-0.055
1.932,-0.245,-0.055
1.934,-0.235,-0.050
1.936,-0.270,-0.045
1.938,-0.270,-0.040
1.940,-0.265,-0.030
1.942,-0.270,-0.025
1.944,-0.285,-0.025
1.946,-0.255,-0.025
1.948,-0.250,-0.030
1.950,-0.235,-0.035
1.952,-0.245,-0.045
1.954,-0.235,-0.050
1.956,-0.270,-0.050
1.958,-0.270,-0.050
1.960,-0.275,-0.045
1.962,-0.270,-0.040
1.964,-0.270,-0.035
1.966,-0.235,-0.025
1.968,-0.230,-0.020
1.970,-0.255,-0.015
1.972,-0.245,-0.015
1.974,-0.240,-0.020
1.976,-0.260,-0.025
1.978,-0.250,-0.025
1.980,-0.240,-0.030
1.982,-0.255,-0.030
1.984,-0.265,-0.030
1.986,-0.230,-0.030
1.988,-0.225,-0.030
1.990,-0.225,-0.030
1.992,-0.240,-0.025
1.994,-0.240,-0.025
1.996,-0.275,-0.025
1.998,-0.265,-0.025
2.000,-0.240,-0.025
2.002,-0.215,-0.025
2.004,-0.225,-0.020
2.006,-0.210,-0.015
2.008,-0.215,-0.010
2.010,-0.235,-0.010
2.012,-0.220,-0.010
2.014,-0.220,-0.010
2.016,-0.245,-0.010
2.018,-0.245,-0.015
2.020,-0.235,-0.020
2.022,-0.235,-0.025
2.024,-0.235,-0.030
2.026,-0.220,-0.030
2.028,-0.220,-0.030
2.030,-0.220,-0.025
2.032,-0.215,-0.015
2.034,-0.205,-0.005
2.036,-0.235,0.005
2.038,-0.205,0.010
2.040,-0.205,0.020
2.042,-0.210,0.025
2.044,-0.215,0.030
2.046,-0.190,0.030
2.048,-0.190,0.030
2.050,-0.205,0.030
2.052,-0.210,0.030
2.054,-0.185,0.025
2.056,-0.190,0.025
2.058,-0.185,0.025
2.060,-0.175,0.030
2.062,-0.165,0.030
2.064,-0.155,0.035
2.066,-0.140,0.040
2.068,-0.155,0.045
2.070,-0.170,0.055
2.072,-0.165,0.060
2.074,-0.155,0.065
2.076,-0.175,0.065
2.078,-0.165,0.070
2.080,-0.150,0.070
2.082,-0.145,0.075
2.084,-0.140,0.080
2.086,-0.110,0.085
2.088,-0.110,0.095
2.090,-0.105,0.100
2.092,-0.115,0.110
2.094,-0.105,0.115
2.096,-0.120,0.120
2.098,-0.105,0.125
2.100,-0.100,0.125
2.102,-0.105,0.130
2.104,-0.115,0.130
2.106,-0.095,0.125
2.108,-0.105,0.125
2.110,-0.075,0.125
2.112,-0.085,0.120
2.114,-0.100,0.120
2.116,-0.110,0.115
2.118,-0.090,0.115
2.120,-0.085,0.110
2.122,-0.115,0.110
2.124,-0.110,0.105
2.126,-0.100,0.100
2.128,-0.115,0.100
2.130,-0.135,0.095
2.132,-0.145,0.095
2.134,-0.155,0.090
2.136,-0.155,0.080
2.138,-0.145,0.075
2.140,-0.155,0.065
2.142,-0.190,0.055
2.144,-0.170,0.045
2.146,-0.155,0.035
2.148,-0.165,0.025
2.150,-0.190,0.020
2.152,-0.210,0.015
2.154,-0.200,0.015
2.156,-0.230,0.010
2.158,-0.225,0.010
2.160,-0.235,0.005
2.162,-0.230,0.005
2.164,-0.230,-0.005
2.166,-0.225,-0.010
2.168,-0.230,-0.015
2.170,-0.235,-0.020
2.172,-0.230,-0.020
2.174,-0.255,-0.025
2.176,-0.285,-0.025
2.178,-0.250,-0.020
2.180,-0.245,-0.020
2.182,-0.250,-0.020
2.184,-0.235,-0.020
2.186,-0.235,-0.020
2.188,-0.250,-0.025
2.190,-0.260,-0.035
2.192,-0.260,-0.040
2.194,-0.285,-0.045
2.196,-0.295,-0.050
2.198,-0.280,-0.055
2.200,-0.285,-0.055
2.202,-0.290,-0.055
2.204,-0.255,-0.050
2.206,-0.260,-0.050
2.208,-0.275,-0.050
2.210,-0.265,-0.045
2.212,-0.275,-0.045
2.214,-0.285,-0.050
2.216,-0.280,-0.050
2.218,-0.285,-0.055
2.220,-0.290,-0.060
2.222,-0.315,-0.060
2.224,-0.275,-0.065
2.226,-0.260,-0.070
2.228,-0.275,-0.070
2.230,-0.265,-0.075
2.232,-0.260,-0.075
2.234,-0.295,-0.080
2.236,-0.310,-0.080
2.238,-0.295,-0.080
2.240,-0.295,-0.075
2.242,-0.290,-0.075
2.244,-0.255,-0.070
2.246,-0.245,-0.065
2.248,-0.260,-0.060
2.250,-0.250,-0.060
2.252,-0.260,-0.055
2.254,-0.300,-0.055
2.256,-0.300,-0.055
2.258,-0.285,-0.055
2.260,-0.265,-0.055
2.262,-0.260,-0.050
2.264,-0.230,-0.050
2.266,-0.235,-0.045
2.268,-0.240,-0.040
2.270,-0.245,-0.035
2.272,-0.235,-0.030
2.274,-0.260,-0.030
2.276,-0.260,-0.030
2.278,-0.260,-0.030
2.280,-0.255,-0.030
2.282,-0.265,-0.030
2.284,-0.235,-0.030
2.286,-0.235,-0.030
2.288,-0.255,-0.025
2.290,-0.235,-0.025
2.292,-0.215,-0.020
2.294,-0.240,-0.020
2.296,-0.235,-0.015
2.298,-0.245,-0.015
2.300,-0.250,-0.015
2.302,-0.250,-0.020
2.304,-0.220,-0.025
2.306,-0.240,-0.030
2.308,-0.235,-0.035
2.310,-0.240,-0.040
2.312,-0.240,-0.040
2.314,-0.275,-0.040
2.316,-0.270,-0.040
2.318,-0.250,-0.030
2.320,-0.255,-0.025
2.322,-0.275,-0.015
2.324,-0.195,-0.010
2.326,-0.205,-0.005
2.328,-0.235,-0.005
2.330,-0.245,-0.005
2.332,-0.240,-0.005
2.334,-0.250,-0.010
2.336,-0.245,-0.015
2.338,-0.245,-0.025
2.340,-0.260,-0.030
2.342,-0.260,-0.035
2.344,-0.235,-0.040
2.346,-0.250,-0.040
2.348,-0.255,-0.040
2.350,-0.260,-0.040
2.352,-0.240,-0.040
2.354,-0.260,-0.035
2.356,-0.240,-0.035
2.358,-0.240,-0.030
2.360,-0.250,-0.025
2.362,-0.260,-0.025
2.364,-0.230,-0.025
2.366,-0.225,-0.025
2.368,-0.240,-0.030
2.370,-0.270,-0.035
2.372,-0.255,-0.040
2.374,-0.280,-0.050
2.376,-0.265,-0.050
2.378,-0.275,-0.055
2.380,-0.275,-0.055
2.382,-0.275,-0.050
2.384,-0.250,-0.045
2.386,-0.230,-0.040
2.388,-0.230,-0.035
2.390,-0.260,-0.030
2.392,-0.255,-0.030
2.394,-0.280,-0.030
2.396,-0.255,-0.030
2.398,-0.245,-0.030
2.400,-0.260,-0.035
2.402,-0.275,-0.035
2.404,-0.240,-0.035
2.406,-0.250,-0.035
2.408,-0.240,-0.035
2.410,-0.245,-0.035
2.412,-0.260,-0.035
2.414,-0.295,-0.035
2.416,-0.265,-0.040
2.418,-0.235,-0.045
2.420,-0.285,-0.050
2.422,-0.260,-0.055
2.424,-0.225,-0.055
2.426,-0.255,-0.060
2.428,-0.260,-0.060
2.430,-0.265,-0.055
2.432,-0.255,-0.055
2.434,-0.285,-0.055
2.436,-0.270,-0.050
2.438,-0.265,-0.050
2.440,-0.285,-0.050
2.442,-0.275,-0.045
2.444,-0.210,-0.045
2.446,-0.225,-0.040
2.448,-0.230,-0.030
2.450,-0.230,-0.025
2.452,-0.240,-0.015
2.454,-0.260,-0.010
2.456,-0.235,-0.005
2.458,-0.245,-0.005
2.460,-0.260,-0.005
2.462,-0.245,-0.010
2.464,-0.205,-0.015
2.466,-0.225,-0.015
2.468,-0.220,-0.020
2.470,-0.220,-0.015
2.472,-0.220,-0.010
2.474,-0.230,-0.005
2.476,-0.195,0.005
2.478,-0.185,0.015
2.480,-0.200,0.025
2.482,-0.190,0.030
2.484,-0.165,0.035
2.486,-0.175,0.035
2.488,-0.165,0.035
2.490,-0.155,0.030
2.492,-0.185,0.030
2.494,-0.205,0.035
2.496,-0.185,0.035
2.498,-0.175,0.040
2.500,-0.195,0.045
2.502,-0.165,0.050
2.504,-0.155,0.050
2.506,-0.170,0.050
2.508,-0.175,0.045
2.510,-0.170,0.040
2.512,-0.195,0.035
2.514,-0.220,0.025
2.516,-0.210,0.015
2.518,-0.210,0.005
2.520,-0.245,-0.010
2.522,-0.220,-0.020
2.524,-0.235,-0.035
2.526,-0.285,-0.045
2.528,-0.275,-0.055
2.530,-0.250,-0.060
2.532,-0.285,-0.065
2.534,-0.285,-0.065
2.536,-0.255,-0.065
2.538,-0.250,-0.060
2.540,-0.275,-0.050
2.542,-0.245,-0.045
2.544,-0.265,-0.040
2.546,-0.280,-0.040
2.548,-0.265,-0.040
2.550,-0.265,-0.040
2.552,-0.295,-0.045
2.554,-0.290,-0.050
2.556,-0.290,-0.055
2.558,-0.275,-0.060
2.560,-0.265,-0.060
2.562,-0.235,-0.060
2.564,-0.225,-0.060
2.566,-0.270,-0.060
2.568,-0.280,-0.060
2.570,-0.265,-0.060
2.572,-0.295,-0.060
2.574,-0.290,-0.060
2.576,-0.260,-0.060
2.578,-0.275,-0.060
2.580,-0.305,-0.065
2.582,-0.270,-0.070
2.584,-0.260,-0.075
2.586,-0.285,-0.080
2.588,-0.285,-0.080
2.590,-0.280,-0.080
2.592,-0.300,-0.075
2.594,-0.275,-0.065
2.596,-0.255,-0.055
2.598,-0.260,-0.045
2.600,-0.270,-0.035
2.602,-0.255,-0.030
2.604,-0.235,-0.030
2.606,-0.240,-0.035
2.608,-0.265,-0.045
2.610,-0.270,-0.055
2.612,-0.310,-0.065
2.614,-0.300,-0.065
2.616,-0.280,-0.060
2.618,-0.250,-0.040
2.620,-0.235,0.000
2.622,-0.145,0.050
2.624,-0.070,0.110
2.626,-0.015,0.185
2.628,0.060,0.260
2.630,0.155,0.340
2.632,0.220,0.410
2.634,0.300,0.475
2.636,0.345,0.530
2.638,0.375,0.560
2.640,0.390,0.575
2.642,0.420,0.570
2.644,0.340,0.540
2.646,0.260,0.485
2.648,0.190,0.415
2.650,0.120,0.330
2.652,0.000,0.240
2.654,-0.160,0.145
2.656,-0.235,0.065
2.658,-0.265,-0.005
2.660,-0.285,-0.055
2.662,-0.255,-0.085
2.664,-0.285,-0.095
2.666,-0.265,-0.090
2.668,-0.255,-0.070
2.670,-0.245,-0.055
2.672,-0.280,-0.035
2.674,-0.265,-0.025
2.676,-0.275,-0.020
2.678,-0.270,-0.020
2.680,-0.265,-0.025
2.682,-0.220,-0.035
2.684,-0.240,-0.040
2.686,-0.240,-0.045
2.688,-0.240,-0.050
2.690,-0.265,-0.050
2.692,-0.300,-0.045
2.694,-0.285,-0.045
2.696,-0.265,-0.045
2.698,-0.250,-0.045
2.700,-0.270,-0.050
2.702,-0.245,-0.055
2.704,-0.270,-0.060
2.706,-0.265,-0.060
2.708,-0.265,-0.060
2.710,-0.240,-0.055
2.712,-0.265,-0.055
2.714,-0.255,-0.050
2.716,-0.250,-0.045
2.718,-0.245,-0.045
2.720,-0.235,-0.045
2.722,-0.220,-0.045
2.724,-0.250,-0.045
2.726,-0.250,-0.045
2.728,-0.260,-0.045
2.730,-0.270,-0.040
2.732,-0.265,-0.040
2.734,-0.235,-0.035
2.736,-0.250,-0.030
2.738,-0.250,-0.030
2.740,-0.230,-0.030
2.742,-0.215,-0.030
2.744,-0.235,-0.030
2.746,-0.235,-0.030
2.748,-0.235,-0.030
2.750,-0.245,-0.030
2.752,-0.270,-0.025
2.754,-0.245,-0.025
2.756,-0.230,-0.020
2.758,-0.230,-0.020
2.760,-0.215,-0.020
2.762,-0.195,-0.020
2.764,-0.235,-0.020
2.766,-0.240,-0.020
2.768,-0.230,-0.020
2.770,-0.250,-0.015
2.772,-0.270,-0.015
2.774,-0.230,-0.010
2.776,-0.240,-0.010
2.778,-0.245,-0.005
2.780,-0.210,-0.005
2.782,-0.195,-0.005
2.784,-0.210,-0.005
2.786,-0.220,-0.005
2.788,-0.215,-0.005
2.790,-0.230,-0.005
2.792,-0.250,0.000
2.794,-0.240,0.000
2.796,-0.230,0.000
2.798,-0.235,-0.005
2.800,-0.210,-0.005
2.802,-0.195,-0.010
2.804,-0.215,-0.010
2.806,-0.205,-0.010
2.808,-0.200,-0.010
2.810,-0.225,-0.005
2.812,-0.225,0.000
2.814,-0.205,0.010
2.816,-0.210,0.020
2.818,-0.210,0.025
2.820,-0.175,0.035
2.822,-0.165,0.040
2.824,-0.175,0.040
2.826,-0.190,0.040
2.828,-0.170,0.040
2.830,-0.185,0.040
2.832,-0.200,0.040
2.834,-0.170,0.040
2.836,-0.170,0.040
2.838,-0.200,0.045
2.840,-0.155,0.050
2.842,-0.120,0.055
2.844,-0.130,0.060
2.846,-0.150,0.065
2.848,-0.145,0.070
2.850,-0.160,0.070
2.852,-0.180,0.075
2.854,-0.155,0.075
2.856,-0.145,0.080
2.858,-0.135,0.085
2.860,-0.115,0.090
2.862,-0.105,0.095
2.864,-0.100,0.100
2.866,-0.100,0.105
2.868,-0.085,0.110
2.870,-0.095,0.110
2.872,-0.105,0.115
2.874,-0.095,0.120
2.876,-0.100,0.120
2.878,-0.110,0.125
2.880,-0.095,0.125
2.882,-0.090,0.125
2.884,-0.095,0.120
2.886,-0.100,0.115
2.888,-0.090,0.110
2.890,-0.130,0.105
2.892,-0.130,0.100
2.894,-0.120,0.100
2.896,-0.115,0.100
2.898,-0.130,0.100
2.900,-0.095,0.105
2.902,-0.105,0.110
2.904,-0.115,0.110
2.906,-0.120,0.110
2.908,-0.125,0.105
2.910,-0.145,0.095
2.912,-0.170,0.085
2.914,-0.165,0.075
2.916,-0.170,0.060
2.918,-0.180,0.050
2.920,-0.150,0.040
2.922,-0.150,0.030
2.924,-0.175,0.025
2.926,-0.185,0.025
2.928,-0.180,0.020
2.930,-0.205,0.015
2.932,-0.230,0.010
2.934,-0.240,0.005
2.936,-0.235,-0.005
2.938,-0.240,-0.010
2.940,-0.205,-0.015
2.942,-0.215,-0.020
2.944,-0.225,-0.020
2.946,-0.240,-0.025
2.948,-0.235,-0.025
2.950,-0.260,-0.020
2.952,-0.245,-0.025
2.954,-0.250,-0.025
2.956,-0.245,-0.025
2.958,-0.235,-0.025
2.960,-0.205,-0.030
2.962,-0.230,-0.030
2.964,-0.240,-0.030
2.966,-0.260,-0.030
2.968,-0.245,-0.030
2.970,-0.270,-0.030
2.972,-0.250,-0.030
2.974,-0.250,-0.030
2.976,-0.260,-0.035
2.978,-0.270,-0.045
2.980,-0.235,-0.050
2.982,-0.260,-0.055
2.984,-0.290,-0.065
2.986,-0.290,-0.070
2.988,-0.255,-0.070
2.990,-0.285,-0.070
2.992,-0.270,-0.070
2.994,-0.265,-0.065
2.996,-0.275,-0.060
2.998,-0.255,-0.055
3.000,-0.230,-0.045
3.002,-0.245,-0.040
3.004,-0.240,-0.035
3.006,-0.260,-0.035
3.008,-0.245,-0.030
3.010,-0.265,-0.030
3.012,-0.230,-0.030
3.014,-0.240,-0.035
3.016,-0.265,-0.040
3.018,-0.280,-0.040
3.020,-0.255,-0.045
3.022,-0.265,-0.050
3.024,-0.275,-0.055
3.026,-0.270,-0.055
3.028,-0.265,-0.055
3.030,-0.270,-0.055
3.032,-0.260,-0.050
3.034,-0.255,-0.045
3.036,-0.280,-0.045
3.038,-0.265,-0.040
3.040,-0.225,-0.040
3.042,-0.230,-0.040
3.044,-0.255,-0.045
3.046,-0.245,-0.045
3.048,-0.245,-0.050
3.050,-0.275,-0.050
3.052,-0.260,-0.050
3.054,-0.240,-0.050
3.056,-0.265,-0.045
3.058,-0.240,-0.040
3.060,-0.215,-0.035
3.062,-0.230,-0.030
3.064,-0.245,-0.030
3.066,-0.245,-0.030
3.068,-0.255,-0.030
3.070,-0.280,-0.030
3.072,-0.255,-0.035
3.074,-0.245,-0.035
3.076,-0.260,-0.035
3.078,-0.235,-0.035
3.080,-0.205,-0.035
3.082,-0.210,-0.030
3.084,-0.230,-0.030
3.086,-0.240,-0.025
3.088,-0.240,-0.025
3.090,-0.260,-0.025
3.092,-0.245,-0.030
3.094,-0.255,-0.030
3.096,-0.255,-0.030
3.098,-0.220,-0.025
3.100,-0.195,-0.025
3.102,-0.220,-0.025
3.104,-0.230,-0.020
3.106,-0.220,-0.020
3.108,-0.250,-0.020
3.110,-0.255,-0.020
3.112,-0.225,-0.020
3.114,-0.225,-0.020
3.116,-0.235,-0.020
3.118,-0.215,-0.025
3.120,-0.200,-0.025
3.122,-0.225,-0.025
3.124,-0.245,-0.025
3.126,-0.230,-0.025
3.128,-0.260,-0.025
3.130,-0.260,-0.030
3.132,-0.255,-0.035
3.134,-0.235,-0.040
3.136,-0.255,-0.040
3.138,-0.215,-0.045
3.140,-0.210,-0.045
3.142,-0.225,-0.040
3.144,-0.240,-0.040
3.146,-0.235,-0.035
3.148,-0.270,-0.030
3.150,-0.280,-0.030
3.152,-0.255,-0.035
3.154,-0.235,-0.035
3.156,-0.245,-0.040
3.158,-0.215,-0.045
3.160,-0.230,-0.045
3.162,-0.260,-0.050
3.164,-0.255,-0.045
3.166,-0.245,-0.040
3.168,-0.260,-0.035
3.170,-0.250,-0.030
3.172,-0.240,-0.025
3.174,-0.240,-0.020
3.176,-0.260,-0.020
3.178,-0.225,-0.025
3.180,-0.235,-0.030
3.182,-0.240,-0.040
3.184,-0.235,-0.045
3.186,-0.225,-0.050
3.188,-0.255,-0.055
3.190,-0.255,-0.050
3.192,-0.255,-0.050
3.194,-0.245,-0.045
3.196,-0.265,-0.040
3.198,-0.225,-0.040
3.200,-0.235,-0.040
3.202,-0.240,-0.045
3.204,-0.270,-0.050
3.206,-0.265,-0.055
3.208,-0.275,-0.055
3.210,-0.265,-0.055
3.212,-0.255,-0.050
3.214,-0.285,-0.045
3.216,-0.260,-0.040
3.218,-0.190,-0.030
3.220,-0.205,-0.025
3.222,-0.235,-0.025
3.224,-0.235,-0.025
3.226,-0.225,-0.035
3.228,-0.270,-0.040
3.230,-0.260,-0.050
3.232,-0.255,-0.060
3.234,-0.260,-0.060
3.236,-0.265,-0.060
3.238,-0.225,-0.060
3.240,-0.225,-0.050
3.242,-0.235,-0.045
3.244,-0.240,-0.035
3.246,-0.225,-0.030
3.248,-0.250,-0.025
3.250,-0.245,-0.020
3.252,-0.240,-0.020
3.254,-0.240,-0.020
3.256,-0.255,-0.015
3.258,-0.220,-0.015
3.260,-0.210,-0.015
3.262,-0.225,-0.015
3.264,-0.225,-0.010
3.266,-0.200,-0.010
3.268,-0.235,-0.010
3.270,-0.220,-0.015
3.272,-0.215,-0.015
3.274,-0.210,-0.015
3.276,-0.205,-0.010
3.278,-0.170,-0.010
3.280,-0.205,-0.005
3.282,-0.210,-0.005
3.284,-0.190,0.000
3.286,-0.165,0.010
3.288,-0.195,0.015
3.290,-0.200,0.020
3.292,-0.170,0.030
3.294,-0.170,0.035
3.296,-0.165,0.040
3.298,-0.135,0.045
3.300,-0.125,0.045
3.302,-0.135,0.045
3.304,-0.140,0.040
3.306,-0.150,0.035
3.308,-0.195,0.030
3.310,-0.200,0.025
3.312,-0.185,0.015
3.314,-0.175,0.015
3.316,-0.160,0.010
3.318,-0.135,0.010
3.320,-0.180,0.010
3.322,-0.205,0.015
3.324,-0.205,0.010
3.326,-0.195,0.010
3.328,-0.225,0.005
3.330,-0.235,-0.005
3.332,-0.260,-0.015
3.334,-0.255,-0.025
3.336,-0.230,-0.030
3.338,-0.220,-0.040
3.340,-0.230,-0.040
3.342,-0.230,-0.045
3.344,-0.240,-0.045
3.346,-0.265,-0.045
3.348,-0.275,-0.045
3.350,-0.270,-0.045
3.352,-0.255,-0.045
3.354,-0.255,-0.050
3.356,-0.235,-0.050
3.358,-0.215,-0.050
3.360,-0.240,-0.050
3.362,-0.255,-0.050
3.364,-0.250,-0.045
3.366,-0.275,-0.045
3.368,-0.290,-0.045
3.370,-0.270,-0.045
3.372,-0.265,-0.050
3.374,-0.275,-0.055
3.376,-0.270,-0.060
3.378,-0.240,-0.060
3.380,-0.240,-0.065
3.382,-0.240,-0.060
3.384,-0.235,-0.055
3.386,-0.255,-0.055
3.388,-0.265,-0.050
3.390,-0.280,-0.050
3.392,-0.255,-0.050
3.394,-0.285,-0.055
3.396,-0.255,-0.060
3.398,-0.225,-0.065
3.400,-0.255,-0.070
3.402,-0.250,-0.070
3.404,-0.230,-0.065
3.406,-0.265,-0.060
3.408,-0.275,-0.055
3.410,-0.250,-0.050
3.412,-0.245,-0.050
3.414,-0.275,-0.050
3.416,-0.270,-0.060
3.418,-0.280,-0.065
3.420,-0.270,-0.070
3.422,-0.255,-0.070
3.424,-0.230,-0.060
3.426,-0.225,-0.035
3.428,-0.210,0.005
3.430,-0.145,0.060
3.432,-0.075,0.125
3.434,-0.020,0.200
3.436,0.110,0.275
3.438,0.200,0.350
3.440,0.265,0.425
3.442,0.335,0.490
3.444,0.385,0.545
3.446,0.400,0.585
3.448,0.445,0.605
3.450,0.445,0.600
3.452,0.385,0.575
3.454,0.290,0.525
3.456,0.245,0.455
3.458,0.170,0.370
3.460,0.070,0.275
3.462,-0.080,0.180
3.464,-0.160,0.095
3.466,-0.245,0.025
3.468,-0.245,-0.030
3.470,-0.250,-0.060
3.472,-0.245,-0.070
3.474,-0.260,-0.065
3.476,-0.220,-0.055
3.478,-0.210,-0.045
3.480,-0.240,-0.040
3.482,-0.255,-0.035
3.484,-0.250,-0.040
3.486,-0.280,-0.045
3.488,-0.265,-0.055
3.490,-0.280,-0.065
3.492,-0.285,-0.070
3.494,-0.275,-0.070
3.496,-0.220,-0.070
3.498,-0.225,-0.060
3.500,-0.255,-0.055
3.502,-0.265,-0.050
3.504,-0.230,-0.045
3.506,-0.265,-0.045
3.508,-0.255,-0.045
3.510,-0.230,-0.050
3.512,-0.255,-0.050
3.514,-0.260,-0.055
3.516,-0.230,-0.055
3.518,-0.260,-0.055
3.520,-0.255,-0.055
3.522,-0.260,-0.055
3.524,-0.255,-0.055
3.526,-0.265,-0.055
3.528,-0.255,-0.055
3.530,-0.230,-0.050
3.532,-0.235,-0.045
3.534,-0.250,-0.040
3.536,-0.225,-0.035
3.538,-0.235,-0.030
3.540,-0.230,-0.025
3.542,-0.235,-0.025
3.544,-0.235,-0.025
3.546,-0.255,-0.030
3.548,-0.255,-0.035
3.550,-0.245,-0.040
3.552,-0.250,-0.050
3.554,-0.255,-0.055
3.556,-0.235,-0.055
3.558,-0.220,-0.055
3.560,-0.215,-0.050
3.562,-0.230,-0.045
3.564,-0.230,-0.040
3.566,-0.255,-0.030
3.568,-0.225,-0.025
3.570,-0.235,-0.025
3.572,-0.230,-0.020
3.574,-0.235,-0.025
3.576,-0.210,-0.025
3.578,-0.220,-0.030
3.580,-0.225,-0.035
3.582,-0.220,-0.040
3.584,-0.215,-0.040
3.586,-0.245,-0.040
3.588,-0.235,-0.040
3.590,-0.230,-0.035
3.592,-0.235,-0.030
3.594,-0.220,-0.025
3.596,-0.190,-0.020
3.598,-0.210,-0.020
3.600,-0.220,-0.020
3.602,-0.220,-0.020
3.604,-0.205,-0.020
3.606,-0.225,-0.025
3.608,-0.215,-0.025
3.610,-0.210,-0.025
3.612,-0.220,-0.025
3.614,-0.210,-0.020
3.616,-0.180,-0.015
3.618,-0.200,-0.010
3.620,-0.200,-0.005
3.622,-0.215,0.000
3.624,-0.205,0.000
3.626,-0.220,0.000
3.628,-0.190,0.000
3.630,-0.195,0.000
3.632,-0.200,0.000
3.634,-0.190,-0.005
3.636,-0.170,0.000
3.638,-0.180,0.000
3.640,-0.185,0.005
3.642,-0.190,0.015
3.644,-0.180,0.020
3.646,-0.185,0.030
3.648,-0.155,0.040
3.650,-0.150,0.050
3.652,-0.165,0.055
3.654,-0.130,0.060
3.656,-0.095,0.065
3.658,-0.110,0.065
3.660,-0.120,0.070
3.662,-0.125,0.070
3.664,-0.115,0.070
3.666,-0.140,0.070
3.668,-0.130,0.070
3.670,-0.135,0.070
3.672,-0.140,0.075
3.674,-0.120,0.075
3.676,-0.090,0.080
3.678,-0.100,0.085
3.680,-0.105,0.085
3.682,-0.095,0.090
3.684,-0.110,0.095
3.686,-0.105,0.095
3.688,-0.090,0.100
3.690,-0.085,0.105
3.692,-0.090,0.105
3.694,-0.080,0.110
3.696,-0.065,0.110
3.698,-0.085,0.105
3.700,-0.105,0.100
3.702,-0.105,0.095
3.704,-0.115,0.090
3.706,-0.130,0.080
3.708,-0.120,0.075
3.710,-0.110,0.070
3.712,-0.120,0.070
3.714,-0.110,0.065
3.716,-0.095,0.070
3.718,-0.105,0.070
3.720,-0.125,0.070
3.722,-0.120,0.075
3.724,-0.155,0.075
3.726,-0.170,0.070
3.728,-0.165,0.065
3.730,-0.165,0.060
3.732,-0.175,0.050
3.734,-0.155,0.035
3.736,-0.150,0.025
3.738,-0.170,0.015
3.740,-0.190,0.010
3.742,-0.195,0.005
3.744,-0.210,0.000
3.746,-0.190,0.000
3.748,-0.200,-0.005
3.750,-0.185,-0.005
3.752,-0.215,-0.005
3.754,-0.215,-0.005
3.756,-0.180,-0.010
3.758,-0.205,-0.015
3.760,-0.220,-0.020
3.762,-0.210,-0.020
3.764,-0.240,-0.025
3.766,-0.220,-0.025
3.768,-0.220,-0.030
3.770,-0.225,-0.030
3.772,-0.245,-0.025
3.774,-0.210,-0.025
3.776,-0.195,-0.025
3.778,-0.215,-0.030
3.780,-0.210,-0.030
3.782,-0.210,-0.035
3.784,-0.245,-0.040
3.786,-0.240,-0.045
3.788,-0.240,-0.045
3.790,-0.225,-0.050
3.792,-0.240,-0.050
3.794,-0.210,-0.050
3.796,-0.210,-0.050
3.798,-0.220,-0.045
3.800,-0.230,-0.045
3.802,-0.230,-0.045
3.804,-0.250,-0.045
3.806,-0.260,-0.040
3.808,-0.235,-0.040
3.810,-0.250,-0.035
3.812,-0.260,-0.035
3.814,-0.210,-0.030
3.816,-0.200,-0.030
3.818,-0.205,-0.025
3.820,-0.215,-0.030
3.822,-0.205,-0.030
3.824,-0.255,-0.035
3.826,-0.265,-0.040
3.828,-0.265,-0.045
3.830,-0.255,-0.050
3.832,-0.220,-0.050
3.834,-0.210,-0.050
3.836,-0.215,-0.045
3.838,-0.230,-0.040
3.840,-0.255,-0.035
3.842,-0.230,-0.030
3.844,-0.250,-0.025
3.846,-0.245,-0.025
3.848,-0.240,-0.025
3.850,-0.240,-0.030
3.852,-0.225,-0.030
3.854,-0.205,-0.035
3.856,-0.210,-0.040
3.858,-0.220,-0.045
3.860,-0.250,-0.045
3.862,-0.225,-0.045
3.864,-0.260,-0.040
3.866,-0.240,-0.035
3.868,-0.240,-0.035
3.870,-0.240,-0.030
3.872,-0.230,-0.030
3.874,-0.200,-0.030
3.876,-0.205,-0.035
3.878,-0.220,-0.035
3.880,-0.215,-0.040
3.882,-0.215,-0.045
3.884,-0.250,-0.045
3.886,-0.235,-0.045
3.888,-0.215,-0.045
3.890,-0.215,-0.040
3.892,-0.220,-0.035
3.894,-0.200,-0.030
3.896,-0.205,-0.025
3.898,-0.220,-0.025
3.900,-0.215,-0.025
3.902,-0.205,-0.025
3.904,-0.215,-0.025
3.906,-0.200,-0.030
3.908,-0.220,-0.030
3.910,-0.235,-0.030
3.912,-0.215,-0.030
3.914,-0.180,-0.025
3.916,-0.215,-0.025
3.918,-0.200,-0.025
3.920,-0.205,-0.020
3.922,-0.205,-0.020
3.924,-0.215,-0.020
3.926,-0.210,-0.020
3.928,-0.215,-0.025
3.930,-0.220,-0.025
3.932,-0.215,-0.025
3.934,-0.190,-0.020
3.936,-0.195,-0.020
3.938,-0.195,-0.015
3.940,-0.220,-0.015
3.942,-0.235,-0.015
3.944,-0.255,-0.015
3.946,-0.215,-0.020
3.948,-0.205,-0.020
3.950,-0.220,-0.025
3.952,-0.195,-0.030
3.954,-0.190,-0.030
3.956,-0.220,-0.030
3.958,-0.195,-0.030
3.960,-0.195,-0.025
3.962,-0.215,-0.025
3.964,-0.220,-0.020
3.966,-0.220,-0.020
3.968,-0.205,-0.020
3.970,-0.210,-0.020
3.972,-0.190,-0.020
3.974,-0.165,-0.025
3.976,-0.195,-0.030
3.978,-0.190,-0.030
3.980,-0.200,-0.035
3.982,-0.210,-0.035
3.984,-0.235,-0.035
3.986,-0.215,-0.035
3.988,-0.215,-0.035
3.990,-0.245,-0.035
3.992,-0.215,-0.035
3.994,-0.190,-0.035
3.996,-0.200,-0.035
3.998,-0.190,-0.035
4.000,-0.185,-0.035
4.002,-0.210,-0.030
4.004,-0.220,-0.030
4.006,-0.215,-0.025
4.008,-0.215,-0.025
4.010,-0.215,-0.025
4.012,-0.190,-0.025
4.014,-0.185,-0.025
4.016,-0.205,-0.025
4.018,-0.210,-0.030
4.020,-0.200,-0.035
4.022,-0.215,-0.035
4.024,-0.220,-0.030
4.026,-0.195,-0.030
4.028,-0.200,-0.020
4.030,-0.210,-0.015
4.032,-0.195,-0.010
4.034,-0.200,-0.005
4.036,-0.205,-0.005
4.038,-0.215,-0.010
4.040,-0.190,-0.015
4.042,-0.205,-0.025
4.044,-0.215,-0.035
4.046,-0.235,-0.040
4.048,-0.235,-0.050
4.050,-0.220,-0.050
4.052,-0.200,-0.050
4.054,-0.185,-0.045
4.056,-0.195,-0.035
4.058,-0.195,-0.025
4.060,-0.185,-0.020
4.062,-0.205,-0.010
4.064,-0.210,-0.005
4.066,-0.180,0.000
4.068,-0.185,0.000
4.070,-0.200,0.000
4.072,-0.160,0.000
4.074,-0.165,0.000
4.076,-0.175,0.005
4.078,-0.180,0.005
4.080,-0.185,0.010
4.082,-0.195,0.015
4.084,-0.195,0.020
4.086,-0.170,0.020
4.088,-0.155,0.025
4.090,-0.160,0.030
4.092,-0.125,0.035
4.094,-0.120,0.040
4.096,-0.130,0.045
4.098,-0.135,0.050
4.100,-0.110,0.055
4.102,-0.120,0.060
4.104,-0.110,0.065
4.106,-0.110,0.070
4.108,-0.110,0.075
4.110,-0.120,0.075
4.112,-0.090,0.075
4.114,-0.095,0.070
4.116,-0.105,0.065
4.118,-0.140,0.060
4.120,-0.145,0.060
4.122,-0.155,0.055
4.124,-0.145,0.050
4.126,-0.145,0.045
4.128,-0.150,0.040
4.130,-0.160,0.035
4.132,-0.140,0.030
4.134,-0.140,0.020
4.136,-0.165,0.010
4.138,-0.195,0.000
4.140,-0.205,-0.010
4.142,-0.230,-0.015
4.144,-0.225,-0.025
4.146,-0.235,-0.030
4.148,-0.220,-0.030
4.150,-0.215,-0.030
4.152,-0.180,-0.030
4.154,-0.185,-0.030
4.156,-0.195,-0.025
4.158,-0.225,-0.025
4.160,-0.235,-0.030
4.162,-0.235,-0.030
4.164,-0.215,-0.035
4.166,-0.210,-0.040
4.168,-0.215,-0.040
4.170,-0.240,-0.045
4.172,-0.210,-0.050
4.174,-0.220,-0.050
4.176,-0.220,-0.050
4.178,-0.215,-0.050
4.180,-0.225,-0.050
4.182,-0.250,-0.050
4.184,-0.215,-0.050
4.186,-0.215,-0.045
4.188,-0.215,-0.045
4.190,-0.205,-0.045
4.192,-0.200,-0.045
4.194,-0.215,-0.050
4.196,-0.240,-0.050
4.198,-0.240,-0.055
4.200,-0.230,-0.060
4.202,-0.245,-0.060
4.204,-0.225,-0.065
4.206,-0.215,-0.065
4.208,-0.235,-0.060
4.210,-0.225,-0.055
4.212,-0.200,-0.050
4.214,-0.210,-0.045
4.216,-0.210,-0.040
4.218,-0.220,-0.040
4.220,-0.220,-0.040
4.222,-0.240,-0.045
4.224,-0.230,-0.050
4.226,-0.250,-0.055
4.228,-0.245,-0.060
4.230,-0.210,-0.055
4.232,-0.175,-0.040
4.234,-0.165,-0.010
4.236,-0.145,0.030
4.238,-0.075,0.085
4.240,-0.010,0.155
4.242,0.065,0.230
4.244,0.165,0.315
4.246,0.245,0.400
4.248,0.325,0.480
4.250,0.410,0.545
4.252,0.475,0.600
4.254,0.505,0.630
4.256,0.520,0.640
4.258,0.485,0.620
4.260,0.390,0.575
4.262,0.290,0.505
4.264,0.220,0.420
4.266,0.145,0.325
4.268,0.020,0.230
4.270,-0.120,0.140
4.272,-0.160,0.060
4.274,-0.195,-0.005
4.276,-0.205,-0.050
4.278,-0.230,-0.070
4.280,-0.240,-0.080
4.282,-0.255,-0.075
4.284,-0.235,-0.065
4.286,-0.210,-0.055
4.288,-0.215,-0.045
4.290,-0.200,-0.040
4.292,-0.190,-0.035
4.294,-0.205,-0.040
4.296,-0.210,-0.045
4.298,-0.220,-0.055
4.300,-0.235,-0.060
4.302,-0.255,-0.065
4.304,-0.255,-0.065
4.306,-0.240,-0.065
4.308,-0.235,-0.065
4.310,-0.195,-0.060
4.312,-0.180,-0.060
4.314,-0.215,-0.055
4.316,-0.230,-0.055
4.318,-0.210,-0.050
4.320,-0.230,-0.050
4.322,-0.235,-0.045
4.324,-0.220,-0.045
4.326,-0.220,-0.045
4.328,-0.235,-0.040
4.330,-0.195,-0.040
4.332,-0.180,-0.045
4.334,-0.190,-0.045
4.336,-0.200,-0.045
4.338,-0.200,-0.045
4.340,-0.235,-0.050
4.342,-0.230,-0.045
4.344,-0.205,-0.045
4.346,-0.210,-0.040
4.348,-0.240,-0.035
4.350,-0.205,-0.030
4.352,-0.200,-0.030
4.354,-0.185,-0.025
4.356,-0.185,-0.030
4.358,-0.200,-0.030
4.360,-0.230,-0.035
4.362,-0.225,-0.040
4.364,-0.205,-0.040
4.366,-0.190,-0.040
4.368,-0.210,-0.040
4.370,-0.175,-0.035
4.372,-0.180,-0.030
4.374,-0.210,-0.025
4.376,-0.210,-0.020
4.378,-0.185,-0.015
4.380,-0.195,-0.010
4.382,-0.210,-0.010
4.384,-0.210,-0.015
4.386,-0.180,-0.015
4.388,-0.190,-0.020
4.390,-0.160,-0.020
4.392,-0.165,-0.020
4.394,-0.185,-0.015
4.396,-0.210,-0.010
4.398,-0.205,-0.010
4.400,-0.210,-0.005
4.402,-0.205,0.000
4.404,-0.195,0.000
4.406,-0.185,-0.005
4.408,-0.190,-0.005
4.410,-0.160,-0.015
4.412,-0.160,-0.020
4.414,-0.155,-0.025
4.416,-0.195,-0.025
4.418,-0.205,-0.025
4.420,-0.205,-0.020
4.422,-0.165,-0.015
4.424,-0.170,-0.010
4.426,-0.170,0.000
4.428,-0.180,0.005
4.430,-0.145,0.010
4.432,-0.155,0.010
4.434,-0.155,0.015
4.436,-0.165,0.010
4.438,-0.145,0.010
4.440,-0.170,0.010
4.442,-0.150,0.010
4.444,-0.150,0.015
4.446,-0.145,0.020
4.448,-0.160,0.025
4.450,-0.125,0.035
4.452,-0.120,0.040
4.454,-0.115,0.045
4.456,-0.125,0.045
4.458,-0.110,0.050
4.460,-0.140,0.050
4.462,-0.125,0.050
4.464,-0.110,0.055
4.466,-0.105,0.055
4.468,-0.100,0.060
4.470,-0.070,0.065
4.472,-0.080,0.070
4.474,-0.075,0.080
4.476,-0.075,0.085
4.478,-0.065,0.090
4.480,-0.080,0.095
4.482,-0.065,0.100
4.484,-0.075,0.105
4.486,-0.075,0.105
4.488,-0.070,0.105
4.490,-0.040,0.105
4.492,-0.065,0.100
4.494,-0.065,0.100
4.496,-0.070,0.095
4.498,-0.055,0.095
4.500,-0.090,0.090
4.502,-0.075,0.090
4.504,-0.070,0.090
4.506,-0.085,0.090
4.508,-0.090,0.095
4.510,-0.070,0.095
4.512,-0.060,0.095
4.514,-0.055,0.095
4.516,-0.055,0.095
4.518,-0.075,0.090
4.520,-0.100,0.090
4.522,-0.095,0.085
4.524,-0.090,0.075
4.526,-0.100,0.070
4.528,-0.090,0.065
4.530,-0.075,0.055
4.532,-0.110,0.050
4.534,-0.125,0.045
4.536,-0.130,0.035
4.538,-0.135,0.030
4.540,-0.160,0.025
4.542,-0.155,0.020
4.544,-0.150,0.020
4.546,-0.170,0.015
4.548,-0.175,0.015
4.550,-0.145,0.015
4.552,-0.160,0.010
4.554,-0.175,0.005
4.556,-0.180,-0.005
4.558,-0.205,-0.015
4.560,-0.235,-0.025
4.562,-0.215,-0.035
4.564,-0.205,-0.045
4.566,-0.230,-0.050
4.568,-0.210,-0.055
4.570,-0.185,-0.050
4.572,-0.195,-0.050
4.574,-0.190,-0.045
4.576,-0.185,-0.035
4.578,-0.205,-0.030
4.580,-0.235,-0.030
4.582,-0.210,-0.030
4.584,-0.225,-0.030
4.586,-0.240,-0.035
4.588,-0.190,-0.035
4.590,-0.175,-0.040
4.592,-0.215,-0.045
4.594,-0.235,-0.045
4.596,-0.205,-0.050
4.598,-0.215,-0.050
4.600,-0.215,-0.055
4.602,-0.240,-0.055
4.604,-0.245,-0.055
4.606,-0.240,-0.060
4.608,-0.230,-0.060
4.610,-0.255,-0.060
4.612,-0.205,-0.060
4.614,-0.190,-0.060
4.616,-0.215,-0.060
4.618,-0.230,-0.055
4.620,-0.210,-0.055
4.622,-0.235,-0.055
4.624,-0.240,-0.055
4.626,-0.230,-0.055
4.628,-0.235,-0.055
4.630,-0.230,-0.055
4.632,-0.190,-0.055
4.634,-0.185,-0.050
4.636,-0.205,-0.045
4.638,-0.225,-0.040
4.640,-0.200,-0.035
4.642,-0.220,-0.030
4.644,-0.210,-0.030
4.646,-0.205,-0.030
4.648,-0.200,-0.035
4.650,-0.230,-0.040
4.652,-0.210,-0.045
4.654,-0.205,-0.050
4.656,-0.225,-0.055
4.658,-0.215,-0.060
4.660,-0.205,-0.060
4.662,-0.225,-0.060
4.664,-0.225,-0.060
4.666,-0.225,-0.055
4.668,-0.230,-0.050
4.670,-0.235,-0.045
4.672,-0.185,-0.040
4.674,-0.195,-0.035
4.676,-0.200,-0.030
4.678,-0.200,-0.025
4.680,-0.195,-0.020
4.682,-0.205,-0.020
4.684,-0.205,-0.020
4.686,-0.205,-0.025
4.688,-0.225,-0.030
4.690,-0.210,-0.035
4.692,-0.180,-0.040
4.694,-0.185,-0.045
4.696,-0.195,-0.045
4.698,-0.205,-0.050
4.700,-0.190,-0.050
4.702,-0.230,-0.050
4.704,-0.215,-0.045
4.706,-0.205,-0.045
4.708,-0.225,-0.045
4.710,-0.215,-0.045
4.712,-0.190,-0.045
4.714,-0.190,-0.050
4.716,-0.190,-0.050
4.718,-0.190,-0.050
4.720,-0.185,-0.050
4.722,-0.235,-0.050
4.724,-0.225,-0.050
4.726,-0.210,-0.045
4.728,-0.205,-0.045
4.730,-0.200,-0.045
4.732,-0.185,-0.040
4.734,-0.210,-0.040
4.736,-0.210,-0.045
4.738,-0.200,-0.045
4.740,-0.200,-0.045
4.742,-0.225,-0.045
4.744,-0.215,-0.050
4.746,-0.215,-0.050
4.748,-0.220,-0.050
4.750,-0.210,-0.050
4.752,-0.190,-0.050
4.754,-0.195,-0.050
4.756,-0.200,-0.050
4.758,-0.210,-0.050
4.760,-0.205,-0.050
4.762,-0.210,-0.050
4.764,-0.210,-0.050
4.766,-0.220,-0.045
4.768,-0.220,-0.045
4.770,-0.215,-0.045
4.772,-0.185,-0.045
4.774,-0.210,-0.045
4.776,-0.230,-0.050
4.778,-0.240,-0.050
4.780,-0.225,-0.055
4.782,-0.235,-0.060
4.784,-0.215,-0.060
4.786,-0.225,-0.060
4.788,-0.255,-0.060
4.790,-0.240,-0.055
4.792,-0.165,-0.050
4.794,-0.180,-0.045
4.796,-0.195,-0.040
4.798,-0.205,-0.035
4.800,-0.225,-0.035
4.802,-0.260,-0.035
4.804,-0.225,-0.040
4.806,-0.210,-0.050
4.808,-0.225,-0.055
4.810,-0.210,-0.065
4.812,-0.190,-0.070
4.814,-0.215,-0.070
4.816,-0.215,-0.070
4.818,-0.210,-0.065
4.820,-0.225,-0.060
4.822,-0.240,-0.055
4.824,-0.205,-0.045
4.826,-0.225,-0.040
4.828,-0.245,-0.035
4.830,-0.210,-0.035
4.832,-0.195,-0.035
4.834,-0.200,-0.035
4.836,-0.205,-0.040
4.838,-0.185,-0.040
4.840,-0.215,-0.040
4.842,-0.235,-0.040
4.844,-0.205,-0.045
4.846,-0.200,-0.045
4.848,-0.215,-0.040
4.850,-0.185,-0.040
4.852,-0.170,-0.040
4.854,-0.185,-0.035
4.856,-0.185,-0.030
4.858,-0.170,-0.020
4.860,-0.185,-0.010
4.862,-0.180,0.000
4.864,-0.150,0.010
4.866,-0.130,0.020
4.868,-0.130,0.025
4.870,-0.110,0.030
4.872,-0.100,0.030
4.874,-0.120,0.030
4.876,-0.135,0.030
4.878,-0.120,0.030
4.880,-0.125,0.030
4.882,-0.135,0.030
4.884,-0.130,0.030
4.886,-0.125,0.030
4.888,-0.150,0.025
4.890,-0.130,0.025
4.892,-0.135,0.025
4.894,-0.150,0.020
4.896,-0.155,0.015
4.898,-0.145,0.015
4.900,-0.155,0.010
4.902,-0.170,0.005
4.904,-0.165,0.005
4.906,-0.165,0.000
4.908,-0.190,-0.005
4.910,-0.175,-0.015
4.912,-0.170,-0.020
4.914,-0.215,-0.030
4.916,-0.235,-0.040
4.918,-0.230,-0.055
4.920,-0.240,-0.060
4.922,-0.240,-0.070
4.924,-0.235,-0.075
4.926,-0.235,-0.075
4.928,-0.235,-0.075
4.930,-0.200,-0.070
4.932,-0.210,-0.065
4.934,-0.210,-0.060
4.936,-0.225,-0.055
4.938,-0.215,-0.050
4.940,-0.240,-0.045
4.942,-0.245,-0.045
4.944,-0.245,-0.050
4.946,-0.240,-0.055
4.948,-0.255,-0.060
4.950,-0.225,-0.070
4.952,-0.225,-0.080
4.954,-0.240,-0.085
4.956,-0.235,-0.090
4.958,-0.230,-0.090
4.960,-0.245,-0.085
4.962,-0.240,-0.080
4.964,-0.225,-0.070
4.966,-0.220,-0.065
4.968,-0.245,-0.060
4.970,-0.215,-0.055
4.972,-0.215,-0.055
4.974,-0.215,-0.060
4.976,-0.210,-0.065
4.978,-0.210,-0.070
4.980,-0.250,-0.075
4.982,-0.250,-0.075
4.984,-0.240,-0.070
4.986,-0.245,-0.065
4.988,-0.260,-0.060
4.990,-0.205,-0.055
4.992,-0.210,-0.055
4.994,-0.240,-0.060
4.996,-0.255,-0.065
4.998,-0.235,-0.075
5.000,-0.250,-0.080
5.002,-0.235,-0.080
5.004,-0.205,-0.065
5.006,-0.180,-0.040
5.008,-0.165,0.000
5.010,-0.095,0.055
5.012,-0.025,0.120
5.014,0.035,0.200
5.016,0.135,0.280
5.018,0.235,0.360
5.020,0.290,0.435
5.022,0.370,0.500
5.024,0.425,0.555
5.026,0.450,0.590
5.028,0.495,0.605
5.030,0.515,0.600
5.032,0.430,0.565
5.034,0.340,0.515
5.036,0.240,0.440
5.038,0.150,0.350
5.040,0.045,0.250
5.042,-0.070,0.150
5.044,-0.165,0.060
5.046,-0.225,-0.015
5.048,-0.235,-0.070
5.050,-0.220,-0.100
5.052,-0.230,-0.110
5.054,-0.225,-0.105
5.056,-0.225,-0.090
5.058,-0.210,-0.065
5.060,-0.240,-0.045
5.062,-0.235,-0.035
5.064,-0.225,-0.030
5.066,-0.245,-0.035
5.068,-0.240,-0.050
5.070,-0.205,-0.065
5.072,-0.225,-0.080
5.074,-0.215,-0.090
5.076,-0.225,-0.095
5.078,-0.235,-0.095
5.080,-0.250,-0.090
5.082,-0.245,-0.085
5.084,-0.245,-0.075
5.086,-0.235,-0.070
5.088,-0.230,-0.060
5.090,-0.195,-0.060
5.092,-0.225,-0.060
5.094,-0.220,-0.060
5.096,-0.200,-0.060
5.098,-0.190,-0.060
5.100,-0.230,-0.060
5.102,-0.210,-0.055
5.104,-0.200,-0.050
5.106,-0.220,-0.040
5.108,-0.195,-0.035
5.110,-0.160,-0.025
5.112,-0.180,-0.020
5.114,-0.210,-0.020
5.116,-0.220,-0.025
5.118,-0.230,-0.030
5.120,-0.245,-0.040
5.122,-0.210,-0.050
5.124,-0.215,-0.055
5.126,-0.230,-0.060
5.128,-0.205,-0.060
5.130,-0.180,-0.055
5.132,-0.190,-0.050
5.134,-0.190,-0.040
5.136,-0.175,-0.035
5.138,-0.210,-0.030
5.140,-0.235,-0.025
5.142,-0.220,-0.025
5.144,-0.185,-0.030
5.146,-0.205,-0.035
5.148,-0.195,-0.040
5.150,-0.170,-0.045
5.152,-0.190,-0.045
5.154,-0.195,-0.040
5.156,-0.185,-0.030
5.158,-0.200,-0.025
5.160,-0.220,-0.015
5.162,-0.180,-0.010
5.164,-0.180,-0.005
5.166,-0.200,-0.010
5.168,-0.190,-0.010
5.170,-0.170,-0.020
5.172,-0.185,-0.025
5.174,-0.185,-0.030
5.176,-0.185,-0.035
5.178,-0.200,-0.040
5.180,-0.210,-0.040
5.182,-0.195,-0.035
5.184,-0.185,-0.030
5.186,-0.185,-0.025
5.188,-0.165,-0.020
5.190,-0.160,-0.015
5.192,-0.165,-0.010
5.194,-0.160,-0.005
5.196,-0.150,-0.005
5.198,-0.170,0.000
5.200,-0.170,0.000
5.202,-0.175,0.005
5.204,-0.155,0.005
5.206,-0.180,0.000
5.208,-0.150,0.000
5.210,-0.140,0.000
5.212,-0.135,0.000
5.214,-0.140,0.000
5.216,-0.135,0.005
5.218,-0.150,0.015
5.220,-0.150,0.020
5.222,-0.140,0.030
5.224,-0.150,0.040
5.226,-0.150,0.045
5.228,-0.105,0.050
5.230,-0.095,0.050
5.232,-0.125,0.050
5.234,-0.110,0.045
5.236,-0.085,0.045
5.238,-0.110,0.045
5.240,-0.110,0.050
5.242,-0.100,0.060
5.244,-0.075,0.070
5.246,-0.085,0.080
5.248,-0.055,0.085
5.250,-0.050,0.095
5.252,-0.070,0.100
5.254,-0.090,0.100
5.256,-0.070,0.100
5.258,-0.085,0.100
5.260,-0.065,0.095
5.262,-0.060,0.095
5.264,-0.055,0.100
5.266,-0.060,0.100
5.268,-0.025,0.105
5.270,-0.030,0.105
5.272,-0.055,0.105
5.274,-0.060,0.105
5.276,-0.055,0.105
5.278,-0.075,0.100
5.280,-0.065,0.095
5.282,-0.050,0.095
5.284,-0.065,0.090
5.286,-0.070,0.090
5.288,-0.040,0.095
5.290,-0.050,0.095
5.292,-0.060,0.100
5.294,-0.075,0.100
5.296,-0.055,0.095
5.298,-0.105,0.095
5.300,-0.100,0.085
5.302,-0.105,0.075
5.304,-0.130,0.070
5.306,-0.140,0.060
5.308,-0.095,0.050
5.310,-0.105,0.045
5.312,-0.120,0.035
5.314,-0.130,0.030
5.316,-0.155,0.025
5.318,-0.190,0.015
5.320,-0.180,0.010
5.322,-0.180,0.005
5.324,-0.175,0.000
5.326,-0.175,0.000
5.328,-0.135,-0.005
5.330,-0.160,-0.005
5.332,-0.165,-0.005
5.334,-0.190,-0.010
5.336,-0.175,-0.010
5.338,-0.210,-0.015
5.340,-0.210,-0.020
5.342,-0.195,-0.020
5.344,-0.185,-0.025
5.346,-0.195,-0.030
5.348,-0.175,-0.030
5.350,-0.180,-0.030
5.352,-0.190,-0.030
5.354,-0.195,-0.030
5.356,-0.185,-0.025
5.358,-0.195,-0.025
5.360,-0.200,-0.030
5.362,-0.220,-0.030
5.364,-0.215,-0.035
5.366,-0.205,-0.035
5.368,-0.180,-0.040
5.370,-0.195,-0.040
5.372,-0.200,-0.040
5.374,-0.220,-0.045
5.376,-0.205,-0.045
5.378,-0.235,-0.045
5.380,-0.220,-0.045
5.382,-0.220,-0.050
5.384,-0.225,-0.055
5.386,-0.205,-0.060
5.388,-0.190,-0.060
5.390,-0.220,-0.060
5.392,-0.200,-0.060
5.394,-0.190,-0.055
5.396,-0.195,-0.050
5.398,-0.220,-0.045
5.400,-0.200,-0.040
5.402,-0.210,-0.035
5.404,-0.235,-0.035
5.406,-0.235,-0.040
5.408,-0.185,-0.040
5.410,-0.190,-0.050
5.412,-0.190,-0.055
5.414,-0.190,-0.055
5.416,-0.195,-0.060
5.418,-0.235,-0.060
5.420,-0.225,-0.055
5.422,-0.220,-0.055
5.424,-0.230,-0.050
5.426,-0.195,-0.045
5.428,-0.165,-0.040
5.430,-0.200,-0.040
5.432,-0.210,-0.040
5.434,-0.195,-0.040
5.436,-0.200,-0.040
5.438,-0.230,-0.040
5.440,-0.215,-0.040
5.442,-0.215,-0.040
5.444,-0.225,-0.045
5.446,-0.205,-0.045
5.448,-0.175,-0.050
5.450,-0.195,-0.055
5.452,-0.190,-0.055
5.454,-0.185,-0.055
5.456,-0.200,-0.050
5.458,-0.220,-0.050
5.460,-0.200,-0.040
5.462,-0.205,-0.035
5.464,-0.215,-0.030
5.466,-0.180,-0.025
5.468,-0.150,-0.025
5.470,-0.170,-0.025
5.472,-0.175,-0.030
5.474,-0.175,-0.030
5.476,-0.210,-0.035
5.478,-0.220,-0.035
5.480,-0.210,-0.035
5.482,-0.200,-0.030
5.484,-0.195,-0.025
5.486,-0.165,-0.020
5.488,-0.165,-0.015
5.490,-0.180,-0.015
5.492,-0.195,-0.015
5.494,-0.190,-0.015
5.496,-0.170,-0.020
5.498,-0.185,-0.025
5.500,-0.175,-0.025
5.502,-0.160,-0.030
5.504,-0.175,-0.030
5.506,-0.165,-0.030
5.508,-0.165,-0.025
5.510,-0.175,-0.025
5.512,-0.190,-0.020
5.514,-0.180,-0.020
5.516,-0.195,-0.020
5.518,-0.210,-0.020
5.520,-0.215,-0.020
5.522,-0.220,-0.020
5.524,-0.215,-0.015
5.526,-0.160,-0.015
5.528,-0.145,-0.015
5.530,-0.170,-0.010
5.532,-0.170,-0.010
5.534,-0.155,-0.010
5.536,-0.180,-0.010
5.538,-0.175,-0.010
5.540,-0.190,-0.015
5.542,-0.195,-0.015
5.544,-0.220,-0.015
5.546,-0.185,-0.015
5.548,-0.175,-0.020
5.550,-0.180,-0.020
5.552,-0.180,-0.020
5.554,-0.185,-0.025
5.556,-0.210,-0.025
5.558,-0.210,-0.030
5.560,-0.205,-0.030
5.562,-0.205,-0.030
5.564,-0.215,-0.030
5.566,-0.175,-0.030
5.568,-0.175,-0.030
5.570,-0.195,-0.030
5.572,-0.190,-0.035
5.574,-0.190,-0.035
5.576,-0.225,-0.035
5.578,-0.200,-0.035
5.580,-0.185,-0.035
5.582,-0.185,-0.030
5.584,-0.195,-0.030
5.586,-0.175,-0.025
5.588,-0.175,-0.015
5.590,-0.190,-0.010
5.592,-0.200,-0.010
5.594,-0.180,-0.005
5.596,-0.180,-0.010
5.598,-0.180,-0.010
5.600,-0.170,-0.015
5.602,-0.195,-0.020
5.604,-0.190,-0.025
5.606,-0.165,-0.025
5.608,-0.170,-0.030
5.610,-0.180,-0.030
5.612,-0.200,-0.025
5.614,-0.195,-0.025
5.616,-0.220,-0.025
5.618,-0.215,-0.025
5.620,-0.215,-0.030
5.622,-0.220,-0.035
5.624,-0.230,-0.040
5.626,-0.185,-0.045
5.628,-0.175,-0.045
5.630,-0.165,-0.050
5.632,-0.190,-0.045
5.634,-0.195,-0.040
5.636,-0.225,-0.035
5.638,-0.190,-0.030
5.640,-0.185,-0.020
5.642,-0.175,-0.015
5.644,-0.190,-0.015
5.646,-0.160,-0.010
5.648,-0.175,-0.015
5.650,-0.175,-0.015
5.652,-0.170,-0.015
5.654,-0.150,-0.020
5.656,-0.170,-0.020
5.658,-0.175,-0.020
5.660,-0.180,-0.015
5.662,-0.180,-0.010
5.664,-0.160,-0.005
5.666,-0.125,0.000
5.668,-0.130,0.010
5.670,-0.125,0.020
5.672,-0.115,0.025
5.674,-0.100,0.030
5.676,-0.135,0.040
5.678,-0.100,0.045
5.680,-0.100,0.050
5.682,-0.095,0.055
5.684,-0.070,0.055
5.686,-0.055,0.060
5.688,-0.075,0.060
5.690,-0.090,0.065
5.692,-0.115,0.065
5.694,-0.100,0.060
5.696,-0.130,0.060
5.698,-0.140,0.050
5.700,-0.145,0.045
5.702,-0.145,0.040
5.704,-0.120,0.030
5.706,-0.080,0.025
5.708,-0.110,0.015
5.710,-0.125,0.010
5.712,-0.155,0.005
5.714,-0.185,0.000
5.716,-0.215,-0.010
5.718,-0.190,-0.015
5.720,-0.195,-0.025
5.722,-0.215,-0.030
5.724,-0.190,-0.040
5.726,-0.170,-0.040
5.728,-0.185,-0.045
5.730,-0.205,-0.045
5.732,-0.210,-0.040
5.734,-0.190,-0.040
5.736,-0.200,-0.035
5.738,-0.190,-0.035
5.740,-0.200,-0.035
5.742,-0.215,-0.040
5.744,-0.200,-0.040
5.746,-0.175,-0.045
5.748,-0.200,-0.050
5.750,-0.175,-0.050
5.752,-0.165,-0.050
5.754,-0.195,-0.045
5.756,-0.210,-0.040
5.758,-0.195,-0.035
5.760,-0.200,-0.025
5.762,-0.210,-0.020
5.764,-0.180,-0.020
5.766,-0.165,-0.020
5.768,-0.185,-0.020
5.770,-0.185,-0.025
5.772,-0.195,-0.030
5.774,-0.210,-0.030
5.776,-0.210,-0.035
5.778,-0.195,-0.040
5.780,-0.180,-0.040
5.782,-0.195,-0.035
5.784,-0.155,-0.035
5.786,-0.155,-0.030
5.788,-0.180,-0.025
5.790,-0.180,-0.025
5.792,-0.185,-0.020
5.794,-0.210,-0.025
5.796,-0.215,-0.030
5.798,-0.210,-0.035
5.800,-0.210,-0.045
5.802,-0.230,-0.055
5.804,-0.195,-0.060
5.806,-0.175,-0.065
5.808,-0.205,-0.055
5.810,-0.185,-0.040
5.812,-0.145,-0.005
5.814,-0.130,0.040
5.816,-0.055,0.105
5.818,0.015,0.175
5.820,0.110,0.255
5.822,0.200,0.340
5.824,0.325,0.425
5.826,0.410,0.500
5.828,0.460,0.565
5.830,0.485,0.610
5.832,0.515,0.640
5.834,0.530,0.645
5.836,0.485,0.620
5.838,0.405,0.575
5.840,0.320,0.505
5.842,0.215,0.420
5.844,0.175,0.325
5.846,0.065,0.220
5.848,-0.095,0.125
5.850,-0.140,0.045
5.852,-0.200,-0.020
5.854,-0.230,-0.060
5.856,-0.235,-0.085
5.858,-0.235,-0.085
5.860,-0.200,-0.075
5.862,-0.195,-0.060
5.864,-0.165,-0.045
5.866,-0.165,-0.030
5.868,-0.175,-0.025
5.870,-0.210,-0.025
5.872,-0.190,-0.030
5.874,-0.200,-0.035
5.876,-0.195,-0.040
5.878,-0.205,-0.040
5.880,-0.210,-0.040
5.882,-0.210,-0.030
5.884,-0.170,-0.025
5.886,-0.165,-0.020
5.888,-0.175,-0.015
5.890,-0.180,-0.015
5.892,-0.185,-0.015
5.894,-0.215,-0.020
5.896,-0.200,-0.030
5.898,-0.195,-0.035
5.900,-0.200,-0.035
5.902,-0.205,-0.035
5.904,-0.170,-0.035
5.906,-0.175,-0.035
5.908,-0.180,-0.030
5.910,-0.175,-0.025
5.912,-0.165,-0.025
5.914,-0.205,-0.030
5.916,-0.205,-0.030
5.918,-0.215,-0.035
5.920,-0.195,-0.040
5.922,-0.205,-0.040
5.924,-0.180,-0.035
5.926,-0.155,-0.035
5.928,-0.150,-0.025
5.930,-0.170,-0.020
5.932,-0.160,-0.010
5.934,-0.190,-0.005
5.936,-0.175,-0.005
5.938,-0.175,-0.005
5.940,-0.185,-0.010
5.942,-0.190,-0.010
5.944,-0.155,-0.015
5.946,-0.170,-0.020
5.948,-0.175,-0.025
5.950,-0.195,-0.025
5.952,-0.175,-0.025
5.954,-0.185,-0.025
5.956,-0.205,-0.020
5.958,-0.175,-0.020
5.960,-0.155,-0.015
5.962,-0.155,-0.015
5.964,-0.145,-0.015
5.966,-0.150,-0.015
5.968,-0.155,-0.020
5.970,-0.180,-0.020
5.972,-0.180,-0.020
5.974,-0.210,-0.020
5.976,-0.170,-0.015
5.978,-0.155,-0.015
5.980,-0.150,-0.015
5.982,-0.170,-0.010
5.984,-0.150,-0.010
5.986,-0.145,-0.010
5.988,-0.160,-0.015
5.990,-0.160,-0.015
5.992,-0.135,-0.015
5.994,-0.175,-0.015
5.996,-0.170,-0.010
5.998,-0.165,-0.010
6.000,-0.170,-0.005
6.002,-0.135,0.000
6.004,-0.105,0.005
6.006,-0.120,0.010
6.008,-0.125,0.015
6.010,-0.145,0.015
6.012,-0.150,0.020
6.014,-0.160,0.020
6.016,-0.140,0.020
6.018,-0.140,0.020
6.020,-0.145,0.020
6.022,-0.120,0.020
6.024,-0.105,0.020
6.026,-0.120,0.020
6.028,-0.115,0.025
6.030,-0.110,0.025
6.032,-0.090,0.030
6.034,-0.115,0.035
6.036,-0.095,0.045
6.038,-0.105,0.050
6.040,-0.095,0.055
6.042,-0.075,0.060
6.044,-0.060,0.065
6.046,-0.060,0.070
6.048,-0.050,0.075
6.050,-0.045,0.080
6.052,-0.050,0.085
6.054,-0.065,0.090
6.056,-0.065,0.095
6.058,-0.065,0.100
6.060,-0.060,0.105
6.062,-0.025,0.110
6.064,-0.020,0.115
6.066,-0.050,0.115
6.068,-0.060,0.115
6.070,-0.030,0.115
6.072,-0.055,0.115
6.074,-0.060,0.115
6.076,-0.035,0.110
6.078,-0.040,0.110
6.080,-0.065,0.110
6.082,-0.040,0.105
6.084,-0.020,0.105
6.086,-0.030,0.100
6.088,-0.030,0.095
6.090,-0.030,0.090
6.092,-0.065,0.090
6.094,-0.075,0.085
6.096,-0.065,0.085
6.098,-0.060,0.090
6.100,-0.065,0.090
6.102,-0.035,0.090
6.104,-0.060,0.090
6.106,-0.070,0.085
6.108,-0.080,0.075
6.110,-0.085,0.065
6.112,-0.135,0.055
6.114,-0.140,0.040
6.116,-0.130,0.030
6.118,-0.135,0.020
6.120,-0.165,0.010
6.122,-0.120,0.005
6.124,-0.100,0.005
6.126,-0.125,0.005
6.128,-0.145,0.000
6.130,-0.165,0.000
6.132,-0.185,-0.005
6.134,-0.180,-0.010
6.136,-0.195,-0.010
6.138,-0.185,-0.015
6.140,-0.185,-0.020
6.142,-0.145,-0.020
6.144,-0.145,-0.020
6.146,-0.170,-0.020
6.148,-0.185,-0.020
6.150,-0.210,-0.020
6.152,-0.220,-0.025
6.154,-0.225,-0.035
6.156,-0.205,-0.045
6.158,-0.205,-0.055
6.160,-0.215,-0.065
6.162,-0.170,-0.070
6.164,-0.205,-0.070
6.166,-0.225,-0.065
6.168,-0.230,-0.060
6.170,-0.195,-0.055
6.172,-0.205,-0.050
6.174,-0.220,-0.045
6.176,-0.240,-0.045
6.178,-0.210,-0.050
6.180,-0.215,-0.055
6.182,-0.200,-0.060
6.184,-0.190,-0.070
6.186,-0.200,-0.070
6.188,-0.205,-0.075
6.190,-0.210,-0.075
6.192,-0.230,-0.070
6.194,-0.220,-0.065
6.196,-0.215,-0.060
6.198,-0.220,-0.060
6.200,-0.220,-0.060
6.202,-0.200,-0.060
6.204,-0.220,-0.060
6.206,-0.225,-0.060
6.208,-0.240,-0.065
6.210,-0.205,-0.065
6.212,-0.225,-0.065
6.214,-0.210,-0.065
6.216,-0.205,-0.060
6.218,-0.210,-0.060
6.220,-0.215,-0.065
6.222,-0.190,-0.065
6.224,-0.210,-0.065
6.226,-0.210,-0.070
6.228,-0.230,-0.070
6.230,-0.220,-0.070
6.232,-0.245,-0.070
6.234,-0.220,-0.070
6.236,-0.200,-0.065
6.238,-0.185,-0.065
6.240,-0.185,-0.060
6.242,-0.185,-0.060
6.244,-0.210,-0.060
6.246,-0.215,-0.060
6.248,-0.220,-0.065
6.250,-0.200,-0.065
6.252,-0.215,-0.065
6.254,-0.210,-0.065
6.256,-0.210,-0.060
6.258,-0.205,-0.060
6.260,-0.195,-0.060
6.262,-0.170,-0.055
6.264,-0.185,-0.055
6.266,-0.200,-0.050
6.268,-0.210,-0.045
6.270,-0.200,-0.045
6.272,-0.220,-0.040
6.274,-0.175,-0.030
6.276,-0.175,-0.025
6.278,-0.175,-0.025
6.280,-0.180,-0.020
6.282,-0.145,-0.020
6.284,-0.185,-0.025
6.286,-0.205,-0.030
6.288,-0.210,-0.035
6.290,-0.205,-0.045
6.292,-0.210,-0.050
6.294,-0.195,-0.060
6.296,-0.195,-0.060
6.298,-0.190,-0.060
6.300,-0.180,-0.055
6.302,-0.165,-0.050
6.304,-0.185,-0.045
6.306,-0.190,-0.040
6.308,-0.185,-0.035
6.310,-0.175,-0.035
6.312,-0.195,-0.035
6.314,-0.180,-0.035
6.316,-0.170,-0.040
6.318,-0.195,-0.040
6.320,-0.175,-0.040
6.322,-0.155,-0.040
6.324,-0.175,-0.040
6.326,-0.185,-0.040
6.328,-0.175,-0.040
6.330,-0.200,-0.035
6.332,-0.225,-0.035
6.334,-0.200,-0.035
6.336,-0.205,-0.040
6.338,-0.205,-0.040
6.340,-0.180,-0.045
6.342,-0.150,-0.045
6.344,-0.170,-0.050
6.346,-0.175,-0.050
6.348,-0.180,-0.050
6.350,-0.210,-0.050
6.352,-0.205,-0.050
6.354,-0.180,-0.045
6.356,-0.175,-0.045
6.358,-0.220,-0.040
6.360,-0.220,-0.040
6.362,-0.165,-0.040
6.364,-0.180,-0.040
6.366,-0.190,-0.040
6.368,-0.180,-0.040
6.370,-0.205,-0.040
6.372,-0.220,-0.045
6.374,-0.200,-0.045
6.376,-0.200,-0.040
6.378,-0.205,-0.040
6.380,-0.180,-0.040
6.382,-0.160,-0.035
6.384,-0.160,-0.035
6.386,-0.175,-0.035
6.388,-0.170,-0.035
6.390,-0.210,-0.035
6.392,-0.220,-0.035
6.394,-0.205,-0.035
6.396,-0.195,-0.035
6.398,-0.205,-0.035
6.400,-0.165,-0.040
6.402,-0.165,-0.040
6.404,-0.190,-0.045
6.406,-0.210,-0.050
6.408,-0.200,-0.050
6.410,-0.220,-0.055
6.412,-0.220,-0.055
6.414,-0.200,-0.055
6.416,-0.195,-0.055
6.418,-0.210,-0.050
6.420,-0.170,-0.045
6.422,-0.155,-0.045
6.424,-0.180,-0.040
6.426,-0.190,-0.040
6.428,-0.180,-0.040
6.430,-0.200,-0.040
6.432,-0.210,-0.040
6.434,-0.190,-0.040
6.436,-0.180,-0.040
6.438,-0.200,-0.040
6.440,-0.165,-0.035
6.442,-0.165,-0.030
6.444,-0.160,-0.030
6.446,-0.175,-0.025
6.448,-0.160,-0.025
6.450,-0.200,-0.025
6.452,-0.180,-0.025
6.454,-0.190,-0.025
6.456,-0.175,-0.025
6.458,-0.155,-0.020
6.460,-0.110,-0.010
6.462,-0.115,0.000
6.464,-0.110,0.010
6.466,-0.110,0.025
6.468,-0.095,0.035
6.470,-0.120,0.045
6.472,-0.120,0.045
6.474,-0.125,0.050
6.476,-0.115,0.045
6.478,-0.105,0.040
6.480,-0.080,0.035
6.482,-0.105,0.030
6.484,-0.125,0.030
6.486,-0.140,0.030
6.488,-0.120,0.030
6.490,-0.120,0.035
6.492,-0.110,0.040
6.494,-0.110,0.045
6.496,-0.125,0.045
6.498,-0.120,0.040
6.500,-0.110,0.030
6.502,-0.130,0.015
6.504,-0.155,-0.005
6.506,-0.205,-0.020
6.508,-0.195,-0.035
6.510,-0.210,-0.050
6.512,-0.220,-0.060
6.514,-0.210,-0.065
6.516,-0.220,-0.065
6.518,-0.235,-0.060
6.520,-0.185,-0.060
6.522,-0.195,-0.055
6.524,-0.180,-0.050
6.526,-0.200,-0.050
6.528,-0.200,-0.050
6.530,-0.215,-0.050
6.532,-0.205,-0.055
6.534,-0.205,-0.055
6.536,-0.215,-0.055
6.538,-0.200,-0.055
6.540,-0.180,-0.055
6.542,-0.195,-0.055
6.544,-0.210,-0.055
6.546,-0.225,-0.055
6.548,-0.215,-0.060
6.550,-0.240,-0.065
6.552,-0.220,-0.070
6.554,-0.205,-0.075
6.556,-0.235,-0.075
6.558,-0.225,-0.075
6.560,-0.190,-0.075
6.562,-0.200,-0.070
6.564,-0.195,-0.060
6.566,-0.205,-0.055
6.568,-0.205,-0.050
6.570,-0.215,-0.050
6.572,-0.210,-0.050
6.574,-0.215,-0.050
6.576,-0.210,-0.055
6.578,-0.210,-0.055
6.580,-0.195,-0.055
6.582,-0.205,-0.055
6.584,-0.195,-0.055
6.586,-0.195,-0.055
6.588,-0.210,-0.055
6.590,-0.235,-0.055
6.592,-0.210,-0.060
6.594,-0.245,-0.065
6.596,-0.225,-0.065
6.598,-0.210,-0.065
6.600,-0.155,-0.055
6.602,-0.140,-0.030
6.604,-0.125,0.005
6.606,-0.090,0.055
6.608,-0.025,0.120
6.610,0.030,0.190
6.612,0.135,0.270
6.614,0.230,0.345
6.616,0.300,0.420
6.618,0.375,0.480
6.620,0.430,0.530
6.622,0.445,0.560
6.624,0.475,0.570
6.626,0.455,0.555
6.628,0.365,0.520
6.630,0.260,0.465
6.632,0.215,0.390
6.634,0.145,0.305
6.636,0.040,0.215
6.638,-0.090,0.125
6.640,-0.150,0.040
6.642,-0.190,-0.025
6.644,-0.195,-0.075
6.646,-0.245,-0.105
6.648,-0.270,-0.115
6.650,-0.270,-0.110
6.652,-0.230,-0.095
6.654,-0.215,-0.075
6.656,-0.210,-0.055
6.658,-0.180,-0.045
6.660,-0.165,-0.035
6.662,-0.175,-0.035
6.664,-0.190,-0.040
6.666,-0.185,-0.050
6.668,-0.215,-0.055
6.670,-0.225,-0.060
6.672,-0.205,-0.060
6.674,-0.185,-0.055
6.676,-0.185,-0.050
6.678,-0.185,-0.045
6.680,-0.165,-0.040
6.682,-0.195,-0.040
6.684,-0.190,-0.045
6.686,-0.185,-0.045
6.688,-0.210,-0.050
6.690,-0.230,-0.055
6.692,-0.205,-0.055
6.694,-0.195,-0.050
6.696,-0.195,-0.045
6.698,-0.145,-0.035
6.700,-0.150,-0.030
6.702,-0.180,-0.025
6.704,-0.185,-0.020
6.706,-0.160,-0.020
6.708,-0.195,-0.025
6.710,-0.205,-0.025
6.712,-0.175,-0.030
6.714,-0.170,-0.030
6.716,-0.190,-0.030
6.718,-0.155,-0.025
6.720,-0.145,-0.020
6.722,-0.160,-0.015
6.724,-0.170,-0.010
6.726,-0.160,-0.005
6.728,-0.170,-0.005
6.730,-0.175,-0.005
6.732,-0.160,-0.010
6.734,-0.170,-0.010
6.736,-0.180,-0.015
6.738,-0.155,-0.015
6.740,-0.150,-0.015
6.742,-0.155,-0.010
6.744,-0.175,-0.010
6.746,-0.155,-0.005
6.748,-0.180,-0.005
6.750,-0.175,-0.005
6.752,-0.160,-0.010
6.754,-0.165,-0.010
6.756,-0.175,-0.015
6.758,-0.135,-0.015
6.760,-0.130,-0.020
6.762,-0.155,-0.020
6.764,-0.155,-0.015
6.766,-0.140,-0.015
6.768,-0.175,-0.010
6.770,-0.155,-0.005
6.772,-0.160,0.000
6.774,-0.180,0.000
6.776,-0.165,0.005
6.778,-0.130,0.005
6.780,-0.120,0.005
6.782,-0.125,0.010
6.784,-0.140,0.010
6.786,-0.125,0.015
6.788,-0.160,0.015
6.790,-0.145,0.020
6.792,-0.145,0.020
6.794,-0.140,0.025
6.796,-0.140,0.025
6.798,-0.125,0.025
6.800,-0.115,0.025
6.802,-0.095,0.025
6.804,-0.125,0.025
6.806,-0.105,0.025
6.808,-0.120,0.025
6.810,-0.110,0.030
6.812,-0.110,0.035
6.814,-0.135,0.040
6.816,-0.110,0.045
6.818,-0.075,0.050
6.820,-0.080,0.055
6.822,-0.085,0.055
6.824,-0.095,0.060
6.826,-0.065,0.060
6.828,-0.085,0.065
6.830,-0.085,0.065
6.832,-0.070,0.070
6.834,-0.060,0.070
6.836,-0.060,0.075
6.838,-0.035,0.080
6.840,-0.025,0.090
6.842,-0.030,0.095
6.844,-0.035,0.100
6.846,-0.030,0.110
6.848,-0.055,0.110
6.850,-0.020,0.115
6.852,-0.040,0.115
6.854,-0.035,0.115
6.856,-0.020,0.115
6.858,-0.005,0.115
6.860,-0.005,0.120
6.862,0.005,0.120
6.864,-0.025,0.125
6.866,-0.025,0.125
6.868,-0.045,0.130
6.870,-0.030,0.130
6.872,-0.035,0.130
6.874,-0.045,0.125
6.876,-0.030,0.120
6.878,0.005,0.115
6.880,-0.010,0.110
6.882,-0.025,0.105
6.884,-0.030,0.105
6.886,-0.030,0.105
6.888,-0.070,0.105
6.890,-0.050,0.105
6.892,-0.060,0.105
6.894,-0.085,0.100
6.896,-0.085,0.090
6.898,-0.030,0.080
6.900,-0.075,0.065
6.902,-0.100,0.055
6.904,-0.110,0.045
6.906,-0.115,0.035
6.908,-0.130,0.030
6.910,-0.115,0.030
6.912,-0.130,0.030
6.914,-0.135,0.025
6.916,-0.125,0.025
6.918,-0.115,0.015
6.920,-0.145,0.005
6.922,-0.195,-0.010
6.924,-0.185,-0.025
6.926,-0.165,-0.035
6.928,-0.180,-0.040
6.930,-0.160,-0.045
6.932,-0.150,-0.040
6.934,-0.180,-0.035
6.936,-0.175,-0.025
6.938,-0.145,-0.015
6.940,-0.170,-0.005
6.942,-0.175,-0.005
6.944,-0.175,-0.005
6.946,-0.195,-0.015
6.948,-0.210,-0.025
6.950,-0.200,-0.035
6.952,-0.200,-0.045
6.954,-0.215,-0.055
6.956,-0.195,-0.060
6.958,-0.160,-0.060
6.960,-0.185,-0.060
6.962,-0.205,-0.055
6.964,-0.195,-0.050
6.966,-0.215,-0.045
6.968,-0.235,-0.040
6.970,-0.205,-0.035
6.972,-0.190,-0.040
6.974,-0.210,-0.040
6.976,-0.200,-0.045
6.978,-0.190,-0.050
6.980,-0.210,-0.055
6.982,-0.195,-0.065
6.984,-0.185,-0.065
6.986,-0.215,-0.070
6.988,-0.215,-0.070
6.990,-0.195,-0.070
6.992,-0.215,-0.070
6.994,-0.225,-0.065
6.996,-0.195,-0.065
6.998,-0.175,-0.060
7.000,-0.195,-0.060
7.002,-0.195,-0.060
7.004,-0.205,-0.055
7.006,-0.225,-0.055
7.008,-0.225,-0.050
7.010,-0.190,-0.050
7.012,-0.185,-0.045
7.014,-0.200,-0.040
7.016,-0.170,-0.040
7.018,-0.175,-0.040
7.020,-0.195,-0.040
7.022,-0.180,-0.040
7.024,-0.170,-0.040
7.026,-0.190,-0.045
7.028,-0.205,-0.045
7.030,-0.205,-0.045
7.032,-0.205,-0.050
7.034,-0.195,-0.050
7.036,-0.170,-0.050
7.038,-0.180,-0.050
7.040,-0.185,-0.045
7.042,-0.155,-0.045
7.044,-0.145,-0.045
7.046,-0.185,-0.040
7.048,-0.190,-0.040
7.050,-0.180,-0.035
7.052,-0.180,-0.030
7.054,-0.205,-0.030
7.056,-0.155,-0.025
7.058,-0.155,-0.025
7.060,-0.170,-0.025
7.062,-0.185,-0.025
7.064,-0.180,-0.025
7.066,-0.195,-0.025
7.068,-0.180,-0.025
7.070,-0.175,-0.030
7.072,-0.175,-0.030
7.074,-0.195,-0.030
7.076,-0.180,-0.025
7.078,-0.135,-0.025
7.080,-0.130,-0.025
7.082,-0.150,-0.025
7.084,-0.145,-0.025
7.086,-0.190,-0.025
7.088,-0.190,-0.025
7.090,-0.175,-0.025
7.092,-0.180,-0.025
7.094,-0.185,-0.025
7.096,-0.160,-0.025
7.098,-0.170,-0.025
7.100,-0.175,-0.025
7.102,-0.170,-0.025
7.104,-0.160,-0.025
7.106,-0.185,-0.025
7.108,-0.175,-0.025
7.110,-0.180,-0.025
7.112,-0.195,-0.025
7.114,-0.210,-0.020
7.116,-0.155,-0.025
7.118,-0.150,-0.025
7.120,-0.175,-0.030
7.122,-0.200,-0.030
7.124,-0.185,-0.035
7.126,-0.200,-0.040
7.128,-0.170,-0.040
7.130,-0.170,-0.040
7.132,-0.170,-0.040
7.134,-0.190,-0.035
7.136,-0.170,-0.035
7.138,-0.180,-0.030
7.140,-0.180,-0.030
7.142,-0.185,-0.030
7.144,-0.190,-0.035
7.146,-0.210,-0.040
7.148,-0.190,-0.040
7.150,-0.185,-0.045
7.152,-0.210,-0.045
7.154,-0.205,-0.045
7.156,-0.140,-0.040
7.158,-0.160,-0.035
7.160,-0.170,-0.035
7.162,-0.195,-0.030
7.164,-0.185,-0.030
7.166,-0.210,-0.030
7.168,-0.195,-0.035
7.170,-0.190,-0.040
7.172,-0.190,-0.045
7.174,-0.205,-0.050
7.176,-0.175,-0.055
7.178,-0.175,-0.055
7.180,-0.165,-0.055
7.182,-0.180,-0.055
7.184,-0.190,-0.055
7.186,-0.210,-0.050
7.188,-0.205,-0.045
7.190,-0.190,-0.040
7.192,-0.205,-0.035
7.194,-0.220,-0.035
7.196,-0.140,-0.030
7.198,-0.145,-0.030
7.200,-0.175,-0.030
7.202,-0.185,-0.035
7.204,-0.190,-0.035
7.206,-0.215,-0.040
7.208,-0.190,-0.045
7.210,-0.195,-0.050
7.212,-0.200,-0.050
7.214,-0.190,-0.050
7.216,-0.150,-0.045
7.218,-0.165,-0.040
7.220,-0.165,-0.035
7.222,-0.180,-0.030
7.224,-0.170,-0.025
7.226,-0.180,-0.020
7.228,-0.165,-0.020
7.230,-0.165,-0.020
7.232,-0.195,-0.020
7.234,-0.175,-0.020
7.236,-0.120,-0.020
7.238,-0.145,-0.020
7.240,-0.145,-0.020
7.242,-0.135,-0.015
7.244,-0.120,-0.010
7.246,-0.130,0.000
7.248,-0.100,0.010
7.250,-0.105,0.020
7.252,-0.115,0.030
7.254,-0.085,0.040
7.256,-0.060,0.050
7.258,-0.075,0.055
7.260,-0.080,0.060
7.262,-0.100,0.060
7.264,-0.115,0.055
7.266,-0.130,0.050
7.268,-0.110,0.040
7.270,-0.115,0.030
7.272,-0.130,0.025
7.274,-0.105,0.015
7.276,-0.090,0.010
7.278,-0.110,0.005
7.280,-0.120,0.005
7.282,-0.110,0.000
7.284,-0.135,0.000
7.286,-0.185,-0.005
7.288,-0.190,-0.015
7.290,-0.200,-0.020
7.292,-0.230,-0.030
7.294,-0.175,-0.040
7.296,-0.155,-0.045
7.298,-0.170,-0.050
7.300,-0.185,-0.055
7.302,-0.175,-0.055
7.304,-0.205,-0.055
7.306,-0.220,-0.055
7.308,-0.215,-0.055
7.310,-0.205,-0.060
7.312,-0.215,-0.060
7.314,-0.195,-0.065
7.316,-0.170,-0.070
7.318,-0.200,-0.075
7.320,-0.200,-0.075
7.322,-0.190,-0.075
7.324,-0.205,-0.070
7.326,-0.210,-0.060
7.328,-0.200,-0.055
7.330,-0.200,-0.045
7.332,-0.215,-0.045
7.334,-0.185,-0.040
7.336,-0.170,-0.045
7.338,-0.190,-0.045
7.340,-0.205,-0.050
7.342,-0.180,-0.055
7.344,-0.205,-0.060
7.346,-0.210,-0.060
7.348,-0.210,-0.060
7.350,-0.215,-0.060
7.352,-0.230,-0.060
7.354,-0.185,-0.060
7.356,-0.185,-0.060
7.358,-0.205,-0.060
7.360,-0.185,-0.060
7.362,-0.165,-0.060
7.364,-0.195,-0.055
7.366,-0.195,-0.055
7.368,-0.205,-0.050
7.370,-0.190,-0.050
7.372,-0.200,-0.050
7.374,-0.190,-0.055
7.376,-0.175,-0.060
7.378,-0.195,-0.065
7.380,-0.220,-0.070
7.382,-0.190,-0.060
7.384,-0.185,-0.040
7.386,-0.155,-0.005
7.388,-0.095,0.040
7.390,-0.015,0.105
7.392,0.050,0.180
7.394,0.170,0.265
7.396,0.255,0.345
7.398,0.340,0.425
7.400,0.390,0.490
7.402,0.420,0.545
7.404,0.440,0.575
7.406,0.490,0.585
7.408,0.510,0.575
7.410,0.425,0.545
7.412,0.320,0.490
7.414,0.275,0.415
7.416,0.205,0.335
7.418,0.080,0.245
7.420,-0.060,0.155
7.422,-0.135,0.070
7.424,-0.180,0.005
7.426,-0.195,-0.045
7.428,-0.210,-0.070
7.430,-0.225,-0.080
7.432,-0.210,-0.075
7.434,-0.140,-0.060
7.436,-0.145,-0.045
7.438,-0.160,-0.030
7.440,-0.190,-0.025
7.442,-0.195,-0.025
7.444,-0.225,-0.030
7.446,-0.205,-0.040
7.448,-0.190,-0.050
7.450,-0.195,-0.060
7.452,-0.190,-0.065
7.454,-0.160,-0.060
7.456,-0.160,-0.055
7.458,-0.175,-0.050
7.460,-0.190,-0.045
7.462,-0.190,-0.040
7.464,-0.210,-0.040
7.466,-0.195,-0.045
7.468,-0.200,-0.050
7.470,-0.185,-0.060
7.472,-0.190,-0.065
7.474,-0.165,-0.065
7.476,-0.165,-0.065
7.478,-0.160,-0.060
7.480,-0.185,-0.055
7.482,-0.170,-0.050
7.484,-0.185,-0.045
7.486,-0.185,-0.040
7.488,-0.170,-0.040
7.490,-0.175,-0.035
7.492,-0.180,-0.040
7.494,-0.140,-0.040
7.496,-0.170,-0.035
7.498,-0.170,-0.035
7.500,-0.175,-0.030
7.502,-0.175,-0.030
7.504,-0.170,-0.025
7.506,-0.140,-0.025
7.508,-0.155,-0.025
7.510,-0.165,-0.025
7.512,-0.170,-0.030
7.514,-0.135,-0.035
7.516,-0.170,-0.040
7.518,-0.170,-0.045
7.520,-0.160,-0.045
7.522,-0.170,-0.045
7.524,-0.200,-0.045
7.526,-0.175,-0.040
7.528,-0.175,-0.040
7.530,-0.185,-0.035
7.532,-0.145,-0.030
7.534,-0.110,-0.025
7.536,-0.140,-0.025
7.538,-0.140,-0.025
7.540,-0.155,-0.025
7.542,-0.165,-0.025
7.544,-0.165,-0.030
7.546,-0.150,-0.030
7.548,-0.130,-0.035
7.550,-0.160,-0.035
7.552,-0.150,-0.030
7.554,-0.135,-0.025
7.556,-0.125,-0.020
7.558,-0.135,-0.010
7.560,-0.130,-0.005
7.562,-0.155,0.000
7.564,-0.175,0.000
7.566,-0.145,0.000
7.568,-0.140,-0.005
7.570,-0.150,-0.010
7.572,-0.130,-0.015
7.574,-0.095,-0.020
7.576,-0.130,-0.020
7.578,-0.130,-0.020
7.580,-0.120,-0.010
7.582,-0.125,-0.005
7.584,-0.145,0.005
7.586,-0.120,0.015
7.588,-0.100,0.020
7.590,-0.125,0.025
7.592,-0.100,0.025
7.594,-0.065,0.025
7.596,-0.090,0.025
7.598,-0.095,0.025
7.600,-0.090,0.030
7.602,-0.110,0.035
7.604,-0.120,0.040
7.606,-0.080,0.050
7.608,-0.075,0.055
7.610,-0.075,0.065
7.612,-0.055,0.070
7.614,-0.045,0.070
7.616,-0.050,0.075
7.618,-0.050,0.075
7.620,-0.035,0.075
7.622,-0.050,0.080
7.624,-0.065,0.085
7.626,-0.040,0.095
7.628,-0.040,0.100
7.630,-0.050,0.110
7.632,-0.010,0.115
7.634,0.005,0.115
7.636,-0.015,0.115
7.638,-0.005,0.115
7.640,-0.010,0.110
7.642,-0.030,0.105
7.644,-0.030,0.100
7.646,-0.025,0.100
7.648,-0.025,0.095
7.650,-0.025,0.095
7.652,-0.010,0.095
7.654,0.000,0.100
7.656,-0.005,0.100
7.658,0.000,0.100
7.660,-0.010,0.100
7.662,-0.040,0.100
7.664,-0.045,0.100
7.666,-0.035,0.100
7.668,-0.030,0.100
7.670,-0.040,0.100
7.672,-0.015,0.100
7.674,-0.020,0.095
7.676,-0.040,0.090
7.678,-0.065,0.085
7.680,-0.070,0.075
7.682,-0.090,0.065
7.684,-0.080,0.055
7.686,-0.080,0.045
7.688,-0.090,0.040
7.690,-0.110,0.030
7.692,-0.090,0.025
7.694,-0.065,0.020
7.696,-0.090,0.015
7.698,-0.135,0.010
7.700,-0.115,0.005
7.702,-0.135,0.005
7.704,-0.135,0.000
7.706,-0.120,-0.005
7.708,-0.130,-0.010
7.710,-0.160,-0.020
7.712,-0.140,-0.025
7.714,-0.145,-0.030
7.716,-0.160,-0.035
7.718,-0.160,-0.040
7.720,-0.150,-0.045
7.722,-0.180,-0.045
7.724,-0.170,-0.045
7.726,-0.165,-0.040
7.728,-0.170,-0.040
7.730,-0.170,-0.035
7.732,-0.135,-0.035
7.734,-0.135,-0.035
7.736,-0.165,-0.035
7.738,-0.165,-0.040
7.740,-0.135,-0.040
7.742,-0.175,-0.045
7.744,-0.180,-0.045
7.746,-0.175,-0.045
7.748,-0.175,-0.040
7.750,-0.180,-0.035
7.752,-0.145,-0.030
7.754,-0.145,-0.030
7.756,-0.165,-0.030
7.758,-0.170,-0.035
7.760,-0.160,-0.045
7.762,-0.185,-0.055
7.764,-0.175,-0.060
7.766,-0.160,-0.070
7.768,-0.175,-0.070
7.770,-0.175,-0.070
7.772,-0.155,-0.065
7.774,-0.175,-0.055
7.776,-0.175,-0.050
7.778,-0.165,-0.045
7.780,-0.165,-0.040
7.782,-0.190,-0.045
7.784,-0.170,-0.045
7.786,-0.165,-0.050
7.788,-0.180,-0.055
7.790,-0.175,-0.055
7.792,-0.135,-0.055
7.794,-0.160,-0.050
7.796,-0.175,-0.040
7.798,-0.155,-0.035
7.800,-0.165,-0.030
7.802,-0.180,-0.030
7.804,-0.145,-0.030
7.806,-0.160,-0.035
7.808,-0.180,-0.045
7.810,-0.160,-0.050
7.812,-0.140,-0.055
7.814,-0.145,-0.055
7.816,-0.145,-0.050
7.818,-0.165,-0.045
7.820,-0.155,-0.040
7.822,-0.170,-0.030
7.824,-0.165,-0.025
7.826,-0.165,-0.020
7.828,-0.165,-0.020
7.830,-0.140,-0.025
7.832,-0.120,-0.030
7.834,-0.125,-0.035
7.836,-0.130,-0.040
7.838,-0.135,-0.040
7.840,-0.160,-0.045
7.842,-0.175,-0.040
7.844,-0.145,-0.040
7.846,-0.135,-0.035
7.848,-0.155,-0.035
7.850,-0.140,-0.030
7.852,-0.110,-0.025
7.854,-0.120,-0.020
7.856,-0.120,-0.020
7.858,-0.135,-0.020
7.860,-0.145,-0.020
7.862,-0.160,-0.020
7.864,-0.135,-0.020
7.866,-0.115,-0.020
7.868,-0.145,-0.025
7.870,-0.120,-0.025
7.872,-0.095,-0.030
7.874,-0.115,-0.030
7.876,-0.135,-0.035
7.878,-0.145,-0.035
7.880,-0.145,-0.030
7.882,-0.160,-0.030
7.884,-0.155,-0.030
7.886,-0.160,-0.030
7.888,-0.170,-0.030
7.890,-0.120,-0.030
7.892,-0.100,-0.030
7.894,-0.130,-0.030
7.896,-0.145,-0.030
7.898,-0.135,-0.030
7.900,-0.135,-0.025
7.902,-0.140,-0.020
7.904,-0.140,-0.020
7.906,-0.145,-0.015
7.908,-0.150,-0.010
7.910,-0.105,-0.010
7.912,-0.080,-0.010
7.914,-0.110,-0.015
7.916,-0.135,-0.015
7.918,-0.125,-0.020
7.920,-0.155,-0.025
7.922,-0.145,-0.025
7.924,-0.130,-0.030
7.926,-0.130,-0.030
7.928,-0.155,-0.030
7.930,-0.135,-0.030
7.932,-0.130,-0.030
7.934,-0.135,-0.030
7.936,-0.140,-0.030
7.938,-0.135,-0.030
7.940,-0.155,-0.030
7.942,-0.145,-0.030
7.944,-0.145,-0.025
7.946,-0.135,-0.025
7.948,-0.140,-0.020
7.950,-0.105,-0.020
7.952,-0.115,-0.025
7.954,-0.135,-0.025
7.956,-0.140,-0.030
7.958,-0.135,-0.035
7.960,-0.165,-0.040
7.962,-0.150,-0.040
7.964,-0.125,-0.040
7.966,-0.130,-0.035
7.968,-0.155,-0.030
7.970,-0.125,-0.025
7.972,-0.130,-0.025
7.974,-0.140,-0.025
7.976,-0.145,-0.025
7.978,-0.125,-0.030
7.980,-0.160,-0.035
7.982,-0.145,-0.035
7.984,-0.115,-0.040
7.986,-0.130,-0.035
7.988,-0.145,-0.035
7.990,-0.130,-0.030
7.992,-0.140,-0.025
7.994,-0.140,-0.025
7.996,-0.145,-0.025
7.998,-0.135,-0.030
8.000,-0.155,-0.035
8.002,-0.135,-0.040
8.004,-0.140,-0.040
8.006,-0.155,-0.040
8.008,-0.155,-0.035
8.010,-0.110,-0.030
8.012,-0.120,-0.025
8.014,-0.130,-0.025
8.016,-0.135,-0.020
8.018,-0.130,-0.020
8.020,-0.155,-0.025
8.022,-0.170,-0.025
8.024,-0.150,-0.030
8.026,-0.140,-0.030
8.028,-0.140,-0.030
8.030,-0.105,-0.030
8.032,-0.115,-0.030
8.034,-0.130,-0.025
8.036,-0.140,-0.025
8.038,-0.120,-0.025
8.040,-0.140,-0.025
8.042,-0.130,-0.025
8.044,-0.110,-0.030
8.046,-0.120,-0.030
8.048,-0.120,-0.030
8.050,-0.090,-0.025
8.052,-0.095,-0.020
8.054,-0.100,-0.010
8.056,-0.095,0.000
8.058,-0.070,0.010
8.060,-0.085,0.025
8.062,-0.070,0.035
8.064,-0.045,0.045
8.066,-0.045,0.050
8.068,-0.050,0.055
8.070,-0.025,0.055
8.072,-0.045,0.055
8.074,-0.030,0.055
8.076,-0.050,0.050
8.078,-0.050,0.045
8.080,-0.080,0.040
8.082,-0.070,0.035
8.084,-0.080,0.035
8.086,-0.080,0.030
8.088,-0.075,0.030
8.090,-0.045,0.035
8.092,-0.070,0.035
8.094,-0.075,0.035
8.096,-0.085,0.030
8.098,-0.060,0.025
8.100,-0.085,0.015
8.102,-0.080,0.005
8.104,-0.115,-0.005
8.106,-0.160,-0.020
8.108,-0.160,-0.030
8.110,-0.135,-0.040
8.112,-0.155,-0.045
8.114,-0.130,-0.050
8.116,-0.135,-0.050
8.118,-0.145,-0.055
8.120,-0.185,-0.055
8.122,-0.170,-0.055
8.124,-0.150,-0.055
8.126,-0.165,-0.055
8.128,-0.150,-0.060
8.130,-0.110,-0.060
8.132,-0.125,-0.055
8.134,-0.155,-0.055
8.136,-0.165,-0.055
8.138,-0.160,-0.055
8.140,-0.170,-0.055
8.142,-0.140,-0.055
8.144,-0.165,-0.060
8.146,-0.190,-0.060
8.148,-0.180,-0.060
8.150,-0.110,-0.060
8.152,-0.110,-0.055
8.154,-0.145,-0.050
8.156,-0.150,-0.045
8.158,-0.165,-0.040
8.160,-0.180,-0.040
8.162,-0.150,-0.040
8.164,-0.160,-0.045
8.166,-0.170,-0.050
8.168,-0.140,-0.060
8.170,-0.115,-0.065
8.172,-0.135,-0.070
8.174,-0.150,-0.070
8.176,-0.150,-0.065
8.178,-0.165,-0.060
8.180,-0.165,-0.055
8.182,-0.140,-0.050
8.184,-0.145,-0.050
8.186,-0.165,-0.055
8.188,-0.150,-0.060
8.190,-0.140,-0.075
8.192,-0.170,-0.085
8.194,-0.165,-0.090
8.196,-0.150,-0.085
8.198,-0.145,-0.070
8.200,-0.145,-0.040
8.202,-0.115,0.005
8.204,-0.030,0.065
8.206,0.035,0.135
8.208,0.140,0.210
8.210,0.235,0.285
8.212,0.315,0.365
8.214,0.390,0.440
8.216,0.460,0.505
8.218,0.480,0.560
8.220,0.505,0.600
8.222,0.570,0.620
8.224,0.570,0.615
8.226,0.500,0.590
8.228,0.445,0.540
8.230,0.375,0.465
8.232,0.265,0.375
8.234,0.180,0.275
8.236,0.040,0.175
8.238,-0.100,0.085
8.240,-0.155,0.015
8.242,-0.130,-0.035
8.244,-0.135,-0.065
8.246,-0.160,-0.070
8.248,-0.115,-0.060
8.250,-0.100,-0.045
8.252,-0.095,-0.030
8.254,-0.140,-0.025
8.256,-0.145,-0.020
8.258,-0.180,-0.030
8.260,-0.165,-0.040
8.262,-0.155,-0.055
8.264,-0.135,-0.070
8.266,-0.150,-0.075
8.268,-0.120,-0.075
8.270,-0.120,-0.070
8.272,-0.140,-0.055
8.274,-0.140,-0.045
8.276,-0.120,-0.035
8.278,-0.140,-0.025
8.280,-0.135,-0.025
8.282,-0.130,-0.025
8.284,-0.135,-0.030
8.286,-0.165,-0.035
8.288,-0.120,-0.040
8.290,-0.115,-0.045
8.292,-0.120,-0.045
8.294,-0.125,-0.040
8.296,-0.125,-0.035
8.298,-0.155,-0.035
8.300,-0.165,-0.030
8.302,-0.170,-0.035
8.304,-0.130,-0.035
8.306,-0.135,-0.040
8.308,-0.105,-0.045
8.310,-0.115,-0.050
8.312,-0.130,-0.050
8.314,-0.125,-0.045
8.316,-0.110,-0.045
8.318,-0.140,-0.040
8.320,-0.125,-0.035
8.322,-0.125,-0.030
8.324,-0.125,-0.025
8.326,-0.135,-0.020
8.328,-0.095,-0.020
8.330,-0.110,-0.020
8.332,-0.115,-0.025
8.334,-0.125,-0.025
8.336,-0.120,-0.025
8.338,-0.130,-0.020
8.340,-0.130,-0.020
8.342,-0.110,-0.015
8.344,-0.100,-0.015
8.346,-0.100,-0.010
8.348,-0.075,-0.010
8.350,-0.095,-0.015
8.352,-0.120,-0.020
8.354,-0.125,-0.025
8.356,-0.100,-0.030
8.358,-0.130,-0.035
8.360,-0.125,-0.040
8.362,-0.130,-0.045
8.364,-0.130,-0.045
8.366,-0.115,-0.040
8.368,-0.080,-0.035
8.370,-0.090,-0.030
8.372,-0.100,-0.020
8.374,-0.120,-0.015
8.376,-0.115,-0.010
8.378,-0.120,-0.005
8.380,-0.100,-0.005
8.382,-0.100,-0.005
8.384,-0.095,-0.010
8.386,-0.075,-0.010
8.388,-0.060,-0.015
8.390,-0.090,-0.020
8.392,-0.095,-0.020
8.394,-0.100,-0.020
8.396,-0.095,-0.015
8.398,-0.110,-0.010
8.400,-0.085,-0.005
8.402,-0.080,0.000
8.404,-0.085,0.005
8.406,-0.075,0.010
8.408,-0.060,0.015
8.410,-0.060,0.015
8.412,-0.045,0.020
8.414,-0.055,0.025
8.416,-0.060,0.030
8.418,-0.070,0.035
8.420,-0.055,0.040
8.422,-0.040,0.045
8.424,-0.035,0.045
8.426,-0.035,0.050
8.428,-0.020,0.055
8.430,-0.030,0.060
8.432,-0.015,0.060
8.434,-0.030,0.065
8.436,-0.035,0.070
8.438,-0.030,0.075
8.440,0.010,0.080
8.442,0.020,0.090
8.444,0.010,0.095
8.446,0.010,0.100
8.448,0.045,0.105
8.450,0.030,0.105
8.452,0.015,0.105
8.454,0.010,0.100
8.456,0.015,0.100
8.458,0.005,0.100
8.460,0.020,0.100
8.462,0.035,0.100
8.464,0.025,0.100
8.466,0.040,0.105
8.468,0.050,0.105
8.470,0.025,0.105
8.472,0.025,0.105
8.474,0.020,0.105
8.476,0.045,0.105
8.478,0.005,0.100
8.480,0.015,0.095
8.482,0.005,0.095
8.484,-0.010,0.095
8.486,0.015,0.095
8.488,0.015,0.095
8.490,0.015,0.095
8.492,0.005,0.095
8.494,0.000,0.095
8.496,-0.015,0.090
8.498,-0.045,0.090
8.500,-0.040,0.080
8.502,-0.035,0.075
8.504,-0.040,0.065
8.506,-0.030,0.055
8.508,-0.035,0.045
8.510,-0.055,0.035
8.512,-0.075,0.025
8.514,-0.080,0.020
8.516,-0.075,0.015
8.518,-0.095,0.010
8.520,-0.090,0.005
8.522,-0.105,0.000
8.524,-0.110,-0.005
8.526,-0.090,-0.010
8.528,-0.100,-0.015
8.530,-0.110,-0.020
8.532,-0.110,-0.020
8.534,-0.100,-0.025
8.536,-0.135,-0.030
8.538,-0.140,-0.035
8.540,-0.100,-0.035
8.542,-0.095,-0.040
8.544,-0.140,-0.045
8.546,-0.110,-0.045
8.548,-0.105,-0.050
8.550,-0.115,-0.050
8.552,-0.125,-0.050
8.554,-0.115,-0.045
8.556,-0.140,-0.045
8.558,-0.145,-0.045
8.560,-0.115,-0.045
8.562,-0.115,-0.045
8.564,-0.145,-0.045
8.566,-0.125,-0.045
8.568,-0.120,-0.050
8.570,-0.115,-0.050
8.572,-0.115,-0.050
8.574,-0.100,-0.050
8.576,-0.140,-0.050
8.578,-0.135,-0.045
8.580,-0.120,-0.045
8.582,-0.125,-0.040
8.584,-0.140,-0.040
8.586,-0.125,-0.040
8.588,-0.115,-0.045
8.590,-0.135,-0.055
8.592,-0.150,-0.060
8.594,-0.130,-0.065
8.596,-0.160,-0.070
8.598,-0.160,-0.075
8.600,-0.140,-0.070
8.602,-0.125,-0.065
8.604,-0.135,-0.060
8.606,-0.105,-0.050
8.608,-0.110,-0.045
8.610,-0.125,-0.040
8.612,-0.140,-0.040
8.614,-0.140,-0.045
8.616,-0.150,-0.045
8.618,-0.140,-0.050
8.620,-0.135,-0.055
8.622,-0.145,-0.055
8.624,-0.150,-0.055
8.626,-0.125,-0.050
8.628,-0.105,-0.050
8.630,-0.120,-0.045
8.632,-0.130,-0.045
8.634,-0.125,-0.045
8.636,-0.140,-0.045
8.638,-0.130,-0.045
8.640,-0.135,-0.045
8.642,-0.130,-0.045
8.644,-0.130,-0.045
8.646,-0.105,-0.045
8.648,-0.100,-0.045
8.650,-0.110,-0.045
8.652,-0.125,-0.045
8.654,-0.125,-0.045
8.656,-0.170,-0.050
8.658,-0.150,-0.050
8.660,-0.130,-0.050
8.662,-0.135,-0.050
8.664,-0.130,-0.050
8.666,-0.095,-0.050
8.668,-0.115,-0.050
8.670,-0.120,-0.045
8.672,-0.140,-0.045
8.674,-0.130,-0.040
8.676,-0.140,-0.040
8.678,-0.125,-0.035
8.680,-0.115,-0.035
8.682,-0.125,-0.030
8.684,-0.110,-0.030
8.686,-0.085,-0.030
8.688,-0.090,-0.030
8.690,-0.105,-0.035
8.692,-0.120,-0.040
8.694,-0.115,-0.045
8.696,-0.145,-0.045
8.698,-0.135,-0.050
8.700,-0.125,-0.050
8.702,-0.125,-0.050
8.704,-0.140,-0.045
8.706,-0.105,-0.040
8.708,-0.115,-0.035
8.710,-0.110,-0.025
8.712,-0.120,-0.025
8.714,-0.120,-0.025
8.716,-0.130,-0.025
8.718,-0.115,-0.025
8.720,-0.115,-0.030
8.722,-0.100,-0.035
8.724,-0.110,-0.035
8.726,-0.085,-0.035
8.728,-0.100,-0.030
8.730,-0.095,-0.030
8.732,-0.095,-0.025
8.734,-0.095,-0.025
8.736,-0.125,-0.030
8.738,-0.135,-0.035
8.740,-0.135,-0.040
8.742,-0.135,-0.045
8.744,-0.125,-0.055
8.746,-0.110,-0.055
8.748,-0.125,-0.055
8.750,-0.120,-0.055
8.752,-0.105,-0.050
8.754,-0.115,-0.040
8.756,-0.145,-0.035
8.758,-0.115,-0.030
8.760,-0.115,-0.025
8.762,-0.125,-0.025
8.764,-0.115,-0.025
8.766,-0.090,-0.030
8.768,-0.115,-0.035
8.770,-0.115,-0.035
8.772,-0.115,-0.040
8.774,-0.125,-0.045
8.776,-0.145,-0.045
8.778,-0.140,-0.045
8.780,-0.125,-0.045
8.782,-0.125,-0.045
8.784,-0.115,-0.045
8.786,-0.110,-0.045
8.788,-0.130,-0.045
8.790,-0.115,-0.045
8.792,-0.120,-0.045
8.794,-0.110,-0.040
8.796,-0.125,-0.040
8.798,-0.130,-0.040
8.800,-0.130,-0.040
8.802,-0.130,-0.045
8.804,-0.125,-0.045
8.806,-0.110,-0.050
8.808,-0.130,-0.055
8.810,-0.130,-0.055
8.812,-0.095,-0.060
8.814,-0.125,-0.060
8.816,-0.140,-0.055
8.818,-0.130,-0.050
8.820,-0.125,-0.045
8.822,-0.140,-0.040
8.824,-0.100,-0.035
8.826,-0.105,-0.030
8.828,-0.120,-0.030
8.830,-0.120,-0.030
8.832,-0.120,-0.030
8.834,-0.130,-0.030
8.836,-0.135,-0.035
8.838,-0.125,-0.035
8.840,-0.115,-0.040
8.842,-0.140,-0.040
8.844,-0.110,-0.040
8.846,-0.095,-0.040
8.848,-0.105,-0.040
8.850,-0.115,-0.040
8.852,-0.115,-0.035
8.854,-0.140,-0.030
8.856,-0.150,-0.030
8.858,-0.125,-0.025
8.860,-0.120,-0.025
8.862,-0.115,-0.025
8.864,-0.085,-0.020
8.866,-0.080,-0.020
8.868,-0.100,-0.020
8.870,-0.085,-0.020
8.872,-0.075,-0.020
8.874,-0.110,-0.020
8.876,-0.115,-0.020
8.878,-0.100,-0.015
8.880,-0.075,-0.010
8.882,-0.080,-0.005
8.884,-0.055,0.000
8.886,-0.050,0.005
8.888,-0.040,0.010
8.890,-0.035,0.020
8.892,-0.025,0.030
8.894,-0.040,0.040
8.896,-0.050,0.050
8.898,-0.025,0.055
8.900,-0.030,0.065
8.902,-0.040,0.065
8.904,-0.005,0.065
8.906,-0.015,0.060
8.908,-0.045,0.055
8.910,-0.045,0.045
8.912,-0.035,0.035
8.914,-0.070,0.025
8.916,-0.075,0.020
8.918,-0.075,0.015
8.920,-0.075,0.015
8.922,-0.060,0.020
8.924,-0.025,0.020
8.926,-0.020,0.025
8.928,-0.050,0.020
8.930,-0.100,0.020
8.932,-0.115,0.010
8.934,-0.150,-0.005
8.936,-0.145,-0.020
8.938,-0.135,-0.035
8.940,-0.135,-0.045
8.942,-0.145,-0.055
8.944,-0.120,-0.065
8.946,-0.120,-0.065
8.948,-0.140,-0.060
8.950,-0.130,-0.055
8.952,-0.110,-0.050
8.954,-0.125,-0.040
8.956,-0.125,-0.035
8.958,-0.145,-0.035
8.960,-0.155,-0.035
8.962,-0.145,-0.035
8.964,-0.110,-0.040
8.966,-0.115,-0.045
8.968,-0.125,-0.050
8.970,-0.135,-0.050
8.972,-0.130,-0.050
8.974,-0.140,-0.050
8.976,-0.130,-0.050
8.978,-0.140,-0.050
8.980,-0.155,-0.050
8.982,-0.170,-0.050
8.984,-0.120,-0.050
8.986,-0.135,-0.055
8.988,-0.120,-0.055
8.990,-0.130,-0.060
8.992,-0.120,-0.065
8.994,-0.145,-0.065
8.996,-0.150,-0.065
8.998,-0.145,-0.065
9.000,-0.150,-0.060
9.002,-0.140,-0.055
9.004,-0.100,-0.050
9.006,-0.125,-0.045
9.008,-0.140,-0.045
9.010,-0.150,-0.045
9.012,-0.125,-0.045
9.014,-0.160,-0.055
9.016,-0.155,-0.060
9.018,-0.145,-0.070
9.020,-0.155,-0.075
9.022,-0.150,-0.080
9.024,-0.120,-0.070
9.026,-0.110,-0.055
9.028,-0.100,-0.025
9.030,-0.075,0.020
9.032,0.015,0.080
9.034,0.070,0.150
9.036,0.160,0.230
9.038,0.250,0.315
9.040,0.330,0.400
9.042,0.435,0.480
9.044,0.540,0.550
9.046,0.555,0.605
9.048,0.590,0.640
9.050,0.620,0.645
9.052,0.590,0.630
9.054,0.480,0.585
9.056,0.410,0.520
9.058,0.320,0.435
9.060,0.215,0.335
9.062,0.135,0.235
9.064,0.025,0.145
9.066,-0.060,0.065
9.068,-0.110,0.000
9.070,-0.125,-0.040
9.072,-0.145,-0.060
9.074,-0.155,-0.065
9.076,-0.115,-0.060
9.078,-0.105,-0.050
9.080,-0.125,-0.040
9.082,-0.120,-0.035
9.084,-0.125,-0.040
9.086,-0.140,-0.045
9.088,-0.135,-0.050
9.090,-0.130,-0.060
9.092,-0.145,-0.060
9.094,-0.155,-0.060
9.096,-0.130,-0.060
9.098,-0.125,-0.055
9.100,-0.135,-0.045
9.102,-0.115,-0.045
9.104,-0.090,-0.040
9.106,-0.105,-0.040
9.108,-0.110,-0.045
9.110,-0.115,-0.050
9.112,-0.145,-0.050
9.114,-0.175,-0.050
9.116,-0.135,-0.050
9.118,-0.130,-0.045
9.120,-0.130,-0.045
9.122,-0.105,-0.040
9.124,-0.100,-0.040
9.126,-0.115,-0.040
9.128,-0.110,-0.040
9.130,-0.110,-0.045
9.132,-0.150,-0.045
9.134,-0.135,-0.045
9.136,-0.100,-0.040
9.138,-0.090,-0.035
9.140,-0.105,-0.030
9.142,-0.090,-0.025
9.144,-0.100,-0.020
9.146,-0.115,-0.020
9.148,-0.120,-0.025
9.150,-0.100,-0.030
9.152,-0.140,-0.035
9.154,-0.130,-0.040
9.156,-0.115,-0.040
9.158,-0.110,-0.035
9.160,-0.135,-0.030
9.162,-0.105,-0.025
9.164,-0.075,-0.020
9.166,-0.095,-0.015
9.168,-0.085,-0.015
9.170,-0.095,-0.020
9.172,-0.120,-0.025
9.174,-0.125,-0.030
9.176,-0.120,-0.040
9.178,-0.105,-0.040
9.180,-0.125,-0.045
9.182,-0.090,-0.040
9.184,-0.080,-0.030
9.186,-0.090,-0.020
9.188,-0.090,-0.010
9.190,-0.105,0.000
9.192,-0.120,0.005
9.194,-0.090,0.010
9.196,-0.080,0.010
9.198,-0.090,0.005
9.200,-0.090,0.000
9.202,-0.070,-0.005
9.204,-0.055,-0.010
9.206,-0.070,-0.010
9.208,-0.090,-0.010
9.210,-0.090,-0.010
9.212,-0.120,-0.005
9.214,-0.105,-0.005
9.216,-0.080,0.000
9.218,-0.080,0.005
9.220,-0.100,0.005
9.222,-0.055,0.005
9.224,-0.060,0.005
9.226,-0.070,0.005
9.228,-0.085,0.005
9.230,-0.070,0.005
9.232,-0.085,0.005
9.234,-0.075,0.005
9.236,-0.065,0.010
9.238,-0.060,0.015
9.240,-0.060,0.020
9.242,-0.025,0.025
9.244,-0.035,0.035
9.246,-0.025,0.040
9.248,-0.025,0.045
9.250,-0.015,0.050
9.252,-0.040,0.055
9.254,-0.020,0.055
9.256,-0.010,0.060
9.258,-0.020,0.060
9.260,-0.005,0.060
9.262,0.005,0.065
9.264,0.005,0.070
9.266,0.000,0.075
9.268,0.000,0.085
9.270,0.025,0.090
9.272,0.015,0.095
9.274,0.020,0.105
9.276,0.030,0.105
9.278,0.025,0.110
9.280,0.030,0.110
9.282,0.070,0.110
9.284,0.040,0.110
9.286,0.035,0.110
9.288,0.030,0.110
9.290,0.045,0.110
9.292,0.035,0.110
9.294,0.040,0.115
9.296,0.040,0.115
9.298,0.045,0.115
9.300,0.030,0.115
9.302,0.055,0.115
9.304,0.065,0.115
9.306,0.065,0.110
9.308,0.025,0.110
9.310,0.030,0.105
9.312,-0.005,0.105
9.314,0.020,0.105
9.316,0.025,0.100
9.318,0.000,0.095
9.320,0.005,0.090
9.322,0.020,0.080
9.324,-0.015,0.070
9.326,-0.030,0.060
9.328,-0.035,0.050
9.330,-0.030,0.040
9.332,-0.060,0.030
9.334,-0.035,0.025
9.336,-0.055,0.020
9.338,-0.060,0.015
9.340,-0.060,0.015
9.342,-0.030,0.015
9.344,-0.065,0.015
9.346,-0.080,0.010
9.348,-0.085,0.010
9.350,-0.065,0.005
9.352,-0.090,0.000
9.354,-0.105,-0.005
9.356,-0.115,-0.010
9.358,-0.130,-0.015
9.360,-0.105,-0.020
9.362,-0.080,-0.025
9.364,-0.090,-0.030
9.366,-0.090,-0.030
9.368,-0.095,-0.035
9.370,-0.125,-0.035
9.372,-0.170,-0.040
9.374,-0.140,-0.040
9.376,-0.125,-0.045
9.378,-0.135,-0.045
9.380,-0.105,-0.050
9.382,-0.085,-0.050
9.384,-0.105,-0.050
9.386,-0.095,-0.050
9.388,-0.105,-0.045
9.390,-0.120,-0.045
9.392,-0.145,-0.040
9.394,-0.145,-0.040
9.396,-0.120,-0.035
9.398,-0.125,-0.035
9.400,-0.110,-0.035
9.402,-0.100,-0.040
9.404,-0.105,-0.040
9.406,-0.110,-0.045
9.408,-0.115,-0.050
9.410,-0.145,-0.050
9.412,-0.170,-0.055
9.414,-0.145,-0.055
9.416,-0.130,-0.055
9.418,-0.135,-0.055
9.420,-0.120,-0.055
9.422,-0.105,-0.055
9.424,-0.115,-0.050
9.426,-0.110,-0.050
9.428,-0.100,-0.050
9.430,-0.135,-0.050
9.432,-0.150,-0.050
9.434,-0.140,-0.050
9.436,-0.125,-0.055
9.438,-0.145,-0.055
9.440,-0.110,-0.060
9.442,-0.105,-0.060
9.444,-0.125,-0.060
9.446,-0.120,-0.060
9.448,-0.130,-0.055
9.450,-0.145,-0.050
9.452,-0.145,-0.045
9.454,-0.125,-0.045
9.456,-0.120,-0.045
9.458,-0.140,-0.045
9.460,-0.115,-0.050
9.462,-0.100,-0.055
9.464,-0.130,-0.060
9.466,-0.135,-0.065
9.468,-0.130,-0.070
9.470,-0.120,-0.070
9.472,-0.125,-0.065
9.474,-0.120,-0.060
9.476,-0.120,-0.050
9.478,-0.140,-0.045
9.480,-0.105,-0.035
9.482,-0.100,-0.035
9.484,-0.120,-0.030
9.486,-0.125,-0.035
9.488,-0.115,-0.040
9.490,-0.150,-0.045
9.492,-0.145,-0.050
9.494,-0.125,-0.055
9.496,-0.115,-0.055
9.498,-0.135,-0.050
9.500,-0.090,-0.045
9.502,-0.090,-0.040
9.504,-0.105,-0.035
9.506,-0.105,-0.030
9.508,-0.095,-0.025
9.510,-0.115,-0.020
9.512,-0.110,-0.015
9.514,-0.105,-0.015
9.516,-0.105,-0.015
9.518,-0.120,-0.015
9.520,-0.090,-0.020
9.522,-0.100,-0.020
9.524,-0.115,-0.025
9.526,-0.120,-0.030
9.528,-0.105,-0.035
9.530,-0.125,-0.040
9.532,-0.115,-0.045
9.534,-0.120,-0.045
9.536,-0.120,-0.050
9.538,-0.120,-0.045
9.540,-0.090,-0.045
9.542,-0.095,-0.040
9.544,-0.100,-0.040
9.546,-0.110,-0.035
9.548,-0.095,-0.035
9.550,-0.120,-0.030
9.552,-0.105,-0.030
9.554,-0.100,-0.030
9.556,-0.110,-0.025
9.558,-0.120,-0.025
9.560,-0.085,-0.025
9.562,-0.085,-0.025
9.564,-0.100,-0.025
9.566,-0.110,-0.025
9.568,-0.100,-0.030
9.570,-0.130,-0.030
9.572,-0.130,-0.035
9.574,-0.120,-0.035
9.576,-0.125,-0.035
9.578,-0.130,-0.035
9.580,-0.100,-0.030
9.582,-0.095,-0.025
9.584,-0.105,-0.020
9.586,-0.115,-0.020
9.588,-0.085,-0.015
9.590,-0.115,-0.015
9.592,-0.120,-0.020
9.594,-0.115,-0.025
9.596,-0.130,-0.030
9.598,-0.120,-0.035
9.600,-0.085,-0.040
9.602,-0.100,-0.045
9.604,-0.115,-0.045
9.606,-0.115,-0.050
9.608,-0.115,-0.050
9.610,-0.130,-0.050
9.612,-0.120,-0.050
9.614,-0.115,-0.050
9.616,-0.145,-0.050
9.618,-0.135,-0.050
9.620,-0.085,-0.050
9.622,-0.110,-0.045
9.624,-0.125,-0.045
9.626,-0.105,-0.040
9.628,-0.105,-0.040
9.630,-0.125,-0.035
9.632,-0.115,-0.035
9.634,-0.120,-0.035
9.636,-0.130,-0.035
9.638,-0.115,-0.035
9.640,-0.075,-0.040
9.642,-0.105,-0.045
9.644,-0.120,-0.045
9.646,-0.125,-0.045
9.648,-0.110,-0.045
9.650,-0.135,-0.040
9.652,-0.105,-0.040
9.654,-0.090,-0.035
9.656,-0.115,-0.035
9.658,-0.090,-0.040
9.660,-0.080,-0.040
9.662,-0.125,-0.045
9.664,-0.120,-0.050
9.666,-0.125,-0.055
9.668,-0.115,-0.060
9.670,-0.140,-0.060
9.672,-0.125,-0.060
9.674,-0.120,-0.055
9.676,-0.130,-0.050
9.678,-0.105,-0.040
9.680,-0.085,-0.035
9.682,-0.100,-0.030
9.684,-0.115,-0.025
9.686,-0.110,-0.025
9.688,-0.110,-0.030
9.690,-0.135,-0.030
9.692,-0.105,-0.035
9.694,-0.110,-0.035
9.696,-0.135,-0.035
9.698,-0.120,-0.035
9.700,-0.065,-0.030
9.702,-0.075,-0.030
9.704,-0.095,-0.025
9.706,-0.090,-0.020
9.708,-0.105,-0.020
9.710,-0.110,-0.020
9.712,-0.085,-0.020
9.714,-0.095,-0.020
9.716,-0.115,-0.020
9.718,-0.090,-0.020
9.720,-0.050,-0.020
9.722,-0.065,-0.015
9.724,-0.060,-0.010
9.726,-0.055,0.000
9.728,-0.055,0.010
9.730,-0.045,0.020
9.732,-0.015,0.030
9.734,-0.025,0.045
9.736,-0.045,0.055
9.738,-0.010,0.065
9.740,0.015,0.070
9.742,-0.010,0.075
9.744,-0.005,0.075
9.746,0.000,0.070
9.748,-0.035,0.065
9.750,-0.045,0.055
9.752,-0.020,0.045
9.754,-0.050,0.035
9.756,-0.075,0.025
9.758,-0.030,0.025
9.760,-0.030,0.020
9.762,-0.050,0.020
9.764,-0.045,0.025
9.766,-0.030,0.025
9.768,-0.060,0.025
9.770,-0.065,0.020
9.772,-0.080,0.010
9.774,-0.105,0.000
9.776,-0.125,-0.010
9.778,-0.090,-0.020
9.780,-0.090,-0.030
9.782,-0.115,-0.040
9.784,-0.110,-0.040
9.786,-0.100,-0.045
9.788,-0.115,-0.045
9.790,-0.105,-0.045
9.792,-0.115,-0.045
9.794,-0.135,-0.045
9.796,-0.140,-0.050
9.798,-0.120,-0.055
9.800,-0.125,-0.065
9.802,-0.115,-0.070
9.804,-0.125,-0.075
9.806,-0.125,-0.075
9.808,-0.155,-0.070
9.810,-0.135,-0.065
9.812,-0.125,-0.060
9.814,-0.125,-0.050
9.816,-0.145,-0.045
9.818,-0.115,-0.040
9.820,-0.105,-0.040
9.822,-0.115,-0.045
9.824,-0.130,-0.050
9.826,-0.120,-0.055
9.828,-0.140,-0.060
9.830,-0.125,-0.065
9.832,-0.125,-0.065
9.834,-0.125,-0.060
9.836,-0.130,-0.055
9.838,-0.105,-0.050
9.840,-0.110,-0.045
9.842,-0.120,-0.040
9.844,-0.125,-0.040
9.846,-0.160,-0.040
9.848,-0.180,-0.045
9.850,-0.090,-0.050
9.852,-0.105,-0.055
9.854,-0.125,-0.060
9.856,-0.115,-0.065
9.858,-0.095,-0.070
9.860,-0.095,-0.070
9.862,-0.120,-0.070
9.864,-0.145,-0.070
9.866,-0.140,-0.060
9.868,-0.125,-0.050
9.870,-0.090,-0.025
9.872,-0.075,0.005
9.874,-0.040,0.050
9.876,0.030,0.105
9.878,0.155,0.175
9.880,0.250,0.255
9.882,0.305,0.340
9.884,0.385,0.425
9.886,0.470,0.505
9.888,0.515,0.570
9.890,0.570,0.615
9.892,0.610,0.640
9.894,0.605,0.630
9.896,0.525,0.595
9.898,0.460,0.535
9.900,0.380,0.455
9.902,0.285,0.360
9.904,0.190,0.260
9.906,0.045,0.160
9.908,-0.075,0.080
9.910,-0.095,0.015
9.912,-0.115,-0.030
9.914,-0.130,-0.060
9.916,-0.130,-0.065
9.918,-0.085,-0.065
9.920,-0.090,-0.055
9.922,-0.095,-0.040
9.924,-0.105,-0.030
9.926,-0.115,-0.030
9.928,-0.145,-0.030
9.930,-0.130,-0.035
9.932,-0.125,-0.040
9.934,-0.130,-0.050
9.936,-0.120,-0.055
9.938,-0.080,-0.060
9.940,-0.100,-0.055
9.942,-0.095,-0.050
9.944,-0.110,-0.045
9.946,-0.115,-0.040
9.948,-0.125,-0.035
9.950,-0.105,-0.035
9.952,-0.110,-0.035
9.954,-0.100,-0.040
9.956,-0.095,-0.045
9.958,-0.110,-0.050
9.960,-0.135,-0.055
9.962,-0.120,-0.055
9.964,-0.110,-0.060
9.966,-0.120,-0.060
9.968,-0.125,-0.055
9.970,-0.115,-0.055
9.972,-0.110,-0.050
9.974,-0.115,-0.050
9.976,-0.090,-0.045
9.978,-0.075,-0.040
9.980,-0.080,-0.035
9.982,-0.085,-0.030
9.984,-0.080,-0.030
9.986,-0.085,-0.030
9.988,-0.120,-0.030
9.990,-0.105,-0.030
9.992,-0.095,-0.030
9.994,-0.100,-0.035
9.996,-0.080,-0.040
9.998,-0.060,-0.045
