'Elapsed time','ECG I','ECG I filtered'
'seconds','mV','mV'
0.000,0.200,-0.190
0.002,0.295,-0.085
0.004,0.385,-0.010
0.006,0.500,0.050
0.008,0.640,0.085
0.010,0.500,0.090
0.012,0.545,0.075
0.014,0.390,0.045
0.016,0.340,0.015
0.018,0.245,-0.010
0.020,0.330,-0.020
0.022,0.285,-0.015
0.024,0.445,-0.005
0.026,0.415,0.015
0.028,0.615,0.035
0.030,0.465,0.050
0.032,0.385,0.060
0.034,0.625,0.060
0.036,0.360,0.060
0.038,0.270,0.060
0.040,0.320,0.060
0.042,0.425,0.065
0.044,0.515,0.075
0.046,0.565,0.090
0.048,0.705,0.100
0.050,0.700,0.115
0.052,0.590,0.125
0.054,0.465,0.130
0.056,0.290,0.135
0.058,0.295,0.135
0.060,0.425,0.140
0.062,0.550,0.140
0.064,0.600,0.145
0.066,0.720,0.155
0.068,0.810,0.160
0.070,0.650,0.165
0.072,0.600,0.170
0.074,0.535,0.175
0.076,0.360,0.175
0.078,0.395,0.175
0.080,0.395,0.175
0.082,0.535,0.175
0.084,0.615,0.170
0.086,0.790,0.165
0.088,0.835,0.150
0.090,0.600,0.135
0.092,0.530,0.115
0.094,0.415,0.095
0.096,0.200,0.080
0.098,0.275,0.060
0.100,0.335,0.050
0.102,0.410,0.045
0.104,0.580,0.040
0.106,0.680,0.035
0.108,0.530,0.025
0.110,0.515,0.015
0.112,0.420,0.000
0.114,0.265,-0.020
0.116,0.050,-0.035
0.118,0.175,-0.050
0.120,0.295,-0.060
0.122,0.415,-0.060
0.124,0.385,-0.055
0.126,0.515,-0.040
0.128,0.520,-0.025
0.130,0.450,-0.015
0.132,0.440,-0.005
0.134,0.375,-0.005
0.136,0.140,-0.015
0.138,0.185,-0.030
0.140,0.275,-0.050
0.142,0.485,-0.060
0.144,0.405,-0.070
0.146,0.360,-0.065
0.148,0.320,-0.055
0.150,0.480,-0.040
0.152,0.325,-0.025
0.154,0.425,-0.015
0.156,0.270,-0.010
0.158,0.200,-0.015
0.160,0.315,-0.030
0.162,0.315,-0.050
0.164,0.390,-0.075
0.166,0.410,-0.090
0.168,0.220,-0.105
0.170,0.335,-0.110
0.172,0.435,-0.110
0.174,0.290,-0.100
0.176,0.170,-0.085
0.178,0.170,-0.070
0.180,0.220,-0.060
0.182,0.375,-0.045
0.184,0.295,-0.040
0.186,0.490,-0.030
0.188,0.560,-0.025
0.190,0.500,-0.020
0.192,0.320,-0.020
0.194,0.450,-0.020
0.196,0.255,-0.025
0.198,0.025,-0.030
0.200,0.220,-0.030
0.202,0.365,-0.035
0.204,0.460,-0.035
0.206,0.535,-0.035
0.208,0.650,-0.030
0.210,0.450,-0.020
0.212,0.330,-0.015
0.214,0.205,-0.010
0.216,0.175,-0.005
0.218,0.280,-0.010
0.220,0.310,-0.020
0.222,0.385,-0.030
0.224,0.355,-0.045
0.226,0.525,-0.055
0.228,0.495,-0.065
0.230,0.435,-0.070
0.232,0.270,-0.070
0.234,0.250,-0.065
0.236,0.050,-0.060
0.238,0.245,-0.060
0.240,0.260,-0.055
0.242,0.435,-0.050
0.244,0.385,-0.050
0.246,0.460,-0.045
0.248,0.530,-0.040
0.250,0.460,-0.035
0.252,0.320,-0.025
0.254,0.275,-0.015
0.256,0.215,-0.010
0.258,0.330,-0.005
0.260,0.355,0.000
0.262,0.310,0.000
0.264,0.395,-0.005
0.266,0.555,-0.005
0.268,0.540,-0.010
0.270,0.450,-0.005
0.272,0.385,0.000
0.274,0.345,0.000
0.276,0.320,0.005
0.278,0.245,0.005
0.280,0.240,-0.005
0.282,0.315,-0.020
0.284,0.390,-0.035
0.286,0.550,-0.055
0.288,0.605,-0.075
0.290,0.350,-0.085
0.292,0.305,-0.085
0.294,0.220,-0.080
0.296,0.120,-0.070
0.298,0.070,-0.055
0.300,0.315,-0.040
0.302,0.385,-0.030
0.304,0.565,-0.030
0.306,0.460,-0.040
0.308,0.465,-0.060
0.310,0.305,-0.080
0.312,0.265,-0.100
0.314,0.275,-0.115
0.316,0.125,-0.120
0.318,0.040,-0.115
0.320,0.175,-0.100
0.322,0.340,-0.080
0.324,0.530,-0.055
0.326,0.515,-0.035
0.328,0.480,-0.020
0.330,0.490,-0.015
0.332,0.335,-0.020
0.334,0.180,-0.030
0.336,0.200,-0.050
0.338,0.150,-0.070
0.340,0.210,-0.090
0.342,0.375,-0.100
0.344,0.455,-0.100
0.346,0.430,-0.080
0.348,0.430,-0.045
0.350,0.475,0.005
0.352,0.370,0.070
0.354,0.355,0.135
0.356,0.550,0.195
0.358,0.540,0.245
0.360,0.630,0.270
0.362,0.705,0.265
0.364,0.740,0.240
0.366,0.720,0.185
0.368,0.550,0.110
0.370,0.505,0.030
0.372,0.370,-0.055
0.374,0.075,-0.130
0.376,-0.015,-0.185
0.378,-0.020,-0.225
0.380,0.060,-0.245
0.382,0.150,-0.250
0.384,0.375,-0.240
0.386,0.395,-0.225
0.388,0.310,-0.200
0.390,0.155,-0.175
0.392,0.105,-0.155
0.394,0.260,-0.135
0.396,0.015,-0.120
0.398,0.205,-0.105
0.400,0.235,-0.100
0.402,0.340,-0.095
0.404,0.580,-0.100
0.406,0.500,-0.100
0.408,0.245,-0.105
0.410,0.305,-0.110
0.412,0.225,-0.110
0.414,0.105,-0.110
0.416,0.165,-0.105
0.418,0.220,-0.095
0.420,0.280,-0.085
0.422,0.405,-0.075
0.424,0.435,-0.070
0.426,0.495,-0.070
0.428,0.395,-0.070
0.430,0.285,-0.070
0.432,0.300,-0.075
0.434,0.125,-0.070
0.436,0.195,-0.070
0.438,0.245,-0.060
0.440,0.305,-0.055
0.442,0.425,-0.045
0.444,0.540,-0.040
0.446,0.545,-0.035
0.448,0.455,-0.040
0.450,0.285,-0.045
0.452,0.245,-0.055
0.454,0.075,-0.065
0.456,0.215,-0.070
0.458,0.245,-0.075
0.460,0.275,-0.075
0.462,0.405,-0.065
0.464,0.570,-0.055
0.466,0.485,-0.045
0.468,0.465,-0.030
0.470,0.400,-0.025
0.472,0.275,-0.020
0.474,0.100,-0.020
0.476,0.210,-0.025
0.478,0.305,-0.030
0.480,0.450,-0.035
0.482,0.495,-0.040
0.484,0.435,-0.040
0.486,0.420,-0.040
0.488,0.360,-0.035
0.490,0.450,-0.035
0.492,0.280,-0.030
0.494,0.255,-0.025
0.496,0.240,-0.020
0.498,0.215,-0.010
0.500,0.260,0.000
0.502,0.550,0.015
0.504,0.640,0.030
0.506,0.600,0.045
0.508,0.490,0.065
0.510,0.500,0.080
0.512,0.435,0.085
0.514,0.280,0.090
0.516,0.270,0.085
0.518,0.435,0.080
0.520,0.500,0.075
0.522,0.470,0.070
0.524,0.585,0.075
0.526,0.620,0.085
0.528,0.615,0.100
0.530,0.585,0.125
0.532,0.480,0.150
0.534,0.445,0.170
0.536,0.375,0.185
0.538,0.445,0.190
0.540,0.575,0.185
0.542,0.710,0.170
0.544,0.800,0.155
0.546,0.595,0.140
0.548,0.600,0.135
0.550,0.570,0.135
0.552,0.435,0.140
0.554,0.355,0.155
0.556,0.475,0.170
0.558,0.540,0.180
0.560,0.555,0.185
0.562,0.600,0.185
0.564,0.665,0.170
0.566,0.605,0.150
0.568,0.660,0.125
0.570,0.610,0.105
0.572,0.330,0.090
0.574,0.325,0.075
0.576,0.375,0.075
0.578,0.430,0.070
0.580,0.455,0.070
0.582,0.470,0.070
0.584,0.505,0.065
0.586,0.585,0.050
0.588,0.510,0.035
0.590,0.400,0.020
0.592,0.375,0.010
0.594,0.240,0.000
0.596,0.195,-0.005
0.598,0.310,-0.010
0.600,0.450,-0.010
0.602,0.455,-0.010
0.604,0.515,-0.015
0.606,0.460,-0.020
0.608,0.410,-0.035
0.610,0.340,-0.050
0.612,0.280,-0.060
0.614,0.140,-0.070
0.616,0.150,-0.075
0.618,0.270,-0.075
0.620,0.320,-0.065
0.622,0.460,-0.055
0.624,0.485,-0.045
0.626,0.450,-0.035
0.628,0.435,-0.030
0.630,0.450,-0.030
0.632,0.180,-0.030
0.634,0.200,-0.030
0.636,0.195,-0.030
0.638,0.345,-0.030
0.640,0.430,-0.025
0.642,0.475,-0.015
0.644,0.515,-0.005
0.646,0.550,0.000
0.648,0.440,0.005
0.650,0.425,0.005
0.652,0.140,0.000
0.654,0.335,-0.005
0.656,0.300,-0.010
0.658,0.305,-0.010
0.660,0.260,-0.015
0.662,0.505,-0.010
0.664,0.495,-0.010
0.666,0.585,-0.005
0.668,0.455,-0.005
0.670,0.370,-0.010
0.672,0.165,-0.015
0.674,0.220,-0.020
0.676,0.310,-0.030
0.678,0.320,-0.035
0.680,0.400,-0.040
0.682,0.455,-0.040
0.684,0.365,-0.030
0.686,0.465,-0.020
0.688,0.520,-0.010
0.690,0.435,0.005
0.692,0.265,0.015
0.694,0.205,0.025
0.696,0.260,0.030
0.698,0.455,0.030
0.700,0.415,0.025
0.702,0.560,0.015
0.704,0.520,0.005
0.706,0.520,0.000
0.708,0.405,-0.010
0.710,0.390,-0.015
0.712,0.225,-0.020
0.714,0.265,-0.025
0.716,0.135,-0.025
0.718,0.325,-0.025
0.720,0.405,-0.020
0.722,0.595,-0.010
0.724,0.485,0.000
0.726,0.540,0.010
0.728,0.425,0.025
0.730,0.405,0.040
0.732,0.315,0.055
0.734,0.335,0.060
0.736,0.340,0.065
0.738,0.370,0.060
0.740,0.465,0.045
0.742,0.540,0.030
0.744,0.575,0.015
0.746,0.525,-0.005
0.748,0.285,-0.015
0.750,0.315,-0.025
0.752,0.200,-0.025
0.754,0.315,-0.020
0.756,0.290,-0.015
0.758,0.380,-0.005
0.760,0.370,-0.005
0.762,0.555,-0.005
0.764,0.505,-0.010
0.766,0.395,-0.020
0.768,0.450,-0.035
0.770,0.320,-0.045
0.772,0.145,-0.055
0.774,0.165,-0.060
0.776,0.265,-0.060
0.778,0.390,-0.055
0.780,0.330,-0.050
0.782,0.505,-0.040
0.784,0.560,-0.035
0.786,0.455,-0.035
0.788,0.330,-0.030
0.790,0.365,-0.035
0.792,0.145,-0.040
0.794,0.145,-0.040
0.796,0.205,-0.045
0.798,0.405,-0.045
0.800,0.450,-0.045
0.802,0.510,-0.040
0.804,0.555,-0.035
0.806,0.460,-0.025
0.808,0.345,-0.015
0.810,0.320,0.005
0.812,0.220,0.035
0.814,0.180,0.075
0.816,0.435,0.125
0.818,0.615,0.180
0.820,0.780,0.235
0.822,0.975,0.285
0.824,0.910,0.320
0.826,0.910,0.330
0.828,0.630,0.315
0.830,0.470,0.270
0.832,0.390,0.200
0.834,0.375,0.115
0.836,0.350,0.020
0.838,0.345,-0.070
0.840,0.320,-0.145
0.842,0.300,-0.195
0.844,0.200,-0.220
0.846,0.230,-0.220
0.848,0.140,-0.205
0.850,0.330,-0.170
0.852,0.150,-0.140
0.854,0.080,-0.110
0.856,0.185,-0.085
0.858,0.325,-0.075
0.860,0.355,-0.075
0.862,0.500,-0.085
0.864,0.460,-0.090
0.866,0.380,-0.095
0.868,0.275,-0.100
0.870,0.280,-0.095
0.872,0.160,-0.085
0.874,0.090,-0.075
0.876,0.230,-0.060
0.878,0.410,-0.050
0.880,0.340,-0.040
0.882,0.590,-0.030
0.884,0.610,-0.025
0.886,0.475,-0.015
0.888,0.350,-0.015
0.890,0.195,-0.010
0.892,0.265,-0.010
0.894,0.215,-0.010
0.896,0.235,-0.010
0.898,0.380,-0.015
0.900,0.510,-0.020
0.902,0.525,-0.030
0.904,0.505,-0.035
0.906,0.455,-0.035
0.908,0.310,-0.040
0.910,0.295,-0.040
0.912,0.230,-0.040
0.914,0.150,-0.040
0.916,0.290,-0.035
0.918,0.375,-0.030
0.920,0.410,-0.020
0.922,0.560,-0.010
0.924,0.600,0.000
0.926,0.530,0.010
0.928,0.345,0.015
0.930,0.360,0.020
0.932,0.165,0.020
0.934,0.275,0.015
0.936,0.340,0.010
0.938,0.370,-0.005
0.940,0.470,-0.015
0.942,0.610,-0.020
0.944,0.495,-0.025
0.946,0.445,-0.020
0.948,0.365,-0.010
0.950,0.275,0.005
0.952,0.320,0.015
0.954,0.275,0.025
0.956,0.410,0.025
0.958,0.575,0.025
0.960,0.415,0.020
0.962,0.455,0.020
0.964,0.520,0.020
0.966,0.510,0.025
0.968,0.485,0.040
0.970,0.405,0.060
0.972,0.250,0.085
0.974,0.400,0.105
0.976,0.575,0.120
0.978,0.500,0.125
0.980,0.605,0.125
0.982,0.625,0.120
0.984,0.610,0.115
0.986,0.535,0.110
0.988,0.560,0.115
0.990,0.335,0.125
0.992,0.435,0.145
0.994,0.430,0.165
0.996,0.555,0.185
0.998,0.630,0.200
1.000,0.790,0.210
1.002,0.780,0.210
1.004,0.785,0.210
1.006,0.615,0.210
1.008,0.450,0.210
1.010,0.455,0.215
1.012,0.540,0.220
1.014,0.550,0.230
1.016,0.515,0.235
1.018,0.710,0.235
1.020,0.950,0.230
1.022,0.705,0.215
1.024,0.600,0.195
1.026,0.605,0.170
1.028,0.510,0.155
1.030,0.405,0.140
1.032,0.380,0.130
1.034,0.410,0.130
1.036,0.490,0.130
1.038,0.630,0.130
1.040,0.730,0.130
1.042,0.710,0.120
1.044,0.725,0.105
1.046,0.440,0.090
1.048,0.415,0.075
1.050,0.185,0.055
1.052,0.200,0.045
1.054,0.465,0.040
1.056,0.430,0.035
1.058,0.505,0.035
1.060,0.650,0.035
1.062,0.510,0.030
1.064,0.545,0.020
1.066,0.480,0.005
1.068,0.360,-0.010
1.070,0.185,-0.030
1.072,0.180,-0.045
1.074,0.145,-0.060
1.076,0.215,-0.065
1.078,0.525,-0.065
1.080,0.560,-0.055
1.082,0.505,-0.045
1.084,0.440,-0.030
1.086,0.260,-0.020
1.088,0.375,-0.010
1.090,0.280,-0.005
1.092,0.285,-0.005
1.094,0.305,-0.005
1.096,0.310,-0.010
1.098,0.495,-0.015
1.100,0.520,-0.015
1.102,0.565,-0.020
1.104,0.390,-0.020
1.106,0.500,-0.020
1.108,0.295,-0.020
1.110,0.265,-0.020
1.112,0.245,-0.025
1.114,0.280,-0.030
1.116,0.390,-0.035
1.118,0.345,-0.040
1.120,0.585,-0.040
1.122,0.465,-0.040
1.124,0.455,-0.035
1.126,0.360,-0.030
1.128,0.385,-0.020
1.130,0.255,-0.010
1.132,0.315,-0.005
1.134,0.215,-0.005
1.136,0.440,-0.010
1.138,0.390,-0.015
1.140,0.565,-0.025
1.142,0.510,-0.035
1.144,0.475,-0.035
1.146,0.330,-0.035
1.148,0.415,-0.030
1.150,0.260,-0.015
1.152,0.245,-0.005
1.154,0.240,0.005
1.156,0.415,0.015
1.158,0.455,0.015
1.160,0.590,0.005
1.162,0.610,-0.005
1.164,0.595,-0.020
1.166,0.350,-0.030
1.168,0.260,-0.035
1.170,0.200,-0.035
1.172,0.170,-0.030
1.174,0.350,-0.015
1.176,0.475,0.000
1.178,0.425,0.010
1.180,0.620,0.025
1.182,0.620,0.030
1.184,0.520,0.030
1.186,0.450,0.025
1.188,0.390,0.020
1.190,0.210,0.015
1.192,0.180,0.010
1.194,0.380,0.010
1.196,0.480,0.010
1.198,0.570,0.010
1.200,0.565,0.010
1.202,0.580,0.005
1.204,0.490,0.000
1.206,0.430,-0.010
1.208,0.310,-0.025
1.210,0.125,-0.035
1.212,0.185,-0.040
1.214,0.275,-0.040
1.216,0.440,-0.040
1.218,0.555,-0.035
1.220,0.595,-0.030
1.222,0.535,-0.025
1.224,0.520,-0.025
1.226,0.325,-0.025
1.228,0.185,-0.035
1.230,0.135,-0.045
1.232,0.230,-0.055
1.234,0.285,-0.065
1.236,0.395,-0.070
1.238,0.540,-0.075
1.240,0.550,-0.070
1.242,0.525,-0.065
1.244,0.295,-0.050
1.246,0.330,-0.040
1.248,0.295,-0.030
1.250,0.225,-0.025
1.252,0.330,-0.020
1.254,0.370,-0.020
1.256,0.370,-0.030
1.258,0.480,-0.040
1.260,0.555,-0.050
1.262,0.495,-0.060
1.264,0.400,-0.070
1.266,0.365,-0.075
1.268,0.105,-0.070
1.270,0.210,-0.055
1.272,0.325,-0.025
1.274,0.430,0.020
1.276,0.450,0.070
1.278,0.665,0.130
1.280,0.775,0.190
1.282,0.870,0.245
1.284,0.915,0.280
1.286,0.810,0.300
1.288,0.500,0.290
1.290,0.420,0.255
1.292,0.450,0.200
1.294,0.495,0.120
1.296,0.510,0.035
1.298,0.630,-0.050
1.300,0.470,-0.120
1.302,0.260,-0.175
1.304,0.160,-0.205
1.306,0.185,-0.215
1.308,0.025,-0.205
1.310,0.150,-0.180
1.312,0.190,-0.150
1.314,0.265,-0.120
1.316,0.415,-0.095
1.318,0.440,-0.080
1.320,0.515,-0.070
1.322,0.535,-0.070
1.324,0.385,-0.070
1.326,0.340,-0.070
1.328,0.180,-0.070
1.330,0.170,-0.065
1.332,0.285,-0.060
1.334,0.435,-0.055
1.336,0.330,-0.055
1.338,0.545,-0.055
1.340,0.590,-0.060
1.342,0.500,-0.065
1.344,0.330,-0.070
1.346,0.260,-0.075
1.348,0.225,-0.075
1.350,0.155,-0.070
1.352,0.325,-0.060
1.354,0.425,-0.055
1.356,0.410,-0.045
1.358,0.530,-0.040
1.360,0.510,-0.040
1.362,0.525,-0.040
1.364,0.400,-0.050
1.366,0.405,-0.055
1.368,0.170,-0.065
1.370,0.200,-0.065
1.372,0.260,-0.065
1.374,0.330,-0.055
1.376,0.415,-0.045
1.378,0.630,-0.030
1.380,0.495,-0.015
1.382,0.615,-0.005
1.384,0.430,0.005
1.386,0.380,0.010
1.388,0.310,0.010
1.390,0.355,0.005
1.392,0.285,0.005
1.394,0.380,0.000
1.396,0.450,0.000
1.398,0.655,0.000
1.400,0.605,0.005
1.402,0.530,0.005
1.404,0.485,0.005
1.406,0.345,0.005
1.408,0.255,0.000
1.410,0.275,-0.010
1.412,0.295,-0.020
1.414,0.455,-0.030
1.416,0.475,-0.040
1.418,0.495,-0.040
1.420,0.535,-0.040
1.422,0.465,-0.025
1.424,0.495,-0.010
1.426,0.355,0.010
1.428,0.345,0.035
1.430,0.420,0.060
1.432,0.430,0.080
1.434,0.535,0.095
1.436,0.570,0.100
1.438,0.640,0.105
1.440,0.750,0.100
1.442,0.665,0.095
1.444,0.575,0.090
1.446,0.525,0.090
1.448,0.360,0.090
1.450,0.355,0.095
1.452,0.475,0.110
1.454,0.455,0.125
1.456,0.790,0.145
1.458,0.700,0.160
1.460,0.685,0.180
1.462,0.790,0.195
1.464,0.750,0.205
1.466,0.665,0.210
1.468,0.415,0.215
1.470,0.455,0.215
1.472,0.490,0.210
1.474,0.735,0.205
1.476,0.740,0.200
1.478,0.835,0.195
1.480,0.795,0.190
1.482,0.705,0.185
1.484,0.520,0.180
1.486,0.620,0.170
1.488,0.360,0.160
1.490,0.510,0.145
1.492,0.450,0.130
1.494,0.665,0.110
1.496,0.660,0.090
1.498,0.590,0.070
1.500,0.660,0.055
1.502,0.520,0.040
1.504,0.490,0.030
1.506,0.420,0.020
1.508,0.315,0.015
1.510,0.345,0.010
1.512,0.330,0.005
1.514,0.535,0.000
1.516,0.530,-0.005
1.518,0.525,-0.015
1.520,0.560,-0.020
1.522,0.575,-0.030
1.524,0.395,-0.035
1.526,0.285,-0.040
1.528,0.210,-0.045
1.530,0.200,-0.050
1.532,0.365,-0.050
1.534,0.490,-0.055
1.536,0.445,-0.055
1.538,0.700,-0.060
1.540,0.480,-0.060
1.542,0.390,-0.065
1.544,0.395,-0.065
1.546,0.255,-0.065
1.548,0.180,-0.070
1.550,0.240,-0.065
1.552,0.360,-0.065
1.554,0.435,-0.060
1.556,0.640,-0.060
1.558,0.560,-0.055
1.560,0.550,-0.050
1.562,0.385,-0.045
1.564,0.345,-0.040
1.566,0.350,-0.040
1.568,0.330,-0.040
1.570,0.300,-0.050
1.572,0.360,-0.060
1.574,0.400,-0.070
1.576,0.505,-0.080
1.578,0.475,-0.090
1.580,0.420,-0.090
1.582,0.365,-0.090
1.584,0.495,-0.085
1.586,0.310,-0.070
1.588,0.210,-0.060
1.590,0.330,-0.045
1.592,0.385,-0.040
1.594,0.500,-0.035
1.596,0.515,-0.040
1.598,0.555,-0.050
1.600,0.570,-0.065
1.602,0.455,-0.075
1.604,0.370,-0.085
1.606,0.230,-0.090
1.608,0.200,-0.090
1.610,0.245,-0.080
1.612,0.435,-0.070
1.614,0.440,-0.060
1.616,0.550,-0.045
1.618,0.565,-0.035
1.620,0.635,-0.035
1.622,0.475,-0.035
1.624,0.350,-0.040
1.626,0.235,-0.050
1.628,0.230,-0.060
1.630,0.215,-0.075
1.632,0.410,-0.085
1.634,0.525,-0.095
1.636,0.565,-0.095
1.638,0.500,-0.095
1.640,0.480,-0.085
1.642,0.400,-0.070
1.644,0.335,-0.050
1.646,0.345,-0.035
1.648,0.400,-0.020
1.650,0.495,-0.010
1.652,0.340,-0.010
1.654,0.390,-0.015
1.656,0.670,-0.025
1.658,0.570,-0.035
1.660,0.605,-0.045
1.662,0.400,-0.055
1.664,0.430,-0.055
1.666,0.070,-0.055
1.668,0.430,-0.050
1.670,0.315,-0.045
1.672,0.510,-0.045
1.674,0.440,-0.050
1.676,0.580,-0.060
1.678,0.620,-0.075
1.680,0.385,-0.095
1.682,0.365,-0.115
1.684,0.365,-0.125
1.686,0.235,-0.125
1.688,0.185,-0.120
1.690,0.255,-0.105
1.692,0.405,-0.090
1.694,0.430,-0.075
1.696,0.595,-0.065
1.698,0.535,-0.065
1.700,0.565,-0.070
1.702,0.460,-0.075
1.704,0.265,-0.090
1.706,0.240,-0.095
1.708,0.265,-0.100
1.710,0.295,-0.105
1.712,0.420,-0.100
1.714,0.425,-0.100
1.716,0.435,-0.100
1.718,0.550,-0.100
1.720,0.445,-0.110
1.722,0.380,-0.115
1.724,0.435,-0.125
1.726,0.275,-0.125
1.728,0.215,-0.120
1.730,0.175,-0.095
1.732,0.235,-0.055
1.734,0.620,-0.005
1.736,0.675,0.060
1.738,0.805,0.125
1.740,0.870,0.190
1.742,0.760,0.240
1.744,0.755,0.275
1.746,0.735,0.285
1.748,0.715,0.270
1.750,0.525,0.225
1.752,0.615,0.160
1.754,0.570,0.080
1.756,0.625,-0.015
1.758,0.555,-0.105
1.760,0.385,-0.185
1.762,0.195,-0.250
1.764,0.110,-0.295
1.766,-0.050,-0.310
1.768,0.060,-0.300
1.770,0.155,-0.270
1.772,0.295,-0.230
1.774,0.460,-0.185
1.776,0.550,-0.140
1.778,0.515,-0.110
1.780,0.370,-0.090
1.782,0.510,-0.085
1.784,0.435,-0.090
1.786,0.205,-0.105
1.788,0.235,-0.115
1.790,0.225,-0.125
1.792,0.245,-0.130
1.794,0.595,-0.125
1.796,0.540,-0.115
1.798,0.560,-0.100
1.800,0.430,-0.085
1.802,0.500,-0.075
1.804,0.335,-0.065
1.806,0.295,-0.060
1.808,0.335,-0.060
1.810,0.360,-0.065
1.812,0.405,-0.070
1.814,0.435,-0.075
1.816,0.665,-0.080
1.818,0.505,-0.085
1.820,0.520,-0.085
1.822,0.435,-0.085
1.824,0.280,-0.085
1.826,0.235,-0.080
1.828,0.345,-0.070
1.830,0.420,-0.065
1.832,0.460,-0.055
1.834,0.515,-0.050
1.836,0.505,-0.045
1.838,0.640,-0.050
1.840,0.570,-0.050
1.842,0.385,-0.055
1.844,0.405,-0.065
1.846,0.280,-0.065
1.848,0.245,-0.065
1.850,0.410,-0.060
1.852,0.505,-0.050
1.854,0.585,-0.035
1.856,0.685,-0.020
1.858,0.660,-0.005
1.860,0.520,0.000
1.862,0.560,0.000
1.864,0.355,-0.005
1.866,0.330,-0.015
1.868,0.430,-0.025
1.870,0.380,-0.040
1.872,0.400,-0.050
1.874,0.675,-0.055
1.876,0.560,-0.055
1.878,0.615,-0.045
1.880,0.535,-0.035
1.882,0.455,-0.020
1.884,0.435,0.000
1.886,0.420,0.015
1.888,0.405,0.030
1.890,0.500,0.040
1.892,0.640,0.050
1.894,0.770,0.060
1.896,0.710,0.065
1.898,0.665,0.070
1.900,0.610,0.070
1.902,0.575,0.075
1.904,0.440,0.085
1.906,0.520,0.095
1.908,0.565,0.110
1.910,0.585,0.130
1.912,0.725,0.155
1.914,0.895,0.175
1.916,0.825,0.195
1.918,0.845,0.205
1.920,0.795,0.210
1.922,0.645,0.205
1.924,0.585,0.195
1.926,0.560,0.180
1.928,0.600,0.160
1.930,0.545,0.150
1.932,0.715,0.145
1.934,0.900,0.150
1.936,0.955,0.160
1.938,0.655,0.180
1.940,0.770,0.195
1.942,0.755,0.210
1.944,0.660,0.215
1.946,0.595,0.205
1.948,0.550,0.190
1.950,0.525,0.160
1.952,0.625,0.125
1.954,0.815,0.090
1.956,0.790,0.055
1.958,0.730,0.030
1.960,0.500,0.015
1.962,0.480,0.010
1.964,0.435,0.010
1.966,0.400,0.010
1.968,0.400,0.015
1.970,0.540,0.015
1.972,0.560,0.015
1.974,0.655,0.010
1.976,0.660,0.000
1.978,0.640,-0.010
1.980,0.595,-0.015
1.982,0.490,-0.020
1.984,0.350,-0.020
1.986,0.370,-0.015
1.988,0.415,-0.015
1.990,0.500,-0.010
1.992,0.465,-0.010
1.994,0.735,-0.010
1.996,0.670,-0.015
1.998,0.600,-0.025
2.000,0.510,-0.035
2.002,0.470,-0.045
2.004,0.335,-0.055
2.006,0.310,-0.065
2.008,0.355,-0.065
2.010,0.315,-0.065
2.012,0.615,-0.065
2.014,0.690,-0.060
2.016,0.615,-0.055
2.018,0.485,-0.055
2.020,0.580,-0.050
2.022,0.485,-0.050
2.024,0.275,-0.050
2.026,0.165,-0.050
2.028,0.460,-0.050
2.030,0.550,-0.050
2.032,0.600,-0.050
2.034,0.550,-0.050
2.036,0.610,-0.045
2.038,0.610,-0.035
2.040,0.530,-0.030
2.042,0.565,-0.020
2.044,0.445,-0.015
2.046,0.285,-0.010
2.048,0.365,-0.010
2.050,0.530,-0.015
2.052,0.650,-0.020
2.054,0.670,-0.025
2.056,0.635,-0.030
2.058,0.650,-0.035
2.060,0.575,-0.035
2.062,0.495,-0.035
2.064,0.310,-0.035
2.066,0.300,-0.030
2.068,0.425,-0.025
2.070,0.575,-0.025
2.072,0.680,-0.020
2.074,0.775,-0.020
2.076,0.585,-0.020
2.078,0.520,-0.020
2.080,0.615,-0.020
2.082,0.450,-0.015
2.084,0.380,-0.015
2.086,0.425,-0.010
2.088,0.415,-0.010
2.090,0.575,-0.005
2.092,0.585,-0.005
2.094,0.725,-0.005
2.096,0.705,-0.005
2.098,0.660,-0.005
2.100,0.585,-0.005
2.102,0.510,-0.005
2.104,0.385,-0.005
2.106,0.405,0.000
2.108,0.425,0.005
2.110,0.405,0.015
2.112,0.730,0.020
2.114,0.765,0.025
2.116,0.810,0.025
2.118,0.665,0.020
2.120,0.545,0.015
2.122,0.550,0.010
2.124,0.315,-0.005
2.126,0.290,-0.015
2.128,0.365,-0.025
2.130,0.610,-0.035
2.132,0.740,-0.045
2.134,0.715,-0.045
2.136,0.635,-0.040
2.138,0.570,-0.035
2.140,0.535,-0.025
2.142,0.390,-0.020
2.144,0.300,-0.010
2.146,0.450,-0.010
2.148,0.525,-0.015
2.150,0.535,-0.025
2.152,0.630,-0.035
2.154,0.700,-0.050
2.156,0.715,-0.060
2.158,0.500,-0.065
2.160,0.440,-0.060
2.162,0.400,-0.050
2.164,0.415,-0.035
2.166,0.480,-0.020
2.168,0.525,-0.010
2.170,0.530,-0.005
2.172,0.580,-0.015
2.174,0.615,-0.030
2.176,0.640,-0.050
2.178,0.590,-0.070
2.180,0.540,-0.085
2.182,0.280,-0.080
2.184,0.350,-0.055
2.186,0.465,-0.010
2.188,0.575,0.055
2.190,0.735,0.130
2.192,0.850,0.210
2.194,1.075,0.285
2.196,1.090,0.345
2.198,1.030,0.375
2.200,1.020,0.380
2.202,0.715,0.350
2.204,0.645,0.290
2.206,0.730,0.205
2.208,0.575,0.105
2.210,0.580,0.005
2.212,0.685,-0.090
2.214,0.580,-0.170
2.216,0.290,-0.225
2.218,0.320,-0.255
2.220,0.265,-0.265
2.222,0.175,-0.250
2.224,0.250,-0.225
2.226,0.325,-0.190
2.228,0.390,-0.160
2.230,0.550,-0.135
2.232,0.540,-0.115
2.234,0.520,-0.100
2.236,0.575,-0.090
2.238,0.585,-0.085
2.240,0.425,-0.075
2.242,0.360,-0.065
2.244,0.475,-0.045
2.246,0.520,-0.030
2.248,0.430,-0.015
2.250,0.680,-0.005
2.252,0.710,-0.005
2.254,0.590,-0.015
2.256,0.620,-0.030
2.258,0.545,-0.050
2.260,0.505,-0.070
2.262,0.330,-0.085
2.264,0.310,-0.090
2.266,0.450,-0.090
2.268,0.530,-0.080
2.270,0.505,-0.065
2.272,0.645,-0.050
2.274,0.660,-0.035
2.276,0.590,-0.020
2.278,0.625,-0.010
2.280,0.690,-0.005
2.282,0.425,-0.005
2.284,0.305,-0.010
2.286,0.440,-0.015
2.288,0.600,-0.015
2.290,0.620,-0.015
2.292,0.655,-0.020
2.294,0.690,-0.020
2.296,0.640,-0.025
2.298,0.565,-0.025
2.300,0.495,-0.030
2.302,0.385,-0.035
2.304,0.365,-0.040
2.306,0.515,-0.045
2.308,0.505,-0.045
2.310,0.505,-0.045
2.312,0.655,-0.040
2.314,0.755,-0.040
2.316,0.610,-0.030
2.318,0.565,-0.025
2.320,0.610,-0.020
2.322,0.335,-0.010
2.324,0.485,-0.005
2.326,0.555,0.000
2.328,0.540,0.000
2.330,0.610,0.005
2.332,0.665,0.005
2.334,0.715,0.005
2.336,0.670,0.005
2.338,0.655,0.005
2.340,0.480,0.010
2.342,0.510,0.020
2.344,0.490,0.035
2.346,0.600,0.050
2.348,0.560,0.065
2.350,0.665,0.080
2.352,0.865,0.095
2.354,0.805,0.110
2.356,0.765,0.125
2.358,0.745,0.135
2.360,0.670,0.145
2.362,0.625,0.150
2.364,0.670,0.160
2.366,0.735,0.165
2.368,0.680,0.170
2.370,0.705,0.170
2.372,0.850,0.170
2.374,0.925,0.170
2.376,0.925,0.170
2.378,0.780,0.170
2.380,0.730,0.180
2.382,0.610,0.190
2.384,0.660,0.205
2.386,0.705,0.220
2.388,0.730,0.230
2.390,0.895,0.240
2.392,1.040,0.245
2.394,1.015,0.240
2.396,0.830,0.230
2.398,0.850,0.220
2.400,0.735,0.200
2.402,0.575,0.185
2.404,0.630,0.175
2.406,0.660,0.165
2.408,0.605,0.150
2.410,0.805,0.140
2.412,0.860,0.125
2.414,0.950,0.105
2.416,0.790,0.080
2.418,0.595,0.055
2.420,0.575,0.025
2.422,0.290,0.005
2.424,0.405,-0.010
2.426,0.530,-0.020
2.428,0.590,-0.015
2.430,0.695,-0.010
2.432,0.780,0.000
2.434,0.720,0.005
2.436,0.635,0.005
2.438,0.510,0.000
2.440,0.520,-0.010
2.442,0.390,-0.025
2.444,0.385,-0.040
2.446,0.510,-0.055
2.448,0.480,-0.060
2.450,0.585,-0.060
2.452,0.695,-0.055
2.454,0.765,-0.045
2.456,0.640,-0.035
2.458,0.605,-0.025
2.460,0.470,-0.025
2.462,0.340,-0.025
2.464,0.315,-0.035
2.466,0.465,-0.040
2.468,0.510,-0.050
2.470,0.635,-0.060
2.472,0.680,-0.060
2.474,0.755,-0.060
2.476,0.670,-0.055
2.478,0.530,-0.045
2.480,0.375,-0.035
2.482,0.310,-0.030
2.484,0.445,-0.020
2.486,0.400,-0.015
2.488,0.625,-0.015
2.490,0.860,-0.010
2.492,0.745,-0.015
2.494,0.695,-0.015
2.496,0.555,-0.025
2.498,0.535,-0.035
2.500,0.460,-0.050
2.502,0.325,-0.065
2.504,0.345,-0.080
2.506,0.430,-0.085
2.508,0.470,-0.090
2.510,0.690,-0.085
2.512,0.700,-0.070
2.514,0.595,-0.050
2.516,0.595,-0.030
2.518,0.650,-0.010
2.520,0.405,0.005
2.522,0.490,0.010
2.524,0.495,0.005
2.526,0.515,-0.010
2.528,0.530,-0.025
2.530,0.625,-0.040
2.532,0.575,-0.050
2.534,0.750,-0.050
2.536,0.570,-0.040
2.538,0.475,-0.020
2.540,0.510,0.000
2.542,0.590,0.025
2.544,0.505,0.045
2.546,0.515,0.050
2.548,0.625,0.055
2.550,0.865,0.045
2.552,0.750,0.035
2.554,0.700,0.025
2.556,0.655,0.015
2.558,0.555,0.015
2.560,0.410,0.010
2.562,0.420,0.010
2.564,0.535,0.015
2.566,0.720,0.010
2.568,0.610,0.005
2.570,0.695,0.000
2.572,0.695,-0.010
2.574,0.665,-0.020
2.576,0.595,-0.025
2.578,0.570,-0.035
2.580,0.440,-0.035
2.582,0.335,-0.040
2.584,0.325,-0.045
2.586,0.590,-0.055
2.588,0.600,-0.065
2.590,0.630,-0.075
2.592,0.560,-0.080
2.594,0.610,-0.085
2.596,0.500,-0.080
2.598,0.535,-0.070
2.600,0.455,-0.055
2.602,0.290,-0.040
2.604,0.490,-0.025
2.606,0.605,-0.020
2.608,0.565,-0.020
2.610,0.685,-0.025
2.612,0.825,-0.035
2.614,0.600,-0.045
2.616,0.525,-0.060
2.618,0.470,-0.065
2.620,0.380,-0.065
2.622,0.330,-0.060
2.624,0.490,-0.050
2.626,0.455,-0.040
2.628,0.715,-0.035
2.630,0.635,-0.030
2.632,0.770,-0.030
2.634,0.680,-0.020
2.636,0.545,-0.005
2.638,0.530,0.025
2.640,0.445,0.065
2.642,0.410,0.115
2.644,0.800,0.175
2.646,0.860,0.235
2.648,1.005,0.280
2.650,1.145,0.310
2.652,1.070,0.310
2.654,0.910,0.285
2.656,0.760,0.230
2.658,0.595,0.160
2.660,0.520,0.075
2.662,0.480,-0.015
2.664,0.455,-0.095
2.666,0.355,-0.155
2.668,0.335,-0.195
2.670,0.550,-0.210
2.672,0.475,-0.200
2.674,0.555,-0.180
2.676,0.475,-0.145
2.678,0.485,-0.115
2.680,0.295,-0.085
2.682,0.370,-0.070
2.684,0.425,-0.065
2.686,0.585,-0.065
2.688,0.685,-0.075
2.690,0.580,-0.085
2.692,0.625,-0.095
2.694,0.600,-0.095
2.696,0.500,-0.095
2.698,0.325,-0.085
2.700,0.360,-0.075
2.702,0.445,-0.060
2.704,0.470,-0.055
2.706,0.500,-0.050
2.708,0.615,-0.050
2.710,0.750,-0.050
2.712,0.635,-0.050
2.714,0.635,-0.050
2.716,0.550,-0.045
2.718,0.395,-0.035
2.720,0.515,-0.025
2.722,0.470,-0.010
2.724,0.400,-0.005
2.726,0.565,0.000
2.728,0.635,-0.005
2.730,0.760,-0.010
2.732,0.700,-0.020
2.734,0.690,-0.030
2.736,0.550,-0.040
2.738,0.430,-0.045
2.740,0.385,-0.045
2.742,0.405,-0.045
2.744,0.500,-0.045
2.746,0.510,-0.040
2.748,0.585,-0.040
2.750,0.695,-0.040
2.752,0.690,-0.040
2.754,0.670,-0.035
2.756,0.540,-0.030
2.758,0.430,-0.020
2.760,0.435,-0.010
2.762,0.455,0.000
2.764,0.515,0.010
2.766,0.665,0.020
2.768,0.715,0.025
2.770,0.810,0.025
2.772,0.715,0.025
2.774,0.670,0.020
2.776,0.555,0.015
2.778,0.460,0.010
2.780,0.485,0.010
2.782,0.440,0.005
2.784,0.555,0.005
2.786,0.570,0.005
2.788,0.730,0.010
2.790,0.815,0.015
2.792,0.720,0.025
2.794,0.635,0.035
2.796,0.585,0.050
2.798,0.520,0.065
2.800,0.515,0.080
2.802,0.685,0.090
2.804,0.615,0.100
2.806,0.720,0.105
2.808,0.825,0.110
2.810,0.845,0.115
2.812,0.830,0.115
2.814,0.695,0.125
2.816,0.675,0.130
2.818,0.540,0.145
2.820,0.680,0.155
2.822,0.590,0.170
2.824,0.800,0.180
2.826,0.800,0.185
2.828,0.815,0.185
2.830,0.910,0.185
2.832,0.915,0.180
2.834,0.795,0.175
2.836,0.695,0.175
2.838,0.620,0.175
2.840,0.670,0.180
2.842,0.680,0.190
2.844,0.610,0.200
2.846,0.860,0.210
2.848,0.960,0.215
2.850,1.035,0.220
2.852,0.880,0.215
2.854,0.775,0.205
2.856,0.785,0.195
2.858,0.615,0.180
2.860,0.620,0.160
2.862,0.525,0.140
2.864,0.675,0.115
2.866,0.700,0.095
2.868,0.820,0.075
2.870,0.805,0.060
2.872,0.710,0.045
2.874,0.645,0.030
2.876,0.525,0.020
2.878,0.420,0.015
2.880,0.465,0.010
2.882,0.510,0.005
2.884,0.520,-0.005
2.886,0.555,-0.010
2.888,0.730,-0.020
2.890,0.680,-0.030
2.892,0.680,-0.040
2.894,0.550,-0.050
2.896,0.440,-0.055
2.898,0.420,-0.055
2.900,0.335,-0.050
2.902,0.285,-0.045
2.904,0.610,-0.040
2.906,0.590,-0.030
2.908,0.710,-0.030
2.910,0.695,-0.025
2.912,0.700,-0.030
2.914,0.540,-0.035
2.916,0.460,-0.045
2.918,0.350,-0.050
2.920,0.435,-0.055
2.922,0.520,-0.060
2.924,0.395,-0.055
2.926,0.475,-0.050
2.928,0.655,-0.040
2.930,0.735,-0.030
2.932,0.715,-0.025
2.934,0.570,-0.025
2.936,0.530,-0.030
2.938,0.395,-0.040
2.940,0.350,-0.050
2.942,0.375,-0.060
2.944,0.415,-0.070
2.946,0.495,-0.075
2.948,0.670,-0.075
2.950,0.675,-0.065
2.952,0.680,-0.050
2.954,0.555,-0.035
2.956,0.510,-0.020
2.958,0.415,-0.010
2.960,0.470,-0.005
2.962,0.385,-0.005
2.964,0.605,-0.005
2.966,0.480,-0.010
2.968,0.800,-0.015
2.970,0.670,-0.015
2.972,0.665,-0.015
2.974,0.670,-0.015
2.976,0.510,-0.015
2.978,0.340,-0.020
2.980,0.420,-0.020
2.982,0.415,-0.030
2.984,0.510,-0.040
2.986,0.535,-0.045
2.988,0.655,-0.045
2.990,0.730,-0.040
2.992,0.655,-0.030
2.994,0.565,-0.010
2.996,0.565,0.005
2.998,0.420,0.025
3.000,0.415,0.035
3.002,0.565,0.040
3.004,0.550,0.035
3.006,0.630,0.025
3.008,0.760,0.010
3.010,0.735,0.000
3.012,0.625,-0.005
3.014,0.570,-0.005
3.016,0.470,0.000
3.018,0.475,0.005
3.020,0.505,0.010
3.022,0.455,0.005
3.024,0.580,-0.005
3.026,0.690,-0.020
3.028,0.700,-0.045
3.030,0.495,-0.065
3.032,0.520,-0.080
3.034,0.485,-0.085
3.036,0.485,-0.080
3.038,0.340,-0.070
3.040,0.460,-0.050
3.042,0.460,-0.030
3.044,0.515,-0.020
3.046,0.675,-0.015
3.048,0.570,-0.020
3.050,0.570,-0.035
3.052,0.640,-0.050
3.054,0.500,-0.070
3.056,0.445,-0.080
3.058,0.410,-0.080
3.060,0.395,-0.075
3.062,0.480,-0.060
3.064,0.540,-0.045
3.066,0.585,-0.030
3.068,0.620,-0.015
3.070,0.565,-0.010
3.072,0.615,-0.010
3.074,0.560,-0.015
3.076,0.470,-0.020
3.078,0.405,-0.030
3.080,0.405,-0.035
3.082,0.560,-0.035
3.084,0.505,-0.035
3.086,0.685,-0.025
3.088,0.625,-0.005
3.090,0.585,0.020
3.092,0.595,0.055
3.094,0.700,0.090
3.096,0.585,0.130
3.098,0.685,0.165
3.100,0.790,0.190
3.102,0.750,0.200
3.104,0.720,0.195
3.106,0.695,0.165
3.108,0.775,0.115
3.110,0.720,0.055
3.112,0.520,-0.015
3.114,0.595,-0.085
3.116,0.345,-0.145
3.118,0.225,-0.185
3.120,0.140,-0.205
3.122,0.265,-0.210
3.124,0.395,-0.195
3.126,0.500,-0.170
3.128,0.535,-0.145
3.130,0.610,-0.120
3.132,0.560,-0.105
3.134,0.500,-0.090
3.136,0.290,-0.085
3.138,0.355,-0.080
3.140,0.335,-0.080
3.142,0.435,-0.070
3.144,0.475,-0.065
3.146,0.590,-0.055
3.148,0.630,-0.050
3.150,0.670,-0.045
3.152,0.610,-0.045
3.154,0.535,-0.055
3.156,0.310,-0.060
3.158,0.290,-0.070
3.160,0.340,-0.075
3.162,0.450,-0.075
3.164,0.545,-0.070
3.166,0.705,-0.055
3.168,0.695,-0.040
3.170,0.600,-0.025
3.172,0.500,-0.010
3.174,0.450,-0.005
3.176,0.530,-0.005
3.178,0.465,-0.010
3.180,0.365,-0.015
3.182,0.415,-0.025
3.184,0.510,-0.030
3.186,0.675,-0.035
3.188,0.755,-0.030
3.190,0.705,-0.030
3.192,0.555,-0.020
3.194,0.485,-0.020
3.196,0.355,-0.015
3.198,0.355,-0.015
3.200,0.410,-0.020
3.202,0.450,-0.030
3.204,0.575,-0.035
3.206,0.715,-0.045
3.208,0.710,-0.045
3.210,0.625,-0.045
3.212,0.550,-0.040
3.214,0.505,-0.035
3.216,0.195,-0.020
3.218,0.310,-0.005
3.220,0.555,0.005
3.222,0.605,0.020
3.224,0.615,0.030
3.226,0.800,0.040
3.228,0.755,0.045
3.230,0.640,0.050
3.232,0.525,0.050
3.234,0.565,0.050
3.236,0.415,0.050
3.238,0.500,0.045
3.240,0.480,0.040
3.242,0.565,0.040
3.244,0.555,0.035
3.246,0.780,0.035
3.248,0.820,0.040
3.250,0.655,0.045
3.252,0.565,0.055
3.254,0.630,0.070
3.256,0.465,0.090
3.258,0.435,0.110
3.260,0.550,0.125
3.262,0.720,0.145
3.264,0.845,0.155
3.266,0.860,0.165
3.268,0.795,0.165
3.270,0.765,0.165
3.272,0.875,0.160
3.274,0.670,0.160
3.276,0.445,0.155
3.278,0.430,0.155
3.280,0.575,0.160
3.282,0.675,0.165
3.284,0.865,0.170
3.286,0.905,0.175
3.288,0.890,0.180
3.290,0.860,0.185
3.292,0.705,0.185
3.294,0.640,0.185
3.296,0.490,0.180
3.298,0.560,0.175
3.300,0.675,0.170
3.302,0.695,0.160
3.304,0.760,0.155
3.306,0.910,0.140
3.308,0.795,0.125
3.310,0.655,0.110
3.312,0.650,0.090
3.314,0.555,0.075
3.316,0.365,0.055
3.318,0.420,0.045
3.320,0.555,0.035
3.322,0.545,0.030
3.324,0.645,0.025
3.326,0.810,0.030
3.328,0.765,0.030
3.330,0.570,0.030
3.332,0.430,0.025
3.334,0.525,0.020
3.336,0.340,0.010
3.338,0.420,-0.005
3.340,0.440,-0.015
3.342,0.535,-0.025
3.344,0.585,-0.035
3.346,0.610,-0.035
3.348,0.620,-0.035
3.350,0.615,-0.035
3.352,0.475,-0.030
3.354,0.430,-0.020
3.356,0.390,-0.020
3.358,0.420,-0.015
3.360,0.515,-0.020
3.362,0.515,-0.020
3.364,0.590,-0.030
3.366,0.640,-0.035
3.368,0.615,-0.045
3.370,0.530,-0.055
3.372,0.440,-0.060
3.374,0.320,-0.070
3.376,0.325,-0.075
3.378,0.385,-0.080
3.380,0.360,-0.085
3.382,0.485,-0.090
3.384,0.590,-0.090
3.386,0.605,-0.085
3.388,0.520,-0.080
3.390,0.520,-0.070
3.392,0.440,-0.060
3.394,0.320,-0.045
3.396,0.375,-0.035
3.398,0.425,-0.030
3.400,0.495,-0.025
3.402,0.575,-0.020
3.404,0.535,-0.020
3.406,0.620,-0.025
3.408,0.625,-0.030
3.410,0.580,-0.035
3.412,0.480,-0.040
3.414,0.425,-0.040
3.416,0.325,-0.045
3.418,0.385,-0.045
3.420,0.345,-0.050
3.422,0.440,-0.045
3.424,0.655,-0.045
3.426,0.730,-0.040
3.428,0.640,-0.030
3.430,0.570,-0.025
3.432,0.485,-0.015
3.434,0.345,-0.010
3.436,0.340,0.000
3.438,0.475,0.000
3.440,0.475,-0.005
3.442,0.450,-0.010
3.444,0.700,-0.025
3.446,0.660,-0.035
3.448,0.665,-0.045
3.450,0.390,-0.050
3.452,0.385,-0.050
3.454,0.415,-0.045
3.456,0.440,-0.030
3.458,0.365,-0.015
3.460,0.515,0.000
3.462,0.575,0.015
3.464,0.660,0.020
3.466,0.645,0.020
3.468,0.590,0.010
3.470,0.565,0.000
3.472,0.500,-0.015
3.474,0.395,-0.025
3.476,0.325,-0.030
3.478,0.365,-0.035
3.480,0.425,-0.030
3.482,0.505,-0.030
3.484,0.685,-0.025
3.486,0.665,-0.030
3.488,0.605,-0.035
3.490,0.425,-0.040
3.492,0.450,-0.050
3.494,0.335,-0.060
3.496,0.260,-0.065
3.498,0.305,-0.065
3.500,0.505,-0.065
3.502,0.495,-0.060
3.504,0.600,-0.060
3.506,0.595,-0.055
3.508,0.630,-0.055
3.510,0.475,-0.060
3.512,0.435,-0.065
3.514,0.220,-0.065
3.516,0.310,-0.065
3.518,0.350,-0.055
3.520,0.445,-0.045
3.522,0.605,-0.030
3.524,0.530,-0.020
3.526,0.775,-0.010
3.528,0.650,-0.010
3.530,0.495,-0.015
3.532,0.430,-0.025
3.534,0.275,-0.035
3.536,0.285,-0.040
3.538,0.415,-0.035
3.540,0.505,-0.020
3.542,0.465,0.005
3.544,0.730,0.035
3.546,0.810,0.070
3.548,0.795,0.095
3.550,0.665,0.110
3.552,0.605,0.105
3.554,0.330,0.085
3.556,0.370,0.050
3.558,0.390,0.005
3.560,0.615,-0.045
3.562,0.450,-0.085
3.564,0.550,-0.120
3.566,0.470,-0.140
3.568,0.390,-0.145
3.570,0.420,-0.145
3.572,0.290,-0.140
3.574,0.220,-0.130
3.576,0.215,-0.125
3.578,0.325,-0.120
3.580,0.395,-0.115
3.582,0.500,-0.110
3.584,0.625,-0.110
3.586,0.535,-0.100
3.588,0.420,-0.090
3.590,0.445,-0.080
3.592,0.410,-0.065
3.594,0.315,-0.050
3.596,0.305,-0.040
3.598,0.325,-0.035
3.600,0.460,-0.035
3.602,0.535,-0.035
3.604,0.690,-0.040
3.606,0.595,-0.045
3.608,0.605,-0.045
3.610,0.545,-0.050
3.612,0.335,-0.045
3.614,0.235,-0.045
3.616,0.235,-0.040
3.618,0.395,-0.040
3.620,0.535,-0.040
3.622,0.565,-0.045
3.624,0.695,-0.045
3.626,0.610,-0.050
3.628,0.490,-0.055
3.630,0.415,-0.055
3.632,0.370,-0.050
3.634,0.190,-0.050
3.636,0.365,-0.045
3.638,0.465,-0.035
3.640,0.530,-0.035
3.642,0.520,-0.030
3.644,0.675,-0.025
3.646,0.615,-0.020
3.648,0.435,-0.020
3.650,0.470,-0.015
3.652,0.460,-0.010
3.654,0.340,-0.005
3.656,0.405,0.000
3.658,0.445,0.005
3.660,0.490,0.010
3.662,0.645,0.010
3.664,0.640,0.010
3.666,0.650,0.005
3.668,0.555,0.000
3.670,0.430,-0.010
3.672,0.380,-0.015
3.674,0.315,-0.025
3.676,0.350,-0.030
3.678,0.500,-0.035
3.680,0.495,-0.035
3.682,0.545,-0.030
3.684,0.650,-0.020
3.686,0.415,-0.005
3.688,0.645,0.005
3.690,0.520,0.020
3.692,0.455,0.030
3.694,0.415,0.040
3.696,0.430,0.050
3.698,0.415,0.055
3.700,0.525,0.060
3.702,0.725,0.070
3.704,0.750,0.080
3.706,0.755,0.090
3.708,0.630,0.100
3.710,0.605,0.105
3.712,0.465,0.110
3.714,0.480,0.110
3.716,0.425,0.110
3.718,0.550,0.105
3.720,0.700,0.100
3.722,0.665,0.100
3.724,0.750,0.105
3.726,0.755,0.115
3.728,0.740,0.135
3.730,0.665,0.155
3.732,0.500,0.180
3.734,0.555,0.195
3.736,0.545,0.205
3.738,0.590,0.200
3.740,0.735,0.190
3.742,0.845,0.170
3.744,0.785,0.150
3.746,0.760,0.130
3.748,0.655,0.115
3.750,0.445,0.110
3.752,0.430,0.110
3.754,0.515,0.115
3.756,0.540,0.120
3.758,0.675,0.125
3.760,0.650,0.125
3.762,0.765,0.120
3.764,0.685,0.105
3.766,0.700,0.090
3.768,0.570,0.065
3.770,0.460,0.045
3.772,0.330,0.030
3.774,0.370,0.015
3.776,0.375,0.005
3.778,0.485,0.000
3.780,0.560,-0.005
3.782,0.565,-0.005
3.784,0.655,-0.005
3.786,0.595,-0.005
3.788,0.475,-0.005
3.790,0.480,-0.005
3.792,0.195,-0.010
3.794,0.430,-0.015
3.796,0.425,-0.025
3.798,0.335,-0.030
3.800,0.420,-0.040
3.802,0.595,-0.040
3.804,0.580,-0.045
3.806,0.630,-0.045
3.808,0.450,-0.040
3.810,0.420,-0.035
3.812,0.345,-0.030
3.814,0.290,-0.025
3.816,0.340,-0.030
3.818,0.470,-0.035
3.820,0.430,-0.050
3.822,0.610,-0.065
3.824,0.505,-0.075
3.826,0.505,-0.085
3.828,0.515,-0.085
3.830,0.315,-0.080
3.832,0.290,-0.065
3.834,0.205,-0.050
3.836,0.340,-0.030
3.838,0.465,-0.010
3.840,0.555,0.000
3.842,0.690,0.005
3.844,0.610,0.005
3.846,0.550,0.000
3.848,0.495,-0.010
3.850,0.485,-0.020
3.852,0.280,-0.025
3.854,0.225,-0.030
3.856,0.325,-0.025
3.858,0.445,-0.020
3.860,0.535,-0.015
3.862,0.680,-0.010
3.864,0.610,-0.010
3.866,0.555,-0.010
3.868,0.495,-0.010
3.870,0.410,-0.010
3.872,0.285,-0.015
3.874,0.305,-0.020
3.876,0.335,-0.020
3.878,0.480,-0.025
3.880,0.505,-0.025
3.882,0.560,-0.030
3.884,0.625,-0.030
3.886,0.435,-0.035
3.888,0.560,-0.040
3.890,0.415,-0.040
3.892,0.170,-0.040
3.894,0.200,-0.035
3.896,0.475,-0.025
3.898,0.425,-0.015
3.900,0.500,-0.005
3.902,0.660,0.010
3.904,0.710,0.015
3.906,0.565,0.020
3.908,0.490,0.020
3.910,0.420,0.020
3.912,0.385,0.015
3.914,0.315,0.005
3.916,0.390,0.000
3.918,0.480,-0.005
3.920,0.560,-0.010
3.922,0.640,-0.015
3.924,0.585,-0.015
3.926,0.490,-0.015
3.928,0.490,-0.020
3.930,0.340,-0.025
3.932,0.235,-0.035
3.934,0.170,-0.045
3.936,0.355,-0.050
3.938,0.515,-0.055
3.940,0.495,-0.055
3.942,0.650,-0.055
3.944,0.510,-0.050
3.946,0.480,-0.040
3.948,0.475,-0.035
3.950,0.330,-0.030
3.952,0.245,-0.030
3.954,0.215,-0.035
3.956,0.380,-0.045
3.958,0.420,-0.055
3.960,0.455,-0.065
3.962,0.475,-0.065
3.964,0.610,-0.060
3.966,0.565,-0.050
3.968,0.380,-0.035
3.970,0.345,-0.020
3.972,0.310,-0.005
3.974,0.255,0.000
3.976,0.415,-0.005
3.978,0.440,-0.015
3.980,0.555,-0.025
3.982,0.715,-0.035
3.984,0.595,-0.035
3.986,0.380,-0.020
3.988,0.425,0.005
3.990,0.335,0.045
3.992,0.345,0.095
3.994,0.605,0.135
3.996,0.655,0.165
3.998,0.700,0.175
4.000,0.725,0.165
4.002,0.690,0.130
4.004,0.555,0.080
4.006,0.500,0.020
4.008,0.390,-0.040
4.010,0.240,-0.100
4.012,0.185,-0.145
4.014,0.130,-0.175
4.016,0.160,-0.195
4.018,0.205,-0.200
4.020,0.375,-0.200
4.022,0.450,-0.195
4.024,0.500,-0.180
4.026,0.375,-0.165
4.028,0.225,-0.145
4.030,0.165,-0.125
4.032,0.175,-0.100
4.034,0.305,-0.075
4.036,0.455,-0.055
4.038,0.375,-0.045
4.040,0.550,-0.035
4.042,0.585,-0.040
4.044,0.605,-0.045
4.046,0.380,-0.055
4.048,0.390,-0.065
4.050,0.210,-0.070
4.052,0.175,-0.070
4.054,0.315,-0.065
4.056,0.420,-0.060
4.058,0.395,-0.050
4.060,0.550,-0.040
4.062,0.655,-0.035
4.064,0.505,-0.035
4.066,0.475,-0.035
4.068,0.405,-0.035
4.070,0.225,-0.035
4.072,0.285,-0.030
4.074,0.210,-0.025
4.076,0.450,-0.015
4.078,0.530,-0.010
4.080,0.560,-0.010
4.082,0.520,-0.015
4.084,0.555,-0.025
4.086,0.465,-0.040
4.088,0.340,-0.055
4.090,0.145,-0.070
4.092,0.280,-0.075
4.094,0.325,-0.075
4.096,0.290,-0.060
4.098,0.355,-0.040
4.100,0.650,-0.020
4.102,0.575,0.005
4.104,0.615,0.020
4.106,0.500,0.030
4.108,0.420,0.025
4.110,0.245,0.015
4.112,0.370,-0.005
4.114,0.300,-0.020
4.116,0.365,-0.035
4.118,0.360,-0.045
4.120,0.480,-0.050
4.122,0.625,-0.040
4.124,0.555,-0.025
4.126,0.455,-0.010
4.128,0.445,0.010
4.130,0.295,0.025
4.132,0.350,0.035
4.134,0.380,0.045
4.136,0.460,0.040
4.138,0.505,0.040
4.140,0.655,0.030
4.142,0.710,0.025
4.144,0.530,0.025
4.146,0.435,0.025
4.148,0.470,0.030
4.150,0.265,0.040
4.152,0.325,0.050
4.154,0.395,0.065
4.156,0.510,0.075
4.158,0.610,0.090
4.160,0.770,0.095
4.162,0.765,0.100
4.164,0.575,0.105
4.166,0.505,0.110
4.168,0.450,0.115
4.170,0.415,0.120
4.172,0.410,0.130
4.174,0.555,0.140
4.176,0.615,0.150
4.178,0.620,0.155
4.180,0.730,0.160
4.182,0.720,0.165
4.184,0.715,0.160
4.186,0.610,0.155
4.188,0.500,0.150
4.190,0.375,0.140
4.192,0.405,0.135
4.194,0.500,0.125
4.196,0.585,0.115
4.198,0.600,0.105
4.200,0.660,0.095
4.202,0.745,0.080
4.204,0.585,0.065
4.206,0.440,0.050
4.208,0.365,0.040
4.210,0.255,0.030
4.212,0.380,0.025
4.214,0.350,0.025
4.216,0.425,0.025
4.218,0.500,0.025
4.220,0.645,0.030
4.222,0.605,0.025
4.224,0.535,0.015
4.226,0.495,0.000
4.228,0.300,-0.015
4.230,0.215,-0.035
4.232,0.165,-0.055
4.234,0.165,-0.065
4.236,0.400,-0.075
4.238,0.465,-0.075
4.240,0.590,-0.065
4.242,0.545,-0.050
4.244,0.455,-0.040
4.246,0.390,-0.030
4.248,0.265,-0.020
4.250,0.150,-0.020
4.252,0.325,-0.030
4.254,0.350,-0.040
4.256,0.355,-0.050
4.258,0.510,-0.060
4.260,0.515,-0.070
4.262,0.395,-0.070
4.264,0.430,-0.070
4.266,0.355,-0.065
4.268,0.360,-0.060
4.270,0.310,-0.055
4.272,0.235,-0.060
4.274,0.295,-0.065
4.276,0.280,-0.070
4.278,0.350,-0.080
4.280,0.535,-0.085
4.282,0.505,-0.085
4.284,0.410,-0.080
4.286,0.295,-0.070
4.288,0.145,-0.060
4.290,0.295,-0.050
4.292,0.285,-0.045
4.294,0.320,-0.045
4.296,0.430,-0.055
4.298,0.415,-0.065
4.300,0.480,-0.075
4.302,0.560,-0.085
4.304,0.375,-0.085
4.306,0.195,-0.080
4.308,0.245,-0.065
4.310,0.345,-0.050
4.312,0.285,-0.030
4.314,0.300,-0.020
4.316,0.365,-0.010
4.318,0.455,-0.015
4.320,0.625,-0.025
4.322,0.660,-0.040
4.324,0.425,-0.055
4.326,0.270,-0.070
4.328,0.175,-0.075
4.330,0.165,-0.075
4.332,0.275,-0.065
4.334,0.330,-0.055
4.336,0.475,-0.045
4.338,0.580,-0.030
4.340,0.555,-0.025
4.342,0.400,-0.020
4.344,0.430,-0.015
4.346,0.470,-0.015
4.348,0.255,-0.015
4.350,0.270,-0.015
4.352,0.215,-0.015
4.354,0.365,-0.015
4.356,0.450,-0.015
4.358,0.600,-0.020
4.360,0.570,-0.025
4.362,0.490,-0.025
4.364,0.265,-0.025
4.366,0.350,-0.025
4.368,0.325,-0.020
4.370,0.300,-0.015
4.372,0.290,-0.010
4.374,0.405,-0.005
4.376,0.380,-0.005
4.378,0.545,-0.015
4.380,0.520,-0.030
4.382,0.570,-0.045
4.384,0.340,-0.060
4.386,0.300,-0.075
4.388,0.165,-0.080
4.390,0.260,-0.080
4.392,0.190,-0.070
4.394,0.320,-0.055
4.396,0.340,-0.045
4.398,0.545,-0.030
4.400,0.550,-0.025
4.402,0.550,-0.030
4.404,0.400,-0.035
4.406,0.435,-0.050
4.408,0.160,-0.060
4.410,0.090,-0.070
4.412,0.145,-0.075
4.414,0.400,-0.075
4.416,0.360,-0.070
4.418,0.545,-0.065
4.420,0.490,-0.055
4.422,0.480,-0.045
4.424,0.445,-0.040
4.426,0.335,-0.040
4.428,0.255,-0.035
4.430,0.210,-0.030
4.432,0.175,-0.025
4.434,0.400,-0.010
4.436,0.410,0.010
4.438,0.585,0.040
4.440,0.545,0.065
4.442,0.785,0.095
4.444,0.700,0.115
4.446,0.420,0.120
4.448,0.270,0.115
4.450,0.355,0.095
4.452,0.320,0.060
4.454,0.410,0.010
4.456,0.415,-0.045
4.458,0.500,-0.100
4.460,0.455,-0.150
4.462,0.290,-0.185
4.464,0.105,-0.205
4.466,0.080,-0.210
4.468,0.000,-0.200
4.470,0.140,-0.175
4.472,0.275,-0.150
4.474,0.280,-0.120
4.476,0.325,-0.095
4.478,0.460,-0.080
4.480,0.510,-0.070
4.482,0.460,-0.065
4.484,0.285,-0.070
4.486,0.280,-0.070
4.488,0.200,-0.070
4.490,0.215,-0.060
4.492,0.300,-0.055
4.494,0.345,-0.045
4.496,0.370,-0.035
4.498,0.570,-0.030
4.500,0.490,-0.035
4.502,0.435,-0.040
4.504,0.340,-0.055
4.506,0.290,-0.070
4.508,0.135,-0.080
4.510,0.215,-0.085
4.512,0.155,-0.085
4.514,0.360,-0.075
4.516,0.465,-0.055
4.518,0.590,-0.035
4.520,0.505,-0.015
4.522,0.445,0.005
4.524,0.530,0.020
4.526,0.340,0.025
4.528,0.170,0.020
4.530,0.280,0.010
4.532,0.375,0.000
4.534,0.385,-0.015
4.536,0.440,-0.025
4.538,0.510,-0.030
4.540,0.480,-0.025
4.542,0.490,-0.020
4.544,0.465,-0.010
4.546,0.315,0.000
4.548,0.250,0.010
4.550,0.275,0.015
4.552,0.260,0.015
4.554,0.385,0.015
4.556,0.550,0.005
4.558,0.580,0.000
4.560,0.550,-0.010
4.562,0.465,-0.015
4.564,0.375,-0.015
4.566,0.275,-0.015
4.568,0.190,-0.010
4.570,0.240,0.000
4.572,0.235,0.005
4.574,0.475,0.010
4.576,0.540,0.015
4.578,0.620,0.015
4.580,0.585,0.020
4.582,0.515,0.020
4.584,0.440,0.025
4.586,0.380,0.035
4.588,0.110,0.050
4.590,0.350,0.070
4.592,0.505,0.085
4.594,0.480,0.100
4.596,0.640,0.110
4.598,0.660,0.115
4.600,0.650,0.115
4.602,0.605,0.110
4.604,0.415,0.105
4.606,0.400,0.100
4.608,0.350,0.105
4.610,0.395,0.115
4.612,0.495,0.135
4.614,0.475,0.160
4.616,0.730,0.180
4.618,0.845,0.200
4.620,0.775,0.210
4.622,0.670,0.215
4.624,0.470,0.210
4.626,0.450,0.195
4.628,0.445,0.185
4.630,0.550,0.170
4.632,0.460,0.165
4.634,0.575,0.165
4.636,0.735,0.170
4.638,0.780,0.180
4.640,0.735,0.190
4.642,0.545,0.200
4.644,0.595,0.200
4.646,0.415,0.190
4.648,0.490,0.175
4.650,0.405,0.160
4.652,0.400,0.140
4.654,0.545,0.120
4.656,0.660,0.110
4.658,0.695,0.100
4.660,0.700,0.095
4.662,0.510,0.095
4.664,0.500,0.090
4.666,0.195,0.080
4.668,0.310,0.065
4.670,0.355,0.050
4.672,0.315,0.025
4.674,0.440,0.005
4.676,0.520,-0.015
4.678,0.500,-0.025
4.680,0.500,-0.030
4.682,0.505,-0.025
4.684,0.345,-0.010
4.686,0.170,0.005
4.688,0.230,0.020
4.690,0.310,0.030
4.692,0.370,0.035
4.694,0.425,0.035
4.696,0.680,0.030
4.698,0.625,0.020
4.700,0.470,0.010
4.702,0.330,0.000
4.704,0.305,-0.010
4.706,0.220,-0.015
4.708,0.240,-0.020
4.710,0.365,-0.025
4.712,0.325,-0.025
4.714,0.345,-0.025
4.716,0.525,-0.025
4.718,0.515,-0.025
4.720,0.435,-0.020
4.722,0.375,-0.015
4.724,0.385,-0.010
4.726,0.270,-0.005
4.728,0.205,0.005
4.730,0.275,0.010
4.732,0.450,0.015
4.734,0.400,0.015
4.736,0.610,0.015
4.738,0.515,0.010
4.740,0.510,0.000
4.742,0.440,-0.010
4.744,0.310,-0.020
4.746,0.260,-0.030
4.748,0.180,-0.035
4.750,0.145,-0.035
4.752,0.300,-0.030
4.754,0.450,-0.020
4.756,0.580,-0.005
4.758,0.580,0.010
4.760,0.600,0.025
4.762,0.445,0.035
4.764,0.370,0.045
4.766,0.245,0.045
4.768,0.225,0.040
4.770,0.295,0.025
4.772,0.430,0.010
4.774,0.460,-0.005
4.776,0.565,-0.020
4.778,0.630,-0.035
4.780,0.340,-0.040
4.782,0.360,-0.040
4.784,0.290,-0.035
4.786,0.200,-0.030
4.788,0.195,-0.015
4.790,0.285,-0.005
4.792,0.360,0.010
4.794,0.435,0.025
4.796,0.700,0.040
4.798,0.585,0.050
4.800,0.480,0.060
4.802,0.470,0.065
4.804,0.405,0.075
4.806,0.370,0.075
4.808,0.305,0.075
4.810,0.345,0.070
4.812,0.390,0.060
4.814,0.490,0.050
4.816,0.570,0.040
4.818,0.620,0.035
4.820,0.555,0.025
4.822,0.430,0.020
4.824,0.325,0.020
4.826,0.270,0.020
4.828,0.205,0.020
4.830,0.270,0.015
4.832,0.410,0.010
4.834,0.530,0.000
4.836,0.555,-0.010
4.838,0.490,-0.020
4.840,0.425,-0.030
4.842,0.340,-0.035
4.844,0.305,-0.040
4.846,0.090,-0.035
4.848,0.230,-0.030
4.850,0.330,-0.020
4.852,0.400,-0.015
4.854,0.470,-0.010
4.856,0.445,-0.015
4.858,0.520,-0.020
4.860,0.430,-0.025
4.862,0.405,-0.035
4.864,0.205,-0.040
4.866,0.220,-0.040
4.868,0.140,-0.035
4.870,0.265,-0.020
4.872,0.435,-0.005
4.874,0.590,0.015
4.876,0.620,0.030
4.878,0.495,0.045
4.880,0.485,0.060
4.882,0.445,0.070
4.884,0.370,0.080
4.886,0.255,0.090
4.888,0.350,0.100
4.890,0.445,0.115
4.892,0.610,0.125
4.894,0.725,0.130
4.896,0.695,0.125
4.898,0.590,0.115
4.900,0.470,0.090
4.902,0.380,0.050
4.904,0.285,0.005
4.906,0.080,-0.050
4.908,0.190,-0.100
4.910,0.255,-0.150
4.912,0.180,-0.180
4.914,0.290,-0.200
4.916,0.320,-0.200
4.918,0.310,-0.185
4.920,0.340,-0.155
4.922,0.180,-0.120
4.924,0.135,-0.085
4.926,0.275,-0.050
4.928,0.210,-0.025
4.930,0.375,-0.010
4.932,0.370,-0.005
4.934,0.445,-0.005
4.936,0.640,-0.015
4.938,0.415,-0.025
4.940,0.275,-0.035
4.942,0.355,-0.040
4.944,0.345,-0.045
4.946,0.155,-0.045
4.948,0.235,-0.035
4.950,0.275,-0.030
4.952,0.310,-0.020
4.954,0.565,-0.010
4.956,0.510,-0.005
4.958,0.445,0.000
4.960,0.465,0.000
4.962,0.365,-0.005
4.964,0.215,-0.005
4.966,0.265,-0.005
4.968,0.270,0.000
4.970,0.265,0.005
4.972,0.360,0.010
4.974,0.610,0.015
4.976,0.650,0.025
4.978,0.565,0.030
4.980,0.385,0.030
4.982,0.410,0.025
4.984,0.200,0.020
4.986,0.235,0.015
4.988,0.280,0.005
4.990,0.350,0.000
4.992,0.480,-0.005
4.994,0.530,-0.010
4.996,0.450,-0.010
4.998,0.465,-0.010
5.000,0.455,-0.010
5.002,0.405,-0.010
5.004,0.175,-0.010
5.006,0.240,-0.015
5.008,0.250,-0.020
5.010,0.350,-0.020
5.012,0.385,-0.025
5.014,0.450,-0.025
5.016,0.465,-0.025
5.018,0.525,-0.020
5.020,0.390,-0.010
5.022,0.385,0.005
5.024,0.335,0.025
5.026,0.210,0.040
5.028,0.380,0.055
5.030,0.370,0.070
5.032,0.470,0.080
5.034,0.640,0.085
5.036,0.690,0.085
5.038,0.585,0.085
5.040,0.500,0.080
5.042,0.415,0.080
5.044,0.285,0.085
5.046,0.295,0.090
5.048,0.385,0.100
5.050,0.470,0.110
5.052,0.485,0.125
5.054,0.710,0.135
5.056,0.695,0.140
5.058,0.620,0.145
5.060,0.595,0.145
5.062,0.500,0.140
5.064,0.260,0.140
5.066,0.305,0.145
5.068,0.460,0.150
5.070,0.530,0.155
5.072,0.680,0.165
5.074,0.750,0.180
5.076,0.815,0.190
5.078,0.640,0.200
5.080,0.555,0.205
5.082,0.510,0.210
5.084,0.530,0.210
5.086,0.455,0.210
5.088,0.430,0.205
5.090,0.535,0.200
5.092,0.615,0.190
5.094,0.750,0.180
5.096,0.735,0.165
5.098,0.625,0.150
5.100,0.565,0.130
5.102,0.385,0.115
5.104,0.260,0.100
5.106,0.280,0.090
5.108,0.445,0.085
5.110,0.500,0.080
5.112,0.515,0.080
5.114,0.530,0.075
5.116,0.655,0.065
5.118,0.495,0.050
5.120,0.370,0.030
5.122,0.265,0.005
5.124,0.210,-0.025
5.126,0.230,-0.050
5.128,0.315,-0.065
5.130,0.225,-0.075
5.132,0.370,-0.075
5.134,0.460,-0.060
5.136,0.530,-0.045
5.138,0.410,-0.030
5.140,0.505,-0.010
5.142,0.340,0.000
5.144,0.100,0.005
5.146,0.130,0.000
5.148,0.320,-0.005
5.150,0.360,-0.010
5.152,0.545,-0.015
5.154,0.640,-0.015
5.156,0.505,-0.010
5.158,0.365,-0.005
5.160,0.410,0.005
5.162,0.275,0.010
5.164,0.210,0.010
5.166,0.225,0.005
5.168,0.340,-0.005
5.170,0.360,-0.015
5.172,0.415,-0.030
5.174,0.550,-0.045
5.176,0.455,-0.055
5.178,0.350,-0.060
5.180,0.400,-0.060
5.182,0.205,-0.060
5.184,0.150,-0.060
5.186,0.085,-0.060
5.188,0.255,-0.060
5.190,0.305,-0.065
5.192,0.470,-0.075
5.194,0.470,-0.080
5.196,0.505,-0.080
5.198,0.400,-0.080
5.200,0.335,-0.070
5.202,0.155,-0.055
5.204,0.005,-0.040
5.206,0.130,-0.025
5.208,0.460,-0.005
5.210,0.450,0.005
5.212,0.535,0.010
5.214,0.530,0.010
5.216,0.545,0.005
5.218,0.410,0.000
5.220,0.355,-0.010
5.222,0.255,-0.010
5.224,0.225,-0.010
5.226,0.110,-0.005
5.228,0.355,0.005
5.230,0.445,0.010
5.232,0.585,0.020
5.234,0.555,0.025
5.236,0.570,0.020
5.238,0.510,0.015
5.240,0.365,0.000
5.242,0.170,-0.020
5.244,0.160,-0.040
5.246,0.105,-0.055
5.248,0.260,-0.065
5.250,0.435,-0.065
5.252,0.440,-0.055
5.254,0.485,-0.035
5.256,0.495,-0.010
5.258,0.570,0.015
5.260,0.350,0.030
5.262,0.290,0.040
5.264,0.280,0.040
5.266,0.215,0.030
5.268,0.400,0.010
5.270,0.380,-0.010
5.272,0.475,-0.030
5.274,0.485,-0.045
5.276,0.500,-0.050
5.278,0.450,-0.045
5.280,0.370,-0.035
5.282,0.160,-0.025
5.284,0.195,-0.010
5.286,0.205,-0.005
5.288,0.320,-0.005
5.290,0.380,-0.015
5.292,0.545,-0.025
5.294,0.560,-0.040
5.296,0.420,-0.055
5.298,0.395,-0.065
5.300,0.305,-0.070
5.302,-0.015,-0.065
5.304,0.275,-0.060
5.306,0.220,-0.055
5.308,0.235,-0.050
5.310,0.370,-0.050
5.312,0.555,-0.050
5.314,0.440,-0.055
5.316,0.425,-0.065
5.318,0.410,-0.070
5.320,0.290,-0.075
5.322,0.095,-0.075
5.324,0.025,-0.075
5.326,0.220,-0.070
5.328,0.220,-0.065
5.330,0.410,-0.060
5.332,0.550,-0.055
5.334,0.585,-0.050
5.336,0.415,-0.040
5.338,0.375,-0.025
5.340,0.335,-0.005
5.342,0.175,0.020
5.344,0.235,0.045
5.346,0.370,0.065
5.348,0.445,0.075
5.350,0.560,0.080
5.352,0.725,0.075
5.354,0.605,0.055
5.356,0.490,0.035
5.358,0.350,0.005
5.360,0.285,-0.025
5.362,0.100,-0.055
5.364,0.110,-0.080
5.366,0.255,-0.105
5.368,0.300,-0.130
5.370,0.305,-0.145
5.372,0.320,-0.165
5.374,0.270,-0.175
5.376,0.235,-0.180
5.378,0.275,-0.180
5.380,0.220,-0.170
5.382,0.100,-0.155
5.384,0.100,-0.130
5.386,0.195,-0.105
5.388,0.170,-0.080
5.390,0.415,-0.060
5.392,0.580,-0.050
5.394,0.560,-0.045
5.396,0.330,-0.050
5.398,0.295,-0.060
5.400,0.290,-0.075
5.402,0.235,-0.085
5.404,0.040,-0.090
5.406,0.175,-0.090
5.408,0.355,-0.085
5.410,0.435,-0.080
5.412,0.525,-0.070
5.414,0.430,-0.060
5.416,0.380,-0.050
5.418,0.315,-0.045
5.420,0.325,-0.045
5.422,0.190,-0.045
5.424,0.180,-0.050
5.426,0.340,-0.055
5.428,0.340,-0.055
5.430,0.220,-0.060
5.432,0.475,-0.060
5.434,0.515,-0.060
5.436,0.470,-0.055
5.438,0.295,-0.055
5.440,0.265,-0.050
5.442,0.145,-0.050
5.444,0.210,-0.050
5.446,0.215,-0.050
5.448,0.330,-0.050
5.450,0.395,-0.055
5.452,0.510,-0.055
5.454,0.530,-0.055
5.456,0.375,-0.055
5.458,0.330,-0.050
5.460,0.310,-0.040
5.462,0.210,-0.030
5.464,0.085,-0.015
5.466,0.285,0.000
5.468,0.440,0.010
5.470,0.585,0.020
5.472,0.550,0.025
5.474,0.575,0.030
5.476,0.510,0.030
5.478,0.350,0.030
5.480,0.235,0.030
5.482,0.235,0.030
5.484,0.330,0.030
5.486,0.375,0.030
5.488,0.380,0.030
5.490,0.460,0.025
5.492,0.515,0.020
5.494,0.600,0.015
5.496,0.445,0.015
5.498,0.405,0.015
5.500,0.300,0.020
5.502,0.190,0.030
5.504,0.315,0.040
5.506,0.300,0.050
5.508,0.475,0.060
5.510,0.610,0.065
5.512,0.640,0.070
5.514,0.575,0.075
5.516,0.415,0.075
5.518,0.430,0.085
5.520,0.475,0.095
5.522,0.300,0.110
5.524,0.345,0.135
5.526,0.515,0.155
5.528,0.645,0.175
5.530,0.695,0.190
5.532,0.715,0.195
5.534,0.660,0.190
5.536,0.565,0.180
5.538,0.480,0.170
5.540,0.375,0.155
5.542,0.450,0.150
5.544,0.485,0.145
5.546,0.420,0.150
5.548,0.525,0.165
5.550,0.715,0.175
5.552,0.740,0.185
5.554,0.685,0.185
5.556,0.550,0.175
5.558,0.505,0.155
5.560,0.395,0.125
5.562,0.290,0.090
5.564,0.265,0.060
5.566,0.370,0.030
5.568,0.455,0.015
5.570,0.530,0.005
5.572,0.580,0.005
5.574,0.420,0.010
5.576,0.475,0.020
5.578,0.445,0.030
5.580,0.290,0.030
5.582,0.220,0.030
5.584,0.260,0.025
5.586,0.395,0.015
5.588,0.265,0.000
5.590,0.550,-0.005
5.592,0.670,-0.015
5.594,0.510,-0.020
5.596,0.360,-0.020
5.598,0.300,-0.020
5.600,0.160,-0.020
5.602,0.210,-0.025
5.604,0.250,-0.030
5.606,0.240,-0.035
5.608,0.330,-0.045
5.610,0.455,-0.050
5.612,0.525,-0.050
5.614,0.555,-0.050
5.616,0.430,-0.050
5.618,0.330,-0.045
5.620,0.150,-0.040
5.622,0.075,-0.035
5.624,0.190,-0.035
5.626,0.240,-0.045
5.628,0.390,-0.055
5.630,0.515,-0.065
5.632,0.525,-0.075
5.634,0.485,-0.085
5.636,0.300,-0.090
5.638,0.165,-0.090
5.640,0.060,-0.085
5.642,0.200,-0.080
5.644,0.260,-0.070
5.646,0.290,-0.060
5.648,0.320,-0.050
5.650,0.515,-0.040
5.652,0.480,-0.030
5.654,0.515,-0.025
5.656,0.340,-0.015
5.658,0.380,-0.010
5.660,0.215,-0.010
5.662,0.205,-0.005
5.664,0.225,-0.010
5.666,0.385,-0.010
5.668,0.380,-0.015
5.670,0.460,-0.025
5.672,0.535,-0.035
5.674,0.515,-0.040
5.676,0.320,-0.045
5.678,0.255,-0.050
5.680,0.250,-0.050
5.682,0.120,-0.050
5.684,0.265,-0.050
5.686,0.305,-0.045
5.688,0.395,-0.045
5.690,0.490,-0.040
5.692,0.300,-0.035
5.694,0.490,-0.035
5.696,0.455,-0.030
5.698,0.355,-0.025
5.700,0.215,-0.020
5.702,0.195,-0.015
5.704,0.330,-0.010
5.706,0.435,-0.005
5.708,0.265,0.000
5.710,0.495,0.000
5.712,0.525,0.005
5.714,0.495,0.005
5.716,0.390,0.005
5.718,0.430,0.005
5.720,0.185,0.005
5.722,0.195,0.000
5.724,0.285,-0.005
5.726,0.405,-0.010
5.728,0.470,-0.015
5.730,0.440,-0.015
5.732,0.520,-0.015
5.734,0.465,-0.010
5.736,0.410,0.000
5.738,0.275,0.005
5.740,0.100,0.015
5.742,0.305,0.025
5.744,0.350,0.025
5.746,0.420,0.025
5.748,0.525,0.020
5.750,0.545,0.010
5.752,0.490,-0.005
5.754,0.355,-0.015
5.756,0.345,-0.025
5.758,0.220,-0.030
5.760,0.210,-0.035
5.762,0.210,-0.035
5.764,0.220,-0.040
5.766,0.400,-0.040
5.768,0.500,-0.045
5.770,0.580,-0.050
5.772,0.345,-0.050
5.774,0.350,-0.055
5.776,0.315,-0.055
5.778,0.200,-0.055
5.780,0.260,-0.050
5.782,0.210,-0.045
5.784,0.215,-0.040
5.786,0.335,-0.035
5.788,0.425,-0.035
5.790,0.510,-0.035
5.792,0.485,-0.040
5.794,0.410,-0.045
5.796,0.195,-0.055
5.798,0.295,-0.055
5.800,0.125,-0.060
5.802,0.155,-0.060
5.804,0.320,-0.055
5.806,0.415,-0.045
5.808,0.450,-0.030
5.810,0.400,-0.015
5.812,0.400,0.005
5.814,0.530,0.025
5.816,0.420,0.045
5.818,0.310,0.060
5.820,0.360,0.070
5.822,0.435,0.070
5.824,0.435,0.060
5.826,0.250,0.045
5.828,0.485,0.020
5.830,0.465,-0.015
5.832,0.485,-0.050
5.834,0.375,-0.080
5.836,0.320,-0.110
5.838,0.170,-0.135
5.840,0.015,-0.150
5.842,0.060,-0.155
5.844,0.125,-0.155
5.846,0.230,-0.145
5.848,0.390,-0.135
5.850,0.435,-0.120
5.852,0.430,-0.105
5.854,0.400,-0.090
5.856,0.325,-0.080
5.858,0.150,-0.070
5.860,0.155,-0.060
5.862,0.170,-0.055
5.864,0.205,-0.055
5.866,0.265,-0.060
5.868,0.560,-0.065
5.870,0.455,-0.065
5.872,0.440,-0.070
5.874,0.300,-0.065
5.876,0.300,-0.065
5.878,0.160,-0.060
5.880,0.105,-0.050
5.882,0.295,-0.045
5.884,0.215,-0.045
5.886,0.300,-0.045
5.888,0.490,-0.050
5.890,0.575,-0.050
5.892,0.475,-0.055
5.894,0.390,-0.055
5.896,0.155,-0.050
5.898,0.085,-0.040
5.900,0.260,-0.030
5.902,0.270,-0.020
5.904,0.335,-0.015
5.906,0.465,-0.010
5.908,0.540,-0.015
5.910,0.430,-0.020
5.912,0.450,-0.030
5.914,0.435,-0.040
5.916,0.205,-0.045
5.918,0.185,-0.045
5.920,0.220,-0.040
5.922,0.270,-0.030
5.924,0.320,-0.020
5.926,0.375,-0.010
5.928,0.525,-0.005
5.930,0.485,-0.005
5.932,0.475,-0.010
5.934,0.380,-0.015
5.936,0.340,-0.020
5.938,0.270,-0.025
5.940,0.025,-0.025
5.942,0.280,-0.020
5.944,0.345,-0.015
5.946,0.515,-0.005
5.948,0.525,0.005
5.950,0.550,0.010
5.952,0.425,0.015
5.954,0.430,0.015
5.956,0.355,0.010
5.958,0.240,0.005
5.960,0.295,0.005
5.962,0.145,0.005
5.964,0.300,0.010
5.966,0.565,0.020
5.968,0.595,0.030
5.970,0.510,0.045
5.972,0.445,0.065
5.974,0.505,0.080
5.976,0.460,0.090
5.978,0.310,0.100
5.980,0.300,0.110
5.982,0.455,0.110
5.984,0.485,0.110
5.986,0.515,0.105
5.988,0.655,0.100
5.990,0.535,0.100
5.992,0.540,0.100
5.994,0.460,0.100
5.996,0.465,0.110
5.998,0.350,0.120
6.000,0.375,0.135
6.002,0.385,0.145
6.004,0.550,0.160
6.006,0.635,0.170
6.008,0.725,0.175
6.010,0.715,0.180
6.012,0.635,0.180
6.014,0.485,0.175
6.016,0.425,0.175
6.018,0.410,0.170
6.020,0.350,0.165
6.022,0.505,0.160
6.024,0.565,0.155
6.026,0.585,0.145
6.028,0.735,0.130
6.030,0.610,0.115
6.032,0.385,0.100
6.034,0.430,0.080
6.036,0.400,0.065
6.038,0.270,0.055
6.040,0.330,0.045
6.042,0.360,0.035
6.044,0.390,0.030
6.046,0.465,0.025
6.048,0.565,0.020
6.050,0.455,0.010
6.052,0.475,0.000
6.054,0.315,-0.010
6.056,0.280,-0.020
6.058,0.145,-0.025
6.060,0.300,-0.025
6.062,0.270,-0.025
6.064,0.370,-0.020
6.066,0.445,-0.010
6.068,0.530,-0.005
6.070,0.490,-0.005
6.072,0.405,-0.010
6.074,0.315,-0.015
6.076,0.195,-0.020
6.078,0.235,-0.030
6.080,0.115,-0.035
6.082,0.315,-0.040
6.084,0.360,-0.040
6.086,0.465,-0.035
6.088,0.515,-0.030
6.090,0.480,-0.025
6.092,0.420,-0.030
6.094,0.270,-0.035
6.096,0.170,-0.045
6.098,0.180,-0.055
6.100,0.190,-0.070
6.102,0.135,-0.080
6.104,0.285,-0.080
6.106,0.410,-0.075
6.108,0.545,-0.065
6.110,0.500,-0.050
6.112,0.420,-0.035
6.114,0.290,-0.025
6.116,0.215,-0.015
6.118,0.205,-0.015
6.120,0.155,-0.025
6.122,0.260,-0.035
6.124,0.350,-0.045
6.126,0.525,-0.055
6.128,0.410,-0.060
6.130,0.410,-0.060
6.132,0.410,-0.055
6.134,0.335,-0.045
6.136,0.175,-0.040
6.138,0.220,-0.035
6.140,0.195,-0.030
6.142,0.345,-0.030
6.144,0.160,-0.030
6.146,0.435,-0.035
6.148,0.600,-0.030
6.150,0.475,-0.025
6.152,0.480,-0.015
6.154,0.325,-0.010
6.156,0.170,-0.005
6.158,0.260,0.000
6.160,0.160,-0.010
6.162,0.220,-0.020
6.164,0.360,-0.035
6.166,0.430,-0.055
6.168,0.425,-0.065
6.170,0.445,-0.075
6.172,0.435,-0.070
6.174,0.345,-0.060
6.176,0.135,-0.045
6.178,0.205,-0.030
6.180,0.170,-0.015
6.182,0.215,-0.005
6.184,0.340,0.000
6.186,0.515,-0.005
6.188,0.575,-0.005
6.190,0.490,-0.010
6.192,0.435,-0.010
6.194,0.370,-0.010
6.196,0.205,-0.005
6.198,0.195,-0.005
6.200,0.260,-0.005
6.202,0.230,-0.010
6.204,0.395,-0.015
6.206,0.440,-0.020
6.208,0.450,-0.025
6.210,0.475,-0.030
6.212,0.445,-0.025
6.214,0.370,-0.015
6.216,0.235,-0.005
6.218,0.200,0.010
6.220,0.260,0.015
6.222,0.290,0.020
6.224,0.380,0.015
6.226,0.590,0.000
6.228,0.465,-0.015
6.230,0.515,-0.035
6.232,0.280,-0.045
6.234,0.255,-0.055
6.236,0.135,-0.055
6.238,0.230,-0.050
6.240,0.225,-0.040
6.242,0.280,-0.040
6.244,0.380,-0.035
6.246,0.520,-0.040
6.248,0.385,-0.050
6.250,0.455,-0.060
6.252,0.330,-0.065
6.254,0.260,-0.065
6.256,0.140,-0.060
6.258,0.140,-0.050
6.260,0.160,-0.040
6.262,0.310,-0.035
6.264,0.395,-0.030
6.266,0.565,-0.040
6.268,0.485,-0.050
6.270,0.340,-0.065
6.272,0.240,-0.075
6.274,0.235,-0.080
6.276,0.105,-0.080
6.278,0.055,-0.065
6.280,0.175,-0.050
6.282,0.385,-0.025
6.284,0.330,0.000
6.286,0.635,0.015
6.288,0.590,0.030
6.290,0.530,0.040
6.292,0.455,0.040
6.294,0.250,0.045
6.296,0.165,0.050
6.298,0.215,0.060
6.300,0.260,0.075
6.302,0.495,0.085
6.304,0.690,0.095
6.306,0.685,0.095
6.308,0.605,0.090
6.310,0.395,0.065
6.312,0.355,0.035
6.314,0.295,0.000
6.316,0.125,-0.045
6.318,0.100,-0.085
6.320,0.195,-0.120
6.322,0.185,-0.150
6.324,0.175,-0.170
6.326,0.345,-0.175
6.328,0.325,-0.175
6.330,0.310,-0.165
6.332,0.190,-0.150
6.334,0.160,-0.130
6.336,0.110,-0.105
6.338,0.065,-0.085
6.340,0.200,-0.060
6.342,0.325,-0.045
6.344,0.415,-0.030
6.346,0.520,-0.020
6.348,0.515,-0.020
6.350,0.375,-0.025
6.352,0.285,-0.030
6.354,0.245,-0.040
6.356,0.170,-0.050
6.358,0.140,-0.055
6.360,0.140,-0.060
6.362,0.230,-0.060
6.364,0.435,-0.060
6.366,0.440,-0.060
6.368,0.445,-0.055
6.370,0.385,-0.050
6.372,0.320,-0.045
6.374,0.190,-0.040
6.376,0.120,-0.030
6.378,0.165,-0.015
6.380,0.315,-0.005
6.382,0.330,0.005
6.384,0.310,0.015
6.386,0.705,0.020
6.388,0.570,0.015
6.390,0.440,0.005
6.392,0.235,-0.005
6.394,0.145,-0.020
6.396,0.185,-0.035
6.398,0.165,-0.040
6.400,0.175,-0.040
6.402,0.370,-0.035
6.404,0.440,-0.020
6.406,0.520,-0.005
6.408,0.485,0.010
6.410,0.465,0.025
6.412,0.340,0.035
6.414,0.270,0.040
6.416,0.195,0.045
6.418,0.190,0.045
6.420,0.405,0.040
6.422,0.420,0.035
6.424,0.475,0.035
6.426,0.455,0.035
6.428,0.440,0.035
6.430,0.505,0.040
6.432,0.365,0.040
6.434,0.225,0.040
6.436,0.240,0.040
6.438,0.245,0.035
6.440,0.365,0.035
6.442,0.460,0.035
6.444,0.500,0.040
6.446,0.485,0.045
6.448,0.430,0.050
6.450,0.390,0.060
6.452,0.430,0.070
6.454,0.345,0.085
6.456,0.305,0.100
6.458,0.350,0.115
6.460,0.445,0.125
6.462,0.550,0.140
6.464,0.600,0.150
6.466,0.600,0.160
6.468,0.625,0.165
6.470,0.515,0.170
6.472,0.505,0.170
6.474,0.350,0.165
6.476,0.290,0.160
6.478,0.425,0.155
6.480,0.630,0.155
6.482,0.470,0.155
6.484,0.570,0.160
6.486,0.550,0.165
6.488,0.735,0.180
6.490,0.580,0.190
6.492,0.420,0.205
6.494,0.400,0.215
6.496,0.440,0.215
6.498,0.450,0.215
6.500,0.500,0.210
6.502,0.600,0.200
6.504,0.715,0.185
6.506,0.740,0.170
6.508,0.620,0.160
6.510,0.375,0.145
6.512,0.355,0.135
6.514,0.325,0.125
6.516,0.350,0.120
6.518,0.400,0.110
6.520,0.460,0.110
6.522,0.405,0.105
6.524,0.555,0.100
6.526,0.605,0.100
6.528,0.525,0.095
6.530,0.380,0.090
6.532,0.440,0.080
6.534,0.245,0.070
6.536,0.210,0.060
6.538,0.270,0.045
6.540,0.365,0.035
6.542,0.385,0.020
6.544,0.475,0.010
6.546,0.500,0.005
6.548,0.445,0.000
6.550,0.335,0.000
6.552,0.280,0.000
6.554,0.240,0.000
6.556,0.045,0.000
6.558,0.325,0.000
6.560,0.335,-0.005
6.562,0.315,-0.005
6.564,0.455,-0.010
6.566,0.490,-0.010
6.568,0.440,-0.015
6.570,0.340,-0.015
6.572,0.165,-0.015
6.574,0.085,-0.015
6.576,0.175,-0.015
6.578,0.320,-0.015
6.580,0.345,-0.015
6.582,0.295,-0.020
6.584,0.470,-0.020
6.586,0.460,-0.020
6.588,0.340,-0.020
6.590,0.255,-0.015
6.592,0.320,-0.010
6.594,0.220,-0.005
6.596,0.195,0.000
6.598,0.150,0.000
6.600,0.280,0.000
6.602,0.420,-0.005
6.604,0.525,-0.010
6.606,0.455,-0.015
6.608,0.390,-0.020
6.610,0.270,-0.025
6.612,0.205,-0.020
6.614,0.120,-0.020
6.616,0.175,-0.015
6.618,0.255,-0.010
6.620,0.385,0.000
6.622,0.330,0.005
6.624,0.545,0.005
6.626,0.460,0.005
6.628,0.410,0.005
6.630,0.390,0.000
6.632,0.245,-0.005
6.634,0.180,-0.015
6.636,0.025,-0.015
6.638,0.180,-0.020
6.640,0.230,-0.020
6.642,0.480,-0.015
6.644,0.565,-0.005
6.646,0.505,0.005
6.648,0.485,0.010
6.650,0.250,0.015
6.652,0.240,0.015
6.654,0.085,0.015
6.656,0.165,0.005
6.658,0.300,-0.010
6.660,0.285,-0.020
6.662,0.415,-0.030
6.664,0.440,-0.035
6.666,0.405,-0.035
6.668,0.415,-0.035
6.670,0.225,-0.025
6.672,0.190,-0.020
6.674,0.175,-0.015
6.676,0.085,-0.010
6.678,0.165,-0.010
6.680,0.425,-0.010
6.682,0.405,-0.010
6.684,0.470,-0.005
6.686,0.495,0.000
6.688,0.400,0.010
6.690,0.270,0.020
6.692,0.240,0.035
6.694,0.235,0.045
6.696,0.210,0.050
6.698,0.210,0.050
6.700,0.370,0.045
6.702,0.485,0.030
6.704,0.530,0.020
6.706,0.470,0.005
6.708,0.295,0.000
6.710,0.200,0.000
6.712,0.310,0.000
6.714,0.130,0.005
6.716,0.220,0.010
6.718,0.270,0.015
6.720,0.315,0.005
6.722,0.340,-0.005
6.724,0.455,-0.020
6.726,0.415,-0.040
6.728,0.370,-0.060
6.730,0.210,-0.070
6.732,0.065,-0.075
6.734,-0.020,-0.070
6.736,0.095,-0.060
6.738,0.265,-0.045
6.740,0.350,-0.035
6.742,0.425,-0.025
6.744,0.390,-0.020
6.746,0.360,-0.025
6.748,0.255,-0.030
6.750,0.255,-0.040
6.752,0.140,-0.050
6.754,0.130,-0.055
6.756,0.190,-0.055
6.758,0.205,-0.050
6.760,0.290,-0.040
6.762,0.345,-0.030
6.764,0.425,-0.020
6.766,0.450,-0.015
6.768,0.300,-0.010
6.770,0.355,-0.010
6.772,0.125,-0.005
6.774,0.145,0.005
6.776,0.210,0.015
6.778,0.315,0.040
6.780,0.365,0.065
6.782,0.565,0.095
6.784,0.560,0.120
6.786,0.550,0.140
6.788,0.555,0.145
6.790,0.465,0.135
6.792,0.210,0.105
6.794,0.195,0.070
6.796,0.110,0.020
6.798,0.295,-0.030
6.800,0.280,-0.080
6.802,0.415,-0.125
6.804,0.185,-0.165
6.806,0.210,-0.190
6.808,0.075,-0.210
6.810,0.005,-0.215
6.812,-0.020,-0.215
6.814,-0.030,-0.210
6.816,0.025,-0.195
6.818,0.160,-0.180
6.820,0.255,-0.155
6.822,0.185,-0.130
6.824,0.245,-0.100
6.826,0.465,-0.075
6.828,0.225,-0.050
6.830,0.240,-0.035
6.832,0.095,-0.025
6.834,0.175,-0.025
6.836,0.140,-0.030
6.838,0.225,-0.040
6.840,0.255,-0.050
6.842,0.355,-0.060
6.844,0.375,-0.070
6.846,0.340,-0.070
6.848,0.315,-0.070
6.850,0.285,-0.060
6.852,0.075,-0.050
6.854,0.025,-0.035
6.856,0.095,-0.025
6.858,0.305,-0.015
6.860,0.310,-0.005
6.862,0.450,-0.005
6.864,0.445,0.000
6.866,0.365,0.000
6.868,0.285,0.000
6.870,0.285,0.000
6.872,0.135,0.000
6.874,0.070,0.000
6.876,0.180,0.000
6.878,0.270,-0.005
6.880,0.365,-0.010
6.882,0.425,-0.020
6.884,0.340,-0.030
6.886,0.360,-0.035
6.888,0.285,-0.045
6.890,0.235,-0.045
6.892,0.080,-0.045
6.894,0.040,-0.035
6.896,0.150,-0.025
6.898,0.235,-0.015
6.900,0.425,-0.005
6.902,0.485,0.000
6.904,0.395,0.000
6.906,0.315,-0.005
6.908,0.210,-0.015
6.910,0.240,-0.025
6.912,0.040,-0.035
6.914,0.125,-0.045
6.916,0.155,-0.050
6.918,0.230,-0.045
6.920,0.230,-0.040
6.922,0.430,-0.025
6.924,0.465,-0.010
6.926,0.300,0.005
6.928,0.280,0.020
6.930,0.370,0.035
6.932,0.155,0.045
6.934,0.200,0.055
6.936,0.255,0.065
6.938,0.425,0.070
6.940,0.385,0.080
6.942,0.425,0.085
6.944,0.560,0.090
6.946,0.485,0.095
6.948,0.430,0.105
6.950,0.285,0.115
6.952,0.200,0.125
6.954,0.220,0.135
6.956,0.405,0.150
6.958,0.450,0.160
6.960,0.475,0.170
6.962,0.635,0.180
6.964,0.560,0.185
6.966,0.540,0.185
6.968,0.575,0.180
6.970,0.315,0.175
6.972,0.300,0.165
6.974,0.305,0.155
6.976,0.300,0.150
6.978,0.425,0.140
6.980,0.520,0.130
6.982,0.535,0.125
6.984,0.560,0.120
6.986,0.425,0.115
6.988,0.325,0.110
6.990,0.365,0.110
6.992,0.125,0.105
6.994,0.220,0.105
6.996,0.365,0.105
6.998,0.480,0.100
7.000,0.475,0.095
7.002,0.475,0.090
7.004,0.405,0.080
7.006,0.355,0.070
7.008,0.355,0.060
7.010,0.220,0.045
7.012,0.140,0.030
7.014,0.120,0.020
7.016,0.215,0.005
7.018,0.295,-0.005
7.020,0.300,-0.010
7.022,0.430,-0.020
7.024,0.320,-0.025
7.026,0.290,-0.030
7.028,0.270,-0.030
7.030,0.200,-0.035
7.032,-0.005,-0.040
7.034,0.065,-0.040
7.036,0.175,-0.045
7.038,0.270,-0.050
7.040,0.335,-0.055
7.042,0.335,-0.060
7.044,0.235,-0.065
7.046,0.195,-0.070
7.048,0.290,-0.075
7.050,0.065,-0.080
7.052,0.080,-0.080
7.054,-0.020,-0.075
7.056,0.105,-0.075
7.058,0.290,-0.070
7.060,0.330,-0.065
7.062,0.295,-0.055
7.064,0.315,-0.055
7.066,0.215,-0.050
7.068,0.210,-0.050
7.070,0.095,-0.050
7.072,0.055,-0.050
7.074,0.085,-0.050
7.076,0.160,-0.050
7.078,0.230,-0.050
7.080,0.370,-0.050
7.082,0.365,-0.050
7.084,0.280,-0.045
7.086,0.175,-0.045
7.088,0.180,-0.045
7.090,0.045,-0.045
7.092,0.100,-0.045
7.094,0.180,-0.045
7.096,0.155,-0.045
7.098,0.255,-0.045
7.100,0.295,-0.050
7.102,0.315,-0.050
7.104,0.425,-0.055
7.106,0.215,-0.060
7.108,0.130,-0.065
7.110,-0.020,-0.065
7.112,-0.010,-0.065
7.114,0.125,-0.060
7.116,0.190,-0.050
7.118,0.305,-0.040
7.120,0.415,-0.030
7.122,0.370,-0.025
7.124,0.295,-0.025
7.126,0.185,-0.035
7.128,0.145,-0.045
7.130,-0.115,-0.060
7.132,0.150,-0.075
7.134,0.145,-0.080
7.136,0.100,-0.080
7.138,0.145,-0.075
7.140,0.310,-0.065
7.142,0.360,-0.050
7.144,0.360,-0.040
7.146,0.340,-0.030
7.148,0.170,-0.030
7.150,-0.010,-0.035
7.152,0.040,-0.040
7.154,0.080,-0.050
7.156,0.120,-0.055
7.158,0.200,-0.055
7.160,0.340,-0.050
7.162,0.285,-0.040
7.164,0.445,-0.025
7.166,0.265,-0.010
7.168,0.140,0.000
7.170,0.155,0.005
7.172,0.075,0.005
7.174,0.165,0.005
7.176,0.170,0.000
7.178,0.220,-0.010
7.180,0.410,-0.020
7.182,0.345,-0.025
7.184,0.280,-0.030
7.186,0.210,-0.035
7.188,0.220,-0.045
7.190,0.010,-0.050
7.192,0.125,-0.050
7.194,0.195,-0.055
7.196,0.055,-0.055
7.198,0.160,-0.055
7.200,0.285,-0.055
7.202,0.335,-0.055
7.204,0.450,-0.055
7.206,0.210,-0.060
7.208,0.135,-0.065
7.210,-0.035,-0.075
7.212,0.005,-0.080
7.214,-0.035,-0.090
7.216,0.120,-0.095
7.218,0.255,-0.090
7.220,0.385,-0.085
7.222,0.245,-0.080
7.224,0.260,-0.070
7.226,0.165,-0.060
7.228,0.190,-0.060
7.230,0.010,-0.065
7.232,-0.035,-0.075
7.234,0.005,-0.085
7.236,0.150,-0.100
7.238,0.205,-0.110
7.240,0.295,-0.110
7.242,0.230,-0.105
7.244,0.190,-0.095
7.246,0.205,-0.080
7.248,0.200,-0.060
7.250,0.035,-0.045
7.252,0.085,-0.030
7.254,0.130,-0.025
7.256,0.115,-0.025
7.258,0.190,-0.025
7.260,0.375,-0.020
7.262,0.315,-0.010
7.264,0.370,0.010
7.266,0.345,0.040
7.268,0.335,0.065
7.270,0.150,0.090
7.272,0.220,0.100
7.274,0.220,0.095
7.276,0.245,0.075
7.278,0.250,0.030
7.280,0.290,-0.030
7.282,0.240,-0.090
7.284,0.185,-0.150
7.286,0.060,-0.200
7.288,-0.060,-0.225
7.290,-0.205,-0.235
7.292,-0.190,-0.225
7.294,-0.095,-0.200
7.296,0.085,-0.170
7.298,0.230,-0.140
7.300,0.305,-0.120
7.302,0.300,-0.110
7.304,0.170,-0.105
7.306,0.115,-0.110
7.308,0.040,-0.115
7.310,-0.160,-0.115
7.312,-0.035,-0.115
7.314,0.105,-0.105
7.316,0.130,-0.090
7.318,0.285,-0.075
7.320,0.330,-0.060
7.322,0.305,-0.050
7.324,0.225,-0.045
7.326,0.165,-0.045
7.328,-0.040,-0.050
7.330,-0.025,-0.060
7.332,0.160,-0.065
7.334,0.100,-0.075
7.336,0.185,-0.080
7.338,0.310,-0.080
7.340,0.215,-0.085
7.342,0.275,-0.085
7.344,0.150,-0.090
7.346,0.055,-0.090
7.348,0.060,-0.090
7.350,-0.020,-0.090
7.352,0.080,-0.080
7.354,0.175,-0.070
7.356,0.105,-0.055
7.358,0.150,-0.040
7.360,0.445,-0.025
7.362,0.335,-0.020
7.364,0.215,-0.020
7.366,0.105,-0.025
7.368,0.120,-0.035
7.370,-0.020,-0.045
7.372,0.160,-0.055
7.374,-0.015,-0.060
7.376,0.170,-0.060
7.378,0.370,-0.055
7.380,0.355,-0.045
7.382,0.270,-0.035
7.384,0.195,-0.025
7.386,0.205,-0.020
7.388,0.020,-0.020
7.390,0.005,-0.025
7.392,0.055,-0.030
7.394,0.195,-0.030
7.396,0.250,-0.025
7.398,0.335,-0.020
7.400,0.385,-0.005
7.402,0.370,0.010
7.404,0.275,0.020
7.406,0.205,0.030
7.408,0.070,0.035
7.410,0.080,0.035
7.412,0.120,0.030
7.414,0.145,0.025
7.416,0.330,0.020
7.418,0.390,0.020
7.420,0.430,0.025
7.422,0.350,0.035
7.424,0.195,0.045
7.426,0.270,0.060
7.428,0.120,0.070
7.430,0.115,0.080
7.432,0.145,0.085
7.434,0.370,0.085
7.436,0.315,0.085
7.438,0.475,0.090
7.440,0.465,0.095
7.442,0.425,0.105
7.444,0.335,0.120
7.446,0.310,0.135
7.448,0.180,0.150
7.450,0.240,0.165
7.452,0.330,0.175
7.454,0.405,0.180
7.456,0.440,0.180
7.458,0.505,0.185
7.460,0.480,0.185
7.462,0.450,0.185
7.464,0.490,0.190
7.466,0.380,0.190
7.468,0.270,0.195
7.470,0.210,0.190
7.472,0.320,0.185
7.474,0.295,0.170
7.476,0.380,0.150
7.478,0.485,0.125
7.480,0.480,0.100
7.482,0.465,0.080
7.484,0.245,0.065
7.486,0.140,0.055
7.488,0.035,0.050
7.490,0.175,0.050
7.492,0.210,0.055
7.494,0.250,0.055
7.496,0.275,0.055
7.498,0.350,0.050
7.500,0.415,0.040
7.502,0.345,0.025
7.504,0.220,0.010
7.506,0.055,-0.005
7.508,0.100,-0.020
7.510,0.015,-0.035
7.512,0.060,-0.045
7.514,0.145,-0.055
7.516,0.165,-0.060
7.518,0.255,-0.065
7.520,0.340,-0.065
7.522,0.280,-0.060
7.524,0.075,-0.060
7.526,0.055,-0.050
7.528,0.130,-0.045
7.530,-0.005,-0.040
7.532,0.085,-0.035
7.534,0.110,-0.030
7.536,0.260,-0.030
7.538,0.330,-0.035
7.540,0.255,-0.035
7.542,0.190,-0.040
7.544,0.295,-0.035
7.546,0.080,-0.035
7.548,-0.065,-0.030
7.550,0.030,-0.020
7.552,0.150,-0.015
7.554,0.225,-0.005
7.556,0.260,-0.005
7.558,0.350,-0.005
7.560,0.300,-0.015
7.562,0.305,-0.020
7.564,0.130,-0.030
7.566,0.135,-0.040
7.568,-0.055,-0.045
7.570,0.070,-0.045
7.572,0.030,-0.045
7.574,0.180,-0.040
7.576,0.225,-0.035
7.578,0.290,-0.035
7.580,0.380,-0.035
7.582,0.335,-0.035
7.584,0.080,-0.040
7.586,0.025,-0.040
7.588,0.050,-0.040
7.590,-0.025,-0.040
7.592,0.115,-0.040
7.594,0.175,-0.035
7.596,0.260,-0.030
7.598,0.350,-0.025
7.600,0.335,-0.025
7.602,0.245,-0.025
7.604,0.125,-0.030
7.606,-0.040,-0.035
7.608,0.015,-0.035
7.610,0.060,-0.040
7.612,0.245,-0.035
7.614,0.105,-0.030
7.616,0.265,-0.025
7.618,0.260,-0.010
7.620,0.465,0.000
7.622,0.285,0.010
7.624,0.180,0.020
7.626,0.040,0.025
7.628,0.135,0.025
7.630,0.025,0.020
7.632,0.170,0.015
7.634,0.270,0.010
7.636,0.265,0.005
7.638,0.290,-0.005
7.640,0.410,-0.010
7.642,0.240,-0.020
7.644,0.125,-0.020
7.646,-0.045,-0.025
7.648,0.030,-0.020
7.650,0.055,-0.015
7.652,0.175,-0.005
7.654,0.215,0.000
7.656,0.330,0.010
7.658,0.430,0.015
7.660,0.335,0.015
7.662,0.290,0.015
7.664,0.265,0.005
7.666,-0.005,-0.010
7.668,-0.020,-0.020
7.670,0.025,-0.030
7.672,0.175,-0.030
7.674,0.215,-0.025
7.676,0.305,-0.015
7.678,0.290,0.005
7.680,0.410,0.025
7.682,0.290,0.045
7.684,0.285,0.060
7.686,0.095,0.065
7.688,0.125,0.060
7.690,0.075,0.045
7.692,0.090,0.025
7.694,0.190,0.005
7.696,0.455,-0.020
7.698,0.265,-0.035
7.700,0.335,-0.045
7.702,0.140,-0.045
7.704,0.160,-0.040
7.706,-0.055,-0.035
7.708,0.035,-0.025
7.710,0.070,-0.020
7.712,0.155,-0.015
7.714,0.185,-0.010
7.716,0.350,-0.015
7.718,0.405,-0.015
7.720,0.330,-0.020
7.722,0.095,-0.020
7.724,0.135,-0.020
7.726,-0.005,-0.020
7.728,0.140,-0.020
7.730,0.035,-0.015
7.732,0.075,-0.015
7.734,0.240,-0.015
7.736,0.320,-0.020
7.738,0.305,-0.025
7.740,0.285,-0.035
7.742,0.065,-0.040
7.744,0.265,-0.045
7.746,0.025,-0.040
7.748,0.015,-0.030
7.750,0.055,-0.010
7.752,0.245,0.015
7.754,0.100,0.050
7.756,0.530,0.085
7.758,0.450,0.120
7.760,0.510,0.145
7.762,0.335,0.160
7.764,0.385,0.165
7.766,0.240,0.150
7.768,0.185,0.125
7.770,0.115,0.090
7.772,0.145,0.050
7.774,0.225,0.010
7.776,0.240,-0.030
7.778,0.290,-0.065
7.780,0.250,-0.090
7.782,0.170,-0.110
7.784,0.055,-0.125
7.786,-0.175,-0.130
7.788,-0.130,-0.135
7.790,-0.045,-0.135
7.792,-0.015,-0.130
7.794,0.190,-0.120
7.796,0.235,-0.110
7.798,0.300,-0.090
7.800,0.190,-0.075
7.802,0.135,-0.055
7.804,0.205,-0.035
7.806,0.010,-0.020
7.808,0.000,-0.015
7.810,0.135,-0.010
7.812,0.180,-0.010
7.814,0.210,-0.015
7.816,0.290,-0.020
7.818,0.250,-0.020
7.820,0.305,-0.025
7.822,0.315,-0.020
7.824,0.140,-0.015
7.826,-0.030,-0.010
7.828,0.050,0.000
7.830,0.050,0.010
7.832,0.195,0.015
7.834,0.300,0.020
7.836,0.375,0.020
7.838,0.425,0.020
7.840,0.310,0.015
7.842,0.180,0.015
7.844,0.175,0.010
7.846,-0.005,0.005
7.848,0.005,0.000
7.850,0.090,-0.005
7.852,0.330,-0.005
7.854,0.240,-0.005
7.856,0.350,0.000
7.858,0.340,0.005
7.860,0.230,0.010
7.862,0.215,0.020
7.864,0.160,0.030
7.866,0.170,0.035
7.868,0.070,0.040
7.870,0.125,0.040
7.872,0.235,0.040
7.874,0.285,0.035
7.876,0.390,0.025
7.878,0.385,0.015
7.880,0.255,0.005
7.882,0.190,0.000
7.884,0.035,-0.005
7.886,0.075,0.000
7.888,0.070,0.005
7.890,0.195,0.010
7.892,0.170,0.025
7.894,0.355,0.035
7.896,0.325,0.045
7.898,0.305,0.055
7.900,0.410,0.065
7.902,0.365,0.070
7.904,0.190,0.075
7.906,0.065,0.080
7.908,0.120,0.085
7.910,0.195,0.090
7.912,0.290,0.090
7.914,0.500,0.095
7.916,0.460,0.105
7.918,0.505,0.110
7.920,0.295,0.110
7.922,0.310,0.115
7.924,0.190,0.120
7.926,0.155,0.120
7.928,0.205,0.125
7.930,0.250,0.130
7.932,0.300,0.135
7.934,0.445,0.145
7.936,0.555,0.155
7.938,0.555,0.165
7.940,0.505,0.180
7.942,0.445,0.195
7.944,0.270,0.205
7.946,0.135,0.210
7.948,0.260,0.215
7.950,0.325,0.210
7.952,0.420,0.205
7.954,0.510,0.200
7.956,0.640,0.190
7.958,0.465,0.185
7.960,0.475,0.185
7.962,0.345,0.185
7.964,0.270,0.190
7.966,0.290,0.200
7.968,0.235,0.205
7.970,0.405,0.205
7.972,0.335,0.200
7.974,0.385,0.190
7.976,0.600,0.180
7.978,0.590,0.165
7.980,0.350,0.145
7.982,0.350,0.135
7.984,0.190,0.125
7.986,0.130,0.120
7.988,0.110,0.120
7.990,0.290,0.115
7.992,0.260,0.105
7.994,0.340,0.095
7.996,0.555,0.080
7.998,0.430,0.060
8.000,0.270,0.040
8.002,0.160,0.025
8.004,0.080,0.015
8.006,0.075,0.010
8.008,0.075,0.015
8.010,0.100,0.025
8.012,0.165,0.035
8.014,0.430,0.045
8.016,0.445,0.045
8.018,0.340,0.035
8.020,0.275,0.025
8.022,0.200,0.005
8.024,0.030,-0.010
8.026,0.025,-0.025
8.028,0.090,-0.025
8.030,0.165,-0.020
8.032,0.080,-0.010
8.034,0.385,0.000
8.036,0.390,0.015
8.038,0.390,0.020
8.040,0.255,0.020
8.042,0.100,0.015
8.044,0.105,0.005
8.046,0.035,-0.005
8.048,0.015,-0.015
8.050,0.135,-0.020
8.052,0.235,-0.015
8.054,0.365,-0.005
8.056,0.395,0.005
8.058,0.340,0.015
8.060,0.250,0.025
8.062,0.190,0.025
8.064,0.005,0.020
8.066,0.125,0.010
8.068,0.120,0.000
8.070,0.080,-0.005
8.072,0.240,-0.005
8.074,0.270,0.000
8.076,0.400,0.010
8.078,0.395,0.020
8.080,0.280,0.035
8.082,0.215,0.040
8.084,0.050,0.040
8.086,0.095,0.035
8.088,0.180,0.025
8.090,0.195,0.010
8.092,0.190,0.000
8.094,0.315,-0.005
8.096,0.320,-0.005
8.098,0.255,0.000
8.100,0.150,0.010
8.102,0.240,0.020
8.104,0.125,0.030
8.106,0.075,0.040
8.108,0.245,0.035
8.110,0.200,0.030
8.112,0.215,0.020
8.114,0.270,0.005
8.116,0.215,-0.005
8.118,0.300,-0.010
8.120,0.270,-0.015
8.122,0.225,-0.015
8.124,0.115,-0.010
8.126,0.050,-0.010
8.128,0.095,-0.005
8.130,0.170,-0.005
8.132,0.180,-0.005
8.134,0.315,-0.010
8.136,0.270,-0.005
8.138,0.240,-0.005
8.140,0.360,0.005
8.142,0.190,0.015
8.144,0.075,0.025
8.146,0.035,0.035
8.148,0.070,0.040
8.150,0.310,0.040
8.152,0.335,0.040
8.154,0.385,0.030
8.156,0.315,0.020
8.158,0.245,0.015
8.160,0.175,0.010
8.162,0.175,0.010
8.164,0.125,0.015
8.166,0.100,0.025
8.168,0.120,0.040
8.170,0.245,0.050
8.172,0.315,0.060
8.174,0.400,0.070
8.176,0.410,0.070
8.178,0.350,0.070
8.180,0.300,0.065
8.182,0.200,0.060
8.184,0.085,0.050
8.186,0.095,0.035
8.188,0.190,0.025
8.190,0.180,0.010
8.192,0.235,-0.005
8.194,0.420,-0.020
8.196,0.285,-0.035
8.198,0.150,-0.040
8.200,0.175,-0.045
8.202,0.080,-0.040
8.204,-0.055,-0.030
8.206,0.000,-0.015
8.208,0.280,0.000
8.210,0.300,0.015
8.212,0.240,0.020
8.214,0.375,0.025
8.216,0.365,0.015
8.218,0.225,0.005
8.220,0.180,-0.015
8.222,0.040,-0.030
8.224,0.000,-0.045
8.226,0.080,-0.055
8.228,0.050,-0.060
8.230,0.095,-0.055
8.232,0.310,-0.045
8.234,0.370,-0.035
8.236,0.290,-0.025
8.238,0.255,-0.015
8.240,0.210,-0.005
8.242,0.080,0.005
8.244,0.025,0.010
8.246,0.140,0.015
8.248,0.205,0.015
8.250,0.200,0.020
8.252,0.380,0.025
8.254,0.340,0.030
8.256,0.335,0.040
8.258,0.290,0.045
8.260,0.290,0.055
8.262,0.155,0.065
8.264,0.200,0.075
8.266,0.280,0.080
8.268,0.140,0.075
8.270,0.245,0.065
8.272,0.430,0.040
8.274,0.315,0.015
8.276,0.355,-0.020
8.278,0.180,-0.060
8.280,0.140,-0.095
8.282,-0.055,-0.120
8.284,-0.105,-0.140
8.286,-0.095,-0.150
8.288,0.015,-0.150
8.290,0.015,-0.145
8.292,0.220,-0.130
8.294,0.310,-0.115
8.296,0.230,-0.100
8.298,0.205,-0.085
8.300,0.165,-0.075
8.302,-0.045,-0.065
8.304,0.030,-0.060
8.306,0.055,-0.050
8.308,0.065,-0.045
8.310,0.175,-0.035
8.312,0.290,-0.030
8.314,0.400,-0.025
8.316,0.400,-0.025
8.318,0.345,-0.025
8.320,0.135,-0.030
8.322,-0.050,-0.030
8.324,-0.035,-0.035
8.326,0.070,-0.040
8.328,0.065,-0.035
8.330,0.225,-0.035
8.332,0.330,-0.030
8.334,0.375,-0.020
8.336,0.415,-0.015
8.338,0.230,-0.010
8.340,0.155,-0.010
8.342,0.050,-0.010
8.344,0.020,-0.015
8.346,0.035,-0.020
8.348,0.180,-0.020
8.350,0.160,-0.025
8.352,0.435,-0.025
8.354,0.320,-0.020
8.356,0.360,-0.015
8.358,0.240,-0.005
8.360,0.165,0.000
8.362,0.020,0.005
8.364,0.065,0.005
8.366,0.085,0.005
8.368,0.195,0.005
8.370,0.240,0.000
8.372,0.380,-0.005
8.374,0.350,-0.005
8.376,0.370,-0.005
8.378,0.195,0.000
8.380,0.190,0.010
8.382,0.080,0.015
8.384,0.110,0.025
8.386,0.065,0.030
8.388,0.190,0.030
8.390,0.355,0.025
8.392,0.350,0.020
8.394,0.370,0.010
8.396,0.410,0.000
8.398,0.155,0.000
8.400,0.135,0.000
8.402,0.090,0.005
8.404,0.110,0.015
8.406,0.180,0.025
8.408,0.225,0.040
8.410,0.320,0.055
8.412,0.380,0.065
8.414,0.435,0.075
8.416,0.385,0.080
8.418,0.295,0.085
8.420,0.310,0.090
8.422,0.130,0.090
8.424,0.140,0.090
8.426,0.235,0.095
8.428,0.315,0.100
8.430,0.250,0.105
8.432,0.555,0.110
8.434,0.580,0.120
8.436,0.355,0.125
8.438,0.385,0.135
8.440,0.330,0.145
8.442,0.200,0.155
8.444,0.135,0.165
8.446,0.330,0.175
8.448,0.375,0.180
8.450,0.480,0.185
8.452,0.605,0.190
8.454,0.570,0.190
8.456,0.460,0.195
8.458,0.410,0.190
8.460,0.380,0.190
8.462,0.235,0.185
8.464,0.185,0.180
8.466,0.350,0.170
8.468,0.320,0.160
8.470,0.440,0.150
8.472,0.500,0.135
8.474,0.480,0.120
8.476,0.395,0.105
8.478,0.340,0.095
8.480,0.205,0.080
8.482,0.125,0.070
8.484,-0.005,0.065
8.486,0.225,0.060
8.488,0.350,0.050
8.490,0.320,0.045
8.492,0.400,0.035
8.494,0.405,0.020
8.496,0.325,0.010
8.498,0.225,-0.010
8.500,0.125,-0.025
8.502,-0.060,-0.045
8.504,-0.055,-0.055
8.506,0.055,-0.070
8.508,0.260,-0.075
8.510,0.215,-0.075
8.512,0.440,-0.065
8.514,0.300,-0.055
8.516,0.205,-0.040
8.518,0.020,-0.020
8.520,-0.090,0.000
8.522,0.200,0.015
8.524,0.190,0.030
8.526,0.185,0.035
8.528,0.265,0.030
8.530,0.340,0.025
8.532,0.405,0.010
8.534,0.370,-0.005
8.536,0.195,-0.025
8.538,0.085,-0.040
8.540,-0.055,-0.050
8.542,0.040,-0.055
8.544,0.095,-0.055
8.546,0.120,-0.050
8.548,0.205,-0.040
8.550,0.335,-0.025
8.552,0.310,-0.015
8.554,0.390,-0.005
8.556,0.245,0.000
8.558,0.170,0.000
8.560,0.075,-0.010
8.562,0.010,-0.020
8.564,0.020,-0.035
8.566,0.145,-0.045
8.568,0.175,-0.055
8.570,0.355,-0.055
8.572,0.225,-0.045
8.574,0.370,-0.035
8.576,0.320,-0.020
8.578,0.240,-0.005
8.580,0.005,0.005
8.582,-0.070,0.005
8.584,0.245,-0.005
8.586,0.165,-0.020
8.588,0.105,-0.040
8.590,0.335,-0.055
8.592,0.255,-0.060
8.594,0.285,-0.060
8.596,0.185,-0.050
8.598,0.180,-0.030
8.600,0.110,-0.010
8.602,0.185,0.005
8.604,0.155,0.015
8.606,0.080,0.010
8.608,0.250,-0.005
8.610,0.195,-0.025
8.612,0.330,-0.045
8.614,0.270,-0.065
8.616,0.260,-0.075
8.618,0.125,-0.075
8.620,0.090,-0.065
8.622,0.000,-0.045
8.624,0.030,-0.030
8.626,0.075,-0.015
8.628,0.215,-0.010
8.630,0.425,-0.015
8.632,0.350,-0.020
8.634,0.340,-0.030
8.636,0.190,-0.035
8.638,0.110,-0.035
8.640,0.020,-0.035
8.642,0.115,-0.025
8.644,0.105,-0.015
8.646,0.240,-0.010
8.648,0.175,-0.010
8.650,0.280,-0.015
8.652,0.375,-0.030
8.654,0.295,-0.040
8.656,0.200,-0.050
8.658,0.200,-0.055
8.660,-0.040,-0.050
8.662,-0.020,-0.040
8.664,0.135,-0.020
8.666,0.155,0.000
8.668,0.185,0.015
8.670,0.495,0.025
8.672,0.400,0.025
8.674,0.280,0.015
8.676,0.340,0.005
8.678,0.180,-0.010
8.680,-0.100,-0.020
8.682,0.040,-0.030
8.684,0.140,-0.035
8.686,0.145,-0.035
8.688,0.295,-0.030
8.690,0.325,-0.030
8.692,0.320,-0.035
8.694,0.145,-0.040
8.696,0.235,-0.050
8.698,0.200,-0.060
8.700,-0.070,-0.065
8.702,0.085,-0.070
8.704,0.065,-0.065
8.706,0.080,-0.060
8.708,0.155,-0.050
8.710,0.325,-0.045
8.712,0.380,-0.035
8.714,0.330,-0.035
8.716,0.200,-0.035
8.718,0.130,-0.045
8.720,-0.035,-0.050
8.722,0.065,-0.060
8.724,0.105,-0.065
8.726,0.070,-0.070
8.728,0.095,-0.070
8.730,0.330,-0.070
8.732,0.295,-0.070
8.734,0.265,-0.065
8.736,0.165,-0.065
8.738,0.135,-0.065
8.740,-0.035,-0.065
8.742,0.055,-0.065
8.744,0.005,-0.065
8.746,0.120,-0.065
8.748,0.175,-0.065
8.750,0.340,-0.065
8.752,0.370,-0.060
8.754,0.290,-0.055
8.756,0.160,-0.045
8.758,0.115,-0.025
8.760,0.005,-0.005
8.762,0.075,0.020
8.764,0.150,0.050
8.766,0.330,0.075
8.768,0.395,0.095
8.770,0.615,0.100
8.772,0.510,0.100
8.774,0.360,0.080
8.776,0.180,0.055
8.778,0.060,0.015
8.780,-0.020,-0.025
8.782,0.005,-0.065
8.784,0.140,-0.105
8.786,0.160,-0.135
8.788,0.035,-0.160
8.790,0.250,-0.180
8.792,0.165,-0.190
8.794,0.020,-0.200
8.796,0.095,-0.200
8.798,-0.190,-0.200
8.800,-0.145,-0.190
8.802,-0.080,-0.170
8.804,0.070,-0.145
8.806,0.085,-0.115
8.808,0.240,-0.080
8.810,0.425,-0.045
8.812,0.370,-0.020
8.814,0.255,-0.005
8.816,0.200,0.000
8.818,0.075,-0.010
8.820,-0.040,-0.025
8.822,0.025,-0.045
8.824,0.070,-0.065
8.826,0.170,-0.080
8.828,0.235,-0.085
8.830,0.325,-0.080
8.832,0.355,-0.070
8.834,0.275,-0.055
8.836,0.105,-0.045
8.838,0.055,-0.040
8.840,0.005,-0.040
8.842,0.010,-0.050
8.844,0.030,-0.060
8.846,0.140,-0.070
8.848,0.265,-0.080
8.850,0.360,-0.080
8.852,0.280,-0.080
8.854,0.180,-0.070
8.856,0.230,-0.055
8.858,0.050,-0.045
8.860,-0.080,-0.030
8.862,0.110,-0.025
8.864,0.075,-0.020
8.866,0.205,-0.020
8.868,0.240,-0.025
8.870,0.495,-0.025
8.872,0.385,-0.025
8.874,0.300,-0.020
8.876,0.150,-0.020
8.878,-0.015,-0.015
8.880,0.055,-0.015
8.882,0.035,-0.020
8.884,0.110,-0.025
8.886,0.180,-0.035
8.888,0.280,-0.040
8.890,0.325,-0.050
8.892,0.265,-0.055
8.894,0.250,-0.055
8.896,0.225,-0.050
8.898,0.065,-0.045
8.900,0.035,-0.035
8.902,0.025,-0.025
8.904,0.120,-0.015
8.906,0.215,-0.005
8.908,0.405,0.005
8.910,0.355,0.015
8.912,0.290,0.030
8.914,0.360,0.040
8.916,0.330,0.050
8.918,0.175,0.050
8.920,0.110,0.050
8.922,0.080,0.045
8.924,0.200,0.030
8.926,0.225,0.020
8.928,0.365,0.005
8.930,0.360,0.000
8.932,0.230,0.005
8.934,0.395,0.020
8.936,0.225,0.045
8.938,0.215,0.075
8.940,0.215,0.105
8.942,0.270,0.130
8.944,0.340,0.150
8.946,0.305,0.160
8.948,0.525,0.165
8.950,0.540,0.160
8.952,0.530,0.150
8.954,0.470,0.145
8.956,0.400,0.145
8.958,0.205,0.145
8.960,0.130,0.150
8.962,0.235,0.155
8.964,0.365,0.160
8.966,0.430,0.160
8.968,0.480,0.150
8.970,0.550,0.145
8.972,0.495,0.130
8.974,0.305,0.120
8.976,0.375,0.110
8.978,0.130,0.100
8.980,0.215,0.095
8.982,0.035,0.085
8.984,0.340,0.075
8.986,0.335,0.065
8.988,0.470,0.045
8.990,0.440,0.025
8.992,0.290,0.005
8.994,0.235,-0.010
8.996,0.105,-0.020
8.998,-0.110,-0.020
9.000,0.095,-0.015
9.002,0.250,-0.005
9.004,0.255,0.005
9.006,0.265,0.010
9.008,0.305,0.010
9.010,0.350,-0.005
9.012,0.295,-0.020
9.014,0.145,-0.045
9.016,0.150,-0.070
9.018,0.005,-0.090
9.020,0.010,-0.105
9.022,-0.005,-0.110
9.024,0.015,-0.110
9.026,0.170,-0.105
9.028,0.195,-0.095
9.030,0.330,-0.090
9.032,0.280,-0.080
9.034,0.160,-0.075
9.036,0.155,-0.075
9.038,-0.045,-0.070
9.040,-0.115,-0.065
9.042,0.110,-0.060
9.044,0.170,-0.055
9.046,0.205,-0.050
9.048,0.335,-0.050
9.050,0.290,-0.050
9.052,0.220,-0.055
9.054,0.240,-0.055
9.056,0.150,-0.060
9.058,-0.050,-0.065
9.060,0.020,-0.065
9.062,-0.010,-0.065
9.064,0.205,-0.060
9.066,0.225,-0.055
9.068,0.280,-0.050
9.070,0.220,-0.050
9.072,0.285,-0.055
9.074,0.295,-0.065
9.076,0.155,-0.075
9.078,-0.010,-0.080
9.080,-0.200,-0.090
9.082,0.030,-0.090
9.084,0.145,-0.085
9.086,0.255,-0.075
9.088,0.360,-0.065
9.090,0.345,-0.055
9.092,0.270,-0.045
9.094,0.140,-0.040
9.096,0.085,-0.040
9.098,0.065,-0.045
9.100,-0.045,-0.055
9.102,0.140,-0.065
9.104,0.120,-0.080
9.106,0.180,-0.090
9.108,0.275,-0.100
9.110,0.290,-0.105
9.112,0.210,-0.105
9.114,0.130,-0.110
9.116,0.085,-0.105
9.118,-0.015,-0.105
9.120,-0.070,-0.100
9.122,-0.110,-0.100
9.124,0.120,-0.090
9.126,0.205,-0.085
9.128,0.445,-0.080
9.130,0.270,-0.070
9.132,0.160,-0.060
9.134,0.300,-0.050
9.136,0.050,-0.045
9.138,-0.070,-0.045
9.140,0.085,-0.045
9.142,0.080,-0.050
9.144,0.085,-0.060
9.146,0.260,-0.070
9.148,0.385,-0.075
9.150,0.275,-0.080
9.152,0.210,-0.075
9.154,0.155,-0.065
9.156,0.010,-0.055
9.158,0.095,-0.040
9.160,0.015,-0.030
9.162,0.070,-0.025
9.164,0.270,-0.025
9.166,0.410,-0.025
9.168,0.320,-0.035
9.170,0.270,-0.045
9.172,0.210,-0.050
9.174,0.105,-0.055
9.176,0.020,-0.055
9.178,0.060,-0.050
9.180,0.100,-0.045
9.182,0.130,-0.045
9.184,0.200,-0.045
9.186,0.215,-0.055
9.188,0.370,-0.065
9.190,0.185,-0.075
9.192,0.160,-0.085
9.194,0.230,-0.090
9.196,0.025,-0.085
9.198,-0.010,-0.075
9.200,0.045,-0.060
9.202,0.145,-0.045
9.204,0.145,-0.035
9.206,0.350,-0.030
9.208,0.355,-0.030
9.210,0.340,-0.040
9.212,0.215,-0.055
9.214,0.005,-0.070
9.216,-0.030,-0.085
9.218,-0.030,-0.095
9.220,0.080,-0.100
9.222,0.135,-0.095
9.224,0.145,-0.090
9.226,0.300,-0.080
9.228,0.320,-0.075
9.230,0.295,-0.075
9.232,0.130,-0.080
9.234,0.065,-0.090
9.236,-0.050,-0.105
9.238,-0.025,-0.115
9.240,-0.020,-0.125
9.242,0.125,-0.130
9.244,0.100,-0.135
9.246,0.230,-0.130
9.248,0.270,-0.120
9.250,0.185,-0.110
9.252,0.180,-0.090
9.254,0.025,-0.070
9.256,0.095,-0.050
9.258,0.050,-0.030
9.260,0.165,-0.005
9.262,0.225,0.015
9.264,0.100,0.030
9.266,0.435,0.045
9.268,0.470,0.060
9.270,0.465,0.065
9.272,0.335,0.070
9.274,0.295,0.070
9.276,0.250,0.065
9.278,0.125,0.060
9.280,0.075,0.045
9.282,0.055,0.030
9.284,0.180,0.000
9.286,0.475,-0.035
9.288,0.370,-0.075
9.290,0.260,-0.120
9.292,0.070,-0.165
9.294,-0.110,-0.205
9.296,-0.225,-0.235
9.298,-0.235,-0.250
9.300,-0.135,-0.255
9.302,0.065,-0.240
9.304,-0.040,-0.220
9.306,0.200,-0.195
9.308,0.180,-0.165
9.310,0.215,-0.140
9.312,0.170,-0.120
9.314,0.145,-0.105
9.316,-0.030,-0.095
9.318,-0.020,-0.095
9.320,0.035,-0.090
9.322,0.000,-0.090
9.324,0.225,-0.090
9.326,0.275,-0.085
9.328,0.245,-0.085
9.330,0.205,-0.080
9.332,0.170,-0.075
9.334,0.160,-0.070
9.336,0.015,-0.065
9.338,0.075,-0.055
9.340,0.065,-0.050
9.342,0.150,-0.040
9.344,0.145,-0.035
9.346,0.360,-0.030
9.348,0.320,-0.030
9.350,0.260,-0.035
9.352,0.155,-0.040
9.354,0.145,-0.050
9.356,0.065,-0.055
9.358,0.000,-0.060
9.360,0.040,-0.065
9.362,0.155,-0.060
9.364,0.200,-0.050
9.366,0.340,-0.040
9.368,0.375,-0.025
9.370,0.285,-0.020
9.372,0.195,-0.015
9.374,0.100,-0.015
9.376,0.035,-0.020
9.378,0.030,-0.025
9.380,0.105,-0.035
9.382,0.230,-0.040
9.384,0.325,-0.045
9.386,0.265,-0.040
9.388,0.190,-0.035
9.390,0.335,-0.025
9.392,0.135,-0.010
9.394,0.265,0.000
9.396,0.060,0.005
9.398,-0.015,0.010
9.400,0.170,0.015
9.402,0.260,0.015
9.404,0.300,0.015
9.406,0.390,0.015
9.408,0.370,0.020
9.410,0.280,0.020
9.412,0.205,0.025
9.414,0.200,0.025
9.416,0.130,0.030
9.418,0.080,0.030
9.420,0.195,0.030
9.422,0.200,0.030
9.424,0.290,0.035
9.426,0.445,0.040
9.428,0.490,0.050
9.430,0.365,0.065
9.432,0.285,0.075
9.434,0.170,0.090
9.436,0.185,0.105
9.438,0.180,0.115
9.440,0.175,0.125
9.442,0.340,0.130
9.444,0.480,0.140
9.446,0.635,0.150
9.448,0.555,0.160
9.450,0.415,0.170
9.452,0.335,0.185
9.454,0.350,0.190
9.456,0.250,0.195
9.458,0.260,0.195
9.460,0.255,0.190
9.462,0.490,0.180
9.464,0.520,0.175
9.466,0.455,0.170
9.468,0.560,0.165
9.470,0.420,0.165
9.472,0.390,0.170
9.474,0.235,0.175
9.476,0.230,0.180
9.478,0.310,0.175
9.480,0.370,0.170
9.482,0.425,0.155
9.484,0.320,0.135
9.486,0.535,0.115
9.488,0.300,0.090
9.490,0.400,0.070
9.492,0.255,0.060
9.494,0.170,0.050
9.496,0.140,0.045
9.498,0.170,0.045
9.500,0.275,0.045
9.502,0.290,0.045
9.504,0.370,0.045
9.506,0.280,0.040
9.508,0.345,0.030
9.510,0.230,0.020
9.512,0.260,0.015
9.514,0.135,0.010
9.516,0.090,0.005
9.518,0.075,0.005
9.520,0.145,0.010
9.522,0.215,0.010
9.524,0.345,0.015
9.526,0.350,0.015
9.528,0.365,0.015
9.530,0.275,0.005
9.532,0.185,-0.005
9.534,0.040,-0.015
9.536,0.050,-0.025
9.538,0.015,-0.035
9.540,0.115,-0.045
9.542,0.175,-0.045
9.544,0.305,-0.040
9.546,0.330,-0.030
9.548,0.305,-0.020
9.550,0.270,-0.010
9.552,0.165,0.000
9.554,0.020,0.005
9.556,0.065,0.000
9.558,0.075,-0.010
9.560,0.115,-0.020
9.562,0.235,-0.035
9.564,0.335,-0.045
9.566,0.425,-0.050
9.568,0.175,-0.045
9.570,0.255,-0.040
9.572,0.045,-0.030
9.574,0.060,-0.015
9.576,0.155,-0.005
9.578,0.050,0.000
9.580,0.155,0.000
9.582,0.215,-0.005
9.584,0.355,-0.015
9.586,0.375,-0.025
9.588,0.240,-0.030
9.590,0.170,-0.035
9.592,0.175,-0.035
9.594,0.045,-0.025
9.596,0.050,-0.020
9.598,0.045,-0.015
9.600,0.160,-0.010
9.602,0.250,-0.005
9.604,0.325,-0.005
9.606,0.260,-0.010
9.608,0.310,-0.010
9.610,0.280,-0.005
9.612,0.250,-0.005
9.614,0.095,0.005
9.616,0.005,0.005
9.618,0.040,0.010
9.620,0.195,0.005
9.622,0.240,-0.005
9.624,0.345,-0.015
9.626,0.395,-0.030
9.628,0.245,-0.035
9.630,0.215,-0.035
9.632,0.170,-0.030
9.634,-0.045,-0.010
9.636,0.030,0.015
9.638,0.175,0.045
9.640,0.350,0.070
9.642,0.425,0.085
9.644,0.320,0.095
9.646,0.310,0.090
9.648,0.435,0.075
9.650,0.350,0.055
9.652,0.155,0.035
9.654,0.045,0.010
9.656,0.020,-0.005
9.658,0.095,-0.015
9.660,0.170,-0.015
9.662,0.240,-0.015
9.664,0.315,-0.005
9.666,0.390,0.000
9.668,0.285,0.010
9.670,0.265,0.015
9.672,0.185,0.020
9.674,0.015,0.025
9.676,0.105,0.025
9.678,0.210,0.025
9.680,0.215,0.020
9.682,0.160,0.015
9.684,0.375,0.010
9.686,0.325,0.000
9.688,0.210,-0.005
9.690,0.240,-0.010
9.692,0.180,-0.010
9.694,0.080,-0.010
9.696,0.055,0.000
9.698,0.080,0.010
9.700,0.245,0.020
9.702,0.165,0.025
9.704,0.370,0.030
9.706,0.450,0.025
9.708,0.305,0.015
9.710,0.240,0.005
9.712,0.195,-0.005
9.714,0.005,-0.020
9.716,-0.140,-0.025
9.718,0.055,-0.030
9.720,0.205,-0.030
9.722,0.205,-0.030
9.724,0.355,-0.025
9.726,0.400,-0.020
9.728,0.280,-0.015
9.730,0.170,-0.015
9.732,0.155,-0.010
9.734,-0.050,-0.005
9.736,0.015,0.005
9.738,0.070,0.010
9.740,0.250,0.010
9.742,0.345,0.015
9.744,0.335,0.015
9.746,0.425,0.015
9.748,0.300,0.015
9.750,0.195,0.020
9.752,0.050,0.030
9.754,-0.010,0.045
9.756,0.080,0.070
9.758,0.170,0.100
9.760,0.355,0.135
9.762,0.650,0.165
9.764,0.605,0.185
9.766,0.565,0.195
9.768,0.470,0.190
9.770,0.295,0.170
9.772,0.150,0.130
9.774,-0.060,0.085
9.776,0.060,0.030
9.778,0.200,-0.025
9.780,0.160,-0.070
9.782,0.215,-0.115
9.784,0.330,-0.145
9.786,0.100,-0.165
9.788,-0.040,-0.170
9.790,-0.040,-0.170
9.792,-0.090,-0.160
9.794,-0.085,-0.145
9.796,-0.055,-0.120
9.798,0.015,-0.095
9.800,0.045,-0.065
9.802,0.290,-0.040
9.804,0.415,-0.015
9.806,0.350,0.005
9.808,0.290,0.015
9.810,0.230,0.020
9.812,0.055,0.015
9.814,0.030,0.010
9.816,0.005,0.000
9.818,0.150,-0.005
9.820,0.145,-0.010
9.822,0.215,-0.005
9.824,0.425,0.005
9.826,0.385,0.015
9.828,0.230,0.025
9.830,0.115,0.035
9.832,0.120,0.040
9.834,0.070,0.040
9.836,0.120,0.040
9.838,0.125,0.035
9.840,0.305,0.030
9.842,0.370,0.025
9.844,0.355,0.025
9.846,0.155,0.025
9.848,0.190,0.025
9.850,0.300,0.025
9.852,0.150,0.020
9.854,0.035,0.015
9.856,0.035,0.010
9.858,0.120,0.005
9.860,0.255,0.010
9.862,0.290,0.015
9.864,0.285,0.025
9.866,0.305,0.040
9.868,0.390,0.050
9.870,0.245,0.060
9.872,0.095,0.065
9.874,0.000,0.060
9.876,0.125,0.045
9.878,0.225,0.030
9.880,0.225,0.020
9.882,0.345,0.010
9.884,0.280,0.010
9.886,0.315,0.025
9.888,0.205,0.040
9.890,0.225,0.060
9.892,0.210,0.080
9.894,0.135,0.095
9.896,0.140,0.100
9.898,0.260,0.100
9.900,0.260,0.090
9.902,0.370,0.085
9.904,0.345,0.080
9.906,0.405,0.080
9.908,0.265,0.090
9.910,0.350,0.105
9.912,0.205,0.120
9.914,0.125,0.130
9.916,0.160,0.140
9.918,0.250,0.140
9.920,0.250,0.130
9.922,0.425,0.120
9.924,0.480,0.105
9.926,0.375,0.100
9.928,0.370,0.105
9.930,0.300,0.115
9.932,0.095,0.140
9.934,0.180,0.170
9.936,0.275,0.205
9.938,0.420,0.235
9.940,0.530,0.260
9.942,0.595,0.270
9.944,0.575,0.275
9.946,0.515,0.265
9.948,0.430,0.250
9.950,0.325,0.230
9.952,0.200,0.210
9.954,0.255,0.200
9.956,0.340,0.190
9.958,0.350,0.195
9.960,0.295,0.200
9.962,0.530,0.210
9.964,0.610,0.220
9.966,0.455,0.225
9.968,0.480,0.225
9.970,0.360,0.220
9.972,0.205,0.205
9.974,0.165,0.190
9.976,0.090,0.170
9.978,0.330,0.150
9.980,0.340,0.140
9.982,0.500,0.135
9.984,0.550,0.135
9.986,0.440,0.140
9.988,0.265,0.145
9.990,0.250,0.145
9.992,0.120,0.140
9.994,0.150,0.125
9.996,0.175,0.100
9.998,0.155,0.070
