'Elapsed time','ECG I','ECG I filtered'
'seconds','mV','mV'
0.000,-0.025,0.060
0.002,-0.105,0.000
0.004,-0.175,-0.040
0.006,-0.245,-0.065
0.008,-0.225,-0.075
0.010,-0.175,-0.060
0.012,-0.095,-0.040
0.014,0.010,-0.010
0.016,0.060,0.015
0.018,0.030,0.035
0.020,-0.030,0.040
0.022,-0.105,0.030
0.024,-0.205,0.010
0.026,-0.250,-0.010
0.028,-0.235,-0.030
0.030,-0.150,-0.040
0.032,-0.060,-0.045
0.034,-0.005,-0.045
0.036,0.025,-0.035
0.038,0.000,-0.025
0.040,-0.040,-0.015
0.042,-0.100,-0.010
0.044,-0.220,-0.010
0.046,-0.215,-0.010
0.048,-0.205,-0.015
0.050,-0.155,-0.020
0.052,-0.080,-0.020
0.054,0.025,-0.020
0.056,0.030,-0.015
0.058,0.035,-0.005
0.060,-0.030,0.000
0.062,-0.095,0.005
0.064,-0.185,0.005
0.066,-0.255,0.005
0.068,-0.220,0.000
0.070,-0.155,-0.005
0.072,-0.050,-0.010
0.074,0.015,-0.010
0.076,0.015,-0.010
0.078,0.040,-0.005
0.080,-0.025,0.000
0.082,-0.125,0.010
0.084,-0.180,0.015
0.086,-0.195,0.015
0.088,-0.175,0.015
0.090,-0.145,0.010
0.092,-0.020,0.005
0.094,0.000,0.000
0.096,0.020,-0.010
0.098,0.015,-0.015
0.100,-0.035,-0.020
0.102,-0.140,-0.020
0.104,-0.215,-0.020
0.106,-0.225,-0.015
0.108,-0.195,-0.010
0.110,-0.150,-0.005
0.112,-0.035,0.000
0.114,0.020,0.010
0.116,0.080,0.010
0.118,0.040,0.015
0.120,-0.040,0.015
0.122,-0.120,0.010
0.124,-0.215,0.005
0.126,-0.235,-0.005
0.128,-0.200,-0.015
0.130,-0.160,-0.025
0.132,-0.045,-0.030
0.134,0.030,-0.030
0.136,0.025,-0.025
0.138,-0.015,-0.020
0.140,-0.045,-0.010
0.142,-0.160,0.000
0.144,-0.195,0.005
0.146,-0.225,0.010
0.148,-0.210,0.005
0.150,-0.135,0.000
0.152,-0.010,-0.010
0.154,0.005,-0.020
0.156,0.005,-0.030
0.158,-0.015,-0.035
0.160,-0.070,-0.040
0.162,-0.165,-0.040
0.164,-0.225,-0.035
0.166,-0.220,-0.025
0.168,-0.165,-0.020
0.170,-0.140,-0.015
0.172,-0.050,-0.010
0.174,0.005,-0.015
0.176,0.030,-0.015
0.178,-0.005,-0.020
0.180,-0.065,-0.025
0.182,-0.175,-0.030
0.184,-0.225,-0.030
0.186,-0.255,-0.030
0.188,-0.200,-0.025
0.190,-0.135,-0.025
0.192,-0.025,-0.020
0.194,0.010,-0.015
0.196,0.025,-0.015
0.198,-0.010,-0.015
0.200,-0.065,-0.015
0.202,-0.165,-0.020
0.204,-0.215,-0.025
0.206,-0.235,-0.025
0.208,-0.190,-0.030
0.210,-0.115,-0.030
0.212,-0.065,-0.035
0.214,-0.005,-0.035
0.216,0.035,-0.035
0.218,-0.025,-0.035
0.220,-0.095,-0.035
0.222,-0.190,-0.035
0.224,-0.220,-0.035
0.226,-0.220,-0.030
0.228,-0.225,-0.030
0.230,-0.135,-0.025
0.232,-0.005,-0.020
0.234,0.020,-0.020
0.236,0.055,-0.020
0.238,-0.015,-0.020
0.240,-0.090,-0.025
0.242,-0.195,-0.025
0.244,-0.250,-0.030
0.246,-0.220,-0.035
0.248,-0.205,-0.035
0.250,-0.125,-0.035
0.252,-0.010,-0.030
0.254,0.025,-0.030
0.256,0.030,-0.020
0.258,-0.025,-0.015
0.260,-0.095,-0.010
0.262,-0.190,-0.005
0.264,-0.190,0.000
0.266,-0.170,0.005
0.268,-0.160,0.005
0.270,-0.080,0.005
0.272,0.025,0.005
0.274,0.060,0.005
0.276,0.065,0.000
0.278,0.020,0.000
0.280,-0.100,-0.005
0.282,-0.180,-0.005
0.284,-0.210,-0.005
0.286,-0.190,0.000
0.288,-0.140,0.000
0.290,-0.055,0.005
0.292,0.030,0.010
0.294,0.055,0.015
0.296,0.035,0.015
0.298,0.010,0.015
0.300,-0.050,0.015
0.302,-0.180,0.010
0.304,-0.230,0.000
0.306,-0.200,-0.005
0.308,-0.170,-0.010
0.310,-0.065,-0.010
0.312,-0.010,-0.015
0.314,0.010,-0.015
0.316,0.025,-0.015
0.318,-0.035,-0.020
0.320,-0.125,-0.020
0.322,-0.230,-0.025
0.324,-0.255,-0.035
0.326,-0.265,-0.040
0.328,-0.215,-0.050
0.330,-0.105,-0.055
0.332,0.005,-0.060
0.334,0.000,-0.065
0.336,-0.015,-0.060
0.338,-0.090,-0.060
0.340,-0.155,-0.055
0.342,-0.225,-0.050
0.344,-0.265,-0.045
0.346,-0.240,-0.040
0.348,-0.190,-0.040
0.350,-0.080,-0.035
0.352,-0.010,-0.035
0.354,0.005,-0.035
0.356,-0.025,-0.035
0.358,-0.100,-0.035
0.360,-0.190,-0.035
0.362,-0.215,-0.035
0.364,-0.235,-0.040
0.366,-0.235,-0.045
0.368,-0.215,-0.055
0.370,-0.115,-0.065
0.372,-0.020,-0.075
0.374,-0.015,-0.080
0.376,-0.040,-0.080
0.378,-0.085,-0.080
0.380,-0.185,-0.075
0.382,-0.255,-0.070
0.384,-0.290,-0.065
0.386,-0.270,-0.060
0.388,-0.215,-0.060
0.390,-0.100,-0.065
0.392,-0.040,-0.070
0.394,-0.040,-0.085
0.396,-0.070,-0.095
0.398,-0.130,-0.100
0.400,-0.255,-0.100
0.402,-0.335,-0.090
0.404,-0.265,-0.065
0.406,-0.200,-0.030
0.408,-0.105,0.020
0.410,0.080,0.080
0.412,0.230,0.145
0.414,0.280,0.210
0.416,0.330,0.270
0.418,0.355,0.320
0.420,0.265,0.350
0.422,0.200,0.360
0.424,0.135,0.345
0.426,0.065,0.310
0.428,0.050,0.255
0.430,0.185,0.185
0.432,0.180,0.105
0.434,0.110,0.025
0.436,-0.035,-0.045
0.438,-0.200,-0.110
0.440,-0.365,-0.155
0.442,-0.420,-0.185
0.444,-0.400,-0.200
0.446,-0.350,-0.200
0.448,-0.285,-0.195
0.450,-0.190,-0.180
0.452,-0.105,-0.170
0.454,-0.090,-0.155
0.456,-0.135,-0.145
0.458,-0.190,-0.135
0.460,-0.280,-0.125
0.462,-0.310,-0.115
0.464,-0.300,-0.105
0.466,-0.255,-0.090
0.468,-0.185,-0.075
0.470,-0.050,-0.055
0.472,0.045,-0.040
0.474,0.035,-0.025
0.476,-0.040,-0.015
0.478,-0.060,-0.010
0.480,-0.200,-0.010
0.482,-0.220,-0.010
0.484,-0.235,-0.015
0.486,-0.175,-0.020
0.488,-0.095,-0.020
0.490,-0.010,-0.025
0.492,0.025,-0.025
0.494,0.030,-0.020
0.496,0.005,-0.015
0.498,-0.090,-0.015
0.500,-0.195,-0.010
0.502,-0.220,-0.005
0.504,-0.195,0.000
0.506,-0.155,0.000
0.508,-0.110,-0.005
0.510,-0.010,-0.005
0.512,0.040,-0.010
0.514,0.045,-0.015
0.516,-0.010,-0.020
0.518,-0.090,-0.020
0.520,-0.165,-0.020
0.522,-0.205,-0.020
0.524,-0.200,-0.015
0.526,-0.180,-0.010
0.528,-0.065,-0.005
0.530,0.010,0.000
0.532,0.065,0.010
0.534,0.060,0.015
0.536,0.015,0.015
0.538,-0.055,0.015
0.540,-0.135,0.015
0.542,-0.220,0.010
0.544,-0.200,0.005
0.546,-0.140,0.005
0.548,-0.075,0.000
0.550,0.005,0.000
0.552,0.065,0.000
0.554,0.075,0.005
0.556,0.025,0.010
0.558,-0.050,0.015
0.560,-0.130,0.020
0.562,-0.190,0.025
0.564,-0.185,0.025
0.566,-0.125,0.025
0.568,-0.035,0.020
0.570,0.060,0.020
0.572,0.065,0.015
0.574,0.060,0.015
0.576,0.030,0.015
0.578,-0.035,0.020
0.580,-0.110,0.025
0.582,-0.150,0.035
0.584,-0.155,0.045
0.586,-0.090,0.055
0.588,-0.015,0.065
0.590,0.050,0.070
0.592,0.110,0.075
0.594,0.105,0.080
0.596,0.050,0.075
0.598,-0.035,0.070
0.600,-0.125,0.065
0.602,-0.145,0.060
0.604,-0.090,0.060
0.606,-0.090,0.055
0.608,-0.005,0.060
0.610,0.110,0.065
0.612,0.155,0.075
0.614,0.130,0.085
0.616,0.080,0.095
0.618,0.000,0.105
0.620,-0.080,0.110
0.622,-0.100,0.115
0.624,-0.060,0.115
0.626,-0.030,0.115
0.628,0.080,0.115
0.630,0.150,0.115
0.632,0.175,0.120
0.634,0.175,0.125
0.636,0.140,0.135
0.638,0.040,0.145
0.640,-0.035,0.155
0.642,-0.045,0.165
0.644,-0.030,0.175
0.646,0.020,0.180
0.648,0.140,0.185
0.650,0.225,0.185
0.652,0.275,0.190
0.654,0.230,0.190
0.656,0.210,0.195
0.658,0.070,0.200
0.660,0.020,0.205
0.662,0.000,0.210
0.664,0.020,0.210
0.666,0.085,0.215
0.668,0.185,0.215
0.670,0.265,0.210
0.672,0.255,0.210
0.674,0.245,0.210
0.676,0.170,0.205
0.678,0.080,0.205
0.680,0.045,0.205
0.682,0.005,0.210
0.684,0.025,0.210
0.686,0.075,0.210
0.688,0.170,0.210
0.690,0.225,0.205
0.692,0.215,0.195
0.694,0.180,0.185
0.696,0.145,0.170
0.698,0.045,0.160
0.700,-0.055,0.145
0.702,-0.095,0.130
0.704,-0.065,0.120
0.706,-0.025,0.110
0.708,0.065,0.100
0.710,0.110,0.090
0.712,0.135,0.085
0.714,0.090,0.080
0.716,0.005,0.070
0.718,-0.100,0.060
0.720,-0.160,0.055
0.722,-0.175,0.045
0.724,-0.165,0.030
0.726,-0.095,0.025
0.728,0.015,0.015
0.730,0.035,0.005
0.732,0.035,0.000
0.734,0.020,0.000
0.736,-0.070,-0.005
0.738,-0.160,-0.010
0.740,-0.210,-0.010
0.742,-0.235,-0.015
0.744,-0.220,-0.020
0.746,-0.140,-0.030
0.748,-0.030,-0.035
0.750,0.000,-0.040
0.752,0.030,-0.045
0.754,-0.025,-0.050
0.756,-0.100,-0.050
0.758,-0.180,-0.050
0.760,-0.230,-0.045
0.762,-0.225,-0.040
0.764,-0.225,-0.035
0.766,-0.165,-0.030
0.768,-0.030,-0.025
0.770,-0.005,-0.025
0.772,0.005,-0.030
0.774,-0.010,-0.030
0.776,-0.115,-0.035
0.778,-0.190,-0.035
0.780,-0.215,-0.040
0.782,-0.260,-0.040
0.784,-0.210,-0.040
0.786,-0.115,-0.040
0.788,-0.035,-0.040
0.790,0.015,-0.035
0.792,0.020,-0.035
0.794,-0.025,-0.035
0.796,-0.100,-0.035
0.798,-0.200,-0.035
0.800,-0.235,-0.035
0.802,-0.250,-0.035
0.804,-0.205,-0.035
0.806,-0.135,-0.035
0.808,-0.035,-0.035
0.810,0.015,-0.035
0.812,0.025,-0.035
0.814,-0.030,-0.035
0.816,-0.090,-0.035
0.818,-0.195,-0.035
0.820,-0.240,-0.035
0.822,-0.240,-0.040
0.824,-0.185,-0.040
0.826,-0.095,-0.040
0.828,-0.010,-0.040
0.830,0.030,-0.035
0.832,0.025,-0.035
0.834,-0.035,-0.030
0.836,-0.105,-0.025
0.838,-0.165,-0.025
0.840,-0.240,-0.020
0.842,-0.220,-0.020
0.844,-0.160,-0.015
0.846,-0.090,-0.020
0.848,0.000,-0.020
0.850,0.015,-0.020
0.852,0.020,-0.025
0.854,-0.035,-0.025
0.856,-0.115,-0.025
0.858,-0.220,-0.030
0.860,-0.225,-0.030
0.862,-0.235,-0.035
0.864,-0.180,-0.035
0.866,-0.120,-0.035
0.868,-0.025,-0.040
0.870,0.015,-0.040
0.872,0.010,-0.040
0.874,-0.040,-0.040
0.876,-0.130,-0.035
0.878,-0.200,-0.035
0.880,-0.250,-0.035
0.882,-0.225,-0.030
0.884,-0.170,-0.030
0.886,-0.075,-0.030
0.888,-0.010,-0.030
0.890,0.030,-0.025
0.892,0.015,-0.025
0.894,-0.045,-0.025
0.896,-0.155,-0.020
0.898,-0.160,-0.020
0.900,-0.265,-0.015
0.902,-0.190,-0.015
0.904,-0.160,-0.015
0.906,-0.095,-0.020
0.908,-0.005,-0.020
0.910,0.000,-0.025
0.912,0.015,-0.035
0.914,-0.060,-0.040
0.916,-0.120,-0.040
0.918,-0.220,-0.045
0.920,-0.265,-0.040
0.922,-0.240,-0.040
0.924,-0.140,-0.035
0.926,-0.075,-0.030
0.928,0.005,-0.025
0.930,0.015,-0.020
0.932,-0.015,-0.015
0.934,-0.060,-0.015
0.936,-0.135,-0.020
0.938,-0.215,-0.020
0.940,-0.235,-0.025
0.942,-0.235,-0.030
0.944,-0.185,-0.035
0.946,-0.075,-0.040
0.948,-0.020,-0.045
0.950,0.010,-0.045
0.952,-0.020,-0.045
0.954,-0.075,-0.045
0.956,-0.165,-0.045
0.958,-0.230,-0.040
0.960,-0.275,-0.040
0.962,-0.225,-0.035
0.964,-0.175,-0.035
0.966,-0.065,-0.035
0.968,-0.005,-0.035
0.970,0.035,-0.035
0.972,-0.025,-0.040
0.974,-0.055,-0.040
0.976,-0.185,-0.045
0.978,-0.240,-0.045
0.980,-0.250,-0.045
0.982,-0.215,-0.045
0.984,-0.165,-0.045
0.986,-0.080,-0.045
0.988,0.020,-0.040
0.990,0.040,-0.040
0.992,-0.025,-0.035
0.994,-0.075,-0.035
0.996,-0.155,-0.030
0.998,-0.205,-0.030
1.000,-0.215,-0.025
1.002,-0.210,-0.025
1.004,-0.145,-0.025
1.006,-0.040,-0.025
1.008,0.020,-0.025
1.010,0.040,-0.025
1.012,0.030,-0.020
1.014,-0.030,-0.020
1.016,-0.140,-0.015
1.018,-0.215,-0.010
1.020,-0.235,-0.005
1.022,-0.180,0.000
1.024,-0.120,0.005
1.026,-0.005,0.005
1.028,0.030,0.005
1.030,0.070,0.000
1.032,-0.005,-0.005
1.034,-0.050,-0.015
1.036,-0.165,-0.020
1.038,-0.210,-0.030
1.040,-0.275,-0.035
1.042,-0.230,-0.045
1.044,-0.160,-0.045
1.046,-0.075,-0.050
1.048,-0.025,-0.050
1.050,-0.020,-0.050
1.052,-0.050,-0.050
1.054,-0.085,-0.050
1.056,-0.195,-0.050
1.058,-0.260,-0.050
1.060,-0.290,-0.045
1.062,-0.230,-0.045
1.064,-0.165,-0.045
1.066,-0.065,-0.050
1.068,0.000,-0.055
1.070,-0.040,-0.055
1.072,-0.085,-0.065
1.074,-0.130,-0.070
1.076,-0.230,-0.075
1.078,-0.280,-0.080
1.080,-0.275,-0.085
1.082,-0.225,-0.085
1.084,-0.165,-0.080
1.086,-0.080,-0.080
1.088,-0.035,-0.075
1.090,-0.040,-0.070
1.092,-0.075,-0.060
1.094,-0.115,-0.055
1.096,-0.220,-0.055
1.098,-0.280,-0.050
1.100,-0.245,-0.045
1.102,-0.185,-0.045
1.104,-0.135,-0.050
1.106,-0.090,-0.050
1.108,-0.020,-0.055
1.110,-0.030,-0.060
1.112,-0.095,-0.070
1.114,-0.145,-0.075
1.116,-0.250,-0.085
1.118,-0.335,-0.095
1.120,-0.335,-0.100
1.122,-0.285,-0.110
1.124,-0.215,-0.120
1.126,-0.145,-0.125
1.128,-0.075,-0.135
1.130,-0.105,-0.135
1.132,-0.160,-0.130
1.134,-0.205,-0.115
1.136,-0.260,-0.085
1.138,-0.255,-0.045
1.140,-0.185,0.005
1.142,-0.070,0.070
1.144,0.100,0.140
1.146,0.210,0.205
1.148,0.360,0.270
1.150,0.425,0.325
1.152,0.375,0.355
1.154,0.290,0.370
1.156,0.165,0.360
1.158,0.030,0.330
1.160,0.000,0.275
1.162,0.045,0.210
1.164,0.110,0.130
1.166,0.090,0.045
1.168,0.025,-0.035
1.170,-0.170,-0.105
1.172,-0.265,-0.165
1.174,-0.340,-0.210
1.176,-0.395,-0.240
1.178,-0.425,-0.250
1.180,-0.400,-0.250
1.182,-0.380,-0.235
1.184,-0.300,-0.215
1.186,-0.190,-0.190
1.188,-0.150,-0.165
1.190,-0.095,-0.140
1.192,-0.110,-0.120
1.194,-0.180,-0.105
1.196,-0.305,-0.095
1.198,-0.305,-0.085
1.200,-0.285,-0.080
1.202,-0.200,-0.075
1.204,-0.115,-0.075
1.206,-0.040,-0.070
1.208,-0.010,-0.065
1.210,-0.025,-0.060
1.212,-0.100,-0.060
1.214,-0.170,-0.055
1.216,-0.260,-0.050
1.218,-0.265,-0.050
1.220,-0.240,-0.050
1.222,-0.210,-0.050
1.224,-0.080,-0.050
1.226,-0.035,-0.055
1.228,0.000,-0.055
1.230,-0.015,-0.055
1.232,-0.075,-0.050
1.234,-0.175,-0.050
1.236,-0.240,-0.040
1.238,-0.215,-0.035
1.240,-0.240,-0.025
1.242,-0.175,-0.020
1.244,-0.065,-0.015
1.246,0.000,-0.010
1.248,0.030,-0.010
1.250,0.035,-0.010
1.252,-0.075,-0.010
1.254,-0.180,-0.015
1.256,-0.205,-0.020
1.258,-0.225,-0.020
1.260,-0.210,-0.020
1.262,-0.175,-0.020
1.264,-0.060,-0.015
1.266,0.020,-0.010
1.268,0.025,-0.010
1.270,-0.010,-0.005
1.272,-0.055,-0.005
1.274,-0.150,-0.005
1.276,-0.225,-0.010
1.278,-0.225,-0.010
1.280,-0.190,-0.010
1.282,-0.165,-0.010
1.284,-0.045,-0.010
1.286,0.020,-0.005
1.288,0.045,0.000
1.290,0.010,0.005
1.292,-0.020,0.010
1.294,-0.140,0.020
1.296,-0.195,0.025
1.298,-0.200,0.025
1.300,-0.160,0.025
1.302,-0.120,0.025
1.304,0.005,0.020
1.306,0.040,0.020
1.308,0.055,0.015
1.310,0.035,0.015
1.312,-0.025,0.015
1.314,-0.120,0.015
1.316,-0.200,0.020
1.318,-0.225,0.025
1.320,-0.160,0.030
1.322,-0.070,0.035
1.324,0.015,0.045
1.326,0.080,0.045
1.328,0.095,0.050
1.330,0.060,0.055
1.332,-0.025,0.055
1.334,-0.070,0.060
1.336,-0.175,0.060
1.338,-0.165,0.065
1.340,-0.100,0.070
1.342,-0.040,0.075
1.344,0.040,0.085
1.346,0.105,0.090
1.348,0.145,0.095
1.350,0.100,0.100
1.352,0.060,0.110
1.354,-0.045,0.115
1.356,-0.085,0.125
1.358,-0.085,0.130
1.360,-0.025,0.140
1.362,0.015,0.145
1.364,0.145,0.155
1.366,0.195,0.165
1.368,0.170,0.170
1.370,0.145,0.175
1.372,0.110,0.180
1.374,0.035,0.185
1.376,-0.030,0.190
1.378,0.000,0.190
1.380,-0.005,0.190
1.382,0.065,0.190
1.384,0.175,0.190
1.386,0.225,0.190
1.388,0.220,0.195
1.390,0.180,0.195
1.392,0.115,0.195
1.394,0.050,0.200
1.396,-0.010,0.205
1.398,-0.035,0.205
1.400,0.045,0.215
1.402,0.095,0.220
1.404,0.205,0.225
1.406,0.225,0.225
1.408,0.250,0.225
1.410,0.205,0.225
1.412,0.135,0.215
1.414,0.020,0.210
1.416,-0.030,0.200
1.418,-0.015,0.185
1.420,0.050,0.175
1.422,0.060,0.165
1.424,0.135,0.155
1.426,0.185,0.145
1.428,0.160,0.140
1.430,0.115,0.135
1.432,0.030,0.130
1.434,-0.090,0.125
1.436,-0.150,0.115
1.438,-0.150,0.110
1.440,-0.105,0.100
1.442,-0.030,0.090
1.444,0.050,0.080
1.446,0.080,0.065
1.448,0.070,0.055
1.450,0.010,0.045
1.452,-0.055,0.035
1.454,-0.155,0.025
1.456,-0.205,0.020
1.458,-0.220,0.010
1.460,-0.165,0.005
1.462,-0.095,0.005
1.464,-0.020,0.000
1.466,0.005,-0.005
1.468,0.000,-0.010
1.470,-0.065,-0.015
1.472,-0.150,-0.020
1.474,-0.215,-0.025
1.476,-0.275,-0.030
1.478,-0.260,-0.030
1.480,-0.200,-0.035
1.482,-0.120,-0.035
1.484,-0.055,-0.035
1.486,0.000,-0.040
1.488,-0.030,-0.040
1.490,-0.080,-0.040
1.492,-0.175,-0.045
1.494,-0.260,-0.050
1.496,-0.300,-0.060
1.498,-0.265,-0.065
1.500,-0.230,-0.070
1.502,-0.135,-0.070
1.504,-0.060,-0.075
1.506,-0.040,-0.070
1.508,-0.060,-0.070
1.510,-0.085,-0.065
1.512,-0.180,-0.060
1.514,-0.290,-0.055
1.516,-0.315,-0.050
1.518,-0.270,-0.050
1.520,-0.205,-0.050
1.522,-0.110,-0.055
1.524,-0.010,-0.055
1.526,-0.025,-0.060
1.528,-0.060,-0.065
1.530,-0.120,-0.065
1.532,-0.210,-0.065
1.534,-0.255,-0.065
1.536,-0.315,-0.060
1.538,-0.275,-0.060
1.540,-0.195,-0.055
1.542,-0.095,-0.055
1.544,-0.025,-0.050
1.546,-0.025,-0.050
1.548,-0.080,-0.050
1.550,-0.130,-0.050
1.552,-0.195,-0.050
1.554,-0.275,-0.050
1.556,-0.305,-0.050
1.558,-0.280,-0.050
1.560,-0.215,-0.050
1.562,-0.100,-0.050
1.564,-0.055,-0.050
1.566,-0.015,-0.055
1.568,-0.035,-0.055
1.570,-0.070,-0.055
1.572,-0.135,-0.055
1.574,-0.295,-0.055
1.576,-0.300,-0.050
1.578,-0.255,-0.045
1.580,-0.215,-0.040
1.582,-0.100,-0.035
1.584,-0.040,-0.030
1.586,-0.030,-0.030
1.588,-0.050,-0.030
1.590,-0.110,-0.035
1.592,-0.205,-0.040
1.594,-0.285,-0.045
1.596,-0.300,-0.055
1.598,-0.255,-0.065
1.600,-0.210,-0.070
1.602,-0.100,-0.070
1.604,-0.040,-0.070
1.606,-0.015,-0.070
1.608,-0.035,-0.065
1.610,-0.115,-0.060
1.612,-0.235,-0.055
1.614,-0.285,-0.055
1.616,-0.300,-0.050
1.618,-0.255,-0.050
1.620,-0.170,-0.055
1.622,-0.100,-0.055
1.624,-0.025,-0.055
1.626,0.000,-0.060
1.628,-0.085,-0.060
1.630,-0.105,-0.055
1.632,-0.255,-0.055
1.634,-0.305,-0.055
1.636,-0.295,-0.050
1.638,-0.270,-0.050
1.640,-0.205,-0.050
1.642,-0.065,-0.045
1.644,-0.035,-0.045
1.646,-0.020,-0.045
1.648,-0.060,-0.045
1.650,-0.105,-0.045
1.652,-0.225,-0.040
1.654,-0.280,-0.040
1.656,-0.305,-0.040
1.658,-0.250,-0.040
1.660,-0.175,-0.040
1.662,-0.095,-0.045
1.664,-0.030,-0.050
1.666,-0.030,-0.055
1.668,-0.115,-0.060
1.670,-0.160,-0.065
1.672,-0.255,-0.070
1.674,-0.290,-0.070
1.676,-0.280,-0.065
1.678,-0.230,-0.060
1.680,-0.175,-0.055
1.682,-0.085,-0.045
1.684,-0.045,-0.040
1.686,-0.025,-0.035
1.688,-0.080,-0.035
1.690,-0.165,-0.040
1.692,-0.275,-0.040
1.694,-0.280,-0.045
1.696,-0.285,-0.050
1.698,-0.265,-0.055
1.700,-0.175,-0.055
1.702,-0.065,-0.055
1.704,-0.025,-0.055
1.706,-0.040,-0.050
1.708,-0.080,-0.050
1.710,-0.180,-0.050
1.712,-0.255,-0.050
1.714,-0.325,-0.055
1.716,-0.310,-0.055
1.718,-0.255,-0.060
1.720,-0.145,-0.060
1.722,-0.075,-0.060
1.724,-0.045,-0.060
1.726,-0.055,-0.060
1.728,-0.100,-0.055
1.730,-0.155,-0.050
1.732,-0.240,-0.050
1.734,-0.300,-0.045
1.736,-0.300,-0.045
1.738,-0.255,-0.040
1.740,-0.150,-0.040
1.742,-0.050,-0.035
1.744,0.000,-0.035
1.746,0.005,-0.030
1.748,-0.075,-0.025
1.750,-0.150,-0.020
1.752,-0.240,-0.015
1.754,-0.260,-0.010
1.756,-0.260,-0.010
1.758,-0.200,-0.005
1.760,-0.115,-0.005
1.762,-0.030,-0.005
1.764,0.015,-0.005
1.766,0.010,-0.005
1.768,-0.055,-0.010
1.770,-0.160,-0.010
1.772,-0.255,-0.015
1.774,-0.285,-0.020
1.776,-0.245,-0.020
1.778,-0.225,-0.025
1.780,-0.120,-0.025
1.782,-0.045,-0.025
1.784,-0.015,-0.025
1.786,-0.040,-0.025
1.788,-0.055,-0.025
1.790,-0.195,-0.030
1.792,-0.290,-0.035
1.794,-0.305,-0.045
1.796,-0.270,-0.055
1.798,-0.265,-0.065
1.800,-0.140,-0.075
1.802,-0.095,-0.080
1.804,-0.040,-0.085
1.806,-0.065,-0.080
1.808,-0.110,-0.075
1.810,-0.205,-0.065
1.812,-0.310,-0.055
1.814,-0.355,-0.050
1.816,-0.295,-0.045
1.818,-0.230,-0.050
1.820,-0.120,-0.055
1.822,-0.060,-0.060
1.824,-0.075,-0.070
1.826,-0.080,-0.075
1.828,-0.145,-0.080
1.830,-0.265,-0.080
1.832,-0.320,-0.075
1.834,-0.310,-0.075
1.836,-0.305,-0.070
1.838,-0.265,-0.065
1.840,-0.130,-0.060
1.842,-0.080,-0.060
1.844,-0.065,-0.060
1.846,-0.105,-0.065
1.848,-0.175,-0.070
1.850,-0.270,-0.075
1.852,-0.320,-0.075
1.854,-0.335,-0.080
1.856,-0.310,-0.080
1.858,-0.265,-0.080
1.860,-0.155,-0.080
1.862,-0.105,-0.080
1.864,-0.085,-0.080
1.866,-0.120,-0.080
1.868,-0.145,-0.080
1.870,-0.270,-0.085
1.872,-0.355,-0.090
1.874,-0.370,-0.100
1.876,-0.340,-0.105
1.878,-0.290,-0.115
1.880,-0.175,-0.125
1.882,-0.150,-0.135
1.884,-0.145,-0.135
1.886,-0.180,-0.125
1.888,-0.195,-0.105
1.890,-0.270,-0.065
1.892,-0.245,-0.020
1.894,-0.200,0.045
1.896,-0.100,0.115
1.898,0.045,0.185
1.900,0.225,0.255
1.902,0.375,0.315
1.904,0.435,0.360
1.906,0.405,0.380
1.908,0.285,0.375
1.910,0.095,0.345
1.912,-0.035,0.295
1.914,-0.045,0.225
1.916,0.015,0.145
1.918,-0.075,0.060
1.920,-0.050,-0.015
1.922,-0.115,-0.085
1.924,-0.225,-0.140
1.926,-0.295,-0.180
1.928,-0.340,-0.205
1.930,-0.410,-0.215
1.932,-0.455,-0.215
1.934,-0.425,-0.205
1.936,-0.380,-0.195
1.938,-0.365,-0.185
1.940,-0.255,-0.170
1.942,-0.165,-0.160
1.944,-0.115,-0.145
1.946,-0.160,-0.130
1.948,-0.210,-0.115
1.950,-0.290,-0.105
1.952,-0.325,-0.090
1.954,-0.345,-0.080
1.956,-0.280,-0.070
1.958,-0.215,-0.065
1.960,-0.120,-0.065
1.962,-0.060,-0.065
1.964,-0.035,-0.065
1.966,-0.120,-0.060
1.968,-0.170,-0.060
1.970,-0.265,-0.055
1.972,-0.260,-0.050
1.974,-0.340,-0.045
1.976,-0.265,-0.035
1.978,-0.205,-0.035
1.980,-0.090,-0.030
1.982,-0.020,-0.030
1.984,-0.040,-0.030
1.986,-0.110,-0.035
1.988,-0.155,-0.035
1.990,-0.255,-0.035
1.992,-0.285,-0.035
1.994,-0.290,-0.030
1.996,-0.235,-0.030
1.998,-0.145,-0.025
2.000,-0.055,-0.025
2.002,-0.025,-0.025
2.004,-0.025,-0.025
2.006,-0.060,-0.025
2.008,-0.125,-0.025
2.010,-0.230,-0.025
2.012,-0.295,-0.020
2.014,-0.300,-0.020
2.016,-0.205,-0.015
2.018,-0.150,-0.015
2.020,-0.055,-0.010
2.022,-0.010,-0.010
2.024,-0.015,-0.010
2.026,-0.065,-0.010
2.028,-0.145,-0.015
2.030,-0.260,-0.015
2.032,-0.280,-0.015
2.034,-0.265,-0.015
2.036,-0.210,-0.010
2.038,-0.130,-0.010
2.040,-0.055,-0.005
2.042,-0.025,-0.005
2.044,-0.015,0.000
2.046,-0.080,0.000
2.048,-0.140,0.000
2.050,-0.235,0.000
2.052,-0.295,0.005
2.054,-0.240,0.005
2.056,-0.195,0.010
2.058,-0.100,0.010
2.060,0.000,0.015
2.062,0.025,0.020
2.064,-0.020,0.020
2.066,-0.055,0.025
2.068,-0.125,0.025
2.070,-0.200,0.025
2.072,-0.220,0.025
2.074,-0.255,0.030
2.076,-0.160,0.030
2.078,-0.070,0.030
2.080,0.020,0.035
2.082,0.040,0.035
2.084,0.030,0.040
2.086,-0.015,0.045
2.088,-0.125,0.045
2.090,-0.190,0.050
2.092,-0.215,0.055
2.094,-0.180,0.060
2.096,-0.140,0.065
2.098,-0.010,0.070
2.100,0.030,0.080
2.102,0.080,0.085
2.104,0.055,0.090
2.106,0.030,0.095
2.108,-0.100,0.100
2.110,-0.145,0.105
2.112,-0.135,0.110
2.114,-0.115,0.115
2.116,-0.050,0.120
2.118,0.030,0.125
2.120,0.105,0.135
2.122,0.160,0.140
2.124,0.130,0.150
2.126,0.075,0.155
2.128,-0.025,0.165
2.130,-0.100,0.170
2.132,-0.105,0.180
2.134,-0.070,0.185
2.136,0.000,0.190
2.138,0.095,0.195
2.140,0.165,0.200
2.142,0.220,0.200
2.144,0.170,0.205
2.146,0.110,0.205
2.148,0.015,0.205
2.150,-0.050,0.205
2.152,-0.075,0.205
2.154,-0.035,0.210
2.156,0.040,0.210
2.158,0.140,0.210
2.160,0.195,0.210
2.162,0.220,0.210
2.164,0.165,0.205
2.166,0.080,0.205
2.168,-0.015,0.200
2.170,-0.055,0.195
2.172,-0.050,0.190
2.174,-0.060,0.185
2.176,-0.040,0.175
2.178,0.080,0.170
2.180,0.135,0.160
2.182,0.130,0.155
2.184,0.095,0.145
2.186,0.025,0.140
2.188,-0.075,0.130
2.190,-0.125,0.120
2.192,-0.190,0.110
2.194,-0.165,0.100
2.196,-0.110,0.090
2.198,-0.005,0.075
2.200,0.030,0.065
2.202,0.045,0.055
2.204,-0.010,0.045
2.206,-0.070,0.035
2.208,-0.205,0.030
2.210,-0.270,0.020
2.212,-0.260,0.015
2.214,-0.230,0.005
2.216,-0.190,0.000
2.218,-0.080,-0.005
2.220,-0.030,-0.010
2.222,-0.015,-0.010
2.224,-0.065,-0.010
2.226,-0.130,-0.015
2.228,-0.225,-0.015
2.230,-0.295,-0.015
2.232,-0.315,-0.020
2.234,-0.250,-0.025
2.236,-0.200,-0.035
2.238,-0.100,-0.045
2.240,-0.085,-0.050
2.242,-0.065,-0.055
2.244,-0.090,-0.060
2.246,-0.160,-0.060
2.248,-0.265,-0.055
2.250,-0.315,-0.050
2.252,-0.320,-0.045
2.254,-0.270,-0.040
2.256,-0.200,-0.035
2.258,-0.100,-0.035
2.260,-0.075,-0.035
2.262,-0.070,-0.040
2.264,-0.105,-0.040
2.266,-0.155,-0.045
2.268,-0.275,-0.045
2.270,-0.300,-0.040
2.272,-0.310,-0.040
2.274,-0.245,-0.035
2.276,-0.195,-0.030
2.278,-0.110,-0.030
2.280,-0.055,-0.030
2.282,-0.045,-0.030
2.284,-0.080,-0.035
2.286,-0.180,-0.040
2.288,-0.280,-0.045
2.290,-0.320,-0.045
2.292,-0.320,-0.050
2.294,-0.260,-0.050
2.296,-0.205,-0.050
2.298,-0.090,-0.050
2.300,-0.035,-0.050
2.302,-0.085,-0.050
2.304,-0.135,-0.055
2.306,-0.220,-0.055
2.308,-0.285,-0.055
2.310,-0.315,-0.055
2.312,-0.300,-0.050
2.314,-0.260,-0.045
2.316,-0.170,-0.040
2.318,-0.070,-0.040
2.320,-0.065,-0.035
2.322,-0.065,-0.030
2.324,-0.095,-0.030
2.326,-0.175,-0.030
2.328,-0.255,-0.030
2.330,-0.310,-0.030
2.332,-0.310,-0.035
2.334,-0.250,-0.035
2.336,-0.160,-0.040
2.338,-0.080,-0.040
2.340,-0.045,-0.040
2.342,-0.060,-0.045
2.344,-0.090,-0.040
2.346,-0.155,-0.040
2.348,-0.305,-0.040
2.350,-0.340,-0.035
2.352,-0.300,-0.030
2.354,-0.220,-0.030
2.356,-0.140,-0.025
2.358,-0.105,-0.020
2.360,-0.040,-0.020
2.362,-0.065,-0.020
2.364,-0.125,-0.025
2.366,-0.185,-0.030
2.368,-0.300,-0.035
2.370,-0.320,-0.045
2.372,-0.285,-0.050
2.374,-0.260,-0.055
2.376,-0.160,-0.055
2.378,-0.085,-0.055
2.380,-0.055,-0.055
2.382,-0.070,-0.050
2.384,-0.115,-0.040
2.386,-0.220,-0.035
2.388,-0.270,-0.030
2.390,-0.300,-0.030
2.392,-0.300,-0.030
2.394,-0.230,-0.030
2.396,-0.140,-0.030
2.398,-0.095,-0.035
2.400,-0.065,-0.035
2.402,-0.090,-0.040
2.404,-0.145,-0.040
2.406,-0.245,-0.040
2.408,-0.290,-0.040
2.410,-0.315,-0.035
2.412,-0.300,-0.035
2.414,-0.235,-0.035
2.416,-0.155,-0.035
2.418,-0.085,-0.035
2.420,-0.035,-0.040
2.422,-0.075,-0.045
2.424,-0.150,-0.045
2.426,-0.240,-0.050
2.428,-0.285,-0.050
2.430,-0.355,-0.045
2.432,-0.315,-0.045
2.434,-0.250,-0.040
2.436,-0.120,-0.035
2.438,-0.070,-0.030
2.440,-0.050,-0.025
2.442,-0.085,-0.020
2.444,-0.140,-0.020
2.446,-0.225,-0.020
2.448,-0.315,-0.025
2.450,-0.335,-0.030
2.452,-0.280,-0.040
2.454,-0.245,-0.045
2.456,-0.125,-0.050
2.458,-0.090,-0.055
2.460,-0.065,-0.060
2.462,-0.095,-0.060
2.464,-0.155,-0.060
2.466,-0.260,-0.055
2.468,-0.305,-0.050
2.470,-0.345,-0.045
2.472,-0.300,-0.040
2.474,-0.215,-0.040
2.476,-0.105,-0.040
2.478,-0.090,-0.040
2.480,-0.075,-0.040
2.482,-0.115,-0.045
2.484,-0.155,-0.050
2.486,-0.275,-0.050
2.488,-0.315,-0.050
2.490,-0.315,-0.050
2.492,-0.305,-0.050
2.494,-0.225,-0.045
2.496,-0.090,-0.040
2.498,-0.050,-0.035
2.500,-0.065,-0.030
2.502,-0.090,-0.025
2.504,-0.135,-0.025
2.506,-0.255,-0.020
2.508,-0.330,-0.025
2.510,-0.300,-0.025
2.512,-0.290,-0.030
2.514,-0.210,-0.030
2.516,-0.110,-0.030
2.518,-0.055,-0.030
2.520,-0.035,-0.025
2.522,-0.085,-0.020
2.524,-0.120,-0.010
2.526,-0.240,-0.005
2.528,-0.310,0.000
2.530,-0.290,0.005
2.532,-0.210,0.010
2.534,-0.160,0.010
2.536,-0.075,0.010
2.538,-0.025,0.005
2.540,-0.020,0.005
2.542,-0.080,0.000
2.544,-0.120,0.000
2.546,-0.235,0.000
2.548,-0.275,-0.005
2.550,-0.290,-0.005
2.552,-0.255,-0.010
2.554,-0.180,-0.015
2.556,-0.085,-0.020
2.558,-0.020,-0.025
2.560,-0.050,-0.030
2.562,-0.090,-0.035
2.564,-0.185,-0.035
2.566,-0.265,-0.035
2.568,-0.310,-0.035
2.570,-0.290,-0.030
2.572,-0.265,-0.030
2.574,-0.195,-0.025
2.576,-0.105,-0.030
2.578,-0.070,-0.035
2.580,-0.110,-0.040
2.582,-0.105,-0.045
2.584,-0.190,-0.050
2.586,-0.305,-0.055
2.588,-0.320,-0.055
2.590,-0.340,-0.055
2.592,-0.280,-0.055
2.594,-0.190,-0.055
2.596,-0.095,-0.050
2.598,-0.060,-0.050
2.600,-0.080,-0.050
2.602,-0.135,-0.055
2.604,-0.215,-0.060
2.606,-0.320,-0.060
2.608,-0.350,-0.065
2.610,-0.315,-0.065
2.612,-0.255,-0.060
2.614,-0.175,-0.055
2.616,-0.085,-0.050
2.618,-0.075,-0.045
2.620,-0.085,-0.040
2.622,-0.145,-0.035
2.624,-0.230,-0.035
2.626,-0.305,-0.040
2.628,-0.335,-0.045
2.630,-0.340,-0.055
2.632,-0.275,-0.060
2.634,-0.185,-0.070
2.636,-0.120,-0.070
2.638,-0.075,-0.070
2.640,-0.110,-0.065
2.642,-0.135,-0.060
2.644,-0.205,-0.055
2.646,-0.280,-0.050
2.648,-0.380,-0.050
2.650,-0.350,-0.060
2.652,-0.300,-0.070
2.654,-0.230,-0.085
2.656,-0.180,-0.100
2.658,-0.145,-0.110
2.660,-0.180,-0.110
2.662,-0.190,-0.095
2.664,-0.230,-0.060
2.666,-0.245,-0.010
2.668,-0.195,0.060
2.670,-0.085,0.140
2.672,0.040,0.225
2.674,0.190,0.300
2.676,0.375,0.365
2.678,0.440,0.410
2.680,0.435,0.430
2.682,0.340,0.420
2.684,0.150,0.385
2.686,0.005,0.330
2.688,-0.035,0.260
2.690,-0.010,0.185
2.692,-0.095,0.105
2.694,-0.075,0.030
2.696,-0.120,-0.040
2.698,-0.185,-0.095
2.700,-0.230,-0.140
2.702,-0.330,-0.175
2.704,-0.400,-0.195
2.706,-0.435,-0.205
2.708,-0.465,-0.205
2.710,-0.420,-0.195
2.712,-0.350,-0.180
2.714,-0.245,-0.160
2.716,-0.150,-0.140
2.718,-0.115,-0.115
2.720,-0.130,-0.095
2.722,-0.180,-0.080
2.724,-0.285,-0.065
2.726,-0.305,-0.055
2.728,-0.315,-0.045
2.730,-0.300,-0.040
2.732,-0.235,-0.040
2.734,-0.135,-0.040
2.736,-0.065,-0.035
2.738,-0.045,-0.035
2.740,-0.070,-0.035
2.742,-0.145,-0.035
2.744,-0.260,-0.035
2.746,-0.310,-0.035
2.748,-0.300,-0.035
2.750,-0.280,-0.035
2.752,-0.245,-0.035
2.754,-0.135,-0.035
2.756,-0.070,-0.035
2.758,-0.050,-0.035
2.760,-0.090,-0.030
2.762,-0.130,-0.025
2.764,-0.215,-0.020
2.766,-0.270,-0.010
2.768,-0.275,-0.005
2.770,-0.210,0.000
2.772,-0.200,0.000
2.774,-0.070,0.000
2.776,-0.035,0.000
2.778,-0.030,-0.005
2.780,-0.055,-0.005
2.782,-0.120,-0.005
2.784,-0.230,-0.005
2.786,-0.260,0.000
2.788,-0.305,0.005
2.790,-0.225,0.010
2.792,-0.170,0.010
2.794,-0.070,0.010
2.796,-0.010,0.010
2.798,-0.005,0.010
2.800,-0.050,0.005
2.802,-0.110,0.005
2.804,-0.225,0.005
2.806,-0.255,0.005
2.808,-0.245,0.010
2.810,-0.195,0.015
2.812,-0.140,0.025
2.814,-0.035,0.030
2.816,0.000,0.035
2.818,0.015,0.035
2.820,-0.055,0.035
2.822,-0.105,0.035
2.824,-0.200,0.030
2.826,-0.255,0.025
2.828,-0.255,0.020
2.830,-0.195,0.020
2.832,-0.095,0.020
2.834,-0.020,0.025
2.836,0.015,0.035
2.838,0.035,0.040
2.840,-0.045,0.045
2.842,-0.090,0.050
2.844,-0.200,0.050
2.846,-0.225,0.050
2.848,-0.190,0.050
2.850,-0.180,0.050
2.852,-0.110,0.050
2.854,-0.005,0.055
2.856,0.060,0.060
2.858,0.040,0.070
2.860,-0.025,0.075
2.862,-0.060,0.085
2.864,-0.150,0.090
2.866,-0.195,0.095
2.868,-0.185,0.100
2.870,-0.125,0.100
2.872,-0.025,0.100
2.874,0.045,0.100
2.876,0.080,0.105
2.878,0.085,0.105
2.880,0.050,0.110
2.882,-0.015,0.115
2.884,-0.100,0.120
2.886,-0.140,0.125
2.888,-0.130,0.130
2.890,-0.065,0.135
2.892,0.020,0.140
2.894,0.115,0.145
2.896,0.140,0.150
2.898,0.150,0.155
2.900,0.100,0.165
2.902,-0.005,0.170
2.904,-0.075,0.175
2.906,-0.085,0.180
2.908,-0.060,0.185
2.910,-0.015,0.190
2.912,0.080,0.190
2.914,0.165,0.195
2.916,0.215,0.200
2.918,0.205,0.205
2.920,0.145,0.210
2.922,0.050,0.220
2.924,-0.015,0.225
2.926,-0.050,0.235
2.928,-0.010,0.245
2.930,0.050,0.250
2.932,0.120,0.250
2.934,0.175,0.250
2.936,0.200,0.245
2.938,0.195,0.235
2.940,0.140,0.220
2.942,0.035,0.210
2.944,-0.025,0.200
2.946,-0.095,0.190
2.948,-0.075,0.180
2.950,-0.010,0.175
2.952,0.095,0.170
2.954,0.125,0.165
2.956,0.155,0.160
2.958,0.135,0.150
2.960,0.075,0.140
2.962,-0.070,0.125
2.964,-0.125,0.115
2.966,-0.210,0.100
2.968,-0.170,0.090
2.970,-0.110,0.080
2.972,-0.005,0.075
2.974,0.025,0.070
2.976,0.060,0.070
2.978,0.020,0.065
2.980,-0.045,0.060
2.982,-0.150,0.050
2.984,-0.235,0.045
2.986,-0.250,0.030
2.988,-0.255,0.020
2.990,-0.170,0.010
2.992,-0.055,0.000
2.994,-0.020,-0.005
2.996,-0.005,-0.010
2.998,-0.050,-0.010
3.000,-0.095,-0.015
3.002,-0.220,-0.015
3.004,-0.280,-0.015
3.006,-0.290,-0.015
3.008,-0.270,-0.020
3.010,-0.220,-0.020
3.012,-0.110,-0.025
3.014,-0.040,-0.030
3.016,-0.025,-0.035
3.018,-0.055,-0.035
3.020,-0.125,-0.040
3.022,-0.225,-0.040
3.024,-0.300,-0.035
3.026,-0.305,-0.035
3.028,-0.270,-0.030
3.030,-0.195,-0.030
3.032,-0.110,-0.025
3.034,-0.055,-0.025
3.036,-0.020,-0.020
3.038,-0.080,-0.025
3.040,-0.100,-0.025
3.042,-0.230,-0.030
3.044,-0.315,-0.035
3.046,-0.330,-0.035
3.048,-0.265,-0.040
3.050,-0.215,-0.045
3.052,-0.105,-0.045
3.054,-0.035,-0.045
3.056,-0.030,-0.045
3.058,-0.075,-0.045
3.060,-0.145,-0.040
3.062,-0.260,-0.040
3.064,-0.300,-0.035
3.066,-0.300,-0.035
3.068,-0.265,-0.030
3.070,-0.215,-0.030
3.072,-0.105,-0.025
3.074,-0.040,-0.025
3.076,-0.040,-0.020
3.078,-0.085,-0.020
3.080,-0.145,-0.020
3.082,-0.235,-0.025
3.084,-0.290,-0.025
3.086,-0.310,-0.030
3.088,-0.270,-0.035
3.090,-0.180,-0.035
3.092,-0.070,-0.035
3.094,-0.035,-0.035
3.096,-0.010,-0.030
3.098,-0.080,-0.025
3.100,-0.145,-0.025
3.102,-0.230,-0.020
3.104,-0.305,-0.020
3.106,-0.290,-0.025
3.108,-0.220,-0.030
3.110,-0.195,-0.035
3.112,-0.090,-0.040
3.114,-0.030,-0.045
3.116,-0.045,-0.045
3.118,-0.075,-0.040
3.120,-0.145,-0.035
3.122,-0.245,-0.030
3.124,-0.310,-0.025
3.126,-0.285,-0.020
3.128,-0.250,-0.020
3.130,-0.175,-0.020
3.132,-0.065,-0.020
3.134,-0.035,-0.025
3.136,-0.045,-0.030
3.138,-0.105,-0.030
3.140,-0.175,-0.030
3.142,-0.255,-0.035
3.144,-0.295,-0.035
3.146,-0.290,-0.035
3.148,-0.235,-0.035
3.150,-0.165,-0.035
3.152,-0.065,-0.035
3.154,-0.015,-0.035
3.156,-0.055,-0.035
3.158,-0.080,-0.035
3.160,-0.165,-0.035
3.162,-0.250,-0.030
3.164,-0.335,-0.030
3.166,-0.285,-0.025
3.168,-0.245,-0.025
3.170,-0.145,-0.025
3.172,-0.055,-0.025
3.174,-0.060,-0.030
3.176,-0.030,-0.030
3.178,-0.100,-0.035
3.180,-0.190,-0.035
3.182,-0.250,-0.035
3.184,-0.310,-0.035
3.186,-0.275,-0.035
3.188,-0.250,-0.035
3.190,-0.195,-0.035
3.192,-0.080,-0.035
3.194,-0.040,-0.035
3.196,-0.050,-0.035
3.198,-0.110,-0.040
3.200,-0.185,-0.040
3.202,-0.275,-0.045
3.204,-0.305,-0.050
3.206,-0.275,-0.055
3.208,-0.245,-0.060
3.210,-0.165,-0.060
3.212,-0.090,-0.065
3.214,-0.040,-0.065
3.216,-0.070,-0.065
3.218,-0.125,-0.065
3.220,-0.210,-0.065
3.222,-0.275,-0.060
3.224,-0.290,-0.060
3.226,-0.305,-0.055
3.228,-0.250,-0.055
3.230,-0.145,-0.055
3.232,-0.085,-0.055
3.234,-0.060,-0.055
3.236,-0.075,-0.055
3.238,-0.115,-0.055
3.240,-0.225,-0.055
3.242,-0.270,-0.055
3.244,-0.315,-0.055
3.246,-0.290,-0.055
3.248,-0.240,-0.055
3.250,-0.140,-0.055
3.252,-0.070,-0.055
3.254,-0.055,-0.055
3.256,-0.060,-0.060
3.258,-0.105,-0.060
3.260,-0.220,-0.055
3.262,-0.290,-0.055
3.264,-0.330,-0.050
3.266,-0.280,-0.045
3.268,-0.245,-0.040
3.270,-0.105,-0.040
3.272,-0.060,-0.040
3.274,-0.025,-0.040
3.276,-0.060,-0.040
3.278,-0.125,-0.045
3.280,-0.250,-0.045
3.282,-0.295,-0.050
3.284,-0.305,-0.055
3.286,-0.275,-0.055
3.288,-0.225,-0.055
3.290,-0.130,-0.055
3.292,-0.060,-0.050
3.294,-0.020,-0.050
3.296,-0.055,-0.045
3.298,-0.115,-0.045
3.300,-0.185,-0.040
3.302,-0.260,-0.040
3.304,-0.335,-0.040
3.306,-0.285,-0.035
3.308,-0.215,-0.040
3.310,-0.100,-0.040
3.312,-0.050,-0.040
3.314,-0.030,-0.040
3.316,-0.035,-0.045
3.318,-0.100,-0.040
3.320,-0.200,-0.035
3.322,-0.260,-0.030
3.324,-0.285,-0.025
3.326,-0.265,-0.020
3.328,-0.195,-0.015
3.330,-0.075,-0.010
3.332,-0.005,-0.010
3.334,-0.005,-0.015
3.336,-0.025,-0.020
3.338,-0.085,-0.020
3.340,-0.190,-0.020
3.342,-0.250,-0.020
3.344,-0.255,-0.015
3.346,-0.220,-0.005
3.348,-0.185,0.000
3.350,-0.035,0.010
3.352,0.015,0.010
3.354,-0.005,0.010
3.356,-0.050,0.005
3.358,-0.085,-0.005
3.360,-0.210,-0.015
3.362,-0.250,-0.030
3.364,-0.295,-0.035
3.366,-0.250,-0.040
3.368,-0.190,-0.040
3.370,-0.060,-0.035
3.372,-0.025,-0.030
3.374,-0.030,-0.025
3.376,-0.095,-0.020
3.378,-0.150,-0.025
3.380,-0.250,-0.030
3.382,-0.290,-0.035
3.384,-0.280,-0.045
3.386,-0.225,-0.055
3.388,-0.190,-0.060
3.390,-0.105,-0.060
3.392,-0.030,-0.060
3.394,-0.055,-0.055
3.396,-0.115,-0.055
3.398,-0.150,-0.050
3.400,-0.275,-0.050
3.402,-0.310,-0.055
3.404,-0.310,-0.055
3.406,-0.210,-0.060
3.408,-0.215,-0.065
3.410,-0.070,-0.065
3.412,-0.060,-0.065
3.414,-0.040,-0.060
3.416,-0.105,-0.055
3.418,-0.155,-0.050
3.420,-0.265,-0.050
3.422,-0.305,-0.050
3.424,-0.300,-0.050
3.426,-0.260,-0.055
3.428,-0.195,-0.060
3.430,-0.080,-0.065
3.432,-0.055,-0.065
3.434,-0.055,-0.065
3.436,-0.095,-0.065
3.438,-0.165,-0.065
3.440,-0.265,-0.065
3.442,-0.325,-0.065
3.444,-0.335,-0.070
3.446,-0.280,-0.075
3.448,-0.190,-0.085
3.450,-0.065,-0.095
3.452,-0.095,-0.105
3.454,-0.135,-0.105
3.456,-0.195,-0.095
3.458,-0.205,-0.070
3.460,-0.235,-0.035
3.462,-0.205,0.020
3.464,-0.130,0.080
3.466,0.000,0.155
3.468,0.165,0.230
3.470,0.320,0.300
3.472,0.450,0.355
3.474,0.455,0.395
3.476,0.385,0.410
3.478,0.285,0.400
3.480,0.100,0.365
3.482,-0.015,0.305
3.484,0.010,0.230
3.486,0.040,0.145
3.488,-0.010,0.060
3.490,-0.040,-0.020
3.492,-0.125,-0.085
3.494,-0.210,-0.135
3.496,-0.265,-0.170
3.498,-0.305,-0.190
3.500,-0.380,-0.190
3.502,-0.390,-0.190
3.504,-0.395,-0.180
3.506,-0.340,-0.170
3.508,-0.245,-0.155
3.510,-0.160,-0.145
3.512,-0.090,-0.135
3.514,-0.075,-0.125
3.516,-0.115,-0.110
3.518,-0.235,-0.095
3.520,-0.290,-0.080
3.522,-0.305,-0.065
3.524,-0.270,-0.050
3.526,-0.215,-0.040
3.528,-0.110,-0.035
3.530,-0.050,-0.035
3.532,-0.005,-0.035
3.534,-0.020,-0.040
3.536,-0.060,-0.045
3.538,-0.190,-0.045
3.540,-0.260,-0.045
3.542,-0.285,-0.040
3.544,-0.235,-0.035
3.546,-0.190,-0.030
3.548,-0.090,-0.020
3.550,-0.020,-0.015
3.552,-0.005,-0.015
3.554,-0.015,-0.015
3.556,-0.085,-0.020
3.558,-0.180,-0.020
3.560,-0.240,-0.025
3.562,-0.240,-0.025
3.564,-0.245,-0.025
3.566,-0.185,-0.025
3.568,-0.075,-0.020
3.570,0.005,-0.015
3.572,0.020,-0.010
3.574,-0.020,-0.005
3.576,-0.050,-0.005
3.578,-0.190,-0.005
3.580,-0.225,-0.005
3.582,-0.225,-0.005
3.584,-0.185,-0.010
3.586,-0.175,-0.010
3.588,-0.070,-0.010
3.590,0.035,-0.010
3.592,0.055,-0.010
3.594,-0.015,-0.005
3.596,-0.060,0.000
3.598,-0.170,0.005
3.600,-0.210,0.010
3.602,-0.245,0.015
3.604,-0.180,0.015
3.606,-0.125,0.015
3.608,-0.005,0.015
3.610,0.020,0.015
3.612,0.025,0.010
3.614,0.010,0.010
3.616,-0.045,0.005
3.618,-0.160,0.005
3.620,-0.195,0.010
3.622,-0.220,0.010
3.624,-0.185,0.015
3.626,-0.130,0.025
3.628,0.000,0.030
3.630,0.055,0.035
3.632,0.075,0.040
3.634,0.030,0.045
3.636,-0.010,0.045
3.638,-0.115,0.045
3.640,-0.180,0.045
3.642,-0.195,0.040
3.644,-0.145,0.040
3.646,-0.085,0.040
3.648,0.025,0.040
3.650,0.055,0.045
3.652,0.085,0.045
3.654,0.055,0.050
3.656,0.015,0.055
3.658,-0.110,0.065
3.660,-0.130,0.070
3.662,-0.135,0.075
3.664,-0.075,0.080
3.666,0.000,0.090
3.668,0.080,0.095
3.670,0.145,0.100
3.672,0.125,0.105
3.674,0.075,0.110
3.676,0.030,0.115
3.678,-0.045,0.120
3.680,-0.105,0.120
3.682,-0.085,0.125
3.684,-0.015,0.130
3.686,0.035,0.135
3.688,0.125,0.140
3.690,0.185,0.145
3.692,0.180,0.155
3.694,0.155,0.165
3.696,0.120,0.175
3.698,-0.010,0.185
3.700,-0.025,0.190
3.702,-0.035,0.195
3.704,0.005,0.195
3.706,0.080,0.195
3.708,0.195,0.190
3.710,0.230,0.190
3.712,0.240,0.185
3.714,0.200,0.185
3.716,0.135,0.190
3.718,0.030,0.195
3.720,-0.020,0.200
3.722,-0.005,0.210
3.724,0.045,0.215
3.726,0.120,0.225
3.728,0.220,0.230
3.730,0.260,0.230
3.732,0.255,0.225
3.734,0.210,0.225
3.736,0.130,0.220
3.738,0.025,0.215
3.740,-0.010,0.205
3.742,-0.020,0.200
3.744,0.005,0.190
3.746,0.085,0.180
3.748,0.185,0.170
3.750,0.205,0.155
3.752,0.170,0.145
3.754,0.125,0.130
3.756,0.020,0.120
3.758,-0.080,0.110
3.760,-0.125,0.100
3.762,-0.115,0.095
3.764,-0.080,0.085
3.766,-0.005,0.075
3.768,0.040,0.065
3.770,0.065,0.055
3.772,0.055,0.045
3.774,0.025,0.030
3.776,-0.090,0.020
3.778,-0.180,0.005
3.780,-0.210,-0.005
3.782,-0.225,-0.015
3.784,-0.170,-0.025
3.786,-0.090,-0.030
3.788,0.005,-0.035
3.790,0.025,-0.035
3.792,-0.005,-0.040
3.794,-0.075,-0.040
3.796,-0.155,-0.040
3.798,-0.245,-0.040
3.800,-0.280,-0.040
3.802,-0.265,-0.045
3.804,-0.190,-0.050
3.806,-0.100,-0.055
3.808,-0.065,-0.055
3.810,-0.005,-0.060
3.812,-0.035,-0.065
3.814,-0.100,-0.070
3.816,-0.200,-0.070
3.818,-0.285,-0.070
3.820,-0.300,-0.065
3.822,-0.280,-0.065
3.824,-0.215,-0.060
3.826,-0.105,-0.060
3.828,-0.025,-0.060
3.830,0.005,-0.060
3.832,-0.040,-0.065
3.834,-0.085,-0.070
3.836,-0.215,-0.075
3.838,-0.285,-0.085
3.840,-0.285,-0.085
3.842,-0.250,-0.085
3.844,-0.210,-0.085
3.846,-0.110,-0.080
3.848,-0.020,-0.075
3.850,-0.010,-0.070
3.852,-0.040,-0.065
3.854,-0.070,-0.065
3.856,-0.195,-0.065
3.858,-0.260,-0.065
3.860,-0.295,-0.070
3.862,-0.260,-0.070
3.864,-0.210,-0.070
3.866,-0.085,-0.070
3.868,-0.030,-0.070
3.870,0.010,-0.070
3.872,-0.060,-0.065
3.874,-0.090,-0.065
3.876,-0.185,-0.065
3.878,-0.270,-0.065
3.880,-0.295,-0.065
3.882,-0.270,-0.070
3.884,-0.185,-0.075
3.886,-0.080,-0.075
3.888,-0.025,-0.080
3.890,-0.020,-0.080
3.892,-0.060,-0.080
3.894,-0.085,-0.075
3.896,-0.205,-0.075
3.898,-0.260,-0.070
3.900,-0.265,-0.065
3.902,-0.250,-0.060
3.904,-0.205,-0.060
3.906,-0.065,-0.060
3.908,-0.025,-0.060
3.910,-0.010,-0.060
3.912,-0.025,-0.065
3.914,-0.105,-0.070
3.916,-0.235,-0.080
3.918,-0.290,-0.085
3.920,-0.285,-0.090
3.922,-0.225,-0.090
3.924,-0.175,-0.090
3.926,-0.095,-0.080
3.928,0.000,-0.075
3.930,0.030,-0.065
3.932,-0.045,-0.050
3.934,-0.070,-0.040
3.936,-0.175,-0.035
3.938,-0.270,-0.035
3.940,-0.275,-0.035
3.942,-0.235,-0.045
3.944,-0.150,-0.055
3.946,-0.085,-0.070
3.948,-0.025,-0.085
3.950,-0.010,-0.095
3.952,-0.035,-0.100
3.954,-0.195,-0.105
3.956,-0.235,-0.105
3.958,-0.255,-0.100
3.960,-0.305,-0.095
3.962,-0.335,-0.085
3.964,-0.150,-0.080
3.966,-0.010,-0.075
3.968,0.005,-0.075
3.970,-0.035,-0.075
3.972,-0.190,-0.075
3.974,-0.050,-0.075
3.976,-0.170,-0.075
3.978,-0.320,-0.080
3.980,-0.385,-0.085
3.982,-0.190,-0.090
3.984,-0.090,-0.095
3.986,-0.135,-0.100
3.988,-0.020,-0.110
3.990,0.000,-0.110
3.992,-0.115,-0.115
3.994,-0.190,-0.110
3.996,-0.215,-0.105
3.998,-0.295,-0.095
4.000,-0.350,-0.085
4.002,-0.260,-0.075
4.004,-0.025,-0.065
4.006,-0.070,-0.060
4.008,-0.010,-0.060
4.010,-0.025,-0.065
4.012,-0.015,-0.070
4.014,-0.160,-0.085
4.016,-0.270,-0.095
4.018,-0.310,-0.105
4.020,-0.300,-0.115
4.022,-0.220,-0.115
4.024,-0.125,-0.115
4.026,-0.025,-0.110
4.028,-0.125,-0.105
4.030,0.025,-0.095
4.032,-0.075,-0.080
4.034,-0.145,-0.070
4.036,-0.225,-0.060
4.038,-0.280,-0.050
4.040,-0.215,-0.050
4.042,-0.165,-0.050
4.044,-0.105,-0.055
4.046,-0.020,-0.060
4.048,0.020,-0.070
4.050,-0.045,-0.075
4.052,-0.075,-0.085
4.054,-0.185,-0.090
4.056,-0.275,-0.090
4.058,-0.295,-0.090
4.060,-0.280,-0.085
4.062,-0.185,-0.080
4.064,-0.060,-0.075
4.066,-0.020,-0.070
4.068,0.020,-0.070
4.070,-0.010,-0.065
4.072,-0.080,-0.065
4.074,-0.090,-0.060
4.076,-0.275,-0.055
4.078,-0.270,-0.050
4.080,-0.135,-0.050
4.082,-0.205,-0.045
4.084,-0.055,-0.045
4.086,0.005,-0.045
4.088,0.080,-0.045
4.090,-0.010,-0.050
4.092,-0.065,-0.055
4.094,-0.180,-0.060
4.096,-0.210,-0.060
4.098,-0.225,-0.060
4.100,-0.230,-0.060
4.102,-0.130,-0.055
4.104,-0.095,-0.050
4.106,-0.065,-0.040
4.108,0.095,-0.030
4.110,0.045,-0.025
4.112,-0.005,-0.015
4.114,-0.160,-0.005
4.116,-0.145,0.000
4.118,-0.195,0.005
4.120,-0.130,0.010
4.122,-0.040,0.015
4.124,0.060,0.015
4.126,0.125,0.015
4.128,0.080,0.015
4.130,0.005,0.015
4.132,-0.050,0.010
4.134,-0.070,0.010
4.136,-0.150,0.005
4.138,-0.140,-0.005
4.140,-0.170,-0.010
4.142,-0.150,-0.020
4.144,-0.035,-0.025
4.146,0.045,-0.035
4.148,0.095,-0.045
4.150,0.040,-0.055
4.152,-0.150,-0.065
4.154,-0.170,-0.075
4.156,-0.250,-0.080
4.158,-0.325,-0.090
4.160,-0.290,-0.095
4.162,-0.215,-0.100
4.164,-0.040,-0.105
4.166,-0.015,-0.105
4.168,-0.025,-0.110
4.170,-0.020,-0.105
4.172,-0.085,-0.105
4.174,-0.285,-0.100
4.176,-0.290,-0.095
4.178,-0.215,-0.090
4.180,-0.225,-0.085
4.182,-0.195,-0.080
4.184,-0.070,-0.080
4.186,-0.030,-0.080
4.188,0.040,-0.080
4.190,-0.015,-0.080
4.192,-0.130,-0.085
4.194,-0.180,-0.090
4.196,-0.225,-0.095
4.198,-0.375,-0.100
4.200,-0.205,-0.100
4.202,-0.135,-0.105
4.204,-0.080,-0.105
4.206,0.050,-0.105
4.208,-0.045,-0.100
4.210,-0.165,-0.100
4.212,-0.145,-0.095
4.214,-0.165,-0.090
4.216,-0.215,-0.085
4.218,-0.260,-0.080
4.220,-0.280,-0.080
4.222,-0.110,-0.080
4.224,-0.030,-0.080
4.226,-0.065,-0.080
4.228,0.020,-0.080
4.230,-0.025,-0.080
4.232,-0.130,-0.080
4.234,-0.225,-0.085
4.236,-0.290,-0.090
4.238,-0.285,-0.100
4.240,-0.240,-0.115
4.242,-0.155,-0.130
4.244,-0.075,-0.150
4.246,-0.115,-0.160
4.248,-0.095,-0.165
4.250,-0.140,-0.155
4.252,-0.150,-0.130
4.254,-0.265,-0.090
4.256,-0.260,-0.035
4.258,-0.205,0.035
4.260,0.155,0.115
4.262,0.190,0.195
4.264,0.325,0.270
4.266,0.445,0.330
4.268,0.515,0.375
4.270,0.440,0.400
4.272,0.335,0.400
4.274,0.255,0.375
4.276,0.140,0.325
4.278,0.085,0.255
4.280,0.075,0.175
4.282,0.025,0.085
4.284,0.030,-0.005
4.286,0.005,-0.085
4.288,-0.150,-0.155
4.290,-0.250,-0.200
4.292,-0.240,-0.230
4.294,-0.385,-0.240
4.296,-0.420,-0.240
4.298,-0.310,-0.225
4.300,-0.325,-0.205
4.302,-0.270,-0.185
4.304,-0.090,-0.175
4.306,-0.080,-0.165
4.308,-0.075,-0.160
4.310,-0.165,-0.155
4.312,-0.205,-0.150
4.314,-0.215,-0.135
4.316,-0.265,-0.125
4.318,-0.215,-0.105
4.320,-0.245,-0.085
4.322,-0.085,-0.070
4.324,-0.030,-0.060
4.326,0.065,-0.055
4.328,0.015,-0.060
4.330,-0.070,-0.065
4.332,-0.100,-0.075
4.334,-0.275,-0.080
4.336,-0.195,-0.080
4.338,-0.205,-0.070
4.340,-0.210,-0.060
4.342,-0.015,-0.045
4.344,0.020,-0.030
4.346,0.065,-0.020
4.348,0.045,-0.015
4.350,-0.020,-0.015
4.352,-0.115,-0.025
4.354,-0.180,-0.035
4.356,-0.180,-0.045
4.358,-0.170,-0.055
4.360,-0.215,-0.060
4.362,-0.040,-0.060
4.364,-0.015,-0.055
4.366,0.035,-0.050
4.368,0.075,-0.040
4.370,-0.010,-0.035
4.372,-0.095,-0.035
4.374,-0.215,-0.035
4.376,-0.190,-0.040
4.378,-0.155,-0.045
4.380,-0.150,-0.050
4.382,-0.065,-0.055
4.384,0.050,-0.060
4.386,0.030,-0.060
4.388,0.035,-0.055
4.390,-0.015,-0.045
4.392,-0.080,-0.040
4.394,-0.120,-0.025
4.396,-0.140,-0.015
4.398,-0.165,-0.010
4.400,-0.095,0.000
4.402,-0.005,0.005
4.404,0.120,0.005
4.406,0.085,0.005
4.408,0.070,0.005
4.410,0.035,0.005
4.412,-0.065,0.005
4.414,-0.140,0.005
4.416,-0.190,0.010
4.418,-0.135,0.010
4.420,-0.090,0.010
4.422,0.030,0.010
4.424,0.110,0.010
4.426,0.150,0.010
4.428,0.105,0.010
4.430,-0.050,0.015
4.432,-0.040,0.015
4.434,-0.070,0.020
4.436,-0.115,0.025
4.438,-0.185,0.030
4.440,-0.105,0.035
4.442,0.135,0.045
4.444,0.185,0.055
4.446,0.145,0.060
4.448,0.110,0.065
4.450,0.065,0.075
4.452,0.020,0.080
4.454,-0.045,0.085
4.456,-0.040,0.090
4.458,-0.045,0.095
4.460,0.040,0.095
4.462,0.115,0.100
4.464,0.185,0.105
4.466,0.205,0.110
4.468,0.140,0.110
4.470,0.140,0.115
4.472,0.035,0.115
4.474,-0.020,0.120
4.476,0.020,0.120
4.478,0.015,0.125
4.480,0.010,0.130
4.482,0.160,0.135
4.484,0.245,0.140
4.486,0.300,0.145
4.488,0.215,0.150
4.490,0.160,0.155
4.492,0.100,0.155
4.494,-0.040,0.160
4.496,0.040,0.170
4.498,0.095,0.175
4.500,0.165,0.185
4.502,0.250,0.195
4.504,0.325,0.205
4.506,0.320,0.220
4.508,0.280,0.230
4.510,0.270,0.240
4.512,0.170,0.245
4.514,0.030,0.240
4.516,0.105,0.235
4.518,0.135,0.220
4.520,0.100,0.200
4.522,0.200,0.185
4.524,0.305,0.175
4.526,0.290,0.170
4.528,0.290,0.175
4.530,0.220,0.185
4.532,0.100,0.205
4.534,0.000,0.220
4.536,0.050,0.235
4.538,0.210,0.240
4.540,0.210,0.240
4.542,0.230,0.225
4.544,0.280,0.205
4.546,0.280,0.180
4.548,0.200,0.155
4.550,0.090,0.135
4.552,0.050,0.120
4.554,-0.030,0.115
4.556,-0.035,0.110
4.558,0.040,0.110
4.560,0.095,0.110
4.562,0.135,0.100
4.564,0.170,0.090
4.566,0.125,0.075
4.568,0.090,0.050
4.570,0.010,0.030
4.572,-0.115,0.015
4.574,-0.115,0.010
4.576,-0.115,0.010
4.578,-0.060,0.015
4.580,0.005,0.025
4.582,0.140,0.035
4.584,0.140,0.040
4.586,0.035,0.035
4.588,0.045,0.025
4.590,-0.035,0.005
4.592,-0.125,-0.020
4.594,-0.145,-0.045
4.596,-0.160,-0.060
4.598,-0.070,-0.065
4.600,-0.075,-0.060
4.602,-0.110,-0.050
4.604,-0.020,-0.030
4.606,0.065,-0.015
4.608,0.075,-0.005
4.610,0.070,0.000
4.612,0.035,-0.005
4.614,-0.110,-0.020
4.616,-0.085,-0.035
4.618,-0.215,-0.045
4.620,-0.205,-0.055
4.622,-0.085,-0.055
4.624,0.035,-0.050
4.626,0.005,-0.045
4.628,0.050,-0.035
4.630,0.065,-0.030
4.632,-0.025,-0.030
4.634,-0.025,-0.040
4.636,-0.220,-0.055
4.638,-0.205,-0.070
4.640,-0.215,-0.080
4.642,-0.145,-0.080
4.644,-0.040,-0.075
4.646,0.130,-0.060
4.648,0.025,-0.045
4.650,0.070,-0.025
4.652,-0.020,-0.010
4.654,-0.070,0.000
4.656,-0.155,0.000
4.658,-0.145,-0.010
4.660,-0.095,-0.020
4.662,-0.105,-0.030
4.664,0.000,-0.040
4.666,0.060,-0.040
4.668,0.065,-0.035
4.670,0.110,-0.025
4.672,0.020,-0.015
4.674,-0.055,-0.005
4.676,-0.155,0.005
4.678,-0.115,0.005
4.680,-0.140,0.005
4.682,-0.125,0.005
4.684,0.065,0.000
4.686,0.085,0.000
4.688,0.090,0.000
4.690,0.125,0.005
4.692,0.035,0.010
4.694,-0.070,0.010
4.696,-0.100,0.015
4.698,-0.150,0.015
4.700,-0.140,0.010
4.702,-0.045,0.005
4.704,0.030,0.000
4.706,0.100,-0.005
4.708,0.090,-0.005
4.710,0.145,-0.005
4.712,0.010,0.005
4.714,-0.040,0.010
4.716,-0.095,0.020
4.718,-0.155,0.030
4.720,-0.065,0.035
4.722,-0.020,0.035
4.724,0.050,0.030
4.726,0.140,0.025
4.728,0.125,0.015
4.730,0.020,0.005
4.732,0.000,-0.005
4.734,0.005,-0.010
4.736,-0.145,-0.015
4.738,-0.120,-0.015
4.740,-0.090,-0.010
4.742,-0.070,-0.010
4.744,0.020,-0.005
4.746,0.065,-0.005
4.748,0.140,0.000
4.750,0.110,-0.005
4.752,0.060,-0.005
4.754,-0.110,-0.010
4.756,-0.140,-0.010
4.758,-0.175,-0.010
4.760,-0.145,-0.010
4.762,-0.030,-0.010
4.764,0.035,-0.005
4.766,0.160,-0.005
4.768,0.105,-0.005
4.770,0.080,0.000
4.772,0.015,0.000
4.774,-0.075,0.005
4.776,-0.120,0.005
4.778,-0.100,0.010
4.780,-0.120,0.010
4.782,-0.060,0.010
4.784,0.070,0.010
4.786,0.170,0.005
4.788,0.090,0.005
4.790,0.055,0.000
4.792,-0.025,-0.005
4.794,-0.090,-0.010
4.796,-0.160,-0.015
4.798,-0.150,-0.015
4.800,-0.075,-0.015
4.802,-0.080,-0.015
4.804,0.085,-0.010
4.806,0.115,-0.005
4.808,0.110,-0.005
4.810,0.080,-0.005
4.812,-0.010,-0.005
4.814,-0.080,-0.010
4.816,-0.175,-0.015
4.818,-0.170,-0.015
4.820,-0.120,-0.015
4.822,0.010,-0.015
4.824,0.080,-0.015
4.826,0.120,-0.010
4.828,0.130,-0.010
4.830,0.050,-0.005
4.832,0.000,-0.005
4.834,-0.130,-0.005
4.836,-0.165,-0.010
4.838,-0.210,-0.015
4.840,-0.080,-0.020
4.842,0.005,-0.020
4.844,0.005,-0.025
4.846,0.110,-0.025
4.848,0.105,-0.020
4.850,0.000,-0.020
4.852,-0.040,-0.015
4.854,-0.050,-0.015
4.856,-0.180,-0.015
4.858,-0.160,-0.015
4.860,-0.045,-0.020
4.862,-0.040,-0.025
4.864,0.005,-0.030
4.866,0.070,-0.030
4.868,0.095,-0.030
4.870,0.110,-0.025
4.872,-0.065,-0.015
4.874,-0.080,-0.005
4.876,-0.165,0.010
4.878,-0.190,0.020
4.880,-0.010,0.025
4.882,0.055,0.025
4.884,0.105,0.020
4.886,0.055,0.010
4.888,0.040,0.000
4.890,0.035,-0.010
4.892,0.020,-0.015
4.894,-0.080,-0.015
4.896,-0.105,-0.010
4.898,-0.055,0.000
4.900,-0.170,0.015
4.902,-0.030,0.030
4.904,0.200,0.035
4.906,0.145,0.040
4.908,0.155,0.035
4.910,0.105,0.025
4.912,-0.100,0.015
4.914,-0.095,0.005
4.916,-0.100,0.000
4.918,-0.115,0.005
4.920,-0.100,0.010
4.922,0.035,0.025
4.924,0.170,0.040
4.926,0.165,0.055
4.928,0.125,0.065
4.930,0.080,0.070
4.932,0.040,0.070
4.934,-0.025,0.065
4.936,-0.080,0.055
4.938,-0.125,0.040
4.940,-0.050,0.030
4.942,0.015,0.025
4.944,0.160,0.015
4.946,0.130,0.010
4.948,0.135,0.005
4.950,0.015,0.000
4.952,-0.035,-0.005
4.954,-0.185,-0.015
4.956,-0.140,-0.020
4.958,-0.085,-0.025
4.960,-0.150,-0.030
4.962,0.025,-0.030
4.964,0.080,-0.025
4.966,0.125,-0.025
4.968,0.110,-0.020
4.970,0.080,-0.015
4.972,-0.100,-0.010
4.974,-0.135,-0.005
4.976,-0.125,-0.005
4.978,-0.140,-0.005
4.980,-0.110,-0.010
4.982,0.025,-0.015
4.984,0.100,-0.020
4.986,0.060,-0.025
4.988,0.050,-0.030
4.990,0.045,-0.035
4.992,-0.095,-0.035
4.994,-0.140,-0.035
4.996,-0.170,-0.035
4.998,-0.130,-0.030
5.000,-0.125,-0.025
5.002,0.100,-0.020
5.004,0.010,-0.020
5.006,0.110,-0.015
5.008,0.070,-0.015
5.010,-0.030,-0.020
5.012,-0.130,-0.030
5.014,-0.130,-0.035
5.016,-0.165,-0.045
5.018,-0.230,-0.055
5.020,-0.110,-0.065
5.022,0.010,-0.070
5.024,0.090,-0.070
5.026,0.065,-0.065
5.028,-0.040,-0.050
5.030,-0.010,-0.025
5.032,-0.080,0.010
5.034,-0.120,0.055
5.036,0.040,0.115
5.038,0.075,0.180
5.040,0.265,0.255
5.042,0.350,0.325
5.044,0.520,0.395
5.046,0.640,0.445
5.048,0.600,0.480
5.050,0.515,0.490
5.052,0.355,0.475
5.054,0.210,0.435
5.056,0.180,0.370
5.058,0.210,0.285
5.060,0.185,0.195
5.062,0.220,0.105
5.064,0.080,0.020
5.066,-0.020,-0.050
5.068,-0.110,-0.105
5.070,-0.135,-0.145
5.072,-0.255,-0.165
5.074,-0.300,-0.175
5.076,-0.280,-0.170
5.078,-0.245,-0.160
5.080,-0.165,-0.145
5.082,-0.075,-0.125
5.084,-0.005,-0.110
5.086,0.055,-0.085
5.088,0.040,-0.065
5.090,-0.055,-0.045
5.092,-0.085,-0.025
5.094,-0.105,-0.005
5.096,-0.175,0.010
5.098,-0.070,0.020
5.100,-0.040,0.025
5.102,0.100,0.030
5.104,0.125,0.030
5.106,0.140,0.030
5.108,0.075,0.035
5.110,0.085,0.035
5.112,-0.050,0.040
5.114,-0.140,0.045
5.116,-0.150,0.045
5.118,-0.065,0.045
5.120,0.030,0.045
5.122,0.095,0.040
5.124,0.140,0.040
5.126,0.110,0.035
5.128,0.115,0.030
5.130,0.020,0.035
5.132,-0.035,0.035
5.134,-0.075,0.045
5.136,-0.090,0.055
5.138,-0.065,0.060
5.140,0.050,0.070
5.142,0.115,0.070
5.144,0.145,0.070
5.146,0.185,0.065
5.148,0.130,0.060
5.150,0.015,0.055
5.152,-0.035,0.050
5.154,-0.100,0.050
5.156,-0.090,0.050
5.158,-0.005,0.055
5.160,0.065,0.060
5.162,0.155,0.070
5.164,0.140,0.075
5.166,0.120,0.080
5.168,0.150,0.080
5.170,0.095,0.080
5.172,-0.020,0.075
5.174,-0.080,0.070
5.176,-0.065,0.070
5.178,0.000,0.065
5.180,0.060,0.065
5.182,0.135,0.070
5.184,0.180,0.075
5.186,0.215,0.085
5.188,0.165,0.090
5.190,0.050,0.095
5.192,-0.040,0.100
5.194,-0.070,0.105
5.196,-0.060,0.100
5.198,0.000,0.100
5.200,0.075,0.095
5.202,0.150,0.095
5.204,0.175,0.090
5.206,0.175,0.090
5.208,0.125,0.090
5.210,0.040,0.095
5.212,-0.020,0.095
5.214,-0.020,0.100
5.216,-0.020,0.105
5.218,0.030,0.110
5.220,0.125,0.115
5.222,0.175,0.115
5.224,0.195,0.115
5.226,0.175,0.115
5.228,0.155,0.115
5.230,0.025,0.115
5.232,-0.035,0.115
5.234,0.005,0.115
5.236,0.010,0.120
5.238,0.075,0.130
5.240,0.190,0.135
5.242,0.250,0.145
5.244,0.275,0.160
5.246,0.240,0.170
5.248,0.210,0.180
5.250,0.115,0.185
5.252,0.015,0.190
5.254,0.030,0.200
5.256,0.060,0.200
5.258,0.155,0.205
5.260,0.245,0.210
5.262,0.335,0.215
5.264,0.335,0.215
5.266,0.260,0.220
5.268,0.260,0.225
5.270,0.170,0.225
5.272,0.085,0.225
5.274,0.045,0.225
5.276,0.085,0.225
5.278,0.140,0.225
5.280,0.260,0.225
5.282,0.325,0.230
5.284,0.375,0.230
5.286,0.330,0.230
5.288,0.255,0.235
5.290,0.145,0.235
5.292,0.090,0.240
5.294,0.070,0.235
5.296,0.095,0.235
5.298,0.190,0.230
5.300,0.315,0.225
5.302,0.290,0.220
5.304,0.325,0.220
5.306,0.330,0.215
5.308,0.265,0.220
5.310,0.100,0.220
5.312,0.100,0.220
5.314,0.055,0.220
5.316,0.065,0.215
5.318,0.090,0.210
5.320,0.200,0.195
5.322,0.275,0.180
5.324,0.275,0.165
5.326,0.245,0.145
5.328,0.120,0.130
5.330,0.015,0.115
5.332,-0.040,0.100
5.334,-0.105,0.090
5.336,-0.075,0.080
5.338,-0.030,0.070
5.340,0.100,0.060
5.342,0.150,0.050
5.344,0.130,0.040
5.346,0.115,0.030
5.348,0.035,0.020
5.350,-0.095,0.010
5.352,-0.135,0.005
5.354,-0.160,0.000
5.356,-0.150,-0.005
5.358,-0.085,-0.005
5.360,0.025,-0.010
5.362,0.060,-0.015
5.364,0.090,-0.020
5.366,0.050,-0.025
5.368,-0.015,-0.035
5.370,-0.120,-0.040
5.372,-0.190,-0.045
5.374,-0.205,-0.050
5.376,-0.145,-0.055
5.378,-0.120,-0.055
5.380,-0.020,-0.055
5.382,0.005,-0.060
5.384,0.010,-0.065
5.386,-0.030,-0.065
5.388,-0.100,-0.075
5.390,-0.185,-0.080
5.392,-0.230,-0.090
5.394,-0.280,-0.095
5.396,-0.225,-0.100
5.398,-0.140,-0.105
5.400,-0.025,-0.105
5.402,0.005,-0.100
5.404,0.020,-0.100
5.406,-0.025,-0.090
5.408,-0.100,-0.085
5.410,-0.200,-0.080
5.412,-0.230,-0.075
5.414,-0.230,-0.075
5.416,-0.175,-0.075
5.418,-0.115,-0.075
5.420,-0.020,-0.075
5.422,0.010,-0.080
5.424,0.025,-0.080
5.426,-0.040,-0.085
5.428,-0.110,-0.085
5.430,-0.225,-0.090
5.432,-0.255,-0.090
5.434,-0.265,-0.090
5.436,-0.220,-0.095
5.438,-0.130,-0.095
5.440,-0.035,-0.100
5.442,-0.025,-0.100
5.444,0.020,-0.105
5.446,-0.025,-0.105
5.448,-0.125,-0.100
5.450,-0.220,-0.100
5.452,-0.270,-0.095
5.454,-0.245,-0.090
5.456,-0.180,-0.085
5.458,-0.080,-0.080
5.460,-0.010,-0.075
5.462,0.030,-0.070
5.464,0.015,-0.070
5.466,-0.040,-0.070
5.468,-0.125,-0.070
5.470,-0.245,-0.075
5.472,-0.260,-0.080
5.474,-0.240,-0.090
5.476,-0.195,-0.095
5.478,-0.070,-0.105
5.480,-0.055,-0.110
5.482,-0.010,-0.110
5.484,-0.025,-0.105
5.486,-0.060,-0.100
5.488,-0.130,-0.090
5.490,-0.220,-0.080
5.492,-0.230,-0.070
5.494,-0.235,-0.060
5.496,-0.190,-0.055
5.498,-0.065,-0.055
5.500,-0.010,-0.060
5.502,-0.020,-0.065
5.504,-0.020,-0.075
5.506,-0.070,-0.085
5.508,-0.150,-0.090
5.510,-0.250,-0.095
5.512,-0.270,-0.095
5.514,-0.250,-0.095
5.516,-0.205,-0.095
5.518,-0.080,-0.090
5.520,0.000,-0.090
5.522,0.025,-0.090
5.524,0.010,-0.090
5.526,-0.100,-0.090
5.528,-0.185,-0.095
5.530,-0.260,-0.100
5.532,-0.270,-0.100
5.534,-0.250,-0.100
5.536,-0.180,-0.100
5.538,-0.070,-0.100
5.540,-0.020,-0.095
5.542,0.005,-0.095
5.544,-0.020,-0.090
5.546,-0.075,-0.090
5.548,-0.180,-0.090
5.550,-0.245,-0.090
5.552,-0.280,-0.090
5.554,-0.250,-0.095
5.556,-0.195,-0.095
5.558,-0.095,-0.100
5.560,-0.055,-0.100
5.562,-0.010,-0.105
5.564,-0.040,-0.105
5.566,-0.085,-0.105
5.568,-0.195,-0.105
5.570,-0.255,-0.100
5.572,-0.290,-0.100
5.574,-0.265,-0.100
5.576,-0.180,-0.100
5.578,-0.080,-0.095
5.580,0.010,-0.095
5.582,0.010,-0.095
5.584,-0.060,-0.100
5.586,-0.105,-0.100
5.588,-0.190,-0.100
5.590,-0.290,-0.100
5.592,-0.290,-0.100
5.594,-0.245,-0.100
5.596,-0.190,-0.095
5.598,-0.070,-0.095
5.600,-0.015,-0.090
5.602,0.020,-0.090
5.604,-0.035,-0.085
5.606,-0.080,-0.080
5.608,-0.230,-0.080
5.610,-0.260,-0.080
5.612,-0.280,-0.080
5.614,-0.260,-0.080
5.616,-0.200,-0.085
5.618,-0.070,-0.090
5.620,0.010,-0.090
5.622,0.000,-0.095
5.624,-0.045,-0.095
5.626,-0.100,-0.095
5.628,-0.210,-0.090
5.630,-0.280,-0.085
5.632,-0.265,-0.085
5.634,-0.245,-0.080
5.636,-0.205,-0.080
5.638,-0.075,-0.085
5.640,-0.010,-0.085
5.642,-0.005,-0.090
5.644,-0.035,-0.095
5.646,-0.100,-0.095
5.648,-0.235,-0.100
5.650,-0.310,-0.095
5.652,-0.280,-0.095
5.654,-0.210,-0.090
5.656,-0.185,-0.085
5.658,-0.080,-0.080
5.660,-0.015,-0.080
5.662,-0.010,-0.080
5.664,-0.030,-0.080
5.666,-0.080,-0.085
5.668,-0.245,-0.090
5.670,-0.285,-0.090
5.672,-0.245,-0.090
5.674,-0.225,-0.090
5.676,-0.160,-0.085
5.678,-0.065,-0.080
5.680,0.000,-0.075
5.682,0.005,-0.070
5.684,-0.040,-0.060
5.686,-0.105,-0.055
5.688,-0.180,-0.050
5.690,-0.240,-0.045
5.692,-0.225,-0.045
5.694,-0.185,-0.045
5.696,-0.100,-0.045
5.698,-0.010,-0.050
5.700,0.010,-0.050
5.702,0.030,-0.050
5.704,-0.045,-0.050
5.706,-0.110,-0.050
5.708,-0.205,-0.045
5.710,-0.225,-0.045
5.712,-0.235,-0.045
5.714,-0.190,-0.045
5.716,-0.115,-0.045
5.718,0.000,-0.050
5.720,0.000,-0.055
5.722,-0.020,-0.060
5.724,-0.060,-0.070
5.726,-0.145,-0.075
5.728,-0.250,-0.080
5.730,-0.285,-0.080
5.732,-0.280,-0.085
5.734,-0.215,-0.085
5.736,-0.140,-0.080
5.738,-0.030,-0.085
5.740,-0.035,-0.085
5.742,-0.010,-0.085
5.744,-0.080,-0.090
5.746,-0.165,-0.095
5.748,-0.290,-0.100
5.750,-0.305,-0.105
5.752,-0.280,-0.105
5.754,-0.235,-0.110
5.756,-0.140,-0.105
5.758,-0.085,-0.105
5.760,-0.060,-0.105
5.762,-0.085,-0.105
5.764,-0.155,-0.105
5.766,-0.235,-0.110
5.768,-0.300,-0.115
5.770,-0.350,-0.120
5.772,-0.335,-0.125
5.774,-0.265,-0.130
5.776,-0.180,-0.130
5.778,-0.085,-0.130
5.780,-0.060,-0.130
5.782,-0.055,-0.125
5.784,-0.105,-0.120
5.786,-0.185,-0.115
5.788,-0.295,-0.115
5.790,-0.315,-0.115
5.792,-0.285,-0.115
5.794,-0.270,-0.115
5.796,-0.155,-0.120
5.798,-0.115,-0.120
5.800,-0.085,-0.120
5.802,-0.065,-0.125
5.804,-0.125,-0.130
5.806,-0.270,-0.135
5.808,-0.355,-0.145
5.810,-0.355,-0.155
5.812,-0.355,-0.165
5.814,-0.320,-0.170
5.816,-0.240,-0.165
5.818,-0.140,-0.150
5.820,-0.050,-0.115
5.822,-0.020,-0.065
5.824,0.015,0.005
5.826,-0.010,0.085
5.828,0.035,0.170
5.830,0.080,0.245
5.832,0.170,0.310
5.834,0.270,0.355
5.836,0.400,0.365
5.838,0.375,0.350
5.840,0.280,0.310
5.842,0.190,0.245
5.844,0.185,0.170
5.846,0.025,0.085
5.848,-0.145,0.005
5.850,-0.280,-0.070
5.852,-0.370,-0.135
5.854,-0.420,-0.185
5.856,-0.355,-0.225
5.858,-0.245,-0.250
5.860,-0.195,-0.270
5.862,-0.255,-0.280
5.864,-0.305,-0.280
5.866,-0.405,-0.275
5.868,-0.455,-0.265
5.870,-0.465,-0.250
5.872,-0.385,-0.225
5.874,-0.345,-0.205
5.876,-0.215,-0.180
5.878,-0.105,-0.160
5.880,-0.085,-0.145
5.882,-0.100,-0.135
5.884,-0.140,-0.130
5.886,-0.260,-0.125
5.888,-0.325,-0.125
5.890,-0.335,-0.125
5.892,-0.280,-0.120
5.894,-0.225,-0.120
5.896,-0.130,-0.115
5.898,-0.070,-0.110
5.900,-0.045,-0.105
5.902,-0.110,-0.100
5.904,-0.140,-0.095
5.906,-0.235,-0.090
5.908,-0.275,-0.085
5.910,-0.280,-0.080
5.912,-0.255,-0.080
5.914,-0.205,-0.075
5.916,-0.110,-0.070
5.918,-0.075,-0.070
5.920,-0.010,-0.070
5.922,-0.065,-0.075
5.924,-0.110,-0.080
5.926,-0.235,-0.085
5.928,-0.275,-0.090
5.930,-0.285,-0.090
5.932,-0.230,-0.085
5.934,-0.200,-0.080
5.936,-0.100,-0.070
5.938,-0.060,-0.060
5.940,-0.020,-0.045
5.942,-0.060,-0.040
5.944,-0.120,-0.035
5.946,-0.200,-0.035
5.948,-0.250,-0.040
5.950,-0.245,-0.045
5.952,-0.250,-0.055
5.954,-0.160,-0.060
5.956,-0.055,-0.060
5.958,-0.025,-0.060
5.960,0.000,-0.050
5.962,-0.025,-0.035
5.964,-0.115,-0.025
5.966,-0.155,-0.010
5.968,-0.240,-0.005
5.970,-0.255,-0.005
5.972,-0.225,-0.010
5.974,-0.125,-0.020
5.976,-0.025,-0.030
5.978,0.015,-0.040
5.980,-0.020,-0.045
5.982,-0.045,-0.045
5.984,-0.110,-0.040
5.986,-0.200,-0.025
5.988,-0.220,-0.010
5.990,-0.215,0.000
5.992,-0.155,0.010
5.994,-0.065,0.015
5.996,0.010,0.010
5.998,0.020,0.005
6.000,0.015,-0.005
6.002,-0.025,-0.010
6.004,-0.070,-0.010
6.006,-0.140,0.000
6.008,-0.200,0.015
6.010,-0.180,0.040
6.012,-0.130,0.065
6.014,-0.020,0.085
6.016,0.125,0.105
6.018,0.170,0.110
6.020,0.140,0.110
6.022,0.040,0.100
6.024,-0.015,0.085
6.026,-0.145,0.075
6.028,-0.175,0.070
6.030,-0.115,0.080
6.032,-0.045,0.095
6.034,0.035,0.120
6.036,0.200,0.150
6.038,0.185,0.175
6.040,0.125,0.190
6.042,0.190,0.195
6.044,0.125,0.185
6.046,0.025,0.165
6.048,-0.120,0.140
6.050,-0.195,0.115
6.052,-0.155,0.090
6.054,-0.030,0.080
6.056,0.120,0.075
6.058,0.225,0.090
6.060,0.225,0.110
6.062,0.065,0.135
6.064,-0.035,0.155
6.066,-0.065,0.175
6.068,-0.060,0.185
6.070,-0.045,0.185
6.072,0.020,0.180
6.074,0.090,0.170
6.076,0.130,0.160
6.078,0.185,0.155
6.080,0.195,0.155
6.082,0.120,0.160
6.084,0.035,0.170
6.086,-0.060,0.180
6.088,-0.025,0.190
6.090,-0.050,0.200
6.092,-0.015,0.200
6.094,0.110,0.200
6.096,0.185,0.190
6.098,0.240,0.175
6.100,0.175,0.165
6.102,0.075,0.150
6.104,-0.030,0.140
6.106,-0.080,0.135
6.108,-0.105,0.130
6.110,-0.050,0.125
6.112,-0.030,0.120
6.114,0.045,0.115
6.116,0.105,0.110
6.118,0.135,0.100
6.120,0.080,0.085
6.122,0.015,0.075
6.124,-0.055,0.065
6.126,-0.160,0.055
6.128,-0.170,0.050
6.130,-0.140,0.040
6.132,-0.130,0.035
6.134,-0.060,0.025
6.136,0.005,0.010
6.138,-0.015,0.000
6.140,-0.030,-0.015
6.142,-0.090,-0.025
6.144,-0.200,-0.035
6.146,-0.255,-0.040
6.148,-0.255,-0.040
6.150,-0.250,-0.035
6.152,-0.215,-0.030
6.154,-0.075,-0.025
6.156,0.000,-0.025
6.158,0.000,-0.025
6.160,-0.050,-0.030
6.162,-0.110,-0.035
6.164,-0.235,-0.045
6.166,-0.280,-0.055
6.168,-0.310,-0.060
6.170,-0.285,-0.065
6.172,-0.200,-0.065
6.174,-0.090,-0.060
6.176,-0.045,-0.055
6.178,-0.010,-0.045
6.180,-0.080,-0.040
6.182,-0.130,-0.040
6.184,-0.215,-0.040
6.186,-0.285,-0.045
6.188,-0.315,-0.050
6.190,-0.310,-0.060
6.192,-0.225,-0.065
6.194,-0.095,-0.065
6.196,-0.055,-0.065
6.198,-0.040,-0.065
6.200,-0.105,-0.060
6.202,-0.110,-0.055
6.204,-0.220,-0.050
6.206,-0.310,-0.045
6.208,-0.320,-0.045
6.210,-0.275,-0.050
6.212,-0.230,-0.050
6.214,-0.105,-0.055
6.216,-0.040,-0.060
6.218,-0.005,-0.060
6.220,-0.070,-0.065
6.222,-0.130,-0.065
6.224,-0.255,-0.060
6.226,-0.305,-0.060
6.228,-0.310,-0.055
6.230,-0.260,-0.055
6.232,-0.195,-0.050
6.234,-0.075,-0.045
6.236,-0.025,-0.040
6.238,-0.040,-0.035
6.240,-0.070,-0.025
6.242,-0.090,-0.020
6.244,-0.190,-0.020
6.246,-0.255,-0.015
6.248,-0.310,-0.020
6.250,-0.245,-0.025
6.252,-0.150,-0.030
6.254,-0.095,-0.040
6.256,-0.055,-0.050
6.258,-0.020,-0.055
6.260,-0.055,-0.060
6.262,-0.150,-0.065
6.264,-0.245,-0.060
6.266,-0.295,-0.060
6.268,-0.290,-0.055
6.270,-0.280,-0.050
6.272,-0.185,-0.050
6.274,-0.065,-0.050
6.276,-0.050,-0.050
6.278,-0.045,-0.050
6.280,-0.090,-0.050
6.282,-0.165,-0.055
6.284,-0.245,-0.055
6.286,-0.285,-0.050
6.288,-0.290,-0.050
6.290,-0.250,-0.045
6.292,-0.185,-0.040
6.294,-0.065,-0.030
6.296,-0.010,-0.025
6.298,-0.025,-0.025
6.300,-0.080,-0.020
6.302,-0.130,-0.020
6.304,-0.255,-0.020
6.306,-0.270,-0.025
6.308,-0.265,-0.025
6.310,-0.205,-0.030
6.312,-0.125,-0.035
6.314,-0.060,-0.035
6.316,-0.030,-0.040
6.318,-0.050,-0.045
6.320,-0.095,-0.045
6.322,-0.205,-0.050
6.324,-0.255,-0.050
6.326,-0.285,-0.050
6.328,-0.270,-0.045
6.330,-0.240,-0.040
6.332,-0.140,-0.035
6.334,-0.050,-0.030
6.336,-0.015,-0.025
6.338,-0.015,-0.020
6.340,-0.090,-0.020
6.342,-0.175,-0.020
6.344,-0.250,-0.020
6.346,-0.290,-0.020
6.348,-0.260,-0.025
6.350,-0.200,-0.030
6.352,-0.110,-0.035
6.354,-0.055,-0.040
6.356,-0.020,-0.040
6.358,-0.035,-0.040
6.360,-0.070,-0.035
6.362,-0.150,-0.030
6.364,-0.220,-0.020
6.366,-0.265,-0.015
6.368,-0.245,-0.010
6.370,-0.225,-0.005
6.372,-0.115,-0.010
6.374,-0.025,-0.010
6.376,0.010,-0.020
6.378,-0.035,-0.030
6.380,-0.085,-0.040
6.382,-0.215,-0.045
6.384,-0.270,-0.050
6.386,-0.285,-0.050
6.388,-0.260,-0.045
6.390,-0.230,-0.040
6.392,-0.110,-0.035
6.394,-0.025,-0.030
6.396,-0.010,-0.025
6.398,-0.030,-0.025
6.400,-0.110,-0.025
6.402,-0.180,-0.020
6.404,-0.265,-0.020
6.406,-0.315,-0.015
6.408,-0.235,-0.010
6.410,-0.150,0.000
6.412,-0.010,0.010
6.414,0.020,0.020
6.416,0.045,0.025
6.418,0.010,0.030
6.420,-0.045,0.025
6.422,-0.165,0.025
6.424,-0.215,0.015
6.426,-0.265,0.015
6.428,-0.250,0.010
6.430,-0.185,0.010
6.432,-0.060,0.015
6.434,0.010,0.025
6.436,0.030,0.035
6.438,0.005,0.045
6.440,0.010,0.050
6.442,-0.085,0.050
6.444,-0.190,0.050
6.446,-0.285,0.045
6.448,-0.225,0.035
6.450,-0.125,0.025
6.452,-0.050,0.020
6.454,0.010,0.015
6.456,0.015,0.010
6.458,0.000,0.015
6.460,-0.015,0.020
6.462,-0.150,0.025
6.464,-0.215,0.035
6.466,-0.240,0.035
6.468,-0.220,0.035
6.470,-0.160,0.035
6.472,-0.025,0.025
6.474,0.005,0.015
6.476,0.020,0.005
6.478,-0.060,-0.005
6.480,-0.115,-0.015
6.482,-0.195,-0.015
6.484,-0.230,-0.015
6.486,-0.260,-0.010
6.488,-0.215,-0.005
6.490,-0.165,0.005
6.492,-0.045,0.010
6.494,-0.020,0.010
6.496,-0.010,0.010
6.498,-0.045,0.005
6.500,-0.090,-0.005
6.502,-0.200,-0.015
6.504,-0.245,-0.025
6.506,-0.245,-0.030
6.508,-0.205,-0.030
6.510,-0.175,-0.030
6.512,-0.070,-0.030
6.514,-0.020,-0.025
6.516,-0.010,-0.015
6.518,-0.050,-0.010
6.520,-0.115,-0.010
6.522,-0.220,-0.010
6.524,-0.270,-0.010
6.526,-0.255,-0.015
6.528,-0.200,-0.020
6.530,-0.160,-0.025
6.532,-0.040,-0.030
6.534,-0.035,-0.030
6.536,-0.025,-0.030
6.538,-0.070,-0.030
6.540,-0.145,-0.025
6.542,-0.200,-0.025
6.544,-0.275,-0.025
6.546,-0.260,-0.030
6.548,-0.260,-0.035
6.550,-0.210,-0.050
6.552,-0.110,-0.065
6.554,-0.075,-0.080
6.556,-0.095,-0.085
6.558,-0.130,-0.085
6.560,-0.180,-0.065
6.562,-0.235,-0.030
6.564,-0.190,0.020
6.566,-0.115,0.090
6.568,-0.025,0.165
6.570,0.135,0.245
6.572,0.295,0.325
6.574,0.450,0.385
6.576,0.490,0.430
6.578,0.455,0.445
6.580,0.340,0.440
6.582,0.170,0.405
6.584,0.035,0.355
6.586,0.030,0.290
6.588,0.100,0.210
6.590,0.090,0.135
6.592,0.040,0.060
6.594,-0.060,-0.005
6.596,-0.160,-0.060
6.598,-0.220,-0.100
6.600,-0.285,-0.130
6.602,-0.340,-0.150
6.604,-0.385,-0.155
6.606,-0.370,-0.160
6.608,-0.335,-0.155
6.610,-0.255,-0.145
6.612,-0.155,-0.135
6.614,-0.085,-0.120
6.616,-0.065,-0.110
6.618,-0.110,-0.095
6.620,-0.195,-0.085
6.622,-0.270,-0.070
6.624,-0.290,-0.055
6.626,-0.260,-0.040
6.628,-0.190,-0.030
6.630,-0.085,-0.015
6.632,-0.025,-0.005
6.634,0.020,0.005
6.636,0.025,0.010
6.638,-0.055,0.015
6.640,-0.145,0.010
6.642,-0.225,0.010
6.644,-0.260,0.005
6.646,-0.215,0.000
6.648,-0.140,-0.005
6.650,-0.040,-0.005
6.652,-0.010,-0.005
6.654,0.040,0.000
6.656,0.025,0.005
6.658,-0.045,0.010
6.660,-0.130,0.015
6.662,-0.215,0.020
6.664,-0.225,0.020
6.666,-0.190,0.015
6.668,-0.160,0.015
6.670,-0.060,0.010
6.672,0.025,0.005
6.674,0.075,0.005
6.676,0.000,0.010
6.678,-0.065,0.015
6.680,-0.100,0.020
6.682,-0.200,0.025
6.684,-0.230,0.030
6.686,-0.180,0.035
6.688,-0.135,0.035
6.690,-0.035,0.035
6.692,0.035,0.030
6.694,0.050,0.030
6.696,0.020,0.025
6.698,-0.025,0.030
6.700,-0.120,0.030
6.702,-0.210,0.035
6.704,-0.200,0.045
6.706,-0.180,0.050
6.708,-0.115,0.055
6.710,-0.025,0.055
6.712,0.050,0.055
6.714,0.060,0.055
6.716,0.040,0.050
6.718,-0.015,0.045
6.720,-0.110,0.045
6.722,-0.165,0.040
6.724,-0.180,0.040
6.726,-0.135,0.045
6.728,-0.100,0.050
6.730,-0.005,0.055
6.732,0.040,0.060
6.734,0.090,0.065
6.736,0.040,0.070
6.738,0.000,0.070
6.740,-0.085,0.075
6.742,-0.160,0.075
6.744,-0.200,0.075
6.746,-0.130,0.070
6.748,-0.045,0.070
6.750,0.060,0.075
6.752,0.100,0.075
6.754,0.115,0.080
6.756,0.085,0.090
6.758,0.055,0.100
6.760,-0.050,0.105
6.762,-0.115,0.115
6.764,-0.125,0.125
6.766,-0.090,0.130
6.768,-0.020,0.135
6.770,0.090,0.135
6.772,0.155,0.135
6.774,0.145,0.135
6.776,0.110,0.135
6.778,0.055,0.130
6.780,-0.045,0.130
6.782,-0.085,0.135
6.784,-0.110,0.140
6.786,-0.035,0.145
6.788,0.055,0.150
6.790,0.160,0.160
6.792,0.220,0.170
6.794,0.205,0.180
6.796,0.165,0.190
6.798,0.115,0.200
6.800,0.025,0.205
6.802,0.005,0.210
6.804,-0.020,0.215
6.806,0.025,0.220
6.808,0.090,0.225
6.810,0.200,0.230
6.812,0.250,0.230
6.814,0.255,0.235
6.816,0.195,0.235
6.818,0.160,0.240
6.820,0.060,0.240
6.822,0.025,0.240
6.824,0.010,0.240
6.826,0.040,0.240
6.828,0.120,0.240
6.830,0.225,0.240
6.832,0.280,0.240
6.834,0.275,0.240
6.836,0.200,0.235
6.838,0.145,0.230
6.840,0.025,0.225
6.842,-0.005,0.215
6.844,-0.030,0.205
6.846,-0.015,0.195
6.848,0.090,0.185
6.850,0.160,0.170
6.852,0.180,0.160
6.854,0.165,0.145
6.856,0.115,0.135
6.858,0.020,0.125
6.860,-0.095,0.120
6.862,-0.110,0.110
6.864,-0.140,0.100
6.866,-0.095,0.090
6.868,-0.030,0.080
6.870,0.045,0.070
6.872,0.095,0.060
6.874,0.060,0.050
6.876,0.005,0.040
6.878,-0.060,0.030
6.880,-0.175,0.020
6.882,-0.225,0.010
6.884,-0.210,0.000
6.886,-0.180,-0.005
6.888,-0.085,-0.015
6.890,-0.030,-0.020
6.892,-0.015,-0.025
6.894,-0.015,-0.030
6.896,-0.055,-0.035
6.898,-0.135,-0.040
6.900,-0.225,-0.040
6.902,-0.260,-0.040
6.904,-0.230,-0.040
6.906,-0.175,-0.035
6.908,-0.115,-0.030
6.910,-0.030,-0.025
6.912,0.005,-0.025
6.914,0.015,-0.020
6.916,-0.055,-0.020
6.918,-0.155,-0.025
6.920,-0.250,-0.030
6.922,-0.290,-0.040
6.924,-0.255,-0.045
6.926,-0.215,-0.050
6.928,-0.135,-0.055
6.930,-0.030,-0.055
6.932,0.000,-0.050
6.934,-0.025,-0.050
6.936,-0.065,-0.045
6.938,-0.165,-0.040
6.940,-0.250,-0.040
6.942,-0.285,-0.040
6.944,-0.260,-0.040
6.946,-0.200,-0.045
6.948,-0.125,-0.050
6.950,-0.055,-0.050
6.952,-0.005,-0.055
6.954,-0.020,-0.055
6.956,-0.085,-0.050
6.958,-0.200,-0.050
6.960,-0.235,-0.045
6.962,-0.275,-0.045
6.964,-0.250,-0.045
6.966,-0.155,-0.050
6.968,-0.070,-0.055
6.970,-0.065,-0.055
6.972,-0.015,-0.055
6.974,-0.020,-0.055
6.976,-0.070,-0.055
6.978,-0.165,-0.050
6.980,-0.255,-0.040
6.982,-0.245,-0.035
6.984,-0.230,-0.030
6.986,-0.195,-0.030
6.988,-0.090,-0.030
6.990,-0.010,-0.030
6.992,-0.010,-0.035
6.994,-0.040,-0.040
6.996,-0.050,-0.045
6.998,-0.155,-0.045
7.000,-0.225,-0.045
7.002,-0.245,-0.045
7.004,-0.205,-0.040
7.006,-0.150,-0.035
7.008,-0.080,-0.035
7.010,-0.025,-0.030
7.012,0.015,-0.030
7.014,-0.015,-0.030
7.016,-0.090,-0.035
7.018,-0.180,-0.035
7.020,-0.235,-0.035
7.022,-0.250,-0.035
7.024,-0.210,-0.035
7.026,-0.145,-0.035
7.028,-0.035,-0.035
7.030,0.015,-0.035
7.032,0.000,-0.040
7.034,-0.035,-0.040
7.036,-0.075,-0.045
7.038,-0.190,-0.045
7.040,-0.240,-0.045
7.042,-0.245,-0.045
7.044,-0.210,-0.045
7.046,-0.150,-0.040
7.048,-0.040,-0.040
7.050,0.020,-0.035
7.052,0.005,-0.035
7.054,-0.025,-0.040
7.056,-0.100,-0.040
7.058,-0.170,-0.040
7.060,-0.230,-0.045
7.062,-0.245,-0.040
7.064,-0.215,-0.040
7.066,-0.165,-0.040
7.068,-0.050,-0.035
7.070,0.000,-0.035
7.072,0.040,-0.035
7.074,-0.030,-0.035
7.076,-0.070,-0.040
7.078,-0.175,-0.045
7.080,-0.255,-0.045
7.082,-0.255,-0.050
7.084,-0.205,-0.050
7.086,-0.120,-0.050
7.088,-0.035,-0.050
7.090,0.020,-0.045
7.092,0.025,-0.045
7.094,-0.015,-0.050
7.096,-0.065,-0.050
7.098,-0.200,-0.050
7.100,-0.265,-0.050
7.102,-0.245,-0.050
7.104,-0.210,-0.045
7.106,-0.135,-0.040
7.108,-0.005,-0.035
7.110,0.025,-0.035
7.112,0.025,-0.030
7.114,-0.030,-0.030
7.116,-0.110,-0.035
7.118,-0.215,-0.040
7.120,-0.225,-0.045
7.122,-0.245,-0.045
7.124,-0.185,-0.050
7.126,-0.100,-0.045
7.128,0.010,-0.040
7.130,0.045,-0.030
7.132,0.055,-0.020
7.134,-0.010,-0.015
7.136,-0.095,-0.005
7.138,-0.185,-0.005
7.140,-0.215,-0.005
7.142,-0.205,-0.010
7.144,-0.130,-0.015
7.146,-0.080,-0.020
7.148,0.025,-0.025
7.150,0.045,-0.025
7.152,0.035,-0.025
7.154,-0.005,-0.025
7.156,-0.065,-0.025
7.158,-0.170,-0.020
7.160,-0.225,-0.020
7.162,-0.210,-0.020
7.164,-0.165,-0.025
7.166,-0.085,-0.035
7.168,0.010,-0.040
7.170,0.035,-0.045
7.172,0.025,-0.050
7.174,-0.025,-0.050
7.176,-0.120,-0.050
7.178,-0.240,-0.050
7.180,-0.270,-0.045
7.182,-0.225,-0.045
7.184,-0.170,-0.045
7.186,-0.095,-0.050
7.188,-0.045,-0.055
7.190,0.030,-0.060
7.192,-0.010,-0.070
7.194,-0.060,-0.075
7.196,-0.175,-0.080
7.198,-0.235,-0.080
7.200,-0.280,-0.075
7.202,-0.235,-0.070
7.204,-0.185,-0.070
7.206,-0.105,-0.065
7.208,-0.010,-0.065
7.210,0.010,-0.065
7.212,-0.035,-0.070
7.214,-0.075,-0.075
7.216,-0.160,-0.080
7.218,-0.240,-0.085
7.220,-0.260,-0.090
7.222,-0.240,-0.085
7.224,-0.165,-0.085
7.226,-0.090,-0.080
7.228,-0.030,-0.080
7.230,-0.005,-0.075
7.232,-0.015,-0.075
7.234,-0.080,-0.075
7.236,-0.155,-0.080
7.238,-0.220,-0.080
7.240,-0.280,-0.085
7.242,-0.260,-0.085
7.244,-0.175,-0.080
7.246,-0.070,-0.080
7.248,-0.010,-0.075
7.250,-0.005,-0.075
7.252,-0.045,-0.080
7.254,-0.105,-0.085
7.256,-0.230,-0.095
7.258,-0.305,-0.110
7.260,-0.340,-0.130
7.262,-0.315,-0.145
7.264,-0.270,-0.155
7.266,-0.170,-0.155
7.268,-0.100,-0.145
7.270,-0.035,-0.120
7.272,-0.010,-0.075
7.274,-0.005,-0.015
7.276,-0.015,0.055
7.278,-0.010,0.135
7.280,0.030,0.210
7.282,0.145,0.285
7.284,0.300,0.345
7.286,0.445,0.385
7.288,0.525,0.400
7.290,0.495,0.395
7.292,0.355,0.360
7.294,0.230,0.305
7.296,0.125,0.235
7.298,0.005,0.150
7.300,-0.130,0.065
7.302,-0.165,-0.020
7.304,-0.255,-0.095
7.306,-0.230,-0.155
7.308,-0.185,-0.200
7.310,-0.130,-0.225
7.312,-0.160,-0.240
7.314,-0.205,-0.235
7.316,-0.335,-0.225
7.318,-0.390,-0.210
7.320,-0.375,-0.190
7.322,-0.345,-0.175
7.324,-0.250,-0.160
7.326,-0.110,-0.145
7.328,-0.030,-0.135
7.330,0.005,-0.130
7.332,-0.055,-0.120
7.334,-0.120,-0.110
7.336,-0.205,-0.100
7.338,-0.240,-0.090
7.340,-0.265,-0.085
7.342,-0.195,-0.075
7.344,-0.160,-0.070
7.346,-0.030,-0.065
7.348,-0.005,-0.065
7.350,-0.020,-0.065
7.352,-0.020,-0.065
7.354,-0.065,-0.065
7.356,-0.165,-0.060
7.358,-0.225,-0.060
7.360,-0.230,-0.055
7.362,-0.175,-0.050
7.364,-0.125,-0.045
7.366,-0.015,-0.045
7.368,0.030,-0.045
7.370,0.040,-0.045
7.372,-0.015,-0.050
7.374,-0.080,-0.050
7.376,-0.170,-0.050
7.378,-0.210,-0.050
7.380,-0.210,-0.050
7.382,-0.140,-0.045
7.384,-0.095,-0.040
7.386,0.000,-0.035
7.388,0.060,-0.030
7.390,0.070,-0.030
7.392,0.020,-0.030
7.394,-0.060,-0.030
7.396,-0.170,-0.035
7.398,-0.215,-0.035
7.400,-0.210,-0.040
7.402,-0.140,-0.035
7.404,-0.055,-0.035
7.406,0.025,-0.030
7.408,0.055,-0.025
7.410,0.060,-0.025
7.412,0.010,-0.020
7.414,-0.060,-0.015
7.416,-0.150,-0.015
7.418,-0.200,-0.015
7.420,-0.175,-0.015
7.422,-0.115,-0.015
7.424,-0.040,-0.010
7.426,0.050,-0.010
7.428,0.095,-0.010
7.430,0.070,-0.005
7.432,0.030,0.000
7.434,-0.040,0.000
7.436,-0.100,0.005
7.438,-0.155,0.005
7.440,-0.145,0.005
7.442,-0.095,0.010
7.444,-0.045,0.010
7.446,0.055,0.010
7.448,0.110,0.010
7.450,0.100,0.015
7.452,0.050,0.020
7.454,-0.010,0.025
7.456,-0.075,0.030
7.458,-0.120,0.035
7.460,-0.115,0.040
7.462,-0.055,0.040
7.464,0.020,0.045
7.466,0.105,0.045
7.468,0.135,0.050
7.470,0.125,0.050
7.472,0.095,0.050
7.474,0.015,0.055
7.476,-0.065,0.055
7.478,-0.105,0.060
7.480,-0.095,0.065
7.482,-0.010,0.070
7.484,0.080,0.075
7.486,0.175,0.080
7.488,0.205,0.090
7.490,0.195,0.100
7.492,0.130,0.110
7.494,0.080,0.120
7.496,-0.010,0.130
7.498,-0.050,0.140
7.500,-0.010,0.145
7.502,0.040,0.155
7.504,0.135,0.160
7.506,0.245,0.165
7.508,0.290,0.170
7.510,0.260,0.175
7.512,0.195,0.180
7.514,0.100,0.185
7.516,0.040,0.195
7.518,0.025,0.200
7.520,0.045,0.200
7.522,0.100,0.205
7.524,0.195,0.205
7.526,0.290,0.200
7.528,0.315,0.200
7.530,0.255,0.195
7.532,0.195,0.190
7.534,0.115,0.190
7.536,0.070,0.190
7.538,0.050,0.190
7.540,0.040,0.190
7.542,0.105,0.195
7.544,0.220,0.195
7.546,0.250,0.195
7.548,0.290,0.190
7.550,0.240,0.185
7.552,0.175,0.175
7.554,0.070,0.160
7.556,-0.015,0.150
7.558,-0.040,0.135
7.560,-0.020,0.125
7.562,0.015,0.110
7.564,0.110,0.100
7.566,0.150,0.090
7.568,0.135,0.085
7.570,0.145,0.075
7.572,0.080,0.065
7.574,-0.040,0.060
7.576,-0.090,0.050
7.578,-0.135,0.045
7.580,-0.135,0.040
7.582,-0.075,0.030
7.584,0.035,0.020
7.586,0.075,0.015
7.588,0.085,0.000
7.590,0.030,-0.010
7.592,-0.050,-0.020
7.594,-0.140,-0.030
7.596,-0.200,-0.040
7.598,-0.215,-0.050
7.600,-0.175,-0.050
7.602,-0.130,-0.055
7.604,-0.030,-0.050
7.606,0.055,-0.050
7.608,0.045,-0.045
7.610,0.000,-0.040
7.612,-0.050,-0.040
7.614,-0.165,-0.040
7.616,-0.230,-0.040
7.618,-0.245,-0.045
7.620,-0.185,-0.050
7.622,-0.140,-0.060
7.624,-0.050,-0.065
7.626,0.015,-0.065
7.628,0.035,-0.070
7.630,-0.020,-0.070
7.632,-0.085,-0.070
7.634,-0.185,-0.070
7.636,-0.215,-0.070
7.638,-0.245,-0.070
7.640,-0.210,-0.075
7.642,-0.125,-0.075
7.644,-0.025,-0.075
7.646,0.015,-0.075
7.648,0.030,-0.075
7.650,-0.045,-0.070
7.652,-0.075,-0.070
7.654,-0.180,-0.065
7.656,-0.235,-0.060
7.658,-0.240,-0.050
7.660,-0.210,-0.050
7.662,-0.125,-0.045
7.664,-0.020,-0.045
7.666,0.040,-0.045
7.668,0.050,-0.045
7.670,0.005,-0.050
7.672,-0.105,-0.055
7.674,-0.175,-0.055
7.676,-0.225,-0.060
7.678,-0.235,-0.065
7.680,-0.200,-0.065
7.682,-0.115,-0.065
7.684,-0.010,-0.060
7.686,0.025,-0.060
7.688,0.020,-0.055
7.690,-0.040,-0.050
7.692,-0.080,-0.045
7.694,-0.175,-0.045
7.696,-0.215,-0.045
7.698,-0.220,-0.050
7.700,-0.155,-0.055
7.702,-0.100,-0.055
7.704,-0.010,-0.060
7.706,0.030,-0.060
7.708,0.025,-0.060
7.710,-0.035,-0.055
7.712,-0.090,-0.050
7.714,-0.195,-0.050
7.716,-0.245,-0.045
7.718,-0.210,-0.045
7.720,-0.165,-0.045
7.722,-0.110,-0.045
7.724,0.000,-0.050
7.726,0.050,-0.050
7.728,0.045,-0.055
7.730,-0.005,-0.050
7.732,-0.065,-0.050
7.734,-0.175,-0.045
7.736,-0.210,-0.040
7.738,-0.190,-0.035
7.740,-0.155,-0.035
7.742,-0.075,-0.030
7.744,0.000,-0.030
7.746,0.020,-0.030
7.748,0.015,-0.035
7.750,-0.035,-0.035
7.752,-0.110,-0.035
7.754,-0.180,-0.035
7.756,-0.220,-0.040
7.758,-0.225,-0.040
7.760,-0.170,-0.040
7.762,-0.075,-0.045
7.764,-0.005,-0.050
7.766,0.035,-0.050
7.768,0.010,-0.055
7.770,-0.040,-0.060
7.772,-0.130,-0.065
7.774,-0.200,-0.065
7.776,-0.245,-0.065
7.778,-0.225,-0.065
7.780,-0.155,-0.065
7.782,-0.080,-0.060
7.784,0.005,-0.060
7.786,0.030,-0.055
7.788,0.005,-0.050
7.790,-0.045,-0.050
7.792,-0.120,-0.050
7.794,-0.195,-0.050
7.796,-0.235,-0.050
7.798,-0.230,-0.050
7.800,-0.155,-0.050
7.802,-0.070,-0.055
7.804,0.010,-0.055
7.806,0.035,-0.055
7.808,0.000,-0.055
7.810,-0.035,-0.050
7.812,-0.140,-0.050
7.814,-0.195,-0.050
7.816,-0.230,-0.045
7.818,-0.215,-0.045
7.820,-0.180,-0.050
7.822,-0.075,-0.050
7.824,0.030,-0.055
7.826,0.030,-0.060
7.828,0.005,-0.060
7.830,-0.035,-0.060
7.832,-0.150,-0.060
7.834,-0.215,-0.055
7.836,-0.215,-0.050
7.838,-0.200,-0.040
7.840,-0.150,-0.035
7.842,-0.030,-0.030
7.844,0.005,-0.030
7.846,0.030,-0.025
7.848,0.040,-0.025
7.850,-0.020,-0.025
7.852,-0.120,-0.025
7.854,-0.200,-0.025
7.856,-0.210,-0.025
7.858,-0.165,-0.020
7.860,-0.105,-0.020
7.862,0.000,-0.015
7.864,0.050,-0.005
7.866,0.100,0.000
7.868,0.060,0.005
7.870,0.000,0.010
7.872,-0.085,0.015
7.874,-0.165,0.015
7.876,-0.200,0.015
7.878,-0.160,0.010
7.880,-0.100,0.000
7.882,0.020,-0.005
7.884,0.060,-0.015
7.886,0.070,-0.020
7.888,0.045,-0.025
7.890,-0.015,-0.025
7.892,-0.130,-0.025
7.894,-0.195,-0.020
7.896,-0.185,-0.015
7.898,-0.165,-0.010
7.900,-0.105,-0.010
7.902,-0.015,-0.015
7.904,0.030,-0.025
7.906,0.020,-0.035
7.908,-0.010,-0.045
7.910,-0.065,-0.055
7.912,-0.175,-0.065
7.914,-0.220,-0.070
7.916,-0.240,-0.065
7.918,-0.200,-0.060
7.920,-0.145,-0.050
7.922,-0.035,-0.045
7.924,0.020,-0.035
7.926,0.030,-0.035
7.928,-0.015,-0.035
7.930,-0.080,-0.035
7.932,-0.190,-0.045
7.934,-0.230,-0.050
7.936,-0.225,-0.060
7.938,-0.200,-0.065
7.940,-0.160,-0.070
7.942,-0.050,-0.075
7.944,0.005,-0.075
7.946,0.025,-0.075
7.948,-0.030,-0.075
7.950,-0.095,-0.075
7.952,-0.200,-0.075
7.954,-0.240,-0.070
7.956,-0.245,-0.070
7.958,-0.210,-0.065
7.960,-0.140,-0.065
7.962,-0.025,-0.060
7.964,0.015,-0.060
7.966,0.015,-0.055
7.968,-0.035,-0.055
7.970,-0.095,-0.055
7.972,-0.200,-0.055
7.974,-0.235,-0.060
7.976,-0.245,-0.065
7.978,-0.210,-0.075
7.980,-0.160,-0.085
7.982,-0.085,-0.100
7.984,-0.055,-0.115
7.986,-0.065,-0.125
7.988,-0.125,-0.130
7.990,-0.195,-0.125
7.992,-0.270,-0.105
7.994,-0.260,-0.070
7.996,-0.170,-0.020
7.998,-0.055,0.045
8.000,0.085,0.120
8.002,0.255,0.200
8.004,0.385,0.280
8.006,0.485,0.345
8.008,0.485,0.395
8.010,0.405,0.420
8.012,0.290,0.420
8.014,0.165,0.395
8.016,0.085,0.345
8.018,0.145,0.275
8.020,0.195,0.190
8.022,0.185,0.105
8.024,0.105,0.025
8.026,-0.020,-0.045
8.028,-0.185,-0.105
8.030,-0.270,-0.150
8.032,-0.350,-0.180
8.034,-0.390,-0.195
8.036,-0.380,-0.200
8.038,-0.320,-0.195
8.040,-0.215,-0.190
8.042,-0.130,-0.180
8.044,-0.100,-0.170
8.046,-0.110,-0.155
8.048,-0.120,-0.145
8.050,-0.185,-0.135
8.052,-0.265,-0.120
8.054,-0.275,-0.110
8.056,-0.250,-0.100
8.058,-0.175,-0.085
8.060,-0.095,-0.075
8.062,-0.035,-0.065
8.064,0.025,-0.055
8.066,0.025,-0.050
8.068,-0.040,-0.040
8.070,-0.150,-0.035
8.072,-0.185,-0.030
8.074,-0.225,-0.030
8.076,-0.195,-0.025
8.078,-0.140,-0.025
8.080,-0.040,-0.025
8.082,0.025,-0.030
8.084,0.060,-0.035
8.086,0.010,-0.040
8.088,-0.020,-0.040
8.090,-0.160,-0.045
8.092,-0.210,-0.045
8.094,-0.240,-0.045
8.096,-0.185,-0.040
8.098,-0.125,-0.035
8.100,-0.030,-0.030
8.102,0.025,-0.025
8.104,0.050,-0.020
8.106,0.045,-0.015
8.108,-0.020,-0.010
8.110,-0.130,-0.010
8.112,-0.210,-0.010
8.114,-0.210,-0.010
8.116,-0.180,-0.010
8.118,-0.135,-0.015
8.120,-0.020,-0.015
8.122,0.045,-0.015
8.124,0.085,-0.015
8.126,0.030,-0.015
8.128,-0.020,-0.015
8.130,-0.120,-0.010
8.132,-0.175,-0.010
8.134,-0.215,-0.005
8.136,-0.175,0.000
8.138,-0.115,0.000
8.140,0.000,0.005
8.142,0.060,0.010
8.144,0.085,0.015
8.146,0.055,0.020
8.148,0.025,0.030
8.150,-0.085,0.035
8.152,-0.165,0.040
8.154,-0.155,0.040
8.156,-0.120,0.040
8.158,-0.075,0.040
8.160,0.040,0.035
8.162,0.085,0.030
8.164,0.115,0.030
8.166,0.095,0.025
8.168,0.020,0.025
8.170,-0.100,0.025
8.172,-0.150,0.030
8.174,-0.160,0.035
8.176,-0.120,0.040
8.178,-0.060,0.045
8.180,0.055,0.050
8.182,0.120,0.050
8.184,0.140,0.055
8.186,0.105,0.060
8.188,0.045,0.065
8.190,-0.065,0.070
8.192,-0.105,0.075
8.194,-0.125,0.085
8.196,-0.080,0.090
8.198,-0.005,0.090
8.200,0.105,0.090
8.202,0.155,0.090
8.204,0.155,0.085
8.206,0.125,0.085
8.208,0.070,0.085
8.210,-0.010,0.090
8.212,-0.060,0.100
8.214,-0.070,0.115
8.216,0.010,0.130
8.218,0.095,0.140
8.220,0.185,0.155
8.222,0.215,0.165
8.224,0.230,0.175
8.226,0.185,0.180
8.228,0.130,0.180
8.230,0.020,0.180
8.232,0.010,0.180
8.234,0.000,0.180
8.236,0.035,0.185
8.238,0.095,0.190
8.240,0.210,0.195
8.242,0.270,0.200
8.244,0.240,0.205
8.246,0.255,0.205
8.248,0.180,0.210
8.250,0.050,0.205
8.252,0.015,0.205
8.254,0.025,0.205
8.256,0.075,0.205
8.258,0.145,0.200
8.260,0.220,0.200
8.262,0.260,0.205
8.264,0.265,0.205
8.266,0.215,0.205
8.268,0.160,0.205
8.270,0.055,0.200
8.272,-0.035,0.195
8.274,0.000,0.190
8.276,0.035,0.185
8.278,0.110,0.175
8.280,0.195,0.165
8.282,0.225,0.155
8.284,0.190,0.145
8.286,0.120,0.135
8.288,0.050,0.120
8.290,-0.055,0.105
8.292,-0.105,0.095
8.294,-0.125,0.080
8.296,-0.105,0.065
8.298,-0.010,0.055
8.300,0.090,0.040
8.302,0.100,0.030
8.304,0.080,0.025
8.306,0.020,0.015
8.308,-0.050,0.010
8.310,-0.160,0.005
8.312,-0.235,0.000
8.314,-0.210,-0.005
8.316,-0.160,-0.010
8.318,-0.080,-0.015
8.320,-0.020,-0.025
8.322,0.020,-0.030
8.324,0.035,-0.035
8.326,-0.020,-0.035
8.328,-0.110,-0.035
8.330,-0.190,-0.030
8.332,-0.215,-0.030
8.334,-0.215,-0.025
8.336,-0.175,-0.025
8.338,-0.105,-0.025
8.340,0.010,-0.025
8.342,0.025,-0.030
8.344,-0.005,-0.035
8.346,-0.050,-0.045
8.348,-0.160,-0.050
8.350,-0.225,-0.060
8.352,-0.255,-0.065
8.354,-0.235,-0.065
8.356,-0.170,-0.070
8.358,-0.090,-0.065
8.360,-0.025,-0.065
8.362,0.010,-0.065
8.364,-0.010,-0.060
8.366,-0.055,-0.060
8.368,-0.170,-0.060
8.370,-0.230,-0.055
8.372,-0.250,-0.060
8.374,-0.245,-0.060
8.376,-0.190,-0.060
8.378,-0.085,-0.065
8.380,-0.005,-0.065
8.382,0.020,-0.065
8.384,-0.040,-0.060
8.386,-0.090,-0.060
8.388,-0.145,-0.055
8.390,-0.220,-0.050
8.392,-0.260,-0.045
8.394,-0.215,-0.045
8.396,-0.170,-0.045
8.398,-0.055,-0.050
8.400,-0.020,-0.060
8.402,-0.025,-0.070
8.404,-0.040,-0.075
8.406,-0.090,-0.085
8.408,-0.185,-0.085
8.410,-0.235,-0.085
8.412,-0.270,-0.075
8.414,-0.245,-0.065
8.416,-0.195,-0.055
8.418,-0.065,-0.045
8.420,0.000,-0.035
8.422,0.025,-0.035
8.424,-0.020,-0.040
8.426,-0.070,-0.045
8.428,-0.175,-0.050
8.430,-0.250,-0.060
8.432,-0.235,-0.060
8.434,-0.205,-0.060
8.436,-0.155,-0.050
8.438,-0.045,-0.045
8.440,0.005,-0.030
8.442,0.005,-0.020
8.444,-0.030,-0.015
8.446,-0.035,-0.010
8.448,-0.145,-0.010
8.450,-0.210,-0.015
8.452,-0.220,-0.020
8.454,-0.180,-0.025
8.456,-0.120,-0.030
8.458,-0.005,-0.030
8.460,0.020,-0.025
8.462,0.040,-0.025
8.464,-0.010,-0.020
8.466,-0.055,-0.020
8.468,-0.160,-0.015
8.470,-0.225,-0.020
8.472,-0.245,-0.025
8.474,-0.180,-0.030
8.476,-0.130,-0.035
8.478,-0.015,-0.040
8.480,0.010,-0.040
8.482,0.025,-0.045
8.484,-0.030,-0.040
8.486,-0.065,-0.040
8.488,-0.160,-0.035
8.490,-0.210,-0.030
8.492,-0.245,-0.025
8.494,-0.190,-0.025
8.496,-0.120,-0.025
8.498,-0.020,-0.025
8.500,0.030,-0.030
8.502,0.020,-0.035
8.504,-0.010,-0.040
8.506,-0.075,-0.040
8.508,-0.160,-0.040
8.510,-0.220,-0.040
8.512,-0.225,-0.035
8.514,-0.190,-0.035
8.516,-0.110,-0.030
8.518,0.000,-0.025
8.520,0.035,-0.025
8.522,0.015,-0.025
8.524,-0.020,-0.030
8.526,-0.095,-0.035
8.528,-0.195,-0.040
8.530,-0.245,-0.050
8.532,-0.240,-0.055
8.534,-0.175,-0.060
8.536,-0.105,-0.065
8.538,-0.030,-0.065
8.540,0.010,-0.060
8.542,0.020,-0.050
8.544,-0.040,-0.040
8.546,-0.095,-0.030
8.548,-0.180,-0.020
8.550,-0.235,-0.015
8.552,-0.240,-0.010
8.554,-0.190,-0.015
8.556,-0.105,-0.020
8.558,-0.025,-0.030
8.560,0.015,-0.035
8.562,0.005,-0.045
8.564,-0.045,-0.055
8.566,-0.120,-0.055
8.568,-0.195,-0.055
8.570,-0.240,-0.045
8.572,-0.240,-0.040
8.574,-0.155,-0.030
8.576,-0.085,-0.020
8.578,0.000,-0.015
8.580,0.040,-0.015
8.582,0.030,-0.020
8.584,-0.040,-0.025
8.586,-0.135,-0.030
8.588,-0.200,-0.035
8.590,-0.220,-0.040
8.592,-0.210,-0.040
8.594,-0.145,-0.040
8.596,-0.070,-0.035
8.598,0.005,-0.030
8.600,0.050,-0.020
8.602,0.025,-0.015
8.604,-0.005,-0.010
8.606,-0.070,-0.005
8.608,-0.155,-0.005
8.610,-0.230,-0.005
8.612,-0.185,-0.005
8.614,-0.135,-0.010
8.616,-0.055,-0.010
8.618,0.040,-0.010
8.620,0.075,-0.005
8.622,0.060,0.000
8.624,0.000,0.000
8.626,-0.075,0.005
8.628,-0.160,0.010
8.630,-0.180,0.015
8.632,-0.175,0.015
8.634,-0.130,0.020
8.636,-0.050,0.015
8.638,0.035,0.015
8.640,0.080,0.010
8.642,0.055,0.005
8.644,-0.005,0.000
8.646,-0.100,-0.005
8.648,-0.200,-0.015
8.650,-0.225,-0.020
8.652,-0.200,-0.025
8.654,-0.155,-0.035
8.656,-0.070,-0.040
8.658,0.000,-0.040
8.660,0.045,-0.045
8.662,0.040,-0.045
8.664,-0.030,-0.045
8.666,-0.125,-0.045
8.668,-0.205,-0.045
8.670,-0.240,-0.045
8.672,-0.225,-0.050
8.674,-0.170,-0.050
8.676,-0.070,-0.050
8.678,-0.010,-0.050
8.680,0.035,-0.050
8.682,-0.005,-0.050
8.684,-0.045,-0.045
8.686,-0.145,-0.045
8.688,-0.200,-0.040
8.690,-0.245,-0.040
8.692,-0.230,-0.040
8.694,-0.160,-0.040
8.696,-0.050,-0.045
8.698,-0.005,-0.045
8.700,0.015,-0.050
8.702,-0.010,-0.055
8.704,-0.065,-0.055
8.706,-0.165,-0.055
8.708,-0.230,-0.055
8.710,-0.260,-0.055
8.712,-0.210,-0.050
8.714,-0.135,-0.050
8.716,-0.055,-0.050
8.718,-0.010,-0.050
8.720,0.010,-0.055
8.722,-0.025,-0.055
8.724,-0.065,-0.060
8.726,-0.175,-0.060
8.728,-0.230,-0.065
8.730,-0.235,-0.070
8.732,-0.235,-0.075
8.734,-0.200,-0.085
8.736,-0.105,-0.095
8.738,-0.065,-0.105
8.740,-0.050,-0.115
8.742,-0.085,-0.115
8.744,-0.155,-0.110
8.746,-0.215,-0.090
8.748,-0.230,-0.050
8.750,-0.180,0.000
8.752,-0.060,0.070
8.754,0.075,0.145
8.756,0.275,0.230
8.758,0.400,0.305
8.760,0.495,0.370
8.762,0.505,0.420
8.764,0.470,0.440
8.766,0.315,0.435
8.768,0.185,0.405
8.770,0.075,0.350
8.772,0.115,0.280
8.774,0.175,0.200
8.776,0.170,0.110
8.778,0.105,0.030
8.780,-0.010,-0.045
8.782,-0.170,-0.105
8.784,-0.235,-0.155
8.786,-0.340,-0.185
8.788,-0.395,-0.205
8.790,-0.375,-0.210
8.792,-0.325,-0.205
8.794,-0.255,-0.195
8.796,-0.145,-0.180
8.798,-0.095,-0.160
8.800,-0.050,-0.145
8.802,-0.060,-0.130
8.804,-0.130,-0.110
8.806,-0.215,-0.095
8.808,-0.240,-0.085
8.810,-0.240,-0.070
8.812,-0.180,-0.060
8.814,-0.130,-0.055
8.816,-0.030,-0.045
8.818,0.035,-0.040
8.820,0.035,-0.035
8.822,-0.025,-0.035
8.824,-0.075,-0.030
8.826,-0.175,-0.030
8.828,-0.230,-0.030
8.830,-0.235,-0.030
8.832,-0.165,-0.030
8.834,-0.095,-0.030
8.836,0.005,-0.030
8.838,0.050,-0.030
8.840,0.040,-0.030
8.842,0.000,-0.030
8.844,-0.065,-0.030
8.846,-0.155,-0.025
8.848,-0.235,-0.025
8.850,-0.210,-0.025
8.852,-0.165,-0.025
8.854,-0.085,-0.025
8.856,0.015,-0.025
8.858,0.055,-0.025
8.860,0.050,-0.030
8.862,0.000,-0.035
8.864,-0.080,-0.035
8.866,-0.150,-0.035
8.868,-0.195,-0.035
8.870,-0.190,-0.030
8.872,-0.130,-0.025
8.874,-0.040,-0.020
8.876,0.030,-0.015
8.878,0.060,-0.005
8.880,0.040,0.000
8.882,0.000,0.000
8.884,-0.080,0.000
8.886,-0.165,0.000
8.888,-0.195,-0.005
8.890,-0.165,-0.010
8.892,-0.110,-0.015
8.894,-0.040,-0.015
8.896,0.045,-0.015
8.898,0.075,-0.015
8.900,0.060,-0.015
8.902,0.005,-0.010
8.904,-0.060,-0.005
8.906,-0.145,0.000
8.908,-0.175,0.005
8.910,-0.145,0.005
8.912,-0.090,0.005
8.914,-0.020,0.005
8.916,0.055,0.010
8.918,0.095,0.010
8.920,0.090,0.015
8.922,0.025,0.015
8.924,-0.035,0.025
8.926,-0.120,0.030
8.928,-0.160,0.035
8.930,-0.120,0.045
8.932,-0.060,0.050
8.934,0.040,0.055
8.936,0.100,0.060
8.938,0.155,0.060
8.940,0.130,0.065
8.942,0.070,0.065
8.944,-0.020,0.070
8.946,-0.100,0.070
8.948,-0.115,0.075
8.950,-0.070,0.080
8.952,-0.020,0.085
8.954,0.085,0.090
8.956,0.165,0.090
8.958,0.180,0.095
8.960,0.180,0.095
8.962,0.115,0.095
8.964,0.025,0.100
8.966,-0.050,0.100
8.968,-0.050,0.105
8.970,-0.015,0.115
8.972,0.045,0.125
8.974,0.125,0.135
8.976,0.220,0.145
8.978,0.260,0.160
8.980,0.230,0.170
8.982,0.190,0.180
8.984,0.075,0.190
8.986,0.030,0.195
8.988,0.000,0.200
8.990,0.040,0.205
8.992,0.110,0.205
8.994,0.225,0.210
8.996,0.275,0.210
8.998,0.310,0.210
9.000,0.270,0.210
9.002,0.220,0.215
9.004,0.110,0.215
9.006,0.040,0.220
9.008,0.040,0.225
9.010,0.070,0.230
9.012,0.135,0.235
9.014,0.260,0.240
9.016,0.310,0.240
9.018,0.300,0.240
9.020,0.265,0.235
9.022,0.215,0.230
9.024,0.115,0.225
9.026,0.035,0.215
9.028,0.000,0.205
9.030,0.040,0.190
9.032,0.095,0.180
9.034,0.205,0.170
9.036,0.230,0.160
9.038,0.230,0.155
9.040,0.170,0.145
9.042,0.110,0.140
9.044,0.000,0.130
9.046,-0.070,0.120
9.048,-0.085,0.110
9.050,-0.060,0.095
9.052,-0.015,0.085
9.054,0.080,0.070
9.056,0.125,0.055
9.058,0.125,0.045
9.060,0.075,0.035
9.062,0.015,0.025
9.064,-0.100,0.020
9.066,-0.170,0.020
9.068,-0.175,0.015
9.070,-0.150,0.010
9.072,-0.075,0.005
9.074,0.020,0.000
9.076,0.055,-0.005
9.078,0.065,-0.015
9.080,0.010,-0.020
9.082,-0.045,-0.025
9.084,-0.125,-0.030
9.086,-0.195,-0.030
9.088,-0.205,-0.030
9.090,-0.150,-0.025
9.092,-0.085,-0.025
9.094,0.005,-0.020
9.096,0.055,-0.020
9.098,0.040,-0.020
9.100,-0.010,-0.025
9.102,-0.085,-0.030
9.104,-0.165,-0.035
9.106,-0.230,-0.040
9.108,-0.215,-0.050
9.110,-0.175,-0.050
9.112,-0.110,-0.055
9.114,-0.015,-0.055
9.116,0.025,-0.055
9.118,0.030,-0.050
9.120,-0.005,-0.050
9.122,-0.085,-0.045
9.124,-0.185,-0.045
9.126,-0.240,-0.040
9.128,-0.220,-0.040
9.130,-0.175,-0.040
9.132,-0.085,-0.040
9.134,0.000,-0.040
9.136,0.040,-0.040
9.138,0.035,-0.040
9.140,-0.030,-0.035
9.142,-0.090,-0.035
9.144,-0.180,-0.035
9.146,-0.220,-0.035
9.148,-0.230,-0.035
9.150,-0.160,-0.035
9.152,-0.080,-0.040
9.154,0.000,-0.040
9.156,0.030,-0.040
9.158,0.040,-0.045
9.160,-0.025,-0.045
9.162,-0.100,-0.045
9.164,-0.170,-0.045
9.166,-0.205,-0.040
9.168,-0.205,-0.040
9.170,-0.140,-0.035
9.172,-0.070,-0.030
9.174,0.015,-0.030
9.176,0.040,-0.030
9.178,0.030,-0.035
9.180,-0.020,-0.035
9.182,-0.110,-0.040
9.184,-0.180,-0.045
9.186,-0.215,-0.045
9.188,-0.195,-0.045
9.190,-0.130,-0.045
9.192,-0.055,-0.040
9.194,0.040,-0.035
9.196,0.080,-0.030
9.198,0.050,-0.020
9.200,-0.010,-0.020
9.202,-0.105,-0.015
9.204,-0.190,-0.020
9.206,-0.205,-0.020
9.208,-0.170,-0.025
9.210,-0.115,-0.025
9.212,-0.040,-0.030
9.214,0.040,-0.030
9.216,0.065,-0.030
9.218,0.040,-0.030
9.220,-0.005,-0.025
9.222,-0.095,-0.020
9.224,-0.160,-0.020
9.226,-0.200,-0.015
9.228,-0.190,-0.015
9.230,-0.120,-0.015
9.232,-0.015,-0.015
9.234,0.055,-0.015
9.236,0.075,-0.015
9.238,0.040,-0.015
9.240,-0.015,-0.015
9.242,-0.105,-0.015
9.244,-0.180,-0.010
9.246,-0.190,-0.010
9.248,-0.170,-0.010
9.250,-0.105,-0.010
9.252,-0.035,-0.010
9.254,0.030,-0.015
9.256,0.055,-0.015
9.258,0.025,-0.025
9.260,-0.025,-0.030
9.262,-0.135,-0.035
9.264,-0.200,-0.045
9.266,-0.205,-0.050
9.268,-0.185,-0.055
9.270,-0.125,-0.055
9.272,-0.050,-0.055
9.274,0.020,-0.055
9.276,0.070,-0.050
9.278,0.035,-0.045
9.280,-0.035,-0.040
9.282,-0.120,-0.035
9.284,-0.190,-0.025
9.286,-0.225,-0.020
9.288,-0.165,-0.020
9.290,-0.110,-0.020
9.292,-0.015,-0.020
9.294,0.045,-0.025
9.296,0.055,-0.035
9.298,0.020,-0.040
9.300,-0.045,-0.050
9.302,-0.160,-0.060
9.304,-0.220,-0.065
9.306,-0.230,-0.065
9.308,-0.170,-0.065
9.310,-0.150,-0.065
9.312,-0.030,-0.060
9.314,0.050,-0.050
9.316,0.065,-0.045
9.318,0.020,-0.040
9.320,-0.040,-0.040
9.322,-0.155,-0.040
9.324,-0.200,-0.040
9.326,-0.210,-0.040
9.328,-0.180,-0.040
9.330,-0.100,-0.045
9.332,-0.015,-0.045
9.334,0.020,-0.045
9.336,0.055,-0.045
9.338,-0.010,-0.045
9.340,-0.065,-0.045
9.342,-0.155,-0.045
9.344,-0.215,-0.045
9.346,-0.230,-0.045
9.348,-0.190,-0.050
9.350,-0.125,-0.050
9.352,-0.010,-0.055
9.354,0.040,-0.055
9.356,0.055,-0.060
9.358,-0.010,-0.060
9.360,-0.065,-0.055
9.362,-0.175,-0.055
9.364,-0.215,-0.050
9.366,-0.210,-0.045
9.368,-0.165,-0.045
9.370,-0.115,-0.040
9.372,-0.005,-0.035
9.374,0.040,-0.035
9.376,0.040,-0.035
9.378,-0.005,-0.035
9.380,-0.060,-0.035
9.382,-0.150,-0.035
9.384,-0.205,-0.035
9.386,-0.215,-0.040
9.388,-0.165,-0.040
9.390,-0.100,-0.040
9.392,-0.005,-0.040
9.394,0.050,-0.045
9.396,0.060,-0.045
9.398,0.010,-0.045
9.400,-0.065,-0.045
9.402,-0.170,-0.050
9.404,-0.205,-0.050
9.406,-0.210,-0.050
9.408,-0.150,-0.045
9.410,-0.065,-0.045
9.412,0.015,-0.045
9.414,0.065,-0.040
9.416,0.075,-0.035
9.418,0.025,-0.030
9.420,-0.060,-0.025
9.422,-0.145,-0.025
9.424,-0.175,-0.020
9.426,-0.170,-0.020
9.428,-0.105,-0.015
9.430,-0.060,-0.015
9.432,0.060,-0.015
9.434,0.100,-0.015
9.436,0.100,-0.010
9.438,0.025,-0.010
9.440,-0.035,-0.005
9.442,-0.130,0.000
9.444,-0.205,0.005
9.446,-0.185,0.005
9.448,-0.130,0.005
9.450,-0.040,0.000
9.452,0.045,-0.005
9.454,0.080,-0.015
9.456,0.080,-0.025
9.458,0.000,-0.035
9.460,-0.075,-0.045
9.462,-0.180,-0.055
9.464,-0.230,-0.055
9.466,-0.205,-0.055
9.468,-0.160,-0.050
9.470,-0.055,-0.050
9.472,0.015,-0.045
9.474,0.030,-0.045
9.476,0.005,-0.045
9.478,-0.035,-0.050
9.480,-0.130,-0.055
9.482,-0.195,-0.065
9.484,-0.240,-0.075
9.486,-0.220,-0.080
9.488,-0.160,-0.085
9.490,-0.070,-0.085
9.492,0.010,-0.080
9.494,0.040,-0.075
9.496,0.020,-0.065
9.498,-0.060,-0.060
9.500,-0.130,-0.050
9.502,-0.205,-0.045
9.504,-0.240,-0.045
9.506,-0.190,-0.045
9.508,-0.135,-0.045
9.510,-0.055,-0.050
9.512,0.010,-0.050
9.514,0.035,-0.050
9.516,0.010,-0.050
9.518,-0.055,-0.050
9.520,-0.130,-0.050
9.522,-0.200,-0.050
9.524,-0.230,-0.050
9.526,-0.180,-0.050
9.528,-0.140,-0.055
9.530,-0.045,-0.055
9.532,0.020,-0.055
9.534,0.040,-0.055
9.536,0.005,-0.055
9.538,-0.055,-0.060
9.540,-0.155,-0.060
9.542,-0.240,-0.070
9.544,-0.265,-0.080
9.546,-0.250,-0.095
9.548,-0.210,-0.110
9.550,-0.110,-0.125
9.552,-0.070,-0.135
9.554,-0.035,-0.135
9.556,-0.055,-0.125
9.558,-0.070,-0.095
9.560,-0.120,-0.050
9.562,-0.130,0.015
9.564,-0.055,0.085
9.566,0.045,0.165
9.568,0.200,0.245
9.570,0.370,0.320
9.572,0.515,0.375
9.574,0.565,0.410
9.576,0.525,0.425
9.578,0.415,0.415
9.580,0.220,0.380
9.582,0.115,0.325
9.584,0.095,0.250
9.586,0.115,0.170
9.588,0.025,0.085
9.590,0.045,0.005
9.592,-0.040,-0.065
9.594,-0.110,-0.120
9.596,-0.150,-0.160
9.598,-0.190,-0.185
9.600,-0.275,-0.195
9.602,-0.330,-0.195
9.604,-0.340,-0.185
9.606,-0.295,-0.170
9.608,-0.225,-0.155
9.610,-0.090,-0.145
9.612,-0.015,-0.130
9.614,0.000,-0.120
9.616,-0.030,-0.105
9.618,-0.065,-0.095
9.620,-0.170,-0.085
9.622,-0.220,-0.070
9.624,-0.210,-0.060
9.626,-0.165,-0.050
9.628,-0.115,-0.045
9.630,-0.010,-0.045
9.632,0.065,-0.040
9.634,0.075,-0.040
9.636,0.020,-0.040
9.638,-0.050,-0.040
9.640,-0.135,-0.040
9.642,-0.180,-0.035
9.644,-0.190,-0.035
9.646,-0.135,-0.030
9.648,-0.075,-0.025
9.650,0.015,-0.025
9.652,0.065,-0.025
9.654,0.075,-0.025
9.656,0.015,-0.025
9.658,-0.035,-0.025
9.660,-0.125,-0.025
9.662,-0.160,-0.025
9.664,-0.180,-0.020
9.666,-0.120,-0.020
9.668,-0.045,-0.015
9.670,0.045,-0.010
9.672,0.100,-0.010
9.674,0.085,-0.010
9.676,0.035,-0.005
9.678,-0.030,-0.005
9.680,-0.120,-0.005
9.682,-0.150,-0.005
9.684,-0.160,-0.005
9.686,-0.100,0.000
9.688,-0.035,0.005
9.690,0.060,0.005
9.692,0.105,0.010
9.694,0.110,0.015
9.696,0.060,0.015
9.698,-0.025,0.015
9.700,-0.100,0.015
9.702,-0.155,0.010
9.704,-0.140,0.010
9.706,-0.080,0.010
9.708,-0.010,0.005
9.710,0.085,0.005
9.712,0.130,0.005
9.714,0.125,0.010
9.716,0.085,0.015
9.718,-0.005,0.020
9.720,-0.100,0.030
9.722,-0.125,0.035
9.724,-0.095,0.045
9.726,-0.055,0.050
9.728,0.020,0.055
9.730,0.115,0.060
9.732,0.155,0.060
9.734,0.140,0.060
9.736,0.090,0.055
9.738,0.015,0.050
9.740,-0.065,0.050
9.742,-0.110,0.045
9.744,-0.090,0.045
9.746,-0.030,0.045
9.748,0.040,0.045
9.750,0.120,0.050
9.752,0.180,0.055
9.754,0.170,0.060
9.756,0.110,0.060
9.758,0.020,0.065
9.760,-0.055,0.070
9.762,-0.075,0.075
9.764,-0.060,0.080
9.766,0.000,0.080
9.768,0.090,0.085
9.770,0.175,0.090
9.772,0.210,0.095
9.774,0.220,0.105
9.776,0.160,0.110
9.778,0.055,0.115
9.780,-0.015,0.120
9.782,-0.030,0.125
9.784,-0.015,0.130
9.786,0.050,0.135
9.788,0.155,0.140
9.790,0.225,0.145
9.792,0.265,0.145
9.794,0.265,0.150
9.796,0.215,0.160
9.798,0.120,0.165
9.800,0.040,0.170
9.802,0.020,0.180
9.804,0.060,0.190
9.806,0.105,0.195
9.808,0.220,0.200
9.810,0.275,0.205
9.812,0.310,0.210
9.814,0.290,0.210
9.816,0.260,0.210
9.818,0.150,0.210
9.820,0.080,0.215
9.822,0.050,0.215
9.824,0.090,0.220
9.826,0.135,0.225
9.828,0.250,0.230
9.830,0.315,0.235
9.832,0.330,0.240
9.834,0.300,0.235
9.836,0.235,0.230
9.838,0.120,0.220
9.840,0.040,0.210
9.842,0.010,0.195
9.844,0.045,0.180
9.846,0.085,0.165
9.848,0.175,0.150
9.850,0.230,0.140
9.852,0.245,0.135
9.854,0.190,0.125
9.856,0.130,0.120
9.858,0.025,0.110
9.860,-0.055,0.100
9.862,-0.095,0.090
9.864,-0.075,0.075
9.866,-0.035,0.060
9.868,0.070,0.050
9.870,0.115,0.035
9.872,0.135,0.025
9.874,0.105,0.015
9.876,0.035,0.010
9.878,-0.080,0.005
9.880,-0.140,0.005
9.882,-0.165,0.000
9.884,-0.150,0.000
9.886,-0.105,-0.005
9.888,0.000,-0.015
9.890,0.065,-0.020
9.892,0.065,-0.030
9.894,0.040,-0.040
9.896,-0.015,-0.045
9.898,-0.135,-0.050
9.900,-0.210,-0.050
9.902,-0.200,-0.050
9.904,-0.160,-0.050
9.906,-0.110,-0.050
9.908,-0.010,-0.045
9.910,0.035,-0.045
9.912,0.050,-0.050
9.914,-0.010,-0.050
9.916,-0.035,-0.050
9.918,-0.140,-0.055
9.920,-0.190,-0.055
9.922,-0.205,-0.055
9.924,-0.165,-0.055
9.926,-0.110,-0.050
9.928,0.010,-0.050
9.930,0.050,-0.050
9.932,0.055,-0.050
9.934,0.015,-0.050
9.936,-0.050,-0.050
9.938,-0.150,-0.055
9.940,-0.200,-0.055
9.942,-0.195,-0.055
9.944,-0.155,-0.050
9.946,-0.095,-0.045
9.948,0.020,-0.040
9.950,0.050,-0.035
9.952,0.065,-0.035
9.954,0.015,-0.030
9.956,-0.055,-0.030
9.958,-0.145,-0.035
9.960,-0.185,-0.040
9.962,-0.175,-0.040
9.964,-0.130,-0.045
9.966,-0.070,-0.045
9.968,0.015,-0.045
9.970,0.065,-0.045
9.972,0.055,-0.040
9.974,0.025,-0.040
9.976,-0.050,-0.035
9.978,-0.165,-0.040
9.980,-0.200,-0.040
9.982,-0.195,-0.045
9.984,-0.135,-0.050
9.986,-0.080,-0.050
9.988,0.025,-0.055
9.990,0.065,-0.055
9.992,0.060,-0.050
9.994,-0.005,-0.045
9.996,-0.060,-0.045
9.998,-0.150,-0.040
