'Elapsed time','ECG I','ECG I filtered'
'seconds','mV','mV'
0.000,-0.190,-0.115
0.002,-0.220,-0.085
0.004,-0.205,-0.060
0.006,-0.145,-0.035
0.008,-0.075,-0.015
0.010,0.005,0.005
0.012,0.045,0.015
0.014,0.045,0.020
0.016,-0.010,0.020
0.018,-0.095,0.010
0.020,-0.175,0.000
0.022,-0.205,-0.010
0.024,-0.200,-0.020
0.026,-0.145,-0.025
0.028,-0.065,-0.020
0.030,0.015,-0.015
0.032,0.060,-0.010
0.034,0.065,0.000
0.036,0.000,0.010
0.038,-0.085,0.015
0.040,-0.175,0.015
0.042,-0.210,0.010
0.044,-0.190,0.005
0.046,-0.145,-0.005
0.048,-0.050,-0.015
0.050,0.035,-0.020
0.052,0.070,-0.020
0.054,0.050,-0.020
0.056,-0.015,-0.010
0.058,-0.095,-0.005
0.060,-0.180,0.005
0.062,-0.195,0.010
0.064,-0.180,0.020
0.066,-0.115,0.020
0.068,-0.010,0.025
0.070,0.050,0.025
0.072,0.080,0.025
0.074,0.055,0.025
0.076,0.000,0.020
0.078,-0.100,0.015
0.080,-0.165,0.015
0.082,-0.185,0.010
0.084,-0.190,0.005
0.086,-0.130,0.000
0.088,-0.025,-0.005
0.090,0.035,-0.005
0.092,0.070,-0.005
0.094,0.060,-0.005
0.096,-0.010,0.000
0.098,-0.125,0.000
0.100,-0.190,0.005
0.102,-0.205,0.005
0.104,-0.165,0.005
0.106,-0.115,0.005
0.108,-0.005,0.005
0.110,0.055,0.000
0.112,0.060,0.005
0.114,0.040,0.005
0.116,-0.020,0.010
0.118,-0.115,0.015
0.120,-0.180,0.020
0.122,-0.205,0.020
0.124,-0.190,0.020
0.126,-0.120,0.020
0.128,-0.015,0.015
0.130,0.065,0.010
0.132,0.070,0.000
0.134,0.025,-0.005
0.136,-0.040,-0.010
0.138,-0.130,-0.010
0.140,-0.190,-0.010
0.142,-0.215,-0.005
0.144,-0.175,0.000
0.146,-0.120,0.005
0.148,-0.015,0.005
0.150,0.045,0.005
0.152,0.060,0.000
0.154,0.025,0.000
0.156,-0.035,-0.005
0.158,-0.140,-0.010
0.160,-0.195,-0.010
0.162,-0.200,-0.010
0.164,-0.165,-0.010
0.166,-0.130,-0.005
0.168,-0.010,-0.005
0.170,0.040,-0.005
0.172,0.055,-0.005
0.174,0.010,-0.010
0.176,-0.035,-0.015
0.178,-0.160,-0.020
0.180,-0.190,-0.020
0.182,-0.220,-0.015
0.184,-0.175,-0.015
0.186,-0.120,-0.005
0.188,0.000,0.000
0.190,0.050,0.000
0.192,0.070,0.000
0.194,0.020,0.000
0.196,-0.035,-0.010
0.198,-0.150,-0.015
0.200,-0.200,-0.020
0.202,-0.205,-0.025
0.204,-0.165,-0.025
0.206,-0.110,-0.020
0.208,0.010,-0.015
0.210,0.055,-0.005
0.212,0.050,0.000
0.214,0.020,0.000
0.216,-0.060,0.000
0.218,-0.160,-0.005
0.220,-0.205,-0.010
0.222,-0.215,-0.015
0.224,-0.170,-0.020
0.226,-0.115,-0.025
0.228,0.005,-0.025
0.230,0.055,-0.025
0.232,0.055,-0.020
0.234,0.015,-0.020
0.236,-0.050,-0.015
0.238,-0.175,-0.015
0.240,-0.210,-0.015
0.242,-0.225,-0.015
0.244,-0.165,-0.015
0.246,-0.110,-0.015
0.248,0.005,-0.010
0.250,0.050,-0.010
0.252,0.050,-0.010
0.254,-0.005,-0.010
0.256,-0.075,-0.010
0.258,-0.175,-0.015
0.260,-0.215,-0.020
0.262,-0.210,-0.020
0.264,-0.160,-0.020
0.266,-0.085,-0.020
0.268,0.015,-0.015
0.270,0.055,-0.010
0.272,0.050,-0.010
0.274,-0.015,-0.005
0.276,-0.065,-0.005
0.278,-0.170,-0.010
0.280,-0.220,-0.010
0.282,-0.215,-0.015
0.284,-0.150,-0.020
0.286,-0.065,-0.025
0.288,0.015,-0.025
0.290,0.060,-0.025
0.292,0.060,-0.020
0.294,0.015,-0.015
0.296,-0.065,-0.010
0.298,-0.155,0.000
0.300,-0.180,0.005
0.302,-0.180,0.005
0.304,-0.120,0.010
0.306,-0.050,0.010
0.308,0.035,0.010
0.310,0.085,0.010
0.312,0.085,0.010
0.314,0.010,0.010
0.316,-0.065,0.010
0.318,-0.145,0.010
0.320,-0.190,0.005
0.322,-0.180,0.005
0.324,-0.115,0.005
0.326,-0.010,0.005
0.328,0.040,0.005
0.330,0.090,0.010
0.332,0.065,0.010
0.334,0.010,0.010
0.336,-0.085,0.010
0.338,-0.180,0.010
0.340,-0.215,0.005
0.342,-0.200,0.000
0.344,-0.120,-0.005
0.346,-0.055,-0.015
0.348,0.035,-0.020
0.350,0.065,-0.030
0.352,0.045,-0.035
0.354,-0.025,-0.035
0.356,-0.115,-0.035
0.358,-0.185,-0.035
0.360,-0.215,-0.035
0.362,-0.225,-0.030
0.364,-0.160,-0.030
0.366,-0.055,-0.030
0.368,0.005,-0.030
0.370,0.050,-0.030
0.372,0.020,-0.030
0.374,-0.030,-0.030
0.376,-0.130,-0.030
0.378,-0.210,-0.030
0.380,-0.240,-0.025
0.382,-0.205,-0.025
0.384,-0.145,-0.025
0.386,-0.040,-0.025
0.388,0.030,-0.030
0.390,0.040,-0.030
0.392,0.015,-0.035
0.394,-0.050,-0.035
0.396,-0.140,-0.035
0.398,-0.215,-0.035
0.400,-0.235,-0.035
0.402,-0.225,-0.035
0.404,-0.165,-0.035
0.406,-0.065,-0.040
0.408,-0.005,-0.050
0.410,0.005,-0.060
0.412,-0.015,-0.070
0.414,-0.065,-0.075
0.416,-0.170,-0.075
0.418,-0.235,-0.065
0.420,-0.245,-0.045
0.422,-0.190,-0.015
0.424,-0.090,0.035
0.426,0.100,0.090
0.428,0.220,0.155
0.430,0.320,0.220
0.432,0.350,0.280
0.434,0.380,0.330
0.436,0.310,0.365
0.438,0.245,0.380
0.440,0.185,0.375
0.442,0.145,0.350
0.444,0.125,0.300
0.446,0.225,0.240
0.448,0.235,0.165
0.450,0.165,0.090
0.452,0.050,0.015
0.454,-0.110,-0.050
0.456,-0.275,-0.105
0.458,-0.340,-0.140
0.460,-0.340,-0.160
0.462,-0.300,-0.170
0.464,-0.230,-0.165
0.466,-0.130,-0.155
0.468,-0.070,-0.140
0.470,-0.050,-0.125
0.472,-0.060,-0.110
0.474,-0.090,-0.095
0.476,-0.210,-0.080
0.478,-0.240,-0.065
0.480,-0.255,-0.055
0.482,-0.205,-0.040
0.484,-0.130,-0.030
0.486,0.000,-0.020
0.488,0.055,-0.015
0.490,0.050,-0.015
0.492,-0.005,-0.015
0.494,-0.065,-0.015
0.496,-0.170,-0.015
0.498,-0.225,-0.015
0.500,-0.215,-0.015
0.502,-0.170,-0.010
0.504,-0.100,-0.005
0.506,0.020,0.000
0.508,0.075,0.005
0.510,0.075,0.010
0.512,0.025,0.015
0.514,-0.040,0.010
0.516,-0.165,0.010
0.518,-0.210,0.005
0.520,-0.200,0.000
0.522,-0.145,-0.005
0.524,-0.075,-0.010
0.526,0.015,-0.005
0.528,0.075,-0.005
0.530,0.075,0.000
0.532,0.000,0.000
0.534,-0.055,0.005
0.536,-0.150,0.005
0.538,-0.195,0.005
0.540,-0.190,0.005
0.542,-0.125,0.005
0.544,-0.060,0.005
0.546,0.035,0.005
0.548,0.080,0.010
0.550,0.080,0.010
0.552,0.030,0.015
0.554,-0.040,0.020
0.556,-0.130,0.020
0.558,-0.180,0.020
0.560,-0.175,0.020
0.562,-0.125,0.020
0.564,-0.035,0.020
0.566,0.050,0.015
0.568,0.090,0.015
0.570,0.090,0.015
0.572,0.035,0.015
0.574,-0.040,0.020
0.576,-0.140,0.020
0.578,-0.160,0.025
0.580,-0.160,0.025
0.582,-0.110,0.030
0.584,-0.020,0.030
0.586,0.070,0.030
0.588,0.115,0.030
0.590,0.105,0.030
0.592,0.050,0.025
0.594,-0.030,0.030
0.596,-0.115,0.030
0.598,-0.155,0.035
0.600,-0.140,0.040
0.602,-0.085,0.045
0.604,0.020,0.055
0.606,0.085,0.060
0.608,0.120,0.065
0.610,0.135,0.070
0.612,0.065,0.070
0.614,-0.005,0.070
0.616,-0.100,0.070
0.618,-0.135,0.065
0.620,-0.105,0.065
0.622,-0.050,0.065
0.624,0.050,0.070
0.626,0.135,0.075
0.628,0.165,0.080
0.630,0.145,0.085
0.632,0.090,0.095
0.634,0.010,0.100
0.636,-0.065,0.105
0.638,-0.085,0.110
0.640,-0.075,0.115
0.642,-0.005,0.120
0.644,0.095,0.120
0.646,0.175,0.120
0.648,0.200,0.120
0.650,0.175,0.125
0.652,0.130,0.125
0.654,0.025,0.130
0.656,-0.020,0.135
0.658,-0.050,0.140
0.660,-0.015,0.145
0.662,0.035,0.150
0.664,0.145,0.150
0.666,0.210,0.150
0.668,0.240,0.150
0.670,0.220,0.150
0.672,0.160,0.150
0.674,0.065,0.155
0.676,-0.010,0.160
0.678,-0.045,0.165
0.680,0.010,0.170
0.682,0.050,0.180
0.684,0.175,0.180
0.686,0.230,0.185
0.688,0.235,0.180
0.690,0.205,0.175
0.692,0.145,0.170
0.694,0.035,0.160
0.696,-0.045,0.150
0.698,-0.070,0.140
0.700,-0.035,0.130
0.702,0.005,0.125
0.704,0.125,0.120
0.706,0.175,0.115
0.708,0.175,0.110
0.710,0.125,0.105
0.712,0.065,0.100
0.714,-0.055,0.090
0.716,-0.120,0.080
0.718,-0.150,0.070
0.720,-0.130,0.055
0.722,-0.075,0.045
0.724,0.035,0.035
0.726,0.075,0.025
0.728,0.075,0.015
0.730,0.050,0.005
0.732,-0.025,0.000
0.734,-0.145,-0.010
0.736,-0.200,-0.015
0.738,-0.215,-0.025
0.740,-0.175,-0.030
0.742,-0.130,-0.030
0.744,-0.020,-0.035
0.746,0.040,-0.035
0.748,0.040,-0.030
0.750,0.020,-0.030
0.752,-0.050,-0.025
0.754,-0.160,-0.020
0.756,-0.200,-0.015
0.758,-0.215,-0.010
0.760,-0.185,-0.010
0.762,-0.140,-0.010
0.764,-0.030,-0.015
0.766,0.025,-0.020
0.768,0.030,-0.030
0.770,-0.005,-0.040
0.772,-0.070,-0.045
0.774,-0.180,-0.050
0.776,-0.230,-0.055
0.778,-0.235,-0.055
0.780,-0.195,-0.050
0.782,-0.105,-0.050
0.784,-0.020,-0.045
0.786,0.025,-0.040
0.788,0.040,-0.040
0.790,-0.010,-0.035
0.792,-0.060,-0.035
0.794,-0.195,-0.035
0.796,-0.230,-0.035
0.798,-0.235,-0.035
0.800,-0.200,-0.040
0.802,-0.130,-0.040
0.804,-0.020,-0.040
0.806,0.040,-0.035
0.808,0.015,-0.035
0.810,-0.035,-0.035
0.812,-0.100,-0.040
0.814,-0.195,-0.040
0.816,-0.220,-0.040
0.818,-0.240,-0.040
0.820,-0.195,-0.040
0.822,-0.115,-0.040
0.824,-0.015,-0.040
0.826,0.025,-0.040
0.828,0.020,-0.040
0.830,-0.045,-0.040
0.832,-0.095,-0.040
0.834,-0.215,-0.045
0.836,-0.255,-0.045
0.838,-0.245,-0.050
0.840,-0.195,-0.050
0.842,-0.105,-0.050
0.844,-0.010,-0.045
0.846,0.030,-0.045
0.848,0.030,-0.040
0.850,-0.030,-0.035
0.852,-0.095,-0.035
0.854,-0.195,-0.030
0.856,-0.225,-0.030
0.858,-0.235,-0.030
0.860,-0.175,-0.035
0.862,-0.110,-0.040
0.864,-0.020,-0.040
0.866,0.030,-0.045
0.868,0.020,-0.045
0.870,-0.030,-0.040
0.872,-0.100,-0.040
0.874,-0.210,-0.040
0.876,-0.220,-0.035
0.878,-0.225,-0.030
0.880,-0.155,-0.030
0.882,-0.100,-0.025
0.884,0.005,-0.025
0.886,0.030,-0.025
0.888,0.020,-0.025
0.890,-0.040,-0.025
0.892,-0.115,-0.030
0.894,-0.200,-0.030
0.896,-0.220,-0.035
0.898,-0.220,-0.035
0.900,-0.160,-0.040
0.902,-0.075,-0.045
0.904,0.010,-0.045
0.906,0.040,-0.045
0.908,0.025,-0.045
0.910,-0.040,-0.045
0.912,-0.125,-0.045
0.914,-0.225,-0.040
0.916,-0.250,-0.040
0.918,-0.215,-0.035
0.920,-0.150,-0.030
0.922,-0.075,-0.030
0.924,0.015,-0.030
0.926,0.030,-0.030
0.928,0.020,-0.030
0.930,-0.055,-0.035
0.932,-0.150,-0.040
0.934,-0.215,-0.045
0.936,-0.235,-0.050
0.938,-0.225,-0.055
0.940,-0.160,-0.055
0.942,-0.075,-0.055
0.944,0.005,-0.055
0.946,0.020,-0.055
0.948,0.000,-0.050
0.950,-0.045,-0.040
0.952,-0.145,-0.035
0.954,-0.225,-0.030
0.956,-0.245,-0.020
0.958,-0.215,-0.015
0.960,-0.150,-0.015
0.962,-0.060,-0.015
0.964,0.010,-0.015
0.966,0.040,-0.015
0.968,0.015,-0.015
0.970,-0.050,-0.020
0.972,-0.155,-0.020
0.974,-0.225,-0.025
0.976,-0.255,-0.025
0.978,-0.215,-0.030
0.980,-0.140,-0.030
0.982,-0.050,-0.035
0.984,0.025,-0.035
0.986,0.020,-0.040
0.988,-0.015,-0.040
0.990,-0.065,-0.045
0.992,-0.180,-0.045
0.994,-0.220,-0.045
0.996,-0.230,-0.045
0.998,-0.210,-0.045
1.000,-0.170,-0.045
1.002,-0.045,-0.040
1.004,-0.005,-0.040
1.006,0.025,-0.040
1.008,0.000,-0.045
1.010,-0.065,-0.045
1.012,-0.175,-0.045
1.014,-0.225,-0.045
1.016,-0.240,-0.045
1.018,-0.190,-0.045
1.020,-0.150,-0.045
1.022,-0.050,-0.045
1.024,0.020,-0.045
1.026,0.045,-0.045
1.028,-0.015,-0.045
1.030,-0.065,-0.045
1.032,-0.185,-0.050
1.034,-0.245,-0.050
1.036,-0.250,-0.050
1.038,-0.205,-0.050
1.040,-0.155,-0.050
1.042,-0.025,-0.045
1.044,0.025,-0.040
1.046,0.030,-0.035
1.048,-0.015,-0.030
1.050,-0.065,-0.030
1.052,-0.175,-0.025
1.054,-0.225,-0.030
1.056,-0.235,-0.030
1.058,-0.210,-0.035
1.060,-0.135,-0.040
1.062,-0.025,-0.045
1.064,0.020,-0.045
1.066,0.040,-0.045
1.068,0.000,-0.040
1.070,-0.055,-0.035
1.072,-0.170,-0.030
1.074,-0.205,-0.025
1.076,-0.215,-0.015
1.078,-0.165,-0.010
1.080,-0.110,-0.005
1.082,0.010,0.000
1.084,0.050,0.000
1.086,0.055,0.000
1.088,-0.005,-0.005
1.090,-0.060,-0.005
1.092,-0.170,-0.005
1.094,-0.205,-0.010
1.096,-0.200,-0.010
1.098,-0.145,-0.005
1.100,-0.080,-0.005
1.102,0.030,0.000
1.104,0.060,0.005
1.106,0.050,0.005
1.108,-0.005,0.005
1.110,-0.080,0.005
1.112,-0.170,0.000
1.114,-0.215,-0.005
1.116,-0.220,-0.010
1.118,-0.195,-0.015
1.120,-0.115,-0.020
1.122,-0.010,-0.030
1.124,0.025,-0.030
1.126,0.030,-0.035
1.128,-0.035,-0.040
1.130,-0.120,-0.045
1.132,-0.205,-0.045
1.134,-0.245,-0.045
1.136,-0.230,-0.050
1.138,-0.195,-0.050
1.140,-0.125,-0.045
1.142,-0.015,-0.045
1.144,0.010,-0.045
1.146,0.015,-0.040
1.148,-0.045,-0.040
1.150,-0.130,-0.035
1.152,-0.205,-0.035
1.154,-0.250,-0.040
1.156,-0.250,-0.040
1.158,-0.165,-0.045
1.160,-0.100,-0.045
1.162,-0.020,-0.050
1.164,0.030,-0.050
1.166,0.005,-0.055
1.168,-0.070,-0.055
1.170,-0.140,-0.055
1.172,-0.215,-0.055
1.174,-0.240,-0.055
1.176,-0.240,-0.055
1.178,-0.175,-0.055
1.180,-0.090,-0.060
1.182,-0.005,-0.060
1.184,0.005,-0.060
1.186,-0.005,-0.060
1.188,-0.070,-0.065
1.190,-0.145,-0.065
1.192,-0.225,-0.065
1.194,-0.270,-0.065
1.196,-0.255,-0.065
1.198,-0.195,-0.065
1.200,-0.105,-0.050
1.202,0.010,-0.030
1.204,0.070,0.000
1.206,0.115,0.050
1.208,0.120,0.105
1.210,0.100,0.175
1.212,0.075,0.240
1.214,0.145,0.305
1.216,0.240,0.360
1.218,0.305,0.390
1.220,0.370,0.400
1.222,0.420,0.385
1.224,0.335,0.340
1.226,0.245,0.280
1.228,0.185,0.205
1.230,0.050,0.125
1.232,-0.095,0.050
1.234,-0.225,-0.020
1.236,-0.320,-0.075
1.238,-0.305,-0.115
1.240,-0.200,-0.140
1.242,-0.130,-0.150
1.244,-0.100,-0.155
1.246,-0.085,-0.150
1.248,-0.135,-0.145
1.250,-0.230,-0.135
1.252,-0.285,-0.125
1.254,-0.305,-0.115
1.256,-0.265,-0.100
1.258,-0.190,-0.085
1.260,-0.080,-0.075
1.262,0.010,-0.060
1.264,0.020,-0.045
1.266,0.000,-0.040
1.268,-0.050,-0.030
1.270,-0.155,-0.025
1.272,-0.220,-0.025
1.274,-0.230,-0.025
1.276,-0.225,-0.025
1.278,-0.135,-0.025
1.280,-0.025,-0.025
1.282,0.035,-0.025
1.284,0.050,-0.020
1.286,0.010,-0.020
1.288,-0.040,-0.010
1.290,-0.130,-0.005
1.292,-0.205,-0.005
1.294,-0.210,0.000
1.296,-0.180,0.005
1.298,-0.135,0.005
1.300,-0.020,0.000
1.302,0.045,0.000
1.304,0.055,-0.005
1.306,0.015,-0.010
1.308,-0.050,-0.015
1.310,-0.145,-0.015
1.312,-0.190,-0.015
1.314,-0.215,-0.010
1.316,-0.185,-0.005
1.318,-0.115,0.005
1.320,0.005,0.010
1.322,0.065,0.015
1.324,0.075,0.020
1.326,0.035,0.025
1.328,-0.015,0.020
1.330,-0.135,0.020
1.332,-0.195,0.015
1.334,-0.210,0.010
1.336,-0.165,0.005
1.338,-0.105,0.005
1.340,0.025,0.005
1.342,0.070,0.010
1.344,0.095,0.010
1.346,0.030,0.015
1.348,-0.030,0.015
1.350,-0.130,0.020
1.352,-0.200,0.020
1.354,-0.195,0.015
1.356,-0.140,0.015
1.358,-0.075,0.015
1.360,0.030,0.015
1.362,0.075,0.015
1.364,0.100,0.020
1.366,0.045,0.020
1.368,-0.020,0.025
1.370,-0.130,0.030
1.372,-0.185,0.030
1.374,-0.190,0.030
1.376,-0.135,0.025
1.378,-0.065,0.025
1.380,0.045,0.020
1.382,0.090,0.020
1.384,0.095,0.020
1.386,0.050,0.020
1.388,0.000,0.025
1.390,-0.115,0.030
1.392,-0.160,0.040
1.394,-0.155,0.050
1.396,-0.085,0.055
1.398,-0.030,0.060
1.400,0.080,0.060
1.402,0.120,0.065
1.404,0.125,0.065
1.406,0.070,0.065
1.408,0.025,0.070
1.410,-0.085,0.075
1.412,-0.105,0.085
1.414,-0.110,0.095
1.416,-0.050,0.105
1.418,0.030,0.115
1.420,0.150,0.125
1.422,0.180,0.130
1.424,0.180,0.130
1.426,0.125,0.125
1.428,0.050,0.125
1.430,-0.050,0.120
1.432,-0.075,0.120
1.434,-0.060,0.120
1.436,0.005,0.125
1.438,0.080,0.130
1.440,0.190,0.135
1.442,0.225,0.145
1.444,0.220,0.150
1.446,0.160,0.155
1.448,0.075,0.155
1.450,-0.005,0.160
1.452,-0.040,0.160
1.454,-0.035,0.160
1.456,0.030,0.165
1.458,0.105,0.165
1.460,0.200,0.170
1.462,0.240,0.175
1.464,0.235,0.175
1.466,0.170,0.175
1.468,0.075,0.175
1.470,-0.020,0.170
1.472,-0.050,0.165
1.474,-0.050,0.155
1.476,0.025,0.150
1.478,0.095,0.140
1.480,0.165,0.130
1.482,0.170,0.125
1.484,0.155,0.120
1.486,0.095,0.110
1.488,0.000,0.105
1.490,-0.090,0.100
1.492,-0.120,0.090
1.494,-0.125,0.085
1.496,-0.070,0.075
1.498,0.015,0.065
1.500,0.070,0.055
1.502,0.100,0.045
1.504,0.055,0.035
1.506,0.005,0.025
1.508,-0.095,0.020
1.510,-0.160,0.010
1.512,-0.210,0.005
1.514,-0.200,0.005
1.516,-0.145,0.000
1.518,-0.035,-0.005
1.520,0.015,-0.005
1.522,0.030,-0.010
1.524,0.010,-0.015
1.526,-0.050,-0.020
1.528,-0.150,-0.025
1.530,-0.225,-0.030
1.532,-0.235,-0.035
1.534,-0.195,-0.040
1.536,-0.140,-0.040
1.538,-0.045,-0.040
1.540,0.010,-0.040
1.542,0.025,-0.035
1.544,0.010,-0.035
1.546,-0.065,-0.035
1.548,-0.160,-0.035
1.550,-0.250,-0.035
1.552,-0.255,-0.040
1.554,-0.210,-0.045
1.556,-0.165,-0.045
1.558,-0.035,-0.050
1.560,0.010,-0.050
1.562,0.015,-0.050
1.564,-0.020,-0.050
1.566,-0.075,-0.050
1.568,-0.170,-0.050
1.570,-0.260,-0.050
1.572,-0.270,-0.050
1.574,-0.220,-0.055
1.576,-0.175,-0.055
1.578,-0.050,-0.060
1.580,0.010,-0.055
1.582,0.015,-0.055
1.584,-0.010,-0.050
1.586,-0.070,-0.040
1.588,-0.170,-0.035
1.590,-0.230,-0.030
1.592,-0.255,-0.030
1.594,-0.215,-0.030
1.596,-0.145,-0.030
1.598,-0.040,-0.035
1.600,0.015,-0.035
1.602,0.020,-0.035
1.604,-0.020,-0.040
1.606,-0.080,-0.035
1.608,-0.170,-0.035
1.610,-0.235,-0.035
1.612,-0.255,-0.030
1.614,-0.210,-0.035
1.616,-0.150,-0.035
1.618,-0.040,-0.045
1.620,0.020,-0.050
1.622,0.020,-0.055
1.624,-0.025,-0.060
1.626,-0.090,-0.060
1.628,-0.195,-0.055
1.630,-0.240,-0.050
1.632,-0.240,-0.045
1.634,-0.200,-0.035
1.636,-0.145,-0.030
1.638,-0.025,-0.025
1.640,0.020,-0.020
1.642,0.035,-0.025
1.644,-0.025,-0.030
1.646,-0.080,-0.035
1.648,-0.195,-0.045
1.650,-0.245,-0.050
1.652,-0.245,-0.050
1.654,-0.200,-0.050
1.656,-0.135,-0.050
1.658,-0.025,-0.050
1.660,0.035,-0.045
1.662,0.030,-0.045
1.664,-0.015,-0.040
1.666,-0.085,-0.035
1.668,-0.190,-0.035
1.670,-0.225,-0.030
1.672,-0.245,-0.025
1.674,-0.170,-0.020
1.676,-0.095,-0.015
1.678,0.010,-0.015
1.680,0.045,-0.015
1.682,0.040,-0.020
1.684,-0.030,-0.025
1.686,-0.105,-0.035
1.688,-0.215,-0.040
1.690,-0.255,-0.050
1.692,-0.250,-0.055
1.694,-0.175,-0.055
1.696,-0.115,-0.055
1.698,-0.015,-0.050
1.700,0.030,-0.045
1.702,0.025,-0.040
1.704,-0.030,-0.035
1.706,-0.110,-0.030
1.708,-0.215,-0.030
1.710,-0.245,-0.035
1.712,-0.240,-0.040
1.714,-0.175,-0.040
1.716,-0.110,-0.045
1.718,-0.010,-0.045
1.720,0.035,-0.045
1.722,0.035,-0.045
1.724,-0.040,-0.040
1.726,-0.120,-0.040
1.728,-0.210,-0.035
1.730,-0.250,-0.035
1.732,-0.240,-0.040
1.734,-0.175,-0.040
1.736,-0.090,-0.045
1.738,-0.005,-0.050
1.740,0.005,-0.050
1.742,0.010,-0.055
1.744,-0.060,-0.060
1.746,-0.130,-0.060
1.748,-0.210,-0.060
1.750,-0.250,-0.060
1.752,-0.220,-0.060
1.754,-0.185,-0.055
1.756,-0.090,-0.055
1.758,-0.010,-0.050
1.760,0.035,-0.045
1.762,0.005,-0.045
1.764,-0.065,-0.040
1.766,-0.135,-0.040
1.768,-0.220,-0.040
1.770,-0.250,-0.040
1.772,-0.230,-0.040
1.774,-0.175,-0.045
1.776,-0.085,-0.050
1.778,0.005,-0.055
1.780,0.020,-0.055
1.782,0.005,-0.055
1.784,-0.050,-0.055
1.786,-0.155,-0.055
1.788,-0.215,-0.050
1.790,-0.240,-0.050
1.792,-0.240,-0.045
1.794,-0.165,-0.045
1.796,-0.075,-0.040
1.798,-0.005,-0.040
1.800,0.040,-0.045
1.802,0.020,-0.045
1.804,-0.050,-0.045
1.806,-0.155,-0.045
1.808,-0.245,-0.045
1.810,-0.255,-0.045
1.812,-0.230,-0.045
1.814,-0.170,-0.045
1.816,-0.060,-0.050
1.818,-0.005,-0.050
1.820,0.015,-0.050
1.822,0.000,-0.050
1.824,-0.040,-0.050
1.826,-0.165,-0.050
1.828,-0.225,-0.045
1.830,-0.255,-0.045
1.832,-0.220,-0.040
1.834,-0.160,-0.040
1.836,-0.065,-0.035
1.838,0.005,-0.035
1.840,0.020,-0.040
1.842,-0.015,-0.040
1.844,-0.060,-0.040
1.846,-0.165,-0.040
1.848,-0.215,-0.040
1.850,-0.240,-0.040
1.852,-0.205,-0.040
1.854,-0.140,-0.035
1.856,-0.045,-0.035
1.858,0.025,-0.035
1.860,0.040,-0.035
1.862,0.015,-0.030
1.864,-0.035,-0.030
1.866,-0.150,-0.030
1.868,-0.205,-0.025
1.870,-0.210,-0.020
1.872,-0.175,-0.015
1.874,-0.115,-0.010
1.876,-0.010,-0.005
1.878,0.045,-0.005
1.880,0.070,0.000
1.882,0.025,0.000
1.884,-0.030,0.000
1.886,-0.140,0.000
1.888,-0.185,0.000
1.890,-0.205,0.000
1.892,-0.155,0.000
1.894,-0.105,0.000
1.896,0.000,-0.005
1.898,0.055,-0.005
1.900,0.065,-0.010
1.902,-0.005,-0.015
1.904,-0.045,-0.020
1.906,-0.170,-0.025
1.908,-0.230,-0.030
1.910,-0.240,-0.035
1.912,-0.195,-0.040
1.914,-0.135,-0.045
1.916,-0.025,-0.045
1.918,0.015,-0.050
1.920,0.020,-0.055
1.922,-0.020,-0.055
1.924,-0.100,-0.055
1.926,-0.205,-0.055
1.928,-0.260,-0.055
1.930,-0.250,-0.050
1.932,-0.210,-0.045
1.934,-0.140,-0.040
1.936,-0.020,-0.035
1.938,0.015,-0.035
1.940,0.020,-0.035
1.942,-0.025,-0.035
1.944,-0.110,-0.035
1.946,-0.210,-0.040
1.948,-0.255,-0.045
1.950,-0.260,-0.050
1.952,-0.205,-0.050
1.954,-0.135,-0.050
1.956,-0.025,-0.050
1.958,0.015,-0.050
1.960,0.010,-0.050
1.962,-0.040,-0.050
1.964,-0.115,-0.050
1.966,-0.225,-0.050
1.968,-0.250,-0.055
1.970,-0.260,-0.055
1.972,-0.190,-0.060
1.974,-0.130,-0.060
1.976,-0.020,-0.060
1.978,-0.005,-0.065
1.980,-0.025,-0.070
1.982,-0.070,-0.075
1.984,-0.160,-0.075
1.986,-0.255,-0.075
1.988,-0.280,-0.070
1.990,-0.230,-0.050
1.992,-0.145,-0.020
1.994,-0.015,0.025
1.996,0.140,0.085
1.998,0.240,0.150
2.000,0.315,0.220
2.002,0.335,0.285
2.004,0.315,0.340
2.006,0.245,0.370
2.008,0.190,0.380
2.010,0.125,0.360
2.012,0.110,0.315
2.014,0.160,0.255
2.016,0.220,0.180
2.018,0.200,0.100
2.020,0.115,0.025
2.022,-0.075,-0.045
2.024,-0.255,-0.095
2.026,-0.365,-0.135
2.028,-0.365,-0.155
2.030,-0.350,-0.165
2.032,-0.310,-0.165
2.034,-0.210,-0.160
2.036,-0.125,-0.155
2.038,-0.090,-0.145
2.040,-0.075,-0.135
2.042,-0.130,-0.130
2.044,-0.195,-0.120
2.046,-0.265,-0.115
2.048,-0.280,-0.105
2.050,-0.245,-0.095
2.052,-0.185,-0.085
2.054,-0.085,-0.075
2.056,-0.005,-0.065
2.058,0.040,-0.055
2.060,0.015,-0.050
2.062,-0.045,-0.040
2.064,-0.135,-0.040
2.066,-0.215,-0.035
2.068,-0.230,-0.035
2.070,-0.210,-0.030
2.072,-0.145,-0.035
2.074,-0.050,-0.035
2.076,0.015,-0.035
2.078,0.045,-0.035
2.080,0.025,-0.040
2.082,-0.030,-0.040
2.084,-0.130,-0.035
2.086,-0.190,-0.035
2.088,-0.230,-0.030
2.090,-0.205,-0.025
2.092,-0.145,-0.015
2.094,-0.025,-0.010
2.096,0.030,-0.010
2.098,0.065,-0.010
2.100,0.055,-0.010
2.102,0.005,-0.015
2.104,-0.115,-0.015
2.106,-0.185,-0.020
2.108,-0.205,-0.020
2.110,-0.180,-0.020
2.112,-0.105,-0.015
2.114,-0.010,-0.005
2.116,0.035,0.000
2.118,0.070,0.005
2.120,0.040,0.005
2.122,-0.010,0.005
2.124,-0.130,0.000
2.126,-0.200,-0.010
2.128,-0.220,-0.015
2.130,-0.180,-0.020
2.132,-0.100,-0.025
2.134,0.000,-0.025
2.136,0.070,-0.020
2.138,0.090,-0.010
2.140,0.060,0.000
2.142,0.000,0.010
2.144,-0.085,0.020
2.146,-0.170,0.025
2.148,-0.200,0.030
2.150,-0.140,0.030
2.152,-0.085,0.025
2.154,0.025,0.025
2.156,0.080,0.020
2.158,0.105,0.020
2.160,0.060,0.020
2.162,0.010,0.025
2.164,-0.100,0.030
2.166,-0.150,0.030
2.168,-0.165,0.035
2.170,-0.120,0.040
2.172,-0.060,0.040
2.174,0.050,0.040
2.176,0.100,0.045
2.178,0.130,0.045
2.180,0.080,0.050
2.182,0.025,0.055
2.184,-0.060,0.060
2.186,-0.130,0.065
2.188,-0.130,0.070
2.190,-0.080,0.075
2.192,-0.015,0.080
2.194,0.105,0.085
2.196,0.155,0.085
2.198,0.160,0.085
2.200,0.125,0.090
2.202,0.065,0.090
2.204,-0.030,0.100
2.206,-0.070,0.105
2.208,-0.080,0.115
2.210,-0.020,0.120
2.212,0.045,0.130
2.214,0.150,0.135
2.216,0.205,0.140
2.218,0.210,0.145
2.220,0.180,0.145
2.222,0.125,0.145
2.224,-0.005,0.145
2.226,-0.035,0.150
2.228,-0.025,0.155
2.230,0.020,0.160
2.232,0.085,0.165
2.234,0.200,0.175
2.236,0.235,0.180
2.238,0.245,0.185
2.240,0.190,0.185
2.242,0.135,0.185
2.244,0.020,0.185
2.246,-0.025,0.180
2.248,-0.005,0.180
2.250,0.050,0.175
2.252,0.105,0.175
2.254,0.225,0.180
2.256,0.245,0.180
2.258,0.245,0.180
2.260,0.175,0.180
2.262,0.115,0.180
2.264,0.010,0.175
2.266,-0.055,0.165
2.268,-0.035,0.155
2.270,0.000,0.140
2.272,0.060,0.130
2.274,0.155,0.115
2.276,0.150,0.105
2.278,0.160,0.095
2.280,0.095,0.090
2.282,0.010,0.080
2.284,-0.100,0.075
2.286,-0.130,0.070
2.288,-0.155,0.065
2.290,-0.095,0.060
2.292,-0.025,0.050
2.294,0.045,0.040
2.296,0.080,0.035
2.298,0.065,0.025
2.300,0.005,0.015
2.302,-0.085,0.005
2.304,-0.175,0.000
2.306,-0.210,-0.005
2.308,-0.190,-0.010
2.310,-0.150,-0.010
2.312,-0.060,-0.010
2.314,0.015,-0.010
2.316,0.050,-0.015
2.318,0.035,-0.015
2.320,-0.025,-0.015
2.322,-0.115,-0.020
2.324,-0.205,-0.020
2.326,-0.235,-0.025
2.328,-0.220,-0.025
2.330,-0.160,-0.030
2.332,-0.060,-0.035
2.334,-0.010,-0.035
2.336,0.035,-0.040
2.338,0.020,-0.040
2.340,-0.040,-0.045
2.342,-0.110,-0.045
2.344,-0.205,-0.050
2.346,-0.250,-0.055
2.348,-0.235,-0.055
2.350,-0.165,-0.060
2.352,-0.075,-0.060
2.354,0.010,-0.060
2.356,0.025,-0.055
2.358,0.005,-0.055
2.360,-0.045,-0.050
2.362,-0.155,-0.045
2.364,-0.225,-0.045
2.366,-0.235,-0.045
2.368,-0.235,-0.045
2.370,-0.155,-0.050
2.372,-0.060,-0.055
2.374,0.000,-0.055
2.376,0.025,-0.060
2.378,0.000,-0.060
2.380,-0.050,-0.055
2.382,-0.150,-0.050
2.384,-0.210,-0.040
2.386,-0.230,-0.035
2.388,-0.210,-0.025
2.390,-0.155,-0.020
2.392,-0.050,-0.015
2.394,0.010,-0.015
2.396,0.045,-0.015
2.398,0.025,-0.015
2.400,-0.050,-0.020
2.402,-0.155,-0.025
2.404,-0.210,-0.030
2.406,-0.235,-0.035
2.408,-0.220,-0.035
2.410,-0.150,-0.040
2.412,-0.050,-0.040
2.414,0.025,-0.040
2.416,0.055,-0.040
2.418,0.015,-0.035
2.420,-0.055,-0.035
2.422,-0.155,-0.030
2.424,-0.210,-0.030
2.426,-0.225,-0.025
2.428,-0.205,-0.020
2.430,-0.135,-0.015
2.432,-0.025,-0.015
2.434,0.040,-0.010
2.436,0.055,-0.010
2.438,0.015,-0.015
2.440,-0.045,-0.015
2.442,-0.160,-0.020
2.444,-0.220,-0.025
2.446,-0.230,-0.030
2.448,-0.180,-0.030
2.450,-0.135,-0.035
2.452,-0.010,-0.035
2.454,0.035,-0.035
2.456,0.050,-0.035
2.458,0.005,-0.035
2.460,-0.045,-0.035
2.462,-0.170,-0.035
2.464,-0.210,-0.030
2.466,-0.220,-0.030
2.468,-0.180,-0.030
2.470,-0.120,-0.025
2.472,0.000,-0.025
2.474,0.030,-0.025
2.476,0.050,-0.025
2.478,-0.010,-0.025
2.480,-0.060,-0.025
2.482,-0.170,-0.025
2.484,-0.235,-0.030
2.486,-0.240,-0.030
2.488,-0.200,-0.035
2.490,-0.140,-0.035
2.492,-0.015,-0.035
2.494,0.030,-0.040
2.496,0.040,-0.040
2.498,-0.025,-0.040
2.500,-0.080,-0.045
2.502,-0.180,-0.045
2.504,-0.235,-0.045
2.506,-0.250,-0.045
2.508,-0.200,-0.045
2.510,-0.135,-0.040
2.512,-0.015,-0.040
2.514,0.015,-0.040
2.516,0.025,-0.040
2.518,-0.015,-0.040
2.520,-0.070,-0.040
2.522,-0.185,-0.040
2.524,-0.245,-0.040
2.526,-0.245,-0.035
2.528,-0.185,-0.035
2.530,-0.115,-0.030
2.532,0.005,-0.030
2.534,0.035,-0.025
2.536,0.035,-0.025
2.538,-0.020,-0.030
2.540,-0.095,-0.030
2.542,-0.205,-0.035
2.544,-0.245,-0.040
2.546,-0.235,-0.045
2.548,-0.180,-0.045
2.550,-0.105,-0.045
2.552,-0.010,-0.045
2.554,0.025,-0.045
2.556,0.025,-0.040
2.558,-0.035,-0.040
2.560,-0.115,-0.040
2.562,-0.205,-0.040
2.564,-0.250,-0.045
2.566,-0.240,-0.045
2.568,-0.175,-0.045
2.570,-0.105,-0.050
2.572,-0.005,-0.050
2.574,0.030,-0.050
2.576,0.025,-0.050
2.578,-0.025,-0.045
2.580,-0.100,-0.045
2.582,-0.195,-0.045
2.584,-0.240,-0.045
2.586,-0.235,-0.045
2.588,-0.180,-0.045
2.590,-0.100,-0.045
2.592,0.000,-0.040
2.594,0.035,-0.040
2.596,0.020,-0.040
2.598,-0.035,-0.035
2.600,-0.130,-0.035
2.602,-0.205,-0.035
2.604,-0.240,-0.035
2.606,-0.220,-0.035
2.608,-0.160,-0.040
2.610,-0.070,-0.040
2.612,0.015,-0.045
2.614,0.025,-0.045
2.616,0.015,-0.045
2.618,-0.035,-0.050
2.620,-0.130,-0.045
2.622,-0.210,-0.045
2.624,-0.240,-0.040
2.626,-0.205,-0.040
2.628,-0.160,-0.035
2.630,-0.060,-0.035
2.632,0.020,-0.030
2.634,0.050,-0.030
2.636,0.030,-0.025
2.638,-0.020,-0.025
2.640,-0.120,-0.025
2.642,-0.185,-0.020
2.644,-0.205,-0.020
2.646,-0.180,-0.020
2.648,-0.135,-0.015
2.650,-0.035,-0.010
2.652,0.045,-0.010
2.654,0.070,-0.005
2.656,0.045,-0.005
2.658,-0.020,0.000
2.660,-0.105,0.000
2.662,-0.150,0.005
2.664,-0.195,0.005
2.666,-0.180,0.000
2.668,-0.115,0.000
2.670,-0.025,-0.005
2.672,0.035,-0.010
2.674,0.065,-0.015
2.676,0.030,-0.020
2.678,-0.035,-0.025
2.680,-0.140,-0.030
2.682,-0.205,-0.030
2.684,-0.230,-0.030
2.686,-0.205,-0.030
2.688,-0.145,-0.030
2.690,-0.050,-0.030
2.692,0.020,-0.030
2.694,0.040,-0.035
2.696,0.030,-0.035
2.698,-0.060,-0.035
2.700,-0.160,-0.040
2.702,-0.235,-0.040
2.704,-0.225,-0.040
2.706,-0.190,-0.040
2.708,-0.160,-0.040
2.710,-0.035,-0.040
2.712,0.030,-0.040
2.714,0.050,-0.040
2.716,0.010,-0.040
2.718,-0.065,-0.045
2.720,-0.165,-0.045
2.722,-0.230,-0.045
2.724,-0.250,-0.045
2.726,-0.195,-0.045
2.728,-0.160,-0.050
2.730,-0.035,-0.050
2.732,0.020,-0.050
2.734,0.035,-0.050
2.736,0.000,-0.050
2.738,-0.060,-0.045
2.740,-0.175,-0.045
2.742,-0.250,-0.040
2.744,-0.250,-0.040
2.746,-0.220,-0.035
2.748,-0.155,-0.035
2.750,-0.030,-0.040
2.752,0.005,-0.045
2.754,0.015,-0.050
2.756,-0.030,-0.060
2.758,-0.090,-0.070
2.760,-0.215,-0.075
2.762,-0.270,-0.075
2.764,-0.290,-0.070
2.766,-0.225,-0.055
2.768,-0.110,-0.030
2.770,0.040,0.010
2.772,0.140,0.055
2.774,0.210,0.110
2.776,0.215,0.170
2.778,0.225,0.230
2.780,0.185,0.280
2.782,0.170,0.320
2.784,0.185,0.340
2.786,0.200,0.345
2.788,0.185,0.320
2.790,0.230,0.280
2.792,0.250,0.220
2.794,0.225,0.150
2.796,0.105,0.070
2.798,-0.040,-0.005
2.800,-0.245,-0.070
2.802,-0.375,-0.125
2.804,-0.390,-0.165
2.806,-0.315,-0.185
2.808,-0.240,-0.195
2.810,-0.130,-0.195
2.812,-0.110,-0.190
2.814,-0.115,-0.175
2.816,-0.160,-0.165
2.818,-0.220,-0.155
2.820,-0.300,-0.145
2.822,-0.310,-0.135
2.824,-0.310,-0.120
2.826,-0.220,-0.110
2.828,-0.125,-0.095
2.830,-0.015,-0.075
2.832,0.035,-0.060
2.834,0.040,-0.045
2.836,-0.025,-0.035
2.838,-0.105,-0.030
2.840,-0.200,-0.025
2.842,-0.250,-0.020
2.844,-0.210,-0.020
2.846,-0.155,-0.020
2.848,-0.070,-0.020
2.850,0.025,-0.015
2.852,0.060,-0.015
2.854,0.055,-0.010
2.856,-0.010,-0.010
2.858,-0.080,-0.005
2.860,-0.170,-0.005
2.862,-0.205,-0.005
2.864,-0.200,-0.010
2.866,-0.145,-0.010
2.868,-0.045,-0.010
2.870,0.045,-0.005
2.872,0.085,-0.005
2.874,0.065,0.000
2.876,0.010,0.005
2.878,-0.095,0.010
2.880,-0.165,0.015
2.882,-0.205,0.020
2.884,-0.195,0.020
2.886,-0.130,0.015
2.888,-0.045,0.015
2.890,0.045,0.010
2.892,0.080,0.010
2.894,0.075,0.005
2.896,0.015,0.005
2.898,-0.080,0.005
2.900,-0.170,0.010
2.902,-0.195,0.010
2.904,-0.180,0.015
2.906,-0.110,0.020
2.908,-0.035,0.020
2.910,0.055,0.020
2.912,0.090,0.020
2.914,0.075,0.020
2.916,0.005,0.020
2.918,-0.085,0.020
2.920,-0.140,0.020
2.922,-0.180,0.020
2.924,-0.155,0.020
2.926,-0.105,0.020
2.928,0.015,0.025
2.930,0.075,0.030
2.932,0.100,0.030
2.934,0.085,0.035
2.936,0.020,0.035
2.938,-0.065,0.040
2.940,-0.140,0.040
2.942,-0.155,0.040
2.944,-0.130,0.040
2.946,-0.050,0.040
2.948,0.035,0.045
2.950,0.095,0.045
2.952,0.120,0.045
2.954,0.105,0.050
2.956,0.060,0.055
2.958,-0.040,0.060
2.960,-0.095,0.070
2.962,-0.120,0.075
2.964,-0.090,0.080
2.966,-0.025,0.085
2.968,0.080,0.085
2.970,0.125,0.085
2.972,0.160,0.085
2.974,0.140,0.085
2.976,0.085,0.090
2.978,-0.005,0.090
2.980,-0.075,0.095
2.982,-0.080,0.100
2.984,-0.045,0.105
2.986,0.020,0.115
2.988,0.135,0.120
2.990,0.200,0.130
2.992,0.220,0.135
2.994,0.180,0.145
2.996,0.130,0.150
2.998,0.025,0.155
3.000,-0.025,0.160
3.002,-0.040,0.165
3.004,0.010,0.165
3.006,0.075,0.170
3.008,0.200,0.175
3.010,0.240,0.175
3.012,0.260,0.180
3.014,0.220,0.180
3.016,0.170,0.180
3.018,0.055,0.180
3.020,-0.005,0.180
3.022,-0.020,0.180
3.024,0.040,0.180
3.026,0.090,0.180
3.028,0.195,0.185
3.030,0.240,0.185
3.032,0.245,0.185
3.034,0.200,0.185
3.036,0.155,0.180
3.038,0.030,0.180
3.040,-0.025,0.175
3.042,-0.045,0.170
3.044,-0.010,0.160
3.046,0.065,0.155
3.048,0.155,0.145
3.050,0.190,0.130
3.052,0.190,0.120
3.054,0.130,0.110
3.056,0.050,0.100
3.058,-0.075,0.085
3.060,-0.130,0.075
3.062,-0.135,0.070
3.064,-0.110,0.060
3.066,-0.055,0.050
3.068,0.065,0.040
3.070,0.105,0.030
3.072,0.090,0.025
3.074,0.015,0.015
3.076,-0.045,0.005
3.078,-0.165,0.000
3.080,-0.210,-0.005
3.082,-0.205,-0.005
3.084,-0.160,-0.010
3.086,-0.110,-0.010
3.088,0.000,-0.010
3.090,0.050,-0.010
3.092,0.045,-0.015
3.094,-0.020,-0.020
3.096,-0.075,-0.025
3.098,-0.185,-0.030
3.100,-0.245,-0.035
3.102,-0.235,-0.035
3.104,-0.185,-0.040
3.106,-0.115,-0.040
3.108,-0.020,-0.040
3.110,0.020,-0.035
3.112,0.010,-0.035
3.114,-0.035,-0.040
3.116,-0.105,-0.040
3.118,-0.205,-0.045
3.120,-0.255,-0.050
3.122,-0.250,-0.055
3.124,-0.195,-0.060
3.126,-0.115,-0.060
3.128,-0.025,-0.065
3.130,0.010,-0.060
3.132,0.005,-0.060
3.134,-0.055,-0.055
3.136,-0.125,-0.050
3.138,-0.220,-0.050
3.140,-0.240,-0.045
3.142,-0.235,-0.040
3.144,-0.195,-0.040
3.146,-0.120,-0.040
3.148,-0.025,-0.040
3.150,0.015,-0.040
3.152,0.010,-0.045
3.154,-0.050,-0.045
3.156,-0.120,-0.050
3.158,-0.225,-0.055
3.160,-0.250,-0.060
3.162,-0.225,-0.065
3.164,-0.165,-0.065
3.166,-0.085,-0.070
3.168,-0.005,-0.070
3.170,0.025,-0.065
3.172,0.010,-0.065
3.174,-0.050,-0.060
3.176,-0.130,-0.055
3.178,-0.200,-0.045
3.180,-0.245,-0.040
3.182,-0.220,-0.040
3.184,-0.160,-0.035
3.186,-0.080,-0.035
3.188,-0.015,-0.035
3.190,0.030,-0.035
3.192,0.015,-0.035
3.194,-0.040,-0.035
3.196,-0.120,-0.035
3.198,-0.210,-0.035
3.200,-0.235,-0.035
3.202,-0.205,-0.030
3.204,-0.150,-0.025
3.206,-0.045,-0.025
3.208,0.035,-0.020
3.210,0.055,-0.020
3.212,0.025,-0.020
3.214,-0.030,-0.020
3.216,-0.140,-0.020
3.218,-0.195,-0.020
3.220,-0.215,-0.020
3.222,-0.200,-0.025
3.224,-0.145,-0.025
3.226,-0.045,-0.025
3.228,0.015,-0.025
3.230,0.050,-0.025
3.232,0.030,-0.025
3.234,-0.035,-0.025
3.236,-0.140,-0.025
3.238,-0.220,-0.025
3.240,-0.240,-0.025
3.242,-0.200,-0.025
3.244,-0.145,-0.025
3.246,-0.025,-0.025
3.248,0.030,-0.025
3.250,0.045,-0.030
3.252,0.010,-0.030
3.254,-0.045,-0.030
3.256,-0.145,-0.030
3.258,-0.215,-0.035
3.260,-0.240,-0.035
3.262,-0.200,-0.035
3.264,-0.165,-0.035
3.266,-0.040,-0.035
3.268,0.015,-0.035
3.270,0.040,-0.035
3.272,0.005,-0.035
3.274,-0.050,-0.035
3.276,-0.155,-0.035
3.278,-0.215,-0.035
3.280,-0.225,-0.030
3.282,-0.200,-0.025
3.284,-0.140,-0.020
3.286,-0.035,-0.015
3.288,0.025,-0.010
3.290,0.040,-0.005
3.292,0.010,-0.010
3.294,-0.065,-0.010
3.296,-0.175,-0.020
3.298,-0.235,-0.030
3.300,-0.255,-0.040
3.302,-0.200,-0.045
3.304,-0.150,-0.055
3.306,-0.045,-0.055
3.308,0.025,-0.055
3.310,0.040,-0.055
3.312,-0.005,-0.045
3.314,-0.055,-0.040
3.316,-0.175,-0.035
3.318,-0.245,-0.030
3.320,-0.255,-0.030
3.322,-0.210,-0.030
3.324,-0.145,-0.035
3.326,-0.030,-0.040
3.328,0.025,-0.040
3.330,0.040,-0.045
3.332,-0.010,-0.045
3.334,-0.060,-0.045
3.336,-0.195,-0.045
3.338,-0.245,-0.045
3.340,-0.245,-0.040
3.342,-0.205,-0.040
3.344,-0.160,-0.045
3.346,-0.045,-0.045
3.348,0.025,-0.045
3.350,0.035,-0.050
3.352,-0.025,-0.050
3.354,-0.090,-0.050
3.356,-0.200,-0.050
3.358,-0.245,-0.050
3.360,-0.250,-0.050
3.362,-0.195,-0.050
3.364,-0.130,-0.050
3.366,-0.015,-0.050
3.368,0.015,-0.050
3.370,0.010,-0.055
3.372,-0.045,-0.055
3.374,-0.105,-0.050
3.376,-0.215,-0.050
3.378,-0.250,-0.045
3.380,-0.235,-0.040
3.382,-0.185,-0.040
3.384,-0.115,-0.035
3.386,0.000,-0.035
3.388,0.025,-0.035
3.390,0.025,-0.035
3.392,-0.040,-0.035
3.394,-0.095,-0.035
3.396,-0.200,-0.035
3.398,-0.235,-0.035
3.400,-0.230,-0.030
3.402,-0.160,-0.025
3.404,-0.090,-0.020
3.406,0.020,-0.020
3.408,0.040,-0.015
3.410,0.035,-0.015
3.412,-0.020,-0.020
3.414,-0.085,-0.020
3.416,-0.190,-0.025
3.418,-0.220,-0.030
3.420,-0.210,-0.030
3.422,-0.145,-0.030
3.424,-0.070,-0.025
3.426,0.005,-0.025
3.428,0.035,-0.020
3.430,0.025,-0.015
3.432,-0.040,-0.015
3.434,-0.120,-0.015
3.436,-0.210,-0.015
3.438,-0.225,-0.020
3.440,-0.225,-0.025
3.442,-0.160,-0.030
3.444,-0.085,-0.035
3.446,-0.005,-0.035
3.448,0.020,-0.040
3.450,0.010,-0.040
3.452,-0.050,-0.040
3.454,-0.145,-0.040
3.456,-0.235,-0.040
3.458,-0.250,-0.035
3.460,-0.230,-0.035
3.462,-0.185,-0.030
3.464,-0.100,-0.030
3.466,-0.025,-0.035
3.468,0.010,-0.035
3.470,0.000,-0.040
3.472,-0.080,-0.045
3.474,-0.150,-0.050
3.476,-0.220,-0.055
3.478,-0.245,-0.060
3.480,-0.250,-0.060
3.482,-0.175,-0.060
3.484,-0.075,-0.055
3.486,-0.015,-0.050
3.488,0.030,-0.045
3.490,-0.005,-0.040
3.492,-0.070,-0.035
3.494,-0.160,-0.035
3.496,-0.230,-0.040
3.498,-0.250,-0.045
3.500,-0.230,-0.045
3.502,-0.185,-0.050
3.504,-0.085,-0.055
3.506,-0.015,-0.055
3.508,-0.005,-0.060
3.510,-0.020,-0.060
3.512,-0.090,-0.065
3.514,-0.205,-0.070
3.516,-0.265,-0.080
3.518,-0.305,-0.090
3.520,-0.265,-0.100
3.522,-0.220,-0.105
3.524,-0.135,-0.105
3.526,-0.045,-0.090
3.528,0.015,-0.065
3.530,0.040,-0.025
3.532,0.025,0.025
3.534,-0.025,0.085
3.536,-0.030,0.150
3.538,0.015,0.215
3.540,0.130,0.270
3.542,0.250,0.310
3.544,0.360,0.330
3.546,0.400,0.335
3.548,0.350,0.315
3.550,0.255,0.275
3.552,0.155,0.225
3.554,0.025,0.160
3.556,-0.085,0.090
3.558,-0.185,0.020
3.560,-0.265,-0.050
3.562,-0.300,-0.105
3.564,-0.210,-0.150
3.566,-0.135,-0.185
3.568,-0.110,-0.205
3.570,-0.140,-0.210
3.572,-0.210,-0.205
3.574,-0.340,-0.195
3.576,-0.385,-0.175
3.578,-0.370,-0.155
3.580,-0.295,-0.135
3.582,-0.235,-0.115
3.584,-0.090,-0.100
3.586,-0.035,-0.090
3.588,-0.010,-0.085
3.590,-0.025,-0.080
3.592,-0.085,-0.075
3.594,-0.195,-0.070
3.596,-0.245,-0.060
3.598,-0.265,-0.050
3.600,-0.210,-0.045
3.602,-0.145,-0.035
3.604,-0.020,-0.030
3.606,0.025,-0.025
3.608,0.015,-0.025
3.610,-0.020,-0.025
3.612,-0.065,-0.030
3.614,-0.170,-0.035
3.616,-0.225,-0.035
3.618,-0.230,-0.035
3.620,-0.185,-0.030
3.622,-0.105,-0.025
3.624,-0.005,-0.025
3.626,0.040,-0.020
3.628,0.045,-0.020
3.630,0.015,-0.020
3.632,-0.050,-0.025
3.634,-0.175,-0.025
3.636,-0.230,-0.025
3.638,-0.230,-0.025
3.640,-0.175,-0.020
3.642,-0.105,-0.015
3.644,0.020,-0.005
3.646,0.055,0.000
3.648,0.060,0.005
3.650,0.005,0.005
3.652,-0.065,0.005
3.654,-0.155,0.005
3.656,-0.205,0.000
3.658,-0.205,0.000
3.660,-0.155,-0.005
3.662,-0.090,-0.005
3.664,0.025,0.000
3.666,0.065,0.000
3.668,0.070,0.005
3.670,0.010,0.010
3.672,-0.055,0.015
3.674,-0.160,0.015
3.676,-0.200,0.015
3.678,-0.195,0.015
3.680,-0.130,0.015
3.682,-0.050,0.015
3.684,0.045,0.015
3.686,0.070,0.015
3.688,0.055,0.015
3.690,0.005,0.015
3.692,-0.065,0.015
3.694,-0.150,0.015
3.696,-0.175,0.020
3.698,-0.175,0.025
3.700,-0.100,0.035
3.702,-0.005,0.040
3.704,0.065,0.050
3.706,0.095,0.055
3.708,0.095,0.060
3.710,0.030,0.060
3.712,-0.020,0.055
3.714,-0.135,0.050
3.716,-0.175,0.045
3.718,-0.145,0.040
3.720,-0.075,0.040
3.722,0.010,0.040
3.724,0.095,0.040
3.726,0.130,0.050
3.728,0.130,0.060
3.730,0.055,0.070
3.732,-0.020,0.080
3.734,-0.110,0.090
3.736,-0.135,0.095
3.738,-0.105,0.100
3.740,-0.035,0.105
3.742,0.050,0.105
3.744,0.125,0.105
3.746,0.180,0.105
3.748,0.170,0.110
3.750,0.120,0.115
3.752,0.020,0.115
3.754,-0.040,0.125
3.756,-0.065,0.130
3.758,-0.045,0.135
3.760,0.015,0.140
3.762,0.115,0.145
3.764,0.195,0.150
3.766,0.225,0.155
3.768,0.215,0.160
3.770,0.150,0.165
3.772,0.065,0.165
3.774,-0.010,0.170
3.776,-0.040,0.175
3.778,-0.010,0.180
3.780,0.055,0.180
3.782,0.150,0.185
3.784,0.220,0.190
3.786,0.240,0.195
3.788,0.215,0.195
3.790,0.155,0.195
3.792,0.050,0.190
3.794,-0.025,0.185
3.796,-0.055,0.180
3.798,-0.015,0.170
3.800,0.035,0.165
3.802,0.140,0.160
3.804,0.200,0.155
3.806,0.205,0.150
3.808,0.165,0.150
3.810,0.110,0.145
3.812,-0.015,0.140
3.814,-0.090,0.130
3.816,-0.120,0.120
3.818,-0.095,0.105
3.820,-0.055,0.090
3.822,0.050,0.070
3.824,0.100,0.055
3.826,0.105,0.045
3.828,0.075,0.035
3.830,0.000,0.030
3.832,-0.125,0.030
3.834,-0.185,0.025
3.836,-0.215,0.025
3.838,-0.190,0.020
3.840,-0.125,0.015
3.842,-0.025,0.005
3.844,0.025,-0.005
3.846,0.050,-0.015
3.848,0.010,-0.020
3.850,-0.060,-0.030
3.852,-0.175,-0.030
3.854,-0.230,-0.030
3.856,-0.260,-0.030
3.858,-0.210,-0.030
3.860,-0.155,-0.030
3.862,-0.035,-0.030
3.864,0.000,-0.030
3.866,0.025,-0.035
3.868,-0.020,-0.040
3.870,-0.060,-0.045
3.872,-0.185,-0.045
3.874,-0.235,-0.045
3.876,-0.255,-0.045
3.878,-0.220,-0.040
3.880,-0.160,-0.040
3.882,-0.035,-0.035
3.884,0.010,-0.035
3.886,0.005,-0.035
3.888,-0.030,-0.035
3.890,-0.090,-0.040
3.892,-0.190,-0.045
3.894,-0.250,-0.050
3.896,-0.260,-0.050
3.898,-0.220,-0.055
3.900,-0.140,-0.055
3.902,-0.035,-0.055
3.904,0.010,-0.050
3.906,0.020,-0.050
3.908,-0.030,-0.050
3.910,-0.100,-0.045
3.912,-0.195,-0.045
3.914,-0.250,-0.045
3.916,-0.255,-0.045
3.918,-0.200,-0.040
3.920,-0.135,-0.040
3.922,-0.025,-0.035
3.924,0.020,-0.035
3.926,0.015,-0.035
3.928,-0.040,-0.030
3.930,-0.085,-0.030
3.932,-0.200,-0.030
3.934,-0.240,-0.025
3.936,-0.240,-0.025
3.938,-0.190,-0.025
3.940,-0.120,-0.025
3.942,-0.020,-0.025
3.944,0.030,-0.025
3.946,0.015,-0.030
3.948,-0.035,-0.030
3.950,-0.100,-0.030
3.952,-0.205,-0.035
3.954,-0.235,-0.035
3.956,-0.235,-0.030
3.958,-0.185,-0.030
3.960,-0.100,-0.025
3.962,0.000,-0.025
3.964,0.040,-0.020
3.966,0.020,-0.020
3.968,-0.030,-0.020
3.970,-0.100,-0.020
3.972,-0.210,-0.020
3.974,-0.250,-0.020
3.976,-0.230,-0.020
3.978,-0.165,-0.020
3.980,-0.085,-0.020
3.982,0.020,-0.015
3.984,0.045,-0.015
3.986,0.015,-0.015
3.988,-0.035,-0.015
3.990,-0.110,-0.015
3.992,-0.210,-0.020
3.994,-0.230,-0.025
3.996,-0.230,-0.030
3.998,-0.175,-0.030
4.000,-0.100,-0.030
4.002,-0.005,-0.030
4.004,0.025,-0.030
4.006,0.010,-0.025
4.008,-0.040,-0.025
4.010,-0.125,-0.025
4.012,-0.215,-0.025
4.014,-0.240,-0.025
4.016,-0.235,-0.025
4.018,-0.160,-0.025
4.020,-0.070,-0.025
4.022,0.000,-0.020
4.024,0.025,-0.020
4.026,0.000,-0.020
4.028,-0.070,-0.015
4.030,-0.145,-0.015
4.032,-0.220,-0.015
4.034,-0.255,-0.020
4.036,-0.240,-0.025
4.038,-0.175,-0.030
4.040,-0.075,-0.035
4.042,0.010,-0.045
4.044,0.015,-0.050
4.046,-0.005,-0.050
4.048,-0.060,-0.055
4.050,-0.150,-0.055
4.052,-0.240,-0.050
4.054,-0.275,-0.050
4.056,-0.235,-0.045
4.058,-0.170,-0.040
4.060,-0.075,-0.040
4.062,-0.005,-0.035
4.064,0.020,-0.035
4.066,0.000,-0.030
4.068,-0.075,-0.030
4.070,-0.160,-0.030
4.072,-0.235,-0.030
4.074,-0.245,-0.030
4.076,-0.215,-0.030
4.078,-0.170,-0.035
4.080,-0.085,-0.035
4.082,0.000,-0.040
4.084,0.010,-0.045
4.086,-0.010,-0.050
4.088,-0.085,-0.050
4.090,-0.195,-0.050
4.092,-0.255,-0.050
4.094,-0.275,-0.050
4.096,-0.225,-0.050
4.098,-0.175,-0.045
4.100,-0.060,-0.045
4.102,-0.005,-0.040
4.104,0.020,-0.040
4.106,-0.020,-0.035
4.108,-0.050,-0.035
4.110,-0.180,-0.030
4.112,-0.250,-0.030
4.114,-0.255,-0.035
4.116,-0.230,-0.035
4.118,-0.165,-0.035
4.120,-0.050,-0.040
4.122,0.020,-0.040
4.124,0.045,-0.040
4.126,-0.015,-0.040
4.128,-0.080,-0.040
4.130,-0.185,-0.035
4.132,-0.240,-0.030
4.134,-0.255,-0.030
4.136,-0.215,-0.025
4.138,-0.170,-0.025
4.140,-0.045,-0.025
4.142,-0.010,-0.030
4.144,0.030,-0.035
4.146,-0.005,-0.040
4.148,-0.070,-0.040
4.150,-0.180,-0.040
4.152,-0.245,-0.040
4.154,-0.255,-0.040
4.156,-0.220,-0.035
4.158,-0.160,-0.030
4.160,-0.030,-0.025
4.162,0.015,-0.025
4.164,0.035,-0.025
4.166,-0.025,-0.030
4.168,-0.080,-0.030
4.170,-0.190,-0.030
4.172,-0.235,-0.030
4.174,-0.255,-0.025
4.176,-0.200,-0.020
4.178,-0.140,-0.010
4.180,0.000,-0.005
4.182,0.045,0.005
4.184,0.050,0.005
4.186,0.000,0.005
4.188,-0.070,0.000
4.190,-0.180,-0.005
4.192,-0.235,-0.010
4.194,-0.235,-0.015
4.196,-0.180,-0.020
4.198,-0.110,-0.020
4.200,0.005,-0.015
4.202,0.045,-0.015
4.204,0.045,-0.010
4.206,-0.005,-0.010
4.208,-0.070,-0.010
4.210,-0.185,-0.010
4.212,-0.240,-0.010
4.214,-0.240,-0.015
4.216,-0.175,-0.015
4.218,-0.100,-0.015
4.220,-0.005,-0.015
4.222,0.040,-0.010
4.224,0.025,-0.010
4.226,-0.040,-0.010
4.228,-0.100,-0.015
4.230,-0.215,-0.020
4.232,-0.260,-0.025
4.234,-0.265,-0.035
4.236,-0.195,-0.040
4.238,-0.140,-0.050
4.240,-0.045,-0.055
4.242,0.000,-0.055
4.244,0.015,-0.055
4.246,-0.060,-0.050
4.248,-0.120,-0.045
4.250,-0.225,-0.045
4.252,-0.275,-0.040
4.254,-0.265,-0.040
4.256,-0.200,-0.040
4.258,-0.125,-0.045
4.260,-0.040,-0.050
4.262,0.000,-0.050
4.264,-0.005,-0.055
4.266,-0.065,-0.055
4.268,-0.145,-0.055
4.270,-0.235,-0.050
4.272,-0.265,-0.050
4.274,-0.270,-0.045
4.276,-0.200,-0.045
4.278,-0.130,-0.045
4.280,-0.030,-0.050
4.282,0.005,-0.050
4.284,0.000,-0.055
4.286,-0.075,-0.055
4.288,-0.165,-0.060
4.290,-0.245,-0.060
4.292,-0.295,-0.060
4.294,-0.285,-0.065
4.296,-0.225,-0.065
4.298,-0.135,-0.070
4.300,-0.055,-0.075
4.302,-0.030,-0.075
4.304,-0.060,-0.075
4.306,-0.095,-0.065
4.308,-0.145,-0.045
4.310,-0.195,-0.010
4.312,-0.180,0.035
4.314,-0.085,0.095
4.316,0.045,0.165
4.318,0.215,0.235
4.320,0.370,0.295
4.322,0.440,0.345
4.324,0.455,0.380
4.326,0.375,0.385
4.328,0.250,0.370
4.330,0.050,0.330
4.332,-0.010,0.270
4.334,-0.005,0.200
4.336,-0.005,0.125
4.338,0.030,0.050
4.340,0.000,-0.020
4.342,-0.075,-0.075
4.344,-0.140,-0.120
4.346,-0.200,-0.150
4.348,-0.295,-0.165
4.350,-0.350,-0.170
4.352,-0.370,-0.165
4.354,-0.315,-0.155
4.356,-0.270,-0.135
4.358,-0.140,-0.120
4.360,-0.070,-0.105
4.362,-0.025,-0.090
4.364,-0.045,-0.080
4.366,-0.075,-0.070
4.368,-0.175,-0.065
4.370,-0.240,-0.060
4.372,-0.265,-0.055
4.374,-0.240,-0.050
4.376,-0.165,-0.045
4.378,-0.055,-0.040
4.380,0.025,-0.035
4.382,0.030,-0.030
4.384,0.015,-0.025
4.386,-0.035,-0.020
4.388,-0.160,-0.015
4.390,-0.225,-0.010
4.392,-0.235,-0.010
4.394,-0.205,-0.010
4.396,-0.150,-0.015
4.398,-0.035,-0.020
4.400,0.015,-0.025
4.402,0.035,-0.030
4.404,0.010,-0.030
4.406,-0.050,-0.030
4.408,-0.160,-0.030
4.410,-0.215,-0.025
4.412,-0.225,-0.015
4.414,-0.180,-0.010
4.416,-0.125,0.000
4.418,-0.020,0.005
4.420,0.045,0.010
4.422,0.055,0.010
4.424,0.020,0.010
4.426,-0.020,0.005
4.428,-0.150,0.005
4.430,-0.195,0.005
4.432,-0.225,0.005
4.434,-0.170,0.005
4.436,-0.115,0.010
4.438,0.005,0.010
4.440,0.045,0.015
4.442,0.050,0.015
4.444,0.025,0.010
4.446,-0.045,0.005
4.448,-0.165,0.000
4.450,-0.215,-0.005
4.452,-0.215,-0.010
4.454,-0.165,-0.010
4.456,-0.095,-0.005
4.458,0.020,0.000
4.460,0.050,0.005
4.462,0.055,0.010
4.464,0.015,0.015
4.466,-0.035,0.015
4.468,-0.145,0.020
4.470,-0.195,0.020
4.472,-0.190,0.020
4.474,-0.140,0.020
4.476,-0.075,0.020
4.478,0.035,0.020
4.480,0.090,0.025
4.482,0.100,0.030
4.484,0.040,0.030
4.486,-0.020,0.035
4.488,-0.130,0.035
4.490,-0.185,0.035
4.492,-0.185,0.035
4.494,-0.115,0.035
4.496,-0.040,0.035
4.498,0.040,0.035
4.500,0.100,0.040
4.502,0.135,0.050
4.504,0.075,0.055
4.506,0.005,0.065
4.508,-0.100,0.075
4.510,-0.150,0.080
4.512,-0.135,0.085
4.514,-0.080,0.090
4.516,-0.010,0.090
4.518,0.105,0.085
4.520,0.140,0.085
4.522,0.145,0.080
4.524,0.100,0.080
4.526,0.035,0.085
4.528,-0.070,0.090
4.530,-0.095,0.100
4.532,-0.100,0.110
4.534,-0.030,0.120
4.536,0.045,0.130
4.538,0.160,0.140
4.540,0.185,0.145
4.542,0.195,0.145
4.544,0.125,0.145
4.546,0.060,0.140
4.548,-0.030,0.135
4.550,-0.055,0.135
4.552,-0.030,0.135
4.554,0.020,0.140
4.556,0.105,0.150
4.558,0.190,0.165
4.560,0.225,0.175
4.562,0.225,0.180
4.564,0.150,0.185
4.566,0.070,0.180
4.568,-0.020,0.170
4.570,-0.045,0.160
4.572,-0.020,0.150
4.574,0.030,0.145
4.576,0.130,0.145
4.578,0.210,0.155
4.580,0.215,0.160
4.582,0.195,0.170
4.584,0.110,0.170
4.586,0.020,0.160
4.588,-0.075,0.140
4.590,-0.110,0.115
4.592,-0.095,0.080
4.594,-0.050,0.050
4.596,0.045,0.025
4.598,0.125,0.010
4.600,-0.190,0.010
4.602,-0.120,0.020
4.604,-0.040,0.035
4.606,0.035,0.045
4.608,0.055,0.055
4.610,0.035,0.045
4.612,-0.040,0.030
4.614,-0.130,0.000
4.616,-0.205,-0.025
4.618,-0.235,-0.050
4.620,-0.220,-0.065
4.622,-0.155,-0.065
4.624,-0.045,-0.055
4.626,0.010,-0.035
4.628,0.045,-0.015
4.630,0.010,0.000
4.632,-0.060,0.005
4.634,-0.180,0.000
4.636,-0.225,-0.015
4.638,-0.250,-0.035
4.640,-0.220,-0.055
4.642,-0.165,-0.070
4.644,-0.050,-0.075
4.646,0.005,-0.065
4.648,0.030,-0.050
4.650,0.005,-0.035
4.652,-0.065,-0.015
4.654,-0.185,-0.005
4.656,-0.245,0.000
4.658,-0.250,-0.005
4.660,-0.215,-0.020
4.662,-0.160,-0.030
4.664,-0.045,-0.045
4.666,0.010,-0.050
4.668,0.030,-0.055
4.670,-0.010,-0.050
4.672,-0.075,-0.045
4.674,-0.170,-0.040
4.676,-0.265,-0.035
4.678,-0.255,-0.030
4.680,-0.205,-0.035
4.682,-0.150,-0.035
4.684,-0.050,-0.040
4.686,0.010,-0.045
4.688,0.030,-0.045
4.690,-0.015,-0.045
4.692,-0.040,-0.040
4.694,-0.175,-0.035
4.696,-0.240,-0.030
4.698,-0.250,-0.030
4.700,-0.195,-0.030
4.702,-0.135,-0.030
4.704,-0.015,-0.030
4.706,0.030,-0.035
4.708,0.045,-0.035
4.710,0.010,-0.035
4.712,-0.060,-0.035
4.714,-0.180,-0.030
4.716,-0.220,-0.030
4.718,-0.230,-0.025
4.720,-0.200,-0.020
4.722,-0.135,-0.015
4.724,-0.025,-0.015
4.726,0.025,-0.015
4.728,0.035,-0.015
4.730,-0.010,-0.020
4.732,-0.070,-0.020
4.734,-0.175,-0.025
4.736,-0.235,-0.025
4.738,-0.230,-0.030
4.740,-0.195,-0.030
4.742,-0.110,-0.025
4.744,0.000,-0.025
4.746,0.050,-0.025
4.748,0.045,-0.020
4.750,-0.010,-0.020
4.752,-0.085,-0.020
4.754,-0.185,-0.020
4.756,-0.235,-0.020
4.758,-0.245,-0.025
4.760,-0.170,-0.025
4.762,-0.125,-0.030
4.764,-0.010,-0.030
4.766,0.030,-0.030
4.768,0.015,-0.030
4.770,-0.040,-0.030
4.772,-0.085,-0.030
4.774,-0.190,-0.030
4.776,-0.235,-0.030
4.778,-0.220,-0.030
4.780,-0.165,-0.030
4.782,-0.110,-0.030
4.784,0.000,-0.030
4.786,0.030,-0.030
4.788,0.025,-0.030
4.790,-0.040,-0.030
4.792,-0.100,-0.030
4.794,-0.200,-0.030
4.796,-0.245,-0.030
4.798,-0.245,-0.030
4.800,-0.170,-0.025
4.802,-0.090,-0.025
4.804,0.000,-0.025
4.806,0.045,-0.025
4.808,0.020,-0.025
4.810,-0.040,-0.025
4.812,-0.105,-0.030
4.814,-0.200,-0.030
4.816,-0.230,-0.030
4.818,-0.225,-0.035
4.820,-0.165,-0.035
4.822,-0.075,-0.035
4.824,0.015,-0.040
4.826,0.055,-0.040
4.828,0.035,-0.040
4.830,-0.030,-0.040
4.832,-0.110,-0.040
4.834,-0.205,-0.040
4.836,-0.245,-0.035
4.838,-0.235,-0.035
4.840,-0.175,-0.035
4.842,-0.075,-0.035
4.844,-0.005,-0.035
4.846,0.055,-0.035
4.848,0.020,-0.040
4.850,-0.040,-0.040
4.852,-0.120,-0.040
4.854,-0.200,-0.040
4.856,-0.230,-0.040
4.858,-0.215,-0.040
4.860,-0.165,-0.040
4.862,-0.070,-0.035
4.864,0.010,-0.035
4.866,0.030,-0.035
4.868,0.025,-0.035
4.870,-0.040,-0.035
4.872,-0.135,-0.035
4.874,-0.225,-0.035
4.876,-0.255,-0.035
4.878,-0.215,-0.040
4.880,-0.165,-0.040
4.882,-0.065,-0.045
4.884,0.010,-0.045
4.886,0.035,-0.050
4.888,0.010,-0.050
4.890,-0.050,-0.045
4.892,-0.135,-0.045
4.894,-0.220,-0.040
4.896,-0.230,-0.035
4.898,-0.215,-0.035
4.900,-0.155,-0.030
4.902,-0.040,-0.030
4.904,0.025,-0.030
4.906,0.035,-0.030
4.908,0.020,-0.035
4.910,-0.035,-0.035
4.912,-0.135,-0.035
4.914,-0.205,-0.035
4.916,-0.240,-0.030
4.918,-0.195,-0.025
4.920,-0.135,-0.020
4.922,-0.035,-0.015
4.924,0.030,-0.015
4.926,0.050,-0.015
4.928,0.010,-0.015
4.930,-0.035,-0.020
4.932,-0.145,-0.020
4.934,-0.190,-0.020
4.936,-0.215,-0.020
4.938,-0.170,-0.015
4.940,-0.115,-0.010
4.942,0.015,0.000
4.944,0.055,0.005
4.946,0.055,0.010
4.948,0.025,0.010
4.950,-0.035,0.010
4.952,-0.120,0.005
4.954,-0.185,0.000
4.956,-0.190,-0.010
4.958,-0.145,-0.015
4.960,-0.120,-0.020
4.962,0.010,-0.020
4.964,0.075,-0.015
4.966,0.085,-0.015
4.968,0.010,-0.010
4.970,-0.025,-0.005
4.972,-0.145,-0.005
4.974,-0.200,-0.005
4.976,-0.215,-0.010
4.978,-0.190,-0.015
4.980,-0.130,-0.020
4.982,-0.015,-0.025
4.984,0.035,-0.030
4.986,0.025,-0.035
4.988,-0.020,-0.040
4.990,-0.055,-0.045
4.992,-0.175,-0.045
4.994,-0.225,-0.050
4.996,-0.230,-0.050
4.998,-0.200,-0.050
5.000,-0.125,-0.055
5.002,-0.025,-0.055
5.004,0.010,-0.060
5.006,0.015,-0.065
5.008,-0.020,-0.065
5.010,-0.080,-0.065
5.012,-0.185,-0.065
5.014,-0.240,-0.060
5.016,-0.250,-0.055
5.018,-0.185,-0.050
5.020,-0.115,-0.045
5.022,-0.010,-0.045
5.024,0.015,-0.040
5.026,0.035,-0.045
5.028,-0.015,-0.045
5.030,-0.090,-0.055
5.032,-0.205,-0.060
5.034,-0.245,-0.065
5.036,-0.260,-0.070
5.038,-0.215,-0.070
5.040,-0.140,-0.065
5.042,-0.010,-0.055
5.044,0.030,-0.050
5.046,0.025,-0.040
5.048,-0.040,-0.040
5.050,-0.135,-0.040
5.052,-0.235,-0.050
5.054,-0.280,-0.060
5.056,-0.280,-0.075
5.058,-0.225,-0.085
5.060,-0.160,-0.095
5.062,-0.040,-0.085
5.064,0.045,-0.065
5.066,0.060,-0.030
5.068,0.050,0.025
5.070,0.060,0.090
5.072,0.035,0.160
5.074,0.060,0.230
5.076,0.135,0.295
5.078,0.265,0.345
5.080,0.380,0.370
5.082,0.435,0.375
5.084,0.425,0.350
5.086,0.320,0.310
5.088,0.205,0.250
5.090,0.105,0.175
5.092,-0.035,0.100
5.094,-0.140,0.025
5.096,-0.230,-0.040
5.098,-0.285,-0.095
5.100,-0.240,-0.140
5.102,-0.150,-0.165
5.104,-0.095,-0.180
5.106,-0.090,-0.185
5.108,-0.145,-0.180
5.110,-0.215,-0.175
5.112,-0.295,-0.160
5.114,-0.320,-0.145
5.116,-0.300,-0.135
5.118,-0.220,-0.120
5.120,-0.125,-0.110
5.122,-0.025,-0.100
5.124,0.035,-0.090
5.126,0.020,-0.080
5.128,-0.040,-0.070
5.130,-0.125,-0.065
5.132,-0.200,-0.055
5.134,-0.215,-0.050
5.136,-0.215,-0.045
5.138,-0.160,-0.045
5.140,-0.065,-0.045
5.142,0.020,-0.045
5.144,0.045,-0.045
5.146,0.045,-0.045
5.148,-0.045,-0.040
5.150,-0.110,-0.035
5.152,-0.195,-0.035
5.154,-0.200,-0.030
5.156,-0.200,-0.025
5.158,-0.130,-0.020
5.160,-0.035,-0.020
5.162,0.045,-0.025
5.164,0.060,-0.025
5.166,0.040,-0.030
5.168,-0.020,-0.035
5.170,-0.115,-0.040
5.172,-0.185,-0.040
5.174,-0.210,-0.040
5.176,-0.200,-0.035
5.178,-0.130,-0.030
5.180,-0.020,-0.020
5.182,0.040,-0.015
5.184,0.075,-0.015
5.186,0.055,-0.015
5.188,-0.005,-0.015
5.190,-0.105,-0.020
5.192,-0.180,-0.020
5.194,-0.190,-0.025
5.196,-0.175,-0.025
5.198,-0.110,-0.020
5.200,-0.005,-0.015
5.202,0.070,-0.010
5.204,0.095,-0.005
5.206,0.045,0.000
5.208,0.005,0.005
5.210,-0.105,0.005
5.212,-0.165,0.000
5.214,-0.195,0.000
5.216,-0.155,-0.005
5.218,-0.100,-0.005
5.220,0.020,-0.005
5.222,0.080,-0.005
5.224,0.100,0.000
5.226,0.070,0.000
5.228,0.030,0.005
5.230,-0.075,0.010
5.232,-0.150,0.015
5.234,-0.170,0.015
5.236,-0.120,0.015
5.238,-0.065,0.020
5.240,0.045,0.020
5.242,0.110,0.020
5.244,0.135,0.025
5.246,0.095,0.030
5.248,0.040,0.035
5.250,-0.085,0.035
5.252,-0.120,0.040
5.254,-0.130,0.040
5.256,-0.085,0.040
5.258,-0.050,0.040
5.260,0.070,0.040
5.262,0.135,0.040
5.264,0.160,0.040
5.266,0.110,0.045
5.268,0.055,0.055
5.270,-0.050,0.065
5.272,-0.095,0.080
5.274,-0.100,0.090
5.276,-0.060,0.095
5.278,0.010,0.100
5.280,0.125,0.100
5.282,0.190,0.100
5.284,0.200,0.100
5.286,0.160,0.095
5.288,0.090,0.100
5.290,-0.015,0.100
5.292,-0.035,0.110
5.294,-0.040,0.120
5.296,0.010,0.130
5.298,0.060,0.140
5.300,0.185,0.145
5.302,0.225,0.150
5.304,0.240,0.150
5.306,0.200,0.150
5.308,0.130,0.150
5.310,0.030,0.150
5.312,-0.005,0.150
5.314,0.000,0.150
5.316,0.055,0.160
5.318,0.110,0.165
5.320,0.225,0.170
5.322,0.255,0.175
5.324,0.260,0.180
5.326,0.205,0.175
5.328,0.140,0.170
5.330,0.030,0.165
5.332,0.005,0.155
5.334,-0.015,0.150
5.336,0.050,0.145
5.338,0.095,0.145
5.340,0.185,0.145
5.342,0.220,0.140
5.344,0.205,0.140
5.346,0.145,0.135
5.348,0.065,0.125
5.350,-0.060,0.115
5.352,-0.085,0.100
5.354,-0.110,0.085
5.356,-0.055,0.065
5.358,0.015,0.055
5.360,0.105,0.040
5.362,0.140,0.030
5.364,0.135,0.025
5.366,0.045,0.020
5.368,-0.030,0.015
5.370,-0.130,0.015
5.372,-0.170,0.010
5.374,-0.170,0.005
5.376,-0.105,0.000
5.378,-0.040,-0.005
5.380,0.035,-0.010
5.382,0.065,-0.015
5.384,0.060,-0.015
5.386,0.000,-0.020
5.388,-0.085,-0.020
5.390,-0.175,-0.025
5.392,-0.200,-0.030
5.394,-0.200,-0.035
5.396,-0.150,-0.040
5.398,-0.060,-0.040
5.400,0.030,-0.040
5.402,0.075,-0.040
5.404,0.060,-0.040
5.406,-0.005,-0.035
5.408,-0.100,-0.030
5.410,-0.185,-0.030
5.412,-0.210,-0.030
5.414,-0.180,-0.035
5.416,-0.125,-0.040
5.418,-0.045,-0.045
5.420,0.025,-0.045
5.422,0.045,-0.050
5.424,0.025,-0.050
5.426,-0.025,-0.045
5.428,-0.105,-0.045
5.430,-0.185,-0.040
5.432,-0.205,-0.035
5.434,-0.195,-0.030
5.436,-0.145,-0.030
5.438,-0.040,-0.030
5.440,0.030,-0.035
5.442,0.050,-0.035
5.444,0.030,-0.040
5.446,-0.010,-0.040
5.448,-0.115,-0.040
5.450,-0.205,-0.040
5.452,-0.210,-0.040
5.454,-0.190,-0.035
5.456,-0.115,-0.035
5.458,-0.015,-0.040
5.460,0.070,-0.040
5.462,0.075,-0.045
5.464,0.045,-0.045
5.466,-0.005,-0.045
5.468,-0.120,-0.040
5.470,-0.200,-0.035
5.472,-0.205,-0.030
5.474,-0.185,-0.025
5.476,-0.120,-0.020
5.478,-0.010,-0.020
5.480,0.055,-0.020
5.482,0.070,-0.025
5.484,0.045,-0.030
5.486,-0.015,-0.035
5.488,-0.130,-0.045
5.490,-0.190,-0.045
5.492,-0.210,-0.045
5.494,-0.180,-0.045
5.496,-0.115,-0.040
5.498,0.005,-0.035
5.500,0.060,-0.035
5.502,0.075,-0.035
5.504,0.050,-0.040
5.506,-0.005,-0.040
5.508,-0.140,-0.045
5.510,-0.205,-0.045
5.512,-0.200,-0.045
5.514,-0.160,-0.045
5.516,-0.115,-0.040
5.518,0.000,-0.030
5.520,0.050,-0.025
5.522,0.080,-0.020
5.524,0.045,-0.015
5.526,-0.025,-0.015
5.528,-0.145,-0.015
5.530,-0.175,-0.020
5.532,-0.200,-0.025
5.534,-0.165,-0.030
5.536,-0.090,-0.030
5.538,0.025,-0.035
5.540,0.070,-0.035
5.542,0.080,-0.035
5.544,0.050,-0.035
5.546,0.000,-0.035
5.548,-0.140,-0.035
5.550,-0.195,-0.035
5.552,-0.190,-0.030
5.554,-0.150,-0.030
5.556,-0.100,-0.025
5.558,0.020,-0.025
5.560,0.070,-0.025
5.562,0.085,-0.025
5.564,0.030,-0.025
5.566,-0.015,-0.030
5.568,-0.140,-0.030
5.570,-0.190,-0.030
5.572,-0.205,-0.030
5.574,-0.145,-0.025
5.576,-0.090,-0.025
5.578,0.035,-0.020
5.580,0.075,-0.020
5.582,0.065,-0.020
5.584,0.015,-0.020
5.586,-0.030,-0.020
5.588,-0.150,-0.025
5.590,-0.195,-0.025
5.592,-0.185,-0.025
5.594,-0.150,-0.025
5.596,-0.080,-0.025
5.598,0.040,-0.020
5.600,0.075,-0.015
5.602,0.075,-0.015
5.604,0.020,-0.010
5.606,-0.040,-0.010
5.608,-0.145,-0.015
5.610,-0.185,-0.020
5.612,-0.195,-0.025
5.614,-0.145,-0.030
5.616,-0.070,-0.030
5.618,0.040,-0.035
5.620,0.075,-0.030
5.622,0.080,-0.030
5.624,0.020,-0.025
5.626,-0.075,-0.020
5.628,-0.170,-0.020
5.630,-0.190,-0.020
5.632,-0.195,-0.020
5.634,-0.145,-0.025
5.636,-0.065,-0.025
5.638,0.025,-0.030
5.640,0.075,-0.035
5.642,0.065,-0.040
5.644,0.010,-0.045
5.646,-0.065,-0.045
5.648,-0.165,-0.045
5.650,-0.195,-0.045
5.652,-0.180,-0.040
5.654,-0.145,-0.040
5.656,-0.060,-0.035
5.658,0.045,-0.030
5.660,0.075,-0.025
5.662,0.060,-0.020
5.664,0.025,-0.020
5.666,-0.065,-0.020
5.668,-0.160,-0.020
5.670,-0.190,-0.025
5.672,-0.180,-0.030
5.674,-0.140,-0.035
5.676,-0.050,-0.040
5.678,0.040,-0.040
5.680,0.065,-0.040
5.682,0.075,-0.040
5.684,0.010,-0.035
5.686,-0.060,-0.025
5.688,-0.155,-0.020
5.690,-0.190,-0.010
5.692,-0.180,-0.010
5.694,-0.125,-0.005
5.696,-0.005,-0.005
5.698,0.060,-0.010
5.700,0.075,-0.015
5.702,0.060,-0.020
5.704,0.000,-0.020
5.706,-0.075,-0.020
5.708,-0.155,-0.020
5.710,-0.170,-0.020
5.712,-0.160,-0.015
5.714,-0.100,-0.015
5.716,-0.015,-0.015
5.718,0.060,-0.015
5.720,0.095,-0.015
5.722,0.085,-0.015
5.724,0.015,-0.015
5.726,-0.085,-0.010
5.728,-0.155,-0.010
5.730,-0.155,-0.005
5.732,-0.150,-0.005
5.734,-0.095,-0.005
5.736,0.005,0.000
5.738,0.070,0.000
5.740,0.125,0.000
5.742,0.090,-0.005
5.744,0.025,-0.005
5.746,-0.080,-0.005
5.748,-0.160,-0.005
5.750,-0.160,0.000
5.752,-0.155,0.000
5.754,-0.095,0.000
5.756,0.010,0.000
5.758,0.065,-0.005
5.760,0.085,-0.010
5.762,0.065,-0.015
5.764,-0.005,-0.020
5.766,-0.115,-0.025
5.768,-0.175,-0.025
5.770,-0.200,-0.025
5.772,-0.170,-0.025
5.774,-0.125,-0.030
5.776,-0.010,-0.030
5.778,0.050,-0.035
5.780,0.065,-0.040
5.782,0.025,-0.045
5.784,-0.025,-0.055
5.786,-0.145,-0.060
5.788,-0.205,-0.065
5.790,-0.220,-0.070
5.792,-0.190,-0.070
5.794,-0.125,-0.065
5.796,-0.015,-0.065
5.798,0.055,-0.060
5.800,0.065,-0.055
5.802,0.025,-0.050
5.804,-0.025,-0.050
5.806,-0.135,-0.050
5.808,-0.190,-0.045
5.810,-0.210,-0.045
5.812,-0.165,-0.040
5.814,-0.115,-0.040
5.816,0.000,-0.035
5.818,0.050,-0.035
5.820,0.060,-0.035
5.822,0.015,-0.040
5.824,-0.015,-0.040
5.826,-0.140,-0.045
5.828,-0.190,-0.045
5.830,-0.205,-0.050
5.832,-0.175,-0.050
5.834,-0.130,-0.050
5.836,-0.010,-0.050
5.838,0.015,-0.050
5.840,0.030,-0.055
5.842,-0.005,-0.065
5.844,-0.075,-0.070
5.846,-0.190,-0.075
5.848,-0.230,-0.070
5.850,-0.205,-0.055
5.852,-0.105,-0.020
5.854,-0.005,0.030
5.856,0.180,0.095
5.858,0.300,0.170
5.860,0.375,0.250
5.862,0.410,0.320
5.864,0.415,0.370
5.866,0.320,0.400
5.868,0.245,0.400
5.870,0.175,0.370
5.872,0.140,0.320
5.874,0.160,0.250
5.876,0.270,0.170
5.878,0.245,0.090
5.880,0.180,0.020
5.882,0.005,-0.040
5.884,-0.180,-0.090
5.886,-0.310,-0.125
5.888,-0.335,-0.145
5.890,-0.325,-0.160
5.892,-0.270,-0.165
5.894,-0.180,-0.160
5.896,-0.060,-0.155
5.898,-0.035,-0.145
5.900,-0.010,-0.130
5.902,-0.050,-0.115
5.904,-0.090,-0.095
5.906,-0.200,-0.080
5.908,-0.215,-0.065
5.910,-0.225,-0.050
5.912,-0.155,-0.045
5.914,-0.070,-0.040
5.916,0.035,-0.040
5.918,0.075,-0.040
5.920,0.090,-0.035
5.922,0.015,-0.035
5.924,-0.040,-0.030
5.926,-0.140,-0.020
5.928,-0.160,-0.015
5.930,-0.170,-0.005
5.932,-0.105,0.000
5.934,-0.030,0.000
5.936,0.065,0.000
5.938,0.110,0.000
5.940,0.100,-0.005
5.942,0.035,-0.005
5.944,-0.030,-0.010
5.946,-0.140,-0.010
5.948,-0.170,-0.010
5.950,-0.165,-0.010
5.952,-0.110,-0.005
5.954,-0.025,-0.005
5.956,0.080,-0.005
5.958,0.110,-0.010
5.960,0.100,-0.010
5.962,0.035,-0.010
5.964,-0.040,-0.015
5.966,-0.125,-0.015
5.968,-0.155,-0.015
5.970,-0.150,-0.010
5.972,-0.090,-0.010
5.974,0.005,-0.005
5.976,0.100,-0.005
5.978,0.125,-0.005
5.980,0.105,-0.005
5.982,0.050,-0.005
5.984,-0.030,-0.005
5.986,-0.105,-0.005
5.988,-0.145,-0.005
5.990,-0.130,-0.005
5.992,-0.065,0.000
5.994,0.035,0.005
5.996,0.110,0.010
5.998,0.130,0.015
6.000,0.115,0.020
6.002,0.070,0.020
6.004,-0.030,0.025
6.006,-0.105,0.025
6.008,-0.125,0.025
6.010,-0.120,0.025
6.012,-0.055,0.025
6.014,0.045,0.025
6.016,0.120,0.025
6.018,0.150,0.025
6.020,0.130,0.025
6.022,0.065,0.020
6.024,-0.035,0.020
6.026,-0.090,0.020
6.028,-0.120,0.025
6.030,-0.100,0.025
6.032,-0.025,0.030
6.034,0.085,0.040
6.036,0.155,0.045
6.038,0.175,0.050
6.040,0.155,0.055
6.042,0.090,0.060
6.044,-0.010,0.060
6.046,-0.075,0.065
6.048,-0.090,0.065
6.050,-0.065,0.065
6.052,0.010,0.070
6.054,0.120,0.075
6.056,0.180,0.080
6.058,0.225,0.090
6.060,0.175,0.100
6.062,0.145,0.110
6.064,0.035,0.120
6.066,-0.020,0.125
6.068,-0.045,0.130
6.070,0.005,0.130
6.072,0.065,0.130
6.074,0.175,0.130
6.076,0.240,0.130
6.078,0.270,0.130
6.080,0.240,0.135
6.082,0.185,0.140
6.084,0.075,0.150
6.086,0.025,0.160
6.088,0.005,0.170
6.090,0.060,0.180
6.092,0.125,0.190
6.094,0.240,0.195
6.096,0.300,0.200
6.098,0.310,0.200
6.100,0.260,0.200
6.102,0.210,0.200
6.104,0.105,0.200
6.106,0.035,0.195
6.108,0.030,0.195
6.110,0.080,0.190
6.112,0.120,0.190
6.114,0.250,0.190
6.116,0.305,0.190
6.118,0.315,0.190
6.120,0.280,0.185
6.122,0.200,0.180
6.124,0.060,0.175
6.126,0.005,0.165
6.128,-0.015,0.155
6.130,0.035,0.140
6.132,0.065,0.130
6.134,0.175,0.115
6.136,0.215,0.105
6.138,0.205,0.090
6.140,0.140,0.080
6.142,0.065,0.075
6.144,-0.050,0.065
6.146,-0.115,0.060
6.148,-0.125,0.055
6.150,-0.090,0.045
6.152,-0.020,0.040
6.154,0.085,0.030
6.156,0.130,0.020
6.158,0.140,0.010
6.160,0.060,0.000
6.162,-0.010,-0.005
6.164,-0.125,-0.010
6.166,-0.155,-0.015
6.168,-0.165,-0.015
6.170,-0.115,-0.010
6.172,-0.050,-0.010
6.174,0.045,-0.005
6.176,0.095,-0.005
6.178,0.100,-0.005
6.180,0.045,-0.010
6.182,-0.040,-0.015
6.184,-0.155,-0.020
6.186,-0.200,-0.030
6.188,-0.200,-0.040
6.190,-0.135,-0.045
6.192,-0.065,-0.050
6.194,0.035,-0.055
6.196,0.075,-0.055
6.198,0.080,-0.055
6.200,0.020,-0.050
6.202,-0.060,-0.045
6.204,-0.155,-0.040
6.206,-0.185,-0.040
6.208,-0.205,-0.035
6.210,-0.140,-0.035
6.212,-0.055,-0.035
6.214,0.025,-0.040
6.216,0.060,-0.045
6.218,0.065,-0.050
6.220,-0.025,-0.055
6.222,-0.080,-0.065
6.224,-0.175,-0.070
6.226,-0.205,-0.075
6.228,-0.190,-0.075
6.230,-0.135,-0.070
6.232,-0.055,-0.065
6.234,0.035,-0.060
6.236,0.075,-0.055
6.238,0.055,-0.045
6.240,0.010,-0.040
6.242,-0.070,-0.040
6.244,-0.165,-0.040
6.246,-0.195,-0.045
6.248,-0.200,-0.050
6.250,-0.140,-0.055
6.252,-0.045,-0.060
6.254,0.050,-0.060
6.256,0.075,-0.060
6.258,0.075,-0.055
6.260,0.010,-0.050
6.262,-0.070,-0.040
6.264,-0.165,-0.035
6.266,-0.190,-0.030
6.268,-0.175,-0.030
6.270,-0.110,-0.030
6.272,-0.015,-0.035
6.274,0.075,-0.045
6.276,0.065,-0.050
6.278,0.060,-0.055
6.280,0.010,-0.055
6.282,-0.075,-0.050
6.284,-0.165,-0.045
6.286,-0.205,-0.040
6.288,-0.160,-0.030
6.290,-0.110,-0.025
6.292,0.000,-0.020
6.294,0.050,-0.020
6.296,0.085,-0.020
6.298,0.065,-0.025
6.300,0.005,-0.030
6.302,-0.100,-0.035
6.304,-0.155,-0.040
6.306,-0.170,-0.045
6.308,-0.155,-0.040
6.310,-0.095,-0.040
6.312,0.000,-0.035
6.314,0.075,-0.030
6.316,0.085,-0.025
6.318,0.080,-0.020
6.320,0.000,-0.015
6.322,-0.095,-0.015
6.324,-0.175,-0.015
6.326,-0.195,-0.015
6.328,-0.165,-0.020
6.330,-0.100,-0.025
6.332,0.025,-0.025
6.334,0.085,-0.030
6.336,0.090,-0.030
6.338,0.065,-0.030
6.340,0.000,-0.030
6.342,-0.100,-0.030
6.344,-0.170,-0.035
6.346,-0.200,-0.035
6.348,-0.160,-0.035
6.350,-0.110,-0.040
6.352,-0.010,-0.045
6.354,0.065,-0.050
6.356,0.080,-0.050
6.358,0.055,-0.050
6.360,-0.025,-0.050
6.362,-0.120,-0.045
6.364,-0.155,-0.040
6.366,-0.170,-0.030
6.368,-0.160,-0.025
6.370,-0.100,-0.020
6.372,0.005,-0.020
6.374,0.070,-0.020
6.376,0.090,-0.025
6.378,0.045,-0.030
6.380,-0.015,-0.035
6.382,-0.130,-0.040
6.384,-0.170,-0.045
6.386,-0.200,-0.045
6.388,-0.145,-0.045
6.390,-0.105,-0.045
6.392,-0.005,-0.045
6.394,0.075,-0.045
6.396,0.075,-0.045
6.398,0.040,-0.050
6.400,-0.015,-0.050
6.402,-0.125,-0.045
6.404,-0.185,-0.045
6.406,-0.180,-0.040
6.408,-0.150,-0.030
6.410,-0.100,-0.025
6.412,0.030,-0.020
6.414,0.075,-0.020
6.416,0.075,-0.020
6.418,0.035,-0.020
6.420,-0.040,-0.025
6.422,-0.155,-0.035
6.424,-0.200,-0.035
6.426,-0.180,-0.040
6.428,-0.145,-0.040
6.430,-0.090,-0.040
6.432,0.035,-0.035
6.434,0.085,-0.035
6.436,0.095,-0.035
6.438,0.025,-0.035
6.440,-0.030,-0.040
6.442,-0.160,-0.045
6.444,-0.195,-0.050
6.446,-0.190,-0.055
6.448,-0.135,-0.060
6.450,-0.075,-0.060
6.452,0.025,-0.060
6.454,0.065,-0.060
6.456,0.065,-0.055
6.458,0.025,-0.050
6.460,-0.030,-0.050
6.462,-0.160,-0.045
6.464,-0.190,-0.045
6.466,-0.205,-0.045
6.468,-0.125,-0.040
6.470,-0.050,-0.040
6.472,0.045,-0.035
6.474,0.075,-0.030
6.476,0.075,-0.030
6.478,0.020,-0.025
6.480,-0.045,-0.025
6.482,-0.145,-0.025
6.484,-0.195,-0.025
6.486,-0.185,-0.030
6.488,-0.110,-0.030
6.490,-0.025,-0.030
6.492,0.060,-0.030
6.494,0.100,-0.030
6.496,0.090,-0.030
6.498,0.045,-0.025
6.500,-0.035,-0.025
6.502,-0.135,-0.020
6.504,-0.175,-0.020
6.506,-0.175,-0.015
6.508,-0.110,-0.015
6.510,-0.015,-0.015
6.512,0.090,-0.010
6.514,0.130,-0.010
6.516,0.115,-0.005
6.518,0.050,-0.005
6.520,-0.035,0.000
6.522,-0.115,0.005
6.524,-0.155,0.005
6.526,-0.155,0.005
6.528,-0.100,0.000
6.530,-0.030,-0.005
6.532,0.065,-0.010
6.534,0.095,-0.020
6.536,0.075,-0.025
6.538,0.010,-0.030
6.540,-0.070,-0.035
6.542,-0.155,-0.040
6.544,-0.190,-0.040
6.546,-0.180,-0.040
6.548,-0.115,-0.045
6.550,-0.030,-0.045
6.552,0.035,-0.050
6.554,0.060,-0.050
6.556,0.045,-0.055
6.558,-0.005,-0.055
6.560,-0.100,-0.055
6.562,-0.155,-0.050
6.564,-0.200,-0.050
6.566,-0.205,-0.045
6.568,-0.130,-0.045
6.570,-0.030,-0.045
6.572,0.040,-0.050
6.574,0.085,-0.055
6.576,0.040,-0.060
6.578,-0.020,-0.070
6.580,-0.120,-0.075
6.582,-0.190,-0.075
6.584,-0.220,-0.075
6.586,-0.200,-0.070
6.588,-0.140,-0.060
6.590,-0.015,-0.055
6.592,0.045,-0.045
6.594,0.075,-0.045
6.596,0.040,-0.040
6.598,-0.010,-0.045
6.600,-0.105,-0.050
6.602,-0.185,-0.050
6.604,-0.215,-0.055
6.606,-0.175,-0.060
6.608,-0.120,-0.065
6.610,-0.035,-0.070
6.612,0.055,-0.070
6.614,0.030,-0.075
6.616,-0.005,-0.075
6.618,-0.055,-0.075
6.620,-0.160,-0.070
6.622,-0.200,-0.055
6.624,-0.185,-0.030
6.626,-0.090,0.005
6.628,0.010,0.055
6.630,0.185,0.115
6.632,0.305,0.185
6.634,0.415,0.245
6.636,0.435,0.300
6.638,0.430,0.340
6.640,0.285,0.355
6.642,0.190,0.350
6.644,0.090,0.315
6.646,0.065,0.260
6.648,0.105,0.190
6.650,0.180,0.110
6.652,0.175,0.030
6.654,0.085,-0.045
6.656,-0.070,-0.105
6.658,-0.185,-0.150
6.660,-0.280,-0.180
6.662,-0.320,-0.190
6.664,-0.330,-0.195
6.666,-0.290,-0.185
6.668,-0.245,-0.175
6.670,-0.130,-0.165
6.672,-0.070,-0.155
6.674,-0.030,-0.145
6.676,-0.060,-0.140
6.678,-0.095,-0.130
6.680,-0.205,-0.120
6.682,-0.245,-0.110
6.684,-0.235,-0.095
6.686,-0.165,-0.085
6.688,-0.110,-0.070
6.690,0.005,-0.060
6.692,0.060,-0.055
6.694,0.065,-0.050
6.696,0.020,-0.045
6.698,-0.020,-0.045
6.700,-0.140,-0.045
6.702,-0.175,-0.040
6.704,-0.190,-0.035
6.706,-0.125,-0.030
6.708,-0.080,-0.025
6.710,0.040,-0.020
6.712,0.090,-0.015
6.714,0.080,-0.015
6.716,0.050,-0.015
6.718,-0.005,-0.020
6.720,-0.115,-0.030
6.722,-0.155,-0.035
6.724,-0.160,-0.035
6.726,-0.115,-0.040
6.728,-0.040,-0.035
6.730,0.060,-0.030
6.732,0.100,-0.020
6.734,0.110,-0.015
6.736,0.060,-0.010
6.738,0.005,-0.010
6.740,-0.110,-0.010
6.742,-0.155,-0.015
6.744,-0.155,-0.020
6.746,-0.110,-0.025
6.748,-0.020,-0.030
6.750,0.065,-0.030
6.752,0.110,-0.025
6.754,0.115,-0.020
6.756,0.070,-0.015
6.758,-0.010,-0.010
6.760,-0.110,0.000
6.762,-0.155,0.000
6.764,-0.175,0.005
6.766,-0.105,0.005
6.768,-0.010,0.005
6.770,0.080,0.000
6.772,0.120,0.000
6.774,0.125,0.000
6.776,0.060,0.005
6.778,-0.010,0.005
6.780,-0.105,0.010
6.782,-0.140,0.015
6.784,-0.120,0.020
6.786,-0.040,0.025
6.788,0.030,0.025
6.790,0.115,0.030
6.792,0.145,0.030
6.794,0.130,0.030
6.796,0.095,0.030
6.798,0.005,0.035
6.800,-0.075,0.035
6.802,-0.120,0.040
6.804,-0.105,0.045
6.806,-0.030,0.050
6.808,0.055,0.050
6.810,0.150,0.055
6.812,0.185,0.060
6.814,0.170,0.060
6.816,0.120,0.065
6.818,0.025,0.070
6.820,-0.070,0.075
6.822,-0.075,0.080
6.824,-0.045,0.085
6.826,0.010,0.090
6.828,0.100,0.095
6.830,0.185,0.095
6.832,0.210,0.100
6.834,0.195,0.100
6.836,0.145,0.100
6.838,0.065,0.105
6.840,-0.015,0.115
6.842,-0.030,0.120
6.844,-0.010,0.130
6.846,0.090,0.140
6.848,0.165,0.150
6.850,0.230,0.155
6.852,0.275,0.160
6.854,0.270,0.160
6.856,0.200,0.160
6.858,0.115,0.160
6.860,0.045,0.155
6.862,0.005,0.155
6.864,0.035,0.160
6.866,0.095,0.165
6.868,0.205,0.175
6.870,0.275,0.185
6.872,0.315,0.195
6.874,0.285,0.200
6.876,0.245,0.210
6.878,0.145,0.210
6.880,0.060,0.210
6.882,0.045,0.205
6.884,0.055,0.200
6.886,0.105,0.190
6.888,0.205,0.180
6.890,0.270,0.175
6.892,0.300,0.170
6.894,0.275,0.170
6.896,0.190,0.165
6.898,0.070,0.165
6.900,-0.005,0.160
6.902,-0.025,0.155
6.904,0.005,0.145
6.906,0.045,0.135
6.908,0.140,0.125
6.910,0.200,0.110
6.912,0.190,0.095
6.914,0.155,0.080
6.916,0.095,0.070
6.918,-0.020,0.060
6.920,-0.085,0.050
6.922,-0.125,0.040
6.924,-0.100,0.035
6.926,-0.055,0.030
6.928,0.060,0.030
6.930,0.115,0.025
6.932,0.130,0.020
6.934,0.095,0.020
6.936,0.015,0.015
6.938,-0.100,0.010
6.940,-0.170,0.000
6.942,-0.170,-0.005
6.944,-0.140,-0.015
6.946,-0.090,-0.025
6.948,0.020,-0.035
6.950,0.060,-0.040
6.952,0.065,-0.050
6.954,0.035,-0.050
6.956,-0.015,-0.055
6.958,-0.140,-0.050
6.960,-0.195,-0.045
6.962,-0.200,-0.040
6.964,-0.165,-0.035
6.966,-0.095,-0.035
6.968,0.020,-0.035
6.970,0.060,-0.035
6.972,0.080,-0.040
6.974,0.025,-0.050
6.976,-0.035,-0.055
6.978,-0.155,-0.060
6.980,-0.205,-0.065
6.982,-0.225,-0.060
6.984,-0.175,-0.060
6.986,-0.115,-0.050
6.988,0.000,-0.045
6.990,0.050,-0.040
6.992,0.060,-0.040
6.994,0.020,-0.040
6.996,-0.040,-0.040
6.998,-0.150,-0.045
7.000,-0.190,-0.050
7.002,-0.200,-0.050
7.004,-0.170,-0.050
7.006,-0.090,-0.050
7.008,0.005,-0.050
7.010,0.060,-0.050
7.012,0.060,-0.045
7.014,-0.015,-0.045
7.016,-0.065,-0.045
7.018,-0.165,-0.045
7.020,-0.215,-0.045
7.022,-0.215,-0.045
7.024,-0.145,-0.040
7.026,-0.065,-0.035
7.028,0.035,-0.030
7.030,0.090,-0.025
7.032,0.080,-0.025
7.034,0.020,-0.025
7.036,-0.050,-0.025
7.038,-0.170,-0.030
7.040,-0.200,-0.040
7.042,-0.200,-0.045
7.044,-0.130,-0.050
7.046,-0.055,-0.050
7.048,0.030,-0.050
7.050,0.065,-0.040
7.052,0.065,-0.035
7.054,0.030,-0.025
7.056,-0.050,-0.015
7.058,-0.135,-0.015
7.060,-0.170,-0.015
7.062,-0.175,-0.015
7.064,-0.110,-0.025
7.066,-0.065,-0.035
7.068,0.030,-0.040
7.070,0.065,-0.045
7.072,0.075,-0.050
7.074,0.025,-0.045
7.076,-0.055,-0.040
7.078,-0.150,-0.030
7.080,-0.175,-0.025
7.082,-0.180,-0.015
7.084,-0.115,-0.010
7.086,-0.040,-0.010
7.088,0.050,-0.010
7.090,0.100,-0.015
7.092,0.070,-0.025
7.094,0.005,-0.030
7.096,-0.075,-0.035
7.098,-0.160,-0.035
7.100,-0.195,-0.035
7.102,-0.185,-0.035
7.104,-0.125,-0.035
7.106,-0.020,-0.035
7.108,0.050,-0.035
7.110,0.090,-0.035
7.112,0.055,-0.035
7.114,0.005,-0.035
7.116,-0.070,-0.035
7.118,-0.150,-0.030
7.120,-0.185,-0.030
7.122,-0.175,-0.025
7.124,-0.135,-0.020
7.126,-0.030,-0.020
7.128,0.040,-0.015
7.130,0.080,-0.015
7.132,0.055,-0.020
7.134,0.000,-0.020
7.136,-0.095,-0.025
7.138,-0.155,-0.030
7.140,-0.195,-0.030
7.142,-0.180,-0.030
7.144,-0.125,-0.030
7.146,-0.015,-0.025
7.148,0.040,-0.025
7.150,0.060,-0.025
7.152,0.045,-0.025
7.154,-0.025,-0.030
7.156,-0.110,-0.030
7.158,-0.195,-0.035
7.160,-0.210,-0.040
7.162,-0.175,-0.040
7.164,-0.125,-0.040
7.166,-0.010,-0.040
7.168,0.055,-0.035
7.170,0.085,-0.035
7.172,0.045,-0.035
7.174,-0.010,-0.035
7.176,-0.105,-0.035
7.178,-0.200,-0.040
7.180,-0.225,-0.040
7.182,-0.185,-0.045
7.184,-0.125,-0.050
7.186,-0.005,-0.050
7.188,0.055,-0.050
7.190,0.080,-0.050
7.192,0.050,-0.050
7.194,-0.015,-0.045
7.196,-0.125,-0.040
7.198,-0.170,-0.035
7.200,-0.215,-0.030
7.202,-0.170,-0.030
7.204,-0.120,-0.030
7.206,-0.010,-0.030
7.208,0.050,-0.035
7.210,0.070,-0.035
7.212,0.040,-0.040
7.214,-0.015,-0.040
7.216,-0.135,-0.040
7.218,-0.190,-0.040
7.220,-0.195,-0.035
7.222,-0.160,-0.030
7.224,-0.105,-0.025
7.226,0.025,-0.020
7.228,0.085,-0.015
7.230,0.095,-0.015
7.232,0.065,-0.020
7.234,0.015,-0.020
7.236,-0.110,-0.025
7.238,-0.170,-0.025
7.240,-0.175,-0.025
7.242,-0.135,-0.020
7.244,-0.090,-0.020
7.246,0.030,-0.015
7.248,0.085,-0.010
7.250,0.125,-0.010
7.252,0.065,-0.010
7.254,0.015,-0.010
7.256,-0.120,-0.010
7.258,-0.165,-0.010
7.260,-0.185,-0.010
7.262,-0.145,-0.010
7.264,-0.080,-0.010
7.266,0.035,-0.010
7.268,0.080,-0.010
7.270,0.095,-0.015
7.272,0.025,-0.025
7.274,-0.045,-0.030
7.276,-0.150,-0.040
7.278,-0.195,-0.050
7.280,-0.220,-0.055
7.282,-0.180,-0.060
7.284,-0.095,-0.060
7.286,0.020,-0.060
7.288,0.060,-0.055
7.290,0.060,-0.055
7.292,0.015,-0.055
7.294,-0.055,-0.050
7.296,-0.160,-0.050
7.298,-0.205,-0.045
7.300,-0.225,-0.045
7.302,-0.155,-0.040
7.304,-0.090,-0.035
7.306,0.010,-0.035
7.308,0.065,-0.035
7.310,0.065,-0.035
7.312,0.000,-0.040
7.314,-0.065,-0.045
7.316,-0.170,-0.050
7.318,-0.215,-0.050
7.320,-0.210,-0.050
7.322,-0.170,-0.050
7.324,-0.090,-0.045
7.326,0.025,-0.040
7.328,0.070,-0.035
7.330,0.070,-0.030
7.332,-0.020,-0.030
7.334,-0.065,-0.030
7.336,-0.165,-0.035
7.338,-0.210,-0.040
7.340,-0.215,-0.045
7.342,-0.155,-0.055
7.344,-0.100,-0.060
7.346,-0.005,-0.065
7.348,0.045,-0.065
7.350,0.015,-0.070
7.352,-0.025,-0.070
7.354,-0.130,-0.075
7.356,-0.225,-0.070
7.358,-0.230,-0.060
7.360,-0.210,-0.045
7.362,-0.100,-0.015
7.364,0.040,0.030
7.366,0.190,0.090
7.368,0.275,0.155
7.370,0.335,0.225
7.372,0.360,0.285
7.374,0.355,0.330
7.376,0.255,0.360
7.378,0.170,0.360
7.380,0.125,0.335
7.382,0.100,0.285
7.384,0.165,0.220
7.386,0.230,0.140
7.388,0.200,0.060
7.390,0.105,-0.010
7.392,-0.070,-0.070
7.394,-0.225,-0.115
7.396,-0.325,-0.145
7.398,-0.345,-0.160
7.400,-0.325,-0.165
7.402,-0.260,-0.165
7.404,-0.180,-0.160
7.406,-0.090,-0.155
7.408,-0.050,-0.155
7.410,-0.065,-0.150
7.412,-0.110,-0.140
7.414,-0.175,-0.135
7.416,-0.245,-0.125
7.418,-0.250,-0.110
7.420,-0.220,-0.095
7.422,-0.145,-0.080
7.424,-0.035,-0.065
7.426,0.030,-0.055
7.428,0.070,-0.045
7.430,0.040,-0.035
7.432,-0.015,-0.030
7.434,-0.115,-0.030
7.436,-0.170,-0.025
7.438,-0.190,-0.025
7.440,-0.170,-0.020
7.442,-0.105,-0.020
7.444,-0.005,-0.015
7.446,0.065,-0.010
7.448,0.080,-0.010
7.450,0.065,-0.005
7.452,0.000,-0.005
7.454,-0.100,-0.005
7.456,-0.175,-0.005
7.458,-0.190,-0.010
7.460,-0.160,-0.010
7.462,-0.110,-0.015
7.464,0.000,-0.020
7.466,0.085,-0.020
7.468,0.105,-0.020
7.470,0.070,-0.020
7.472,0.015,-0.020
7.474,-0.110,-0.015
7.476,-0.165,-0.015
7.478,-0.185,-0.010
7.480,-0.145,-0.005
7.482,-0.090,-0.005
7.484,0.030,0.000
7.486,0.085,0.000
7.488,0.110,-0.005
7.490,0.060,-0.005
7.492,0.005,-0.005
7.494,-0.095,-0.010
7.496,-0.165,-0.010
7.498,-0.180,-0.010
7.500,-0.135,-0.005
7.502,-0.080,-0.005
7.504,0.045,0.000
7.506,0.110,0.005
7.508,0.120,0.005
7.510,0.080,0.010
7.512,0.015,0.010
7.514,-0.095,0.015
7.516,-0.145,0.015
7.518,-0.165,0.015
7.520,-0.120,0.020
7.522,-0.065,0.020
7.524,0.055,0.025
7.526,0.120,0.025
7.528,0.140,0.025
7.530,0.090,0.025
7.532,0.035,0.025
7.534,-0.090,0.025
7.536,-0.145,0.020
7.538,-0.140,0.025
7.540,-0.095,0.025
7.542,-0.030,0.030
7.544,0.085,0.040
7.546,0.160,0.045
7.548,0.155,0.055
7.550,0.105,0.060
7.552,0.075,0.065
7.554,-0.035,0.070
7.556,-0.095,0.075
7.558,-0.110,0.075
7.560,-0.055,0.075
7.562,0.010,0.080
7.564,0.120,0.080
7.566,0.175,0.085
7.568,0.190,0.090
7.570,0.145,0.095
7.572,0.095,0.095
7.574,-0.020,0.100
7.576,-0.055,0.105
7.578,-0.060,0.105
7.580,0.000,0.110
7.582,0.070,0.115
7.584,0.175,0.120
7.586,0.225,0.130
7.588,0.245,0.135
7.590,0.195,0.145
7.592,0.145,0.150
7.594,0.030,0.155
7.596,-0.015,0.160
7.598,-0.005,0.165
7.600,0.055,0.165
7.602,0.120,0.170
7.604,0.240,0.170
7.606,0.275,0.170
7.608,0.275,0.170
7.610,0.220,0.175
7.612,0.155,0.175
7.614,0.050,0.180
7.616,0.010,0.180
7.618,0.000,0.185
7.620,0.075,0.185
7.622,0.155,0.185
7.624,0.260,0.180
7.626,0.280,0.175
7.628,0.260,0.170
7.630,0.195,0.165
7.632,0.125,0.160
7.634,0.010,0.155
7.636,-0.020,0.150
7.638,-0.025,0.145
7.640,0.030,0.140
7.642,0.090,0.130
7.644,0.160,0.125
7.646,0.185,0.115
7.648,0.165,0.105
7.650,0.095,0.090
7.652,-0.010,0.080
7.654,-0.095,0.065
7.656,-0.145,0.050
7.658,-0.135,0.040
7.660,-0.085,0.030
7.662,-0.015,0.020
7.664,0.070,0.015
7.666,0.100,0.010
7.668,0.075,0.000
7.670,0.010,-0.005
7.672,-0.075,-0.015
7.674,-0.185,-0.020
7.676,-0.200,-0.025
7.678,-0.200,-0.030
7.680,-0.125,-0.035
7.682,-0.040,-0.035
7.684,0.035,-0.035
7.686,0.080,-0.035
7.688,0.050,-0.030
7.690,-0.015,-0.030
7.692,-0.105,-0.030
7.694,-0.180,-0.035
7.696,-0.210,-0.035
7.698,-0.200,-0.040
7.700,-0.135,-0.045
7.702,-0.055,-0.050
7.704,0.015,-0.050
7.706,0.055,-0.055
7.708,0.020,-0.055
7.710,-0.030,-0.050
7.712,-0.130,-0.050
7.714,-0.215,-0.045
7.716,-0.225,-0.045
7.718,-0.200,-0.040
7.720,-0.150,-0.040
7.722,-0.030,-0.045
7.724,0.025,-0.045
7.726,0.035,-0.050
7.728,0.025,-0.055
7.730,-0.035,-0.055
7.732,-0.135,-0.055
7.734,-0.225,-0.055
7.736,-0.245,-0.055
7.738,-0.215,-0.055
7.740,-0.130,-0.050
7.742,-0.035,-0.050
7.744,0.020,-0.050
7.746,0.050,-0.055
7.748,0.020,-0.055
7.750,-0.030,-0.055
7.752,-0.130,-0.055
7.754,-0.205,-0.050
7.756,-0.215,-0.045
7.758,-0.185,-0.045
7.760,-0.135,-0.040
7.762,-0.025,-0.035
7.764,0.035,-0.035
7.766,0.050,-0.035
7.768,0.020,-0.040
7.770,-0.030,-0.045
7.772,-0.150,-0.045
7.774,-0.210,-0.045
7.776,-0.220,-0.045
7.778,-0.185,-0.040
7.780,-0.125,-0.035
7.782,-0.005,-0.025
7.784,0.050,-0.020
7.786,0.070,-0.015
7.788,0.035,-0.015
7.790,-0.025,-0.020
7.792,-0.150,-0.025
7.794,-0.205,-0.030
7.796,-0.215,-0.040
7.798,-0.170,-0.045
7.800,-0.120,-0.045
7.802,-0.010,-0.040
7.804,0.055,-0.035
7.806,0.060,-0.030
7.808,0.040,-0.020
7.810,-0.015,-0.015
7.812,-0.125,-0.015
7.814,-0.195,-0.015
7.816,-0.215,-0.020
7.818,-0.165,-0.025
7.820,-0.115,-0.030
7.822,0.000,-0.040
7.824,0.045,-0.040
7.826,0.055,-0.045
7.828,0.030,-0.040
7.830,-0.025,-0.040
7.832,-0.140,-0.035
7.834,-0.195,-0.030
7.836,-0.215,-0.025
7.838,-0.170,-0.025
7.840,-0.095,-0.025
7.842,0.000,-0.025
7.844,0.050,-0.030
7.846,0.065,-0.030
7.848,0.030,-0.035
7.850,-0.040,-0.035
7.852,-0.160,-0.030
7.854,-0.205,-0.030
7.856,-0.215,-0.025
7.858,-0.170,-0.020
7.860,-0.100,-0.015
7.862,0.010,-0.015
7.864,0.055,-0.020
7.866,0.060,-0.020
7.868,0.005,-0.025
7.870,-0.065,-0.030
7.872,-0.165,-0.035
7.874,-0.210,-0.040
7.876,-0.205,-0.040
7.878,-0.130,-0.040
7.880,-0.090,-0.035
7.882,0.020,-0.035
7.884,0.045,-0.030
7.886,0.045,-0.035
7.888,-0.005,-0.035
7.890,-0.070,-0.040
7.892,-0.170,-0.040
7.894,-0.225,-0.045
7.896,-0.220,-0.045
7.898,-0.165,-0.040
7.900,-0.095,-0.035
7.902,0.025,-0.030
7.904,0.065,-0.030
7.906,0.065,-0.025
7.908,-0.015,-0.025
7.910,-0.100,-0.025
7.912,-0.205,-0.030
7.914,-0.230,-0.035
7.916,-0.205,-0.040
7.918,-0.145,-0.040
7.920,-0.080,-0.040
7.922,0.020,-0.040
7.924,0.050,-0.035
7.926,0.045,-0.030
7.928,0.005,-0.025
7.930,-0.105,-0.025
7.932,-0.185,-0.025
7.934,-0.210,-0.030
7.936,-0.210,-0.030
7.938,-0.145,-0.035
7.940,-0.075,-0.040
7.942,0.010,-0.045
7.944,0.060,-0.045
7.946,0.035,-0.045
7.948,-0.030,-0.040
7.950,-0.115,-0.040
7.952,-0.185,-0.035
7.954,-0.195,-0.030
7.956,-0.195,-0.030
7.958,-0.145,-0.030
7.960,-0.050,-0.030
7.962,0.025,-0.030
7.964,0.045,-0.030
7.966,0.040,-0.035
7.968,-0.020,-0.035
7.970,-0.115,-0.035
7.972,-0.200,-0.030
7.974,-0.230,-0.030
7.976,-0.205,-0.030
7.978,-0.150,-0.030
7.980,-0.035,-0.030
7.982,0.040,-0.030
7.984,0.075,-0.035
7.986,0.060,-0.035
7.988,0.000,-0.035
7.990,-0.090,-0.035
7.992,-0.170,-0.030
7.994,-0.195,-0.025
7.996,-0.185,-0.020
7.998,-0.125,-0.015
8.000,-0.005,-0.010
8.002,0.060,-0.005
8.004,0.085,-0.005
8.006,0.055,0.000
8.008,0.010,0.000
8.010,-0.100,0.000
8.012,-0.160,0.005
8.014,-0.195,0.005
8.016,-0.175,0.005
8.018,-0.120,0.005
8.020,-0.015,0.005
8.022,0.055,0.000
8.024,0.105,-0.005
8.026,0.060,-0.010
8.028,-0.025,-0.015
8.030,-0.130,-0.020
8.032,-0.190,-0.025
8.034,-0.225,-0.025
8.036,-0.195,-0.030
8.038,-0.160,-0.035
8.040,-0.040,-0.040
8.042,0.015,-0.045
8.044,0.040,-0.050
8.046,0.015,-0.055
8.048,-0.045,-0.055
8.050,-0.155,-0.055
8.052,-0.215,-0.050
8.054,-0.225,-0.045
8.056,-0.200,-0.040
8.058,-0.150,-0.030
8.060,-0.040,-0.025
8.062,0.025,-0.020
8.064,0.045,-0.025
8.066,0.010,-0.030
8.068,-0.060,-0.035
8.070,-0.175,-0.045
8.072,-0.225,-0.050
8.074,-0.240,-0.055
8.076,-0.190,-0.055
8.078,-0.140,-0.050
8.080,-0.025,-0.045
8.082,0.045,-0.040
8.084,0.040,-0.035
8.086,-0.005,-0.035
8.088,-0.050,-0.035
8.090,-0.175,-0.035
8.092,-0.220,-0.040
8.094,-0.235,-0.040
8.096,-0.200,-0.045
8.098,-0.150,-0.045
8.100,-0.035,-0.050
8.102,0.010,-0.050
8.104,0.015,-0.055
8.106,-0.035,-0.060
8.108,-0.075,-0.060
8.110,-0.210,-0.060
8.112,-0.260,-0.055
8.114,-0.240,-0.040
8.116,-0.145,-0.010
8.118,-0.025,0.035
8.120,0.150,0.090
8.122,0.245,0.155
8.124,0.335,0.225
8.126,0.355,0.290
8.128,0.365,0.340
8.130,0.290,0.375
8.132,0.230,0.385
8.134,0.190,0.370
8.136,0.135,0.330
8.138,0.145,0.275
8.140,0.245,0.210
8.142,0.245,0.135
8.144,0.155,0.065
8.146,0.020,0.000
8.148,-0.150,-0.055
8.150,-0.300,-0.100
8.152,-0.355,-0.130
8.154,-0.370,-0.145
8.156,-0.295,-0.155
8.158,-0.220,-0.155
8.160,-0.110,-0.150
8.162,-0.055,-0.140
8.164,-0.055,-0.130
8.166,-0.085,-0.115
8.168,-0.135,-0.100
8.170,-0.225,-0.080
8.172,-0.245,-0.065
8.174,-0.225,-0.055
8.176,-0.175,-0.045
8.178,-0.090,-0.035
8.180,0.000,-0.035
8.182,0.055,-0.035
8.184,0.035,-0.035
8.186,-0.015,-0.040
8.188,-0.080,-0.040
8.190,-0.200,-0.045
8.192,-0.230,-0.045
8.194,-0.220,-0.045
8.196,-0.145,-0.040
8.198,-0.080,-0.035
8.200,0.020,-0.030
8.202,0.065,-0.025
8.204,0.070,-0.020
8.206,-0.005,-0.020
8.208,-0.075,-0.015
8.210,-0.170,-0.010
8.212,-0.205,-0.005
8.214,-0.205,-0.005
8.216,-0.125,0.000
8.218,-0.055,0.000
8.220,0.025,0.000
8.222,0.065,0.000
8.224,0.060,-0.005
8.226,0.000,-0.005
8.228,-0.070,-0.010
8.230,-0.155,-0.010
8.232,-0.195,-0.010
8.234,-0.190,-0.010
8.236,-0.130,-0.005
8.238,-0.030,-0.005
8.240,0.055,0.000
8.242,0.085,0.005
8.244,0.060,0.005
8.246,0.015,0.005
8.248,-0.065,0.005
8.250,-0.160,0.005
8.252,-0.185,0.000
8.254,-0.160,0.000
8.256,-0.115,0.000
8.258,-0.020,0.000
8.260,0.060,0.005
8.262,0.090,0.010
8.264,0.080,0.010
8.266,0.035,0.015
8.268,-0.070,0.020
8.270,-0.160,0.020
8.272,-0.180,0.025
8.274,-0.160,0.025
8.276,-0.095,0.030
8.278,-0.005,0.030
8.280,0.070,0.030
8.282,0.095,0.030
8.284,0.070,0.025
8.286,0.030,0.025
8.288,-0.090,0.020
8.290,-0.160,0.020
8.292,-0.175,0.020
8.294,-0.140,0.020
8.296,-0.085,0.020
8.298,0.035,0.025
8.300,0.105,0.025
8.302,0.110,0.030
8.304,0.090,0.035
8.306,0.040,0.040
8.308,-0.065,0.040
8.310,-0.130,0.045
8.312,-0.145,0.045
8.314,-0.105,0.045
8.316,-0.050,0.050
8.318,0.065,0.050
8.320,0.140,0.055
8.322,0.165,0.065
8.324,0.130,0.070
8.326,0.085,0.080
8.328,-0.020,0.090
8.330,-0.075,0.100
8.332,-0.110,0.105
8.334,-0.070,0.110
8.336,0.000,0.120
8.338,0.125,0.120
8.340,0.175,0.125
8.342,0.200,0.125
8.344,0.170,0.125
8.346,0.110,0.125
8.348,0.005,0.130
8.350,-0.050,0.130
8.352,-0.045,0.130
8.354,-0.005,0.135
8.356,0.055,0.140
8.358,0.175,0.150
8.360,0.215,0.160
8.362,0.240,0.165
8.364,0.205,0.170
8.366,0.140,0.175
8.368,0.040,0.180
8.370,-0.030,0.175
8.372,-0.045,0.175
8.374,0.000,0.165
8.376,0.065,0.160
8.378,0.180,0.150
8.380,0.220,0.145
8.382,0.235,0.145
8.384,0.190,0.140
8.386,0.120,0.140
8.388,0.005,0.140
8.390,-0.065,0.140
8.392,-0.080,0.135
8.394,-0.045,0.130
8.396,0.000,0.115
8.398,0.105,0.100
8.400,0.150,0.085
8.402,0.140,0.065
8.404,0.075,0.050
8.406,0.025,0.040
8.408,-0.100,0.030
8.410,-0.155,0.030
8.412,-0.160,0.025
8.414,-0.140,0.025
8.416,-0.075,0.025
8.418,0.025,0.020
8.420,0.065,0.015
8.422,0.060,0.005
8.424,0.015,-0.010
8.426,-0.055,-0.020
8.428,-0.180,-0.030
8.430,-0.225,-0.035
8.432,-0.235,-0.040
8.434,-0.165,-0.040
8.436,-0.110,-0.035
8.438,-0.005,-0.030
8.440,0.045,-0.030
8.442,0.025,-0.030
8.444,-0.025,-0.035
8.446,-0.105,-0.040
8.448,-0.220,-0.050
8.450,-0.265,-0.055
8.452,-0.245,-0.060
8.454,-0.200,-0.060
8.456,-0.125,-0.060
8.458,-0.010,-0.055
8.460,0.015,-0.050
8.462,0.025,-0.045
8.464,-0.035,-0.045
8.466,-0.105,-0.045
8.468,-0.205,-0.050
8.470,-0.245,-0.055
8.472,-0.265,-0.060
8.474,-0.195,-0.065
8.476,-0.135,-0.070
8.478,-0.020,-0.070
8.480,0.005,-0.065
8.482,0.010,-0.060
8.484,-0.035,-0.055
8.486,-0.115,-0.050
8.488,-0.220,-0.050
8.490,-0.250,-0.045
8.492,-0.250,-0.045
8.494,-0.180,-0.045
8.496,-0.100,-0.045
8.498,-0.010,-0.045
8.500,0.045,-0.045
8.502,0.035,-0.045
8.504,-0.030,-0.040
8.506,-0.115,-0.040
8.508,-0.220,-0.040
8.510,-0.245,-0.045
8.512,-0.225,-0.045
8.514,-0.195,-0.050
8.516,-0.110,-0.055
8.518,-0.020,-0.060
8.520,0.030,-0.065
8.522,0.005,-0.065
8.524,-0.055,-0.065
8.526,-0.125,-0.065
8.528,-0.225,-0.065
8.530,-0.255,-0.065
8.532,-0.245,-0.060
8.534,-0.180,-0.055
8.536,-0.085,-0.055
8.538,-0.005,-0.050
8.540,0.025,-0.050
8.542,0.010,-0.045
8.544,-0.045,-0.045
8.546,-0.130,-0.045
8.548,-0.200,-0.045
8.550,-0.255,-0.045
8.552,-0.240,-0.045
8.554,-0.180,-0.045
8.556,-0.080,-0.045
8.558,0.000,-0.045
8.560,0.035,-0.040
8.562,0.000,-0.040
8.564,-0.050,-0.035
8.566,-0.135,-0.030
8.568,-0.220,-0.030
8.570,-0.235,-0.030
8.572,-0.220,-0.030
8.574,-0.165,-0.035
8.576,-0.065,-0.040
8.578,0.010,-0.045
8.580,0.045,-0.045
8.582,0.035,-0.045
8.584,-0.050,-0.040
8.586,-0.155,-0.035
8.588,-0.215,-0.025
8.590,-0.225,-0.020
8.592,-0.200,-0.015
8.594,-0.140,-0.015
8.596,-0.030,-0.015
8.598,0.030,-0.020
8.600,0.010,-0.025
8.602,0.015,-0.035
8.604,-0.050,-0.040
8.606,-0.160,-0.045
8.608,-0.215,-0.045
8.610,-0.235,-0.045
8.612,-0.200,-0.040
8.614,-0.145,-0.035
8.616,-0.030,-0.030
8.618,0.030,-0.025
8.620,0.055,-0.025
8.622,0.000,-0.025
8.624,-0.060,-0.030
8.626,-0.170,-0.035
8.628,-0.235,-0.035
8.630,-0.250,-0.040
8.632,-0.185,-0.040
8.634,-0.135,-0.040
8.636,-0.025,-0.040
8.638,0.025,-0.035
8.640,0.045,-0.035
8.642,-0.015,-0.035
8.644,-0.060,-0.035
8.646,-0.170,-0.035
8.648,-0.225,-0.035
8.650,-0.255,-0.035
8.652,-0.205,-0.040
8.654,-0.130,-0.040
8.656,-0.030,-0.040
8.658,0.020,-0.040
8.660,0.040,-0.040
8.662,-0.005,-0.035
8.664,-0.070,-0.035
8.666,-0.175,-0.035
8.668,-0.225,-0.035
8.670,-0.230,-0.030
8.672,-0.195,-0.030
8.674,-0.125,-0.030
8.676,-0.025,-0.030
8.678,0.025,-0.030
8.680,0.055,-0.030
8.682,-0.010,-0.030
8.684,-0.080,-0.035
8.686,-0.175,-0.035
8.688,-0.240,-0.040
8.690,-0.245,-0.040
8.692,-0.195,-0.045
8.694,-0.140,-0.045
8.696,-0.010,-0.040
8.698,0.015,-0.040
8.700,0.050,-0.040
8.702,-0.025,-0.035
8.704,-0.065,-0.035
8.706,-0.195,-0.035
8.708,-0.230,-0.035
8.710,-0.260,-0.040
8.712,-0.200,-0.045
8.714,-0.105,-0.045
8.716,0.000,-0.050
8.718,0.035,-0.055
8.720,0.035,-0.050
8.722,-0.015,-0.050
8.724,-0.090,-0.045
8.726,-0.195,-0.035
8.728,-0.240,-0.030
8.730,-0.230,-0.025
8.732,-0.180,-0.020
8.734,-0.100,-0.020
8.736,0.010,-0.020
8.738,0.035,-0.025
8.740,0.050,-0.030
8.742,-0.020,-0.035
8.744,-0.095,-0.040
8.746,-0.200,-0.035
8.748,-0.220,-0.035
8.750,-0.210,-0.025
8.752,-0.155,-0.015
8.754,-0.075,-0.005
8.756,0.050,0.010
8.758,0.075,0.015
8.760,0.065,0.025
8.762,0.005,0.025
8.764,-0.085,0.025
8.766,-0.175,0.020
8.768,-0.200,0.015
8.770,-0.185,0.010
8.772,-0.120,0.005
8.774,-0.050,0.000
8.776,0.030,-0.005
8.778,0.075,-0.005
8.780,0.060,-0.010
8.782,0.000,-0.010
8.784,-0.085,-0.010
8.786,-0.155,-0.015
8.788,-0.195,-0.015
8.790,-0.205,-0.015
8.792,-0.135,-0.010
8.794,-0.080,-0.005
8.796,0.020,-0.005
8.798,0.050,0.000
8.800,0.035,0.000
8.802,-0.020,0.000
8.804,-0.115,-0.005
8.806,-0.210,-0.010
8.808,-0.240,-0.015
8.810,-0.225,-0.025
8.812,-0.145,-0.030
8.814,-0.085,-0.035
8.816,-0.010,-0.040
8.818,0.040,-0.040
8.820,0.015,-0.035
8.822,-0.045,-0.035
8.824,-0.135,-0.030
8.826,-0.220,-0.025
8.828,-0.240,-0.025
8.830,-0.220,-0.030
8.832,-0.150,-0.035
8.834,-0.080,-0.040
8.836,0.000,-0.050
8.838,0.020,-0.055
8.840,0.005,-0.055
8.842,-0.055,-0.055
8.844,-0.135,-0.055
8.846,-0.220,-0.050
8.848,-0.245,-0.045
8.850,-0.215,-0.035
8.852,-0.170,-0.030
8.854,-0.060,-0.025
8.856,0.015,-0.025
8.858,0.025,-0.020
8.860,0.005,-0.020
8.862,-0.065,-0.020
8.864,-0.165,-0.025
8.866,-0.235,-0.030
8.868,-0.255,-0.035
8.870,-0.250,-0.045
8.872,-0.180,-0.050
8.874,-0.080,-0.060
8.876,-0.010,-0.065
8.878,0.005,-0.060
8.880,-0.010,-0.050
8.882,-0.040,-0.025
8.884,-0.125,0.005
8.886,-0.155,0.050
8.888,-0.090,0.105
8.890,0.005,0.170
8.892,0.135,0.230
8.894,0.325,0.290
8.896,0.460,0.340
8.898,0.510,0.375
8.900,0.485,0.390
8.902,0.375,0.385
8.904,0.175,0.355
8.906,0.030,0.310
8.908,-0.005,0.245
8.910,0.005,0.165
8.912,-0.015,0.085
8.914,0.000,0.010
8.916,-0.050,-0.055
8.918,-0.100,-0.110
8.920,-0.145,-0.145
8.922,-0.170,-0.160
8.924,-0.280,-0.160
8.926,-0.325,-0.150
8.928,-0.325,-0.130
8.930,-0.270,-0.110
8.932,-0.215,-0.095
8.934,-0.085,-0.080
8.936,-0.040,-0.075
8.938,0.020,-0.070
8.940,-0.010,-0.065
8.942,-0.060,-0.065
8.944,-0.175,-0.060
8.946,-0.235,-0.050
8.948,-0.240,-0.040
8.950,-0.185,-0.030
8.952,-0.150,-0.020
8.954,-0.020,-0.015
8.956,0.035,-0.010
8.958,0.055,-0.015
8.960,0.020,-0.020
8.962,-0.040,-0.025
8.964,-0.185,-0.030
8.966,-0.210,-0.035
8.968,-0.225,-0.035
8.970,-0.190,-0.035
8.972,-0.105,-0.035
8.974,0.005,-0.030
8.976,0.035,-0.025
8.978,0.050,-0.020
8.980,0.005,-0.020
8.982,-0.055,-0.020
8.984,-0.170,-0.020
8.986,-0.210,-0.020
8.988,-0.205,-0.020
8.990,-0.155,-0.020
8.992,-0.095,-0.020
8.994,0.005,-0.015
8.996,0.055,-0.015
8.998,0.060,-0.010
9.000,0.010,-0.010
9.002,-0.045,-0.005
9.004,-0.155,0.000
9.006,-0.205,0.000
9.008,-0.220,0.000
9.010,-0.165,0.005
9.012,-0.085,0.005
9.014,0.035,0.010
9.016,0.080,0.010
9.018,0.075,0.005
9.020,0.025,0.005
9.022,-0.050,0.000
9.024,-0.160,-0.005
9.026,-0.205,-0.005
9.028,-0.200,-0.010
9.030,-0.140,-0.010
9.032,-0.055,-0.010
9.034,0.045,-0.005
9.036,0.065,0.000
9.038,0.080,0.010
9.040,0.015,0.020
9.042,-0.065,0.025
9.044,-0.155,0.030
9.046,-0.205,0.035
9.048,-0.195,0.030
9.050,-0.135,0.025
9.052,-0.060,0.015
9.054,0.045,0.010
9.056,0.070,0.000
9.058,0.075,-0.005
9.060,0.030,-0.005
9.062,-0.050,-0.005
9.064,-0.140,0.005
9.066,-0.160,0.015
9.068,-0.140,0.030
9.070,-0.090,0.045
9.072,0.005,0.055
9.074,0.085,0.065
9.076,0.125,0.070
9.078,0.130,0.070
9.080,0.065,0.070
9.082,-0.020,0.065
9.084,-0.120,0.065
9.086,-0.155,0.060
9.088,-0.135,0.060
9.090,-0.055,0.060
9.092,0.045,0.060
9.094,0.115,0.065
9.096,0.170,0.075
9.098,0.160,0.080
9.100,0.100,0.090
9.102,0.010,0.100
9.104,-0.055,0.110
9.106,-0.100,0.120
9.108,-0.065,0.125
9.110,0.000,0.130
9.112,0.110,0.135
9.114,0.185,0.135
9.116,0.205,0.135
9.118,0.185,0.135
9.120,0.130,0.140
9.122,0.055,0.140
9.124,-0.025,0.145
9.126,-0.045,0.150
9.128,-0.010,0.160
9.130,0.035,0.165
9.132,0.135,0.170
9.134,0.220,0.175
9.136,0.250,0.180
9.138,0.220,0.180
9.140,0.165,0.175
9.142,0.050,0.175
9.144,-0.015,0.170
9.146,-0.045,0.165
9.148,-0.010,0.160
9.150,0.035,0.155
9.152,0.125,0.150
9.154,0.180,0.145
9.156,0.205,0.135
9.158,0.175,0.130
9.160,0.105,0.120
9.162,0.000,0.115
9.164,-0.090,0.105
9.166,-0.120,0.100
9.168,-0.085,0.090
9.170,-0.045,0.080
9.172,0.060,0.070
9.174,0.115,0.060
9.176,0.135,0.045
9.178,0.080,0.035
9.180,0.000,0.025
9.182,-0.120,0.020
9.184,-0.180,0.010
9.186,-0.195,0.010
9.188,-0.175,0.005
9.190,-0.125,0.005
9.192,-0.015,0.005
9.194,0.050,0.000
9.196,0.050,0.000
9.198,0.010,-0.005
9.200,-0.035,-0.010
9.202,-0.165,-0.020
9.204,-0.225,-0.025
9.206,-0.235,-0.025
9.208,-0.215,-0.030
9.210,-0.145,-0.030
9.212,-0.015,-0.025
9.214,0.025,-0.025
9.216,0.025,-0.025
9.218,-0.020,-0.025
9.220,-0.070,-0.025
9.222,-0.180,-0.030
9.224,-0.240,-0.035
9.226,-0.240,-0.040
9.228,-0.220,-0.045
9.230,-0.160,-0.050
9.232,-0.030,-0.050
9.234,0.025,-0.050
9.236,0.040,-0.045
9.238,-0.015,-0.045
9.240,-0.070,-0.040
9.242,-0.195,-0.040
9.244,-0.235,-0.040
9.246,-0.260,-0.035
9.248,-0.210,-0.035
9.250,-0.135,-0.035
9.252,-0.030,-0.035
9.254,0.030,-0.030
9.256,0.035,-0.030
9.258,-0.025,-0.030
9.260,-0.080,-0.035
9.262,-0.190,-0.035
9.264,-0.260,-0.040
9.266,-0.260,-0.050
9.268,-0.205,-0.055
9.270,-0.140,-0.060
9.272,-0.030,-0.065
9.274,0.025,-0.065
9.276,0.035,-0.060
9.278,-0.005,-0.055
9.280,-0.085,-0.050
9.282,-0.195,-0.040
9.284,-0.235,-0.035
9.286,-0.245,-0.030
9.288,-0.205,-0.030
9.290,-0.135,-0.030
9.292,-0.035,-0.035
9.294,0.020,-0.045
9.296,0.040,-0.050
9.298,-0.025,-0.055
9.300,-0.100,-0.055
9.302,-0.205,-0.055
9.304,-0.245,-0.055
9.306,-0.245,-0.045
9.308,-0.190,-0.040
9.310,-0.125,-0.035
9.312,0.000,-0.030
9.314,0.030,-0.025
9.316,0.025,-0.025
9.318,-0.015,-0.025
9.320,-0.100,-0.030
9.322,-0.195,-0.030
9.324,-0.240,-0.035
9.326,-0.250,-0.035
9.328,-0.180,-0.040
9.330,-0.095,-0.040
9.332,-0.005,-0.040
9.334,0.020,-0.040
9.336,0.020,-0.040
9.338,-0.040,-0.040
9.340,-0.105,-0.040
9.342,-0.205,-0.040
9.344,-0.240,-0.040
9.346,-0.225,-0.040
9.348,-0.165,-0.040
9.350,-0.090,-0.040
9.352,-0.005,-0.035
9.354,0.030,-0.035
9.356,0.035,-0.030
9.358,-0.040,-0.030
9.360,-0.125,-0.030
9.362,-0.210,-0.030
9.364,-0.230,-0.030
9.366,-0.215,-0.025
9.368,-0.175,-0.025
9.370,-0.075,-0.025
9.372,0.000,-0.025
9.374,0.035,-0.025
9.376,0.010,-0.025
9.378,-0.035,-0.025
9.380,-0.130,-0.025
9.382,-0.210,-0.025
9.384,-0.255,-0.030
9.386,-0.220,-0.030
9.388,-0.155,-0.030
9.390,-0.075,-0.030
9.392,-0.010,-0.025
9.394,0.030,-0.025
9.396,0.015,-0.020
9.398,-0.045,-0.020
9.400,-0.130,-0.015
9.402,-0.210,-0.015
9.404,-0.250,-0.020
9.406,-0.230,-0.020
9.408,-0.165,-0.025
9.410,-0.070,-0.030
9.412,0.005,-0.030
9.414,0.035,-0.035
9.416,0.020,-0.035
9.418,-0.040,-0.040
9.420,-0.150,-0.040
9.422,-0.220,-0.040
9.424,-0.240,-0.035
9.426,-0.195,-0.035
9.428,-0.155,-0.035
9.430,-0.055,-0.035
9.432,0.025,-0.035
9.434,0.040,-0.035
9.436,-0.005,-0.030
9.438,-0.055,-0.030
9.440,-0.150,-0.030
9.442,-0.235,-0.030
9.444,-0.255,-0.030
9.446,-0.220,-0.030
9.448,-0.165,-0.035
9.450,-0.055,-0.035
9.452,0.015,-0.040
9.454,0.035,-0.045
9.456,0.010,-0.045
9.458,-0.050,-0.045
9.460,-0.155,-0.040
9.462,-0.215,-0.035
9.464,-0.240,-0.030
9.466,-0.210,-0.025
9.468,-0.155,-0.020
9.470,-0.025,-0.015
9.472,0.025,-0.015
9.474,0.040,-0.015
9.476,-0.005,-0.015
9.478,-0.075,-0.020
9.480,-0.165,-0.020
9.482,-0.230,-0.025
9.484,-0.230,-0.030
9.486,-0.190,-0.030
9.488,-0.160,-0.035
9.490,-0.035,-0.035
9.492,0.025,-0.040
9.494,0.045,-0.040
9.496,-0.010,-0.040
9.498,-0.060,-0.040
9.500,-0.175,-0.035
9.502,-0.230,-0.030
9.504,-0.245,-0.030
9.506,-0.215,-0.025
9.508,-0.150,-0.025
9.510,-0.025,-0.025
9.512,0.015,-0.025
9.514,0.035,-0.030
9.516,0.000,-0.030
9.518,-0.065,-0.035
9.520,-0.170,-0.040
9.522,-0.220,-0.040
9.524,-0.245,-0.035
9.526,-0.195,-0.030
9.528,-0.125,-0.025
9.530,-0.015,-0.020
9.532,0.030,-0.020
9.534,0.030,-0.020
9.536,-0.015,-0.025
9.538,-0.080,-0.030
9.540,-0.195,-0.040
9.542,-0.225,-0.045
9.544,-0.220,-0.050
9.546,-0.190,-0.050
9.548,-0.105,-0.045
9.550,0.000,-0.035
9.552,0.050,-0.025
9.554,0.070,-0.015
9.556,0.000,-0.005
9.558,-0.055,0.000
9.560,-0.160,0.000
9.562,-0.215,-0.005
9.564,-0.210,-0.010
9.566,-0.145,-0.015
9.568,-0.100,-0.015
9.570,0.015,-0.020
9.572,0.050,-0.015
9.574,0.075,-0.010
9.576,0.005,-0.005
9.578,-0.060,0.000
9.580,-0.160,0.005
9.582,-0.200,0.005
9.584,-0.210,0.005
9.586,-0.145,0.000
9.588,-0.075,-0.005
9.590,0.030,-0.010
9.592,0.070,-0.015
9.594,0.060,-0.015
9.596,-0.005,-0.020
9.598,-0.080,-0.020
9.600,-0.190,-0.020
9.602,-0.235,-0.020
9.604,-0.225,-0.020
9.606,-0.165,-0.025
9.608,-0.085,-0.025
9.610,0.005,-0.030
9.612,0.040,-0.035
9.614,0.020,-0.040
9.616,-0.040,-0.045
9.618,-0.120,-0.050
9.620,-0.210,-0.050
9.622,-0.250,-0.050
9.624,-0.240,-0.045
9.626,-0.175,-0.040
9.628,-0.090,-0.040
9.630,0.000,-0.035
9.632,0.035,-0.035
9.634,0.035,-0.035
9.636,-0.045,-0.035
9.638,-0.135,-0.040
9.640,-0.235,-0.050
9.642,-0.265,-0.055
9.644,-0.240,-0.060
9.646,-0.190,-0.065
9.648,-0.090,-0.065
9.650,0.000,-0.065
9.652,0.015,-0.065
9.654,0.025,-0.060
9.656,-0.050,-0.055
9.658,-0.135,-0.050
9.660,-0.225,-0.050
9.662,-0.250,-0.050
9.664,-0.230,-0.050
9.666,-0.180,-0.050
9.668,-0.075,-0.050
9.670,0.000,-0.050
9.672,0.015,-0.050
9.674,-0.005,-0.045
9.676,-0.070,-0.045
9.678,-0.165,-0.050
9.680,-0.245,-0.050
9.682,-0.265,-0.055
9.684,-0.245,-0.055
9.686,-0.180,-0.050
9.688,-0.055,-0.035
9.690,0.045,-0.005
9.692,0.135,0.040
9.694,0.170,0.095
9.696,0.185,0.165
9.698,0.160,0.235
9.700,0.160,0.305
9.702,0.210,0.360
9.704,0.255,0.390
9.706,0.295,0.400
9.708,0.355,0.380
9.710,0.315,0.340
9.712,0.285,0.275
9.714,0.250,0.200
9.716,0.130,0.120
9.718,-0.040,0.045
9.720,-0.210,-0.020
9.722,-0.340,-0.075
9.724,-0.350,-0.115
9.726,-0.290,-0.140
9.728,-0.190,-0.155
9.730,-0.095,-0.160
9.732,-0.060,-0.160
9.734,-0.095,-0.155
9.736,-0.150,-0.145
9.738,-0.250,-0.130
9.740,-0.285,-0.110
9.742,-0.295,-0.095
9.744,-0.235,-0.075
9.746,-0.170,-0.060
9.748,-0.040,-0.045
9.750,0.015,-0.035
9.752,0.050,-0.030
9.754,0.020,-0.030
9.756,-0.050,-0.030
9.758,-0.150,-0.035
9.760,-0.215,-0.035
9.762,-0.215,-0.035
9.764,-0.180,-0.030
9.766,-0.120,-0.025
9.768,-0.025,-0.025
9.770,0.050,-0.020
9.772,0.060,-0.015
9.774,0.030,-0.015
9.776,-0.030,-0.020
9.778,-0.135,-0.020
9.780,-0.195,-0.020
9.782,-0.210,-0.020
9.784,-0.170,-0.015
9.786,-0.110,-0.015
9.788,0.010,-0.010
9.790,0.050,-0.005
9.792,0.070,0.000
9.794,0.030,0.000
9.796,-0.020,0.005
9.798,-0.135,0.000
9.800,-0.200,0.000
9.802,-0.220,0.000
9.804,-0.165,0.000
9.806,-0.110,0.000
9.808,0.015,-0.005
9.810,0.070,-0.005
9.812,0.070,-0.005
9.814,0.030,-0.010
9.816,-0.030,-0.015
9.818,-0.145,-0.015
9.820,-0.205,-0.020
9.822,-0.195,-0.015
9.824,-0.155,-0.010
9.826,-0.090,-0.005
9.828,0.035,0.005
9.830,0.090,0.015
9.832,0.095,0.020
9.834,0.030,0.025
9.836,-0.020,0.025
9.838,-0.135,0.025
9.840,-0.190,0.015
9.842,-0.175,0.010
9.844,-0.115,0.005
9.846,-0.060,0.000
9.848,0.040,0.005
9.850,0.090,0.005
9.852,0.105,0.015
9.854,0.045,0.020
9.856,-0.010,0.025
9.858,-0.115,0.030
9.860,-0.175,0.035
9.862,-0.160,0.035
9.864,-0.090,0.035
9.866,-0.030,0.030
9.868,0.075,0.030
9.870,0.120,0.025
9.872,0.105,0.025
9.874,0.060,0.030
9.876,-0.015,0.030
9.878,-0.095,0.030
9.880,-0.140,0.035
9.882,-0.130,0.035
9.884,-0.075,0.035
9.886,0.010,0.040
9.888,0.100,0.045
9.890,0.145,0.055
9.892,0.150,0.065
9.894,0.095,0.075
9.896,0.045,0.090
9.898,-0.045,0.100
9.900,-0.085,0.110
9.902,-0.085,0.115
9.904,-0.020,0.120
9.906,0.070,0.120
9.908,0.160,0.120
9.910,0.190,0.115
9.912,0.190,0.115
9.914,0.130,0.115
9.916,0.045,0.120
9.918,-0.015,0.125
9.920,-0.055,0.135
9.922,-0.035,0.140
9.924,0.035,0.150
9.926,0.110,0.155
9.928,0.210,0.160
9.930,0.245,0.165
9.932,0.240,0.170
9.934,0.185,0.175
9.936,0.100,0.180
9.938,0.015,0.180
9.940,-0.015,0.185
9.942,-0.005,0.185
9.944,0.050,0.190
9.946,0.145,0.190
9.948,0.230,0.190
9.950,0.250,0.190
9.952,0.260,0.185
9.954,0.190,0.185
9.956,0.095,0.180
9.958,-0.005,0.175
9.960,-0.035,0.175
9.962,-0.020,0.170
9.964,0.035,0.165
9.966,0.135,0.155
9.968,0.185,0.150
9.970,0.215,0.140
9.972,0.185,0.135
9.974,0.095,0.125
9.976,-0.005,0.115
9.978,-0.085,0.105
9.980,-0.120,0.090
9.982,-0.120,0.080
9.984,-0.075,0.065
9.986,0.035,0.055
9.988,0.095,0.040
9.990,0.115,0.025
9.992,0.075,0.015
9.994,-0.005,0.010
9.996,-0.105,0.005
9.998,-0.185,0.000
