'Elapsed time','ECG I','ECG I filtered'
'seconds','mV','mV'
0.000,-0.060,-0.165
0.002,-0.035,-0.160
0.004,0.040,-0.140
0.006,0.050,-0.120
0.008,0.025,-0.085
0.010,0.070,-0.040
0.012,0.110,0.020
0.014,0.115,0.085
0.016,0.230,0.150
0.018,0.360,0.210
0.020,0.455,0.255
0.022,0.480,0.280
0.024,0.485,0.280
0.026,0.400,0.250
0.028,0.260,0.195
0.030,0.150,0.125
0.032,0.115,0.035
0.034,-0.025,-0.050
0.036,-0.080,-0.135
0.038,-0.160,-0.205
0.040,-0.205,-0.255
0.042,-0.170,-0.290
0.044,-0.125,-0.305
0.046,-0.130,-0.310
0.048,-0.130,-0.300
0.050,-0.200,-0.290
0.052,-0.220,-0.275
0.054,-0.235,-0.260
0.056,-0.205,-0.245
0.058,-0.140,-0.225
0.060,-0.050,-0.210
0.062,-0.005,-0.185
0.064,0.055,-0.165
0.066,0.025,-0.145
0.068,0.010,-0.125
0.070,-0.055,-0.110
0.072,-0.060,-0.100
0.074,-0.105,-0.095
0.076,-0.060,-0.090
0.078,-0.005,-0.090
0.080,0.045,-0.090
0.082,0.085,-0.090
0.084,0.085,-0.090
0.086,0.080,-0.090
0.088,0.020,-0.085
0.090,0.010,-0.085
0.092,-0.020,-0.085
0.094,-0.080,-0.085
0.096,-0.040,-0.085
0.098,0.015,-0.085
0.100,0.045,-0.085
0.102,0.085,-0.080
0.104,0.130,-0.075
0.106,0.110,-0.070
0.108,0.065,-0.060
0.110,0.005,-0.055
0.112,-0.050,-0.050
0.114,-0.045,-0.045
0.116,0.000,-0.045
0.118,0.035,-0.045
0.120,0.090,-0.050
0.122,0.095,-0.050
0.124,0.145,-0.055
0.126,0.110,-0.050
0.128,0.035,-0.050
0.130,0.015,-0.045
0.132,0.010,-0.040
0.134,-0.025,-0.035
0.136,-0.005,-0.030
0.138,0.080,-0.030
0.140,0.115,-0.025
0.142,0.115,-0.025
0.144,0.145,-0.025
0.146,0.125,-0.025
0.148,0.085,-0.020
0.150,0.035,-0.020
0.152,0.045,-0.015
0.154,0.020,-0.010
0.156,0.055,-0.010
0.158,0.080,-0.005
0.160,0.125,-0.005
0.162,0.125,-0.005
0.164,0.175,-0.005
0.166,0.155,-0.005
0.168,0.115,-0.005
0.170,0.080,0.000
0.172,0.045,0.005
0.174,0.040,0.010
0.176,0.085,0.020
0.178,0.120,0.030
0.180,0.195,0.040
0.182,0.190,0.050
0.184,0.230,0.060
0.186,0.200,0.065
0.188,0.145,0.075
0.190,0.135,0.080
0.192,0.115,0.080
0.194,0.100,0.085
0.196,0.165,0.090
0.198,0.215,0.090
0.200,0.250,0.095
0.202,0.270,0.100
0.204,0.280,0.105
0.206,0.270,0.110
0.208,0.240,0.115
0.210,0.175,0.120
0.212,0.175,0.130
0.214,0.170,0.135
0.216,0.215,0.145
0.218,0.270,0.155
0.220,0.300,0.160
0.222,0.315,0.165
0.224,0.345,0.165
0.226,0.295,0.165
0.228,0.230,0.165
0.230,0.200,0.155
0.232,0.165,0.150
0.234,0.190,0.140
0.236,0.235,0.135
0.238,0.245,0.130
0.240,0.275,0.125
0.242,0.285,0.125
0.244,0.295,0.125
0.246,0.255,0.125
0.248,0.195,0.125
0.250,0.160,0.120
0.252,0.130,0.115
0.254,0.120,0.100
0.256,0.135,0.085
0.258,0.185,0.070
0.260,0.220,0.050
0.262,0.195,0.035
0.264,0.190,0.025
0.266,0.160,0.015
0.268,0.115,0.010
0.270,0.045,0.010
0.272,-0.005,0.005
0.274,0.005,0.000
0.276,0.040,-0.005
0.278,0.090,-0.015
0.280,0.105,-0.025
0.282,0.145,-0.035
0.284,0.130,-0.045
0.286,0.080,-0.055
0.288,0.040,-0.055
0.290,0.010,-0.055
0.292,-0.060,-0.055
0.294,0.000,-0.050
0.296,0.020,-0.050
0.298,0.090,-0.050
0.300,0.075,-0.050
0.302,0.110,-0.055
0.304,0.095,-0.060
0.306,0.050,-0.070
0.308,0.010,-0.075
0.310,0.005,-0.080
0.312,-0.060,-0.085
0.314,-0.035,-0.080
0.316,0.015,-0.080
0.318,0.045,-0.070
0.320,0.080,-0.065
0.322,0.135,-0.060
0.324,0.115,-0.055
0.326,0.060,-0.055
0.328,-0.015,-0.055
0.330,-0.030,-0.055
0.332,-0.050,-0.055
0.334,0.005,-0.060
0.336,0.035,-0.060
0.338,0.080,-0.055
0.340,0.075,-0.055
0.342,0.115,-0.055
0.344,0.100,-0.055
0.346,0.065,-0.050
0.348,0.025,-0.050
0.350,0.000,-0.055
0.352,-0.015,-0.055
0.354,-0.010,-0.055
0.356,0.025,-0.055
0.358,0.085,-0.060
0.360,0.075,-0.060
0.362,0.120,-0.060
0.364,0.105,-0.060
0.366,0.085,-0.060
0.368,0.045,-0.060
0.370,0.020,-0.055
0.372,-0.025,-0.055
0.374,-0.005,-0.055
0.376,0.045,-0.050
0.378,0.095,-0.050
0.380,0.125,-0.050
0.382,0.160,-0.050
0.384,0.125,-0.045
0.386,0.090,-0.045
0.388,0.050,-0.045
0.390,0.015,-0.040
0.392,-0.020,-0.035
0.394,0.020,-0.030
0.396,0.055,-0.025
0.398,0.090,-0.020
0.400,0.105,-0.020
0.402,0.155,-0.020
0.404,0.130,-0.020
0.406,0.095,-0.025
0.408,0.040,-0.035
0.410,0.020,-0.040
0.412,-0.015,-0.045
0.414,0.020,-0.050
0.416,0.060,-0.050
0.418,0.115,-0.045
0.420,0.125,-0.045
0.422,0.155,-0.040
0.424,0.100,-0.040
0.426,0.080,-0.040
0.428,0.050,-0.040
0.430,-0.005,-0.045
0.432,-0.030,-0.050
0.434,0.000,-0.055
0.436,0.025,-0.055
0.438,0.095,-0.060
0.440,0.115,-0.055
0.442,0.140,-0.050
0.444,0.110,-0.050
0.446,0.075,-0.045
0.448,0.025,-0.045
0.450,0.025,-0.045
0.452,-0.030,-0.050
0.454,0.010,-0.050
0.456,0.035,-0.055
0.458,0.100,-0.055
0.460,0.110,-0.060
0.462,0.140,-0.060
0.464,0.125,-0.055
0.466,0.055,-0.055
0.468,0.005,-0.055
0.470,-0.005,-0.055
0.472,0.010,-0.055
0.474,0.040,-0.055
0.476,0.045,-0.055
0.478,0.080,-0.055
0.480,0.110,-0.055
0.482,0.140,-0.055
0.484,0.115,-0.050
0.486,0.075,-0.050
0.488,0.030,-0.050
0.490,0.005,-0.055
0.492,-0.030,-0.055
0.494,0.015,-0.055
0.496,0.075,-0.055
0.498,0.130,-0.055
0.500,0.130,-0.050
0.502,0.175,-0.040
0.504,0.115,-0.030
0.506,0.040,-0.020
0.508,0.065,-0.015
0.510,0.030,-0.005
0.512,0.015,-0.005
0.514,0.055,-0.005
0.516,0.080,-0.010
0.518,0.125,-0.015
0.520,0.145,-0.020
0.522,0.175,-0.030
0.524,0.155,-0.035
0.526,0.070,-0.040
0.528,0.025,-0.040
0.530,0.015,-0.040
0.532,0.030,-0.040
0.534,0.070,-0.035
0.536,0.125,-0.035
0.538,0.170,-0.030
0.540,0.165,-0.025
0.542,0.175,-0.020
0.544,0.135,-0.010
0.546,0.105,-0.005
0.548,0.065,-0.005
0.550,0.035,0.000
0.552,0.030,0.000
0.554,0.070,-0.005
0.556,0.110,-0.015
0.558,0.130,-0.025
0.560,0.175,-0.035
0.562,0.145,-0.045
0.564,0.120,-0.055
0.566,0.050,-0.060
0.568,0.020,-0.060
0.570,-0.010,-0.060
0.572,-0.005,-0.055
0.574,0.020,-0.050
0.576,0.080,-0.045
0.578,0.115,-0.045
0.580,0.135,-0.045
0.582,0.120,-0.050
0.584,0.085,-0.055
0.586,0.040,-0.065
0.588,0.015,-0.070
0.590,-0.035,-0.075
0.592,-0.015,-0.075
0.594,0.055,-0.075
0.596,0.080,-0.070
0.598,0.090,-0.065
0.600,0.150,-0.065
0.602,0.145,-0.065
0.604,0.075,-0.065
0.606,0.030,-0.070
0.608,0.010,-0.075
0.610,-0.030,-0.080
0.612,0.020,-0.080
0.614,0.020,-0.080
0.616,0.085,-0.075
0.618,0.090,-0.075
0.620,0.125,-0.070
0.622,0.105,-0.070
0.624,0.050,-0.075
0.626,0.000,-0.085
0.628,-0.035,-0.100
0.630,-0.090,-0.110
0.632,-0.055,-0.115
0.634,-0.010,-0.105
0.636,0.085,-0.085
0.638,0.120,-0.045
0.640,0.220,0.010
0.642,0.280,0.080
0.644,0.335,0.155
0.646,0.365,0.235
0.648,0.415,0.300
0.650,0.460,0.350
0.652,0.520,0.375
0.654,0.505,0.370
0.656,0.520,0.340
0.658,0.370,0.285
0.660,0.350,0.215
0.662,0.330,0.125
0.664,0.200,0.035
0.666,0.050,-0.050
0.668,-0.055,-0.130
0.670,-0.215,-0.195
0.672,-0.180,-0.240
0.674,-0.160,-0.270
0.676,-0.100,-0.280
0.678,-0.060,-0.275
0.680,-0.010,-0.265
0.682,-0.025,-0.240
0.684,-0.050,-0.215
0.686,-0.085,-0.185
0.688,-0.060,-0.160
0.690,-0.085,-0.135
0.692,-0.025,-0.115
0.694,0.030,-0.100
0.696,0.110,-0.085
0.698,0.125,-0.075
0.700,0.175,-0.065
0.702,0.135,-0.055
0.704,0.110,-0.050
0.706,0.045,-0.045
0.708,0.035,-0.040
0.710,0.015,-0.035
0.712,0.070,-0.030
0.714,0.095,-0.030
0.716,0.130,-0.030
0.718,0.185,-0.030
0.720,0.205,-0.030
0.722,0.160,-0.035
0.724,0.130,-0.035
0.726,0.090,-0.035
0.728,0.090,-0.035
0.730,0.020,-0.035
0.732,0.070,-0.025
0.734,0.120,-0.020
0.736,0.165,-0.015
0.738,0.180,-0.010
0.740,0.215,-0.010
0.742,0.190,-0.010
0.744,0.150,-0.010
0.746,0.115,-0.015
0.748,0.095,-0.020
0.750,0.070,-0.020
0.752,0.090,-0.020
0.754,0.120,-0.015
0.756,0.180,-0.010
0.758,0.190,-0.005
0.760,0.220,-0.005
0.762,0.185,-0.005
0.764,0.145,-0.005
0.766,0.115,-0.010
0.768,0.115,-0.010
0.770,0.060,-0.015
0.772,0.120,-0.015
0.774,0.155,-0.010
0.776,0.190,-0.005
0.778,0.220,0.005
0.780,0.250,0.010
0.782,0.205,0.015
0.784,0.175,0.020
0.786,0.145,0.020
0.788,0.130,0.020
0.790,0.095,0.015
0.792,0.135,0.015
0.794,0.185,0.015
0.796,0.235,0.020
0.798,0.265,0.030
0.800,0.295,0.045
0.802,0.260,0.060
0.804,0.220,0.075
0.806,0.170,0.085
0.808,0.175,0.090
0.810,0.160,0.095
0.812,0.200,0.090
0.814,0.270,0.085
0.816,0.305,0.080
0.818,0.335,0.080
0.820,0.335,0.085
0.822,0.300,0.095
0.824,0.260,0.110
0.826,0.265,0.125
0.828,0.225,0.140
0.830,0.245,0.155
0.832,0.280,0.165
0.834,0.335,0.170
0.836,0.385,0.175
0.838,0.400,0.175
0.840,0.390,0.175
0.842,0.360,0.180
0.844,0.310,0.180
0.846,0.315,0.190
0.848,0.280,0.195
0.850,0.295,0.200
0.852,0.335,0.210
0.854,0.380,0.210
0.856,0.415,0.210
0.858,0.435,0.205
0.860,0.405,0.200
0.862,0.375,0.195
0.864,0.330,0.185
0.866,0.315,0.180
0.868,0.250,0.175
0.870,0.275,0.170
0.872,0.305,0.170
0.874,0.355,0.170
0.876,0.375,0.170
0.878,0.415,0.165
0.880,0.385,0.165
0.882,0.320,0.160
0.884,0.300,0.150
0.886,0.245,0.145
0.888,0.200,0.135
0.890,0.200,0.120
0.892,0.230,0.105
0.894,0.255,0.090
0.896,0.270,0.075
0.898,0.310,0.060
0.900,0.285,0.050
0.902,0.210,0.035
0.904,0.160,0.025
0.906,0.135,0.020
0.908,0.085,0.015
0.910,0.130,0.015
0.912,0.160,0.010
0.914,0.195,0.010
0.916,0.185,0.010
0.918,0.270,0.005
0.920,0.190,0.000
0.922,0.165,-0.005
0.924,0.130,-0.010
0.926,0.090,-0.020
0.928,0.055,-0.025
0.930,0.070,-0.030
0.932,0.125,-0.030
0.934,0.170,-0.035
0.936,0.205,-0.035
0.938,0.230,-0.040
0.940,0.170,-0.040
0.942,0.160,-0.045
0.944,0.055,-0.050
0.946,0.060,-0.055
0.948,0.020,-0.060
0.950,0.065,-0.065
0.952,0.085,-0.065
0.954,0.155,-0.065
0.956,0.170,-0.060
0.958,0.210,-0.055
0.960,0.175,-0.050
0.962,0.145,-0.045
0.964,0.085,-0.040
0.966,0.090,-0.035
0.968,0.055,-0.035
0.970,0.095,-0.040
0.972,0.120,-0.045
0.974,0.170,-0.045
0.976,0.180,-0.050
0.978,0.210,-0.050
0.980,0.200,-0.050
0.982,0.170,-0.045
0.984,0.100,-0.040
0.986,0.100,-0.035
0.988,0.055,-0.030
0.990,0.100,-0.030
0.992,0.110,-0.030
0.994,0.195,-0.030
0.996,0.185,-0.035
0.998,0.220,-0.035
1.000,0.200,-0.040
1.002,0.185,-0.040
1.004,0.100,-0.040
1.006,0.085,-0.040
1.008,0.055,-0.035
1.010,0.120,-0.030
1.012,0.160,-0.020
1.014,0.200,-0.020
1.016,0.185,-0.015
1.018,0.230,-0.015
1.020,0.210,-0.020
1.022,0.160,-0.025
1.024,0.135,-0.030
1.026,0.110,-0.035
1.028,0.080,-0.035
1.030,0.115,-0.035
1.032,0.165,-0.030
1.034,0.190,-0.025
1.036,0.190,-0.020
1.038,0.235,-0.010
1.040,0.210,-0.010
1.042,0.165,-0.005
1.044,0.120,-0.010
1.046,0.095,-0.015
1.048,0.060,-0.025
1.050,0.110,-0.030
1.052,0.155,-0.040
1.054,0.205,-0.040
1.056,0.210,-0.040
1.058,0.265,-0.040
1.060,0.195,-0.035
1.062,0.140,-0.030
1.064,0.115,-0.025
1.066,0.090,-0.025
1.068,0.080,-0.025
1.070,0.085,-0.030
1.072,0.155,-0.035
1.074,0.220,-0.045
1.076,0.195,-0.050
1.078,0.230,-0.050
1.080,0.200,-0.055
1.082,0.140,-0.050
1.084,0.095,-0.050
1.086,0.070,-0.045
1.088,0.075,-0.045
1.090,0.105,-0.045
1.092,0.140,-0.045
1.094,0.195,-0.045
1.096,0.210,-0.050
1.098,0.215,-0.055
1.100,0.210,-0.055
1.102,0.145,-0.055
1.104,0.095,-0.055
1.106,0.095,-0.050
1.108,0.070,-0.050
1.110,0.105,-0.045
1.112,0.165,-0.045
1.114,0.205,-0.045
1.116,0.200,-0.045
1.118,0.215,-0.045
1.120,0.200,-0.050
1.122,0.135,-0.050
1.124,0.090,-0.050
1.126,0.075,-0.050
1.128,0.100,-0.045
1.130,0.115,-0.040
1.132,0.190,-0.035
1.134,0.215,-0.030
1.136,0.235,-0.025
1.138,0.235,-0.020
1.140,0.195,-0.015
1.142,0.170,-0.015
1.144,0.125,-0.015
1.146,0.090,-0.015
1.148,0.090,-0.015
1.150,0.155,-0.015
1.152,0.225,-0.015
1.154,0.255,-0.015
1.156,0.290,-0.015
1.158,0.255,-0.010
1.160,0.185,-0.010
1.162,0.170,-0.005
1.164,0.160,-0.005
1.166,0.105,-0.005
1.168,0.115,-0.005
1.170,0.165,-0.005
1.172,0.250,-0.010
1.174,0.245,-0.010
1.176,0.280,-0.015
1.178,0.260,-0.015
1.180,0.225,-0.010
1.182,0.200,-0.010
1.184,0.165,-0.005
1.186,0.095,0.000
1.188,0.135,0.000
1.190,0.165,-0.005
1.192,0.205,-0.010
1.194,0.210,-0.020
1.196,0.250,-0.030
1.198,0.215,-0.040
1.200,0.205,-0.045
1.202,0.135,-0.050
1.204,0.115,-0.050
1.206,0.085,-0.050
1.208,0.105,-0.045
1.210,0.170,-0.040
1.212,0.200,-0.035
1.214,0.195,-0.035
1.216,0.220,-0.035
1.218,0.205,-0.040
1.220,0.155,-0.050
1.222,0.110,-0.060
1.224,0.100,-0.065
1.226,0.060,-0.070
1.228,0.100,-0.070
1.230,0.135,-0.070
1.232,0.185,-0.065
1.234,0.220,-0.060
1.236,0.235,-0.055
1.238,0.210,-0.055
1.240,0.160,-0.055
1.242,0.110,-0.055
1.244,0.110,-0.055
1.246,0.060,-0.055
1.248,0.130,-0.055
1.250,0.150,-0.055
1.252,0.180,-0.055
1.254,0.175,-0.060
1.256,0.200,-0.065
1.258,0.155,-0.080
1.260,0.110,-0.095
1.262,0.070,-0.110
1.264,0.045,-0.120
1.266,-0.015,-0.125
1.268,0.045,-0.115
1.270,0.125,-0.090
1.272,0.220,-0.045
1.274,0.290,0.020
1.276,0.430,0.100
1.278,0.475,0.185
1.280,0.480,0.270
1.282,0.545,0.340
1.284,0.600,0.390
1.286,0.625,0.410
1.288,0.610,0.400
1.290,0.560,0.360
1.292,0.500,0.295
1.294,0.390,0.210
1.296,0.405,0.115
1.298,0.315,0.020
1.300,0.155,-0.070
1.302,0.035,-0.145
1.304,-0.095,-0.200
1.306,-0.165,-0.240
1.308,-0.160,-0.265
1.310,-0.085,-0.270
1.312,0.000,-0.265
1.314,0.030,-0.255
1.316,0.080,-0.235
1.318,0.085,-0.215
1.320,0.070,-0.195
1.322,0.045,-0.175
1.324,0.025,-0.155
1.326,0.000,-0.135
1.328,0.055,-0.115
1.330,0.115,-0.095
1.332,0.190,-0.080
1.334,0.205,-0.065
1.336,0.260,-0.050
1.338,0.215,-0.045
1.340,0.160,-0.040
1.342,0.140,-0.040
1.344,0.140,-0.040
1.346,0.095,-0.045
1.348,0.140,-0.050
1.350,0.185,-0.050
1.352,0.230,-0.045
1.354,0.250,-0.040
1.356,0.270,-0.030
1.358,0.240,-0.020
1.360,0.215,-0.015
1.362,0.170,-0.005
1.364,0.135,0.000
1.366,0.125,0.000
1.368,0.160,0.000
1.370,0.190,-0.005
1.372,0.265,-0.010
1.374,0.290,-0.015
1.376,0.265,-0.020
1.378,0.240,-0.025
1.380,0.190,-0.025
1.382,0.170,-0.020
1.384,0.140,-0.015
1.386,0.130,-0.010
1.388,0.175,-0.005
1.390,0.235,0.000
1.392,0.275,0.005
1.394,0.305,0.010
1.396,0.305,0.010
1.398,0.265,0.015
1.400,0.185,0.015
1.402,0.170,0.015
1.404,0.150,0.015
1.406,0.135,0.010
1.408,0.215,0.010
1.410,0.235,0.010
1.412,0.280,0.010
1.414,0.320,0.010
1.416,0.305,0.015
1.418,0.270,0.020
1.420,0.260,0.025
1.422,0.210,0.035
1.424,0.160,0.040
1.426,0.190,0.045
1.428,0.230,0.050
1.430,0.290,0.050
1.432,0.330,0.050
1.434,0.360,0.050
1.436,0.330,0.050
1.438,0.300,0.050
1.440,0.285,0.050
1.442,0.260,0.055
1.444,0.220,0.060
1.446,0.220,0.070
1.448,0.270,0.075
1.450,0.350,0.085
1.452,0.355,0.095
1.454,0.415,0.110
1.456,0.415,0.120
1.458,0.375,0.130
1.460,0.345,0.135
1.462,0.345,0.145
1.464,0.325,0.150
1.466,0.290,0.155
1.468,0.335,0.160
1.470,0.400,0.165
1.472,0.430,0.170
1.474,0.500,0.175
1.476,0.470,0.180
1.478,0.445,0.185
1.480,0.385,0.195
1.482,0.395,0.205
1.484,0.345,0.210
1.486,0.390,0.220
1.488,0.430,0.225
1.490,0.455,0.225
1.492,0.490,0.220
1.494,0.535,0.215
1.496,0.470,0.205
1.498,0.450,0.200
1.500,0.395,0.195
1.502,0.370,0.190
1.504,0.325,0.185
1.506,0.355,0.185
1.508,0.410,0.185
1.510,0.465,0.185
1.512,0.465,0.185
1.514,0.460,0.180
1.516,0.425,0.170
1.518,0.400,0.155
1.520,0.315,0.140
1.522,0.310,0.125
1.524,0.225,0.110
1.526,0.250,0.095
1.528,0.285,0.085
1.530,0.350,0.080
1.532,0.350,0.070
1.534,0.375,0.065
1.536,0.335,0.060
1.538,0.305,0.055
1.540,0.230,0.045
1.542,0.180,0.035
1.544,0.145,0.025
1.546,0.180,0.015
1.548,0.230,0.005
1.550,0.250,-0.005
1.552,0.265,-0.010
1.554,0.295,-0.020
1.556,0.260,-0.025
1.558,0.215,-0.025
1.560,0.170,-0.030
1.562,0.160,-0.035
1.564,0.115,-0.040
1.566,0.130,-0.040
1.568,0.160,-0.045
1.570,0.205,-0.040
1.572,0.240,-0.040
1.574,0.295,-0.035
1.576,0.270,-0.025
1.578,0.230,-0.020
1.580,0.170,-0.015
1.582,0.165,-0.010
1.584,0.125,-0.010
1.586,0.130,-0.015
1.588,0.175,-0.020
1.590,0.225,-0.030
1.592,0.230,-0.035
1.594,0.265,-0.040
1.596,0.220,-0.045
1.598,0.175,-0.050
1.600,0.160,-0.050
1.602,0.150,-0.045
1.604,0.120,-0.040
1.606,0.140,-0.035
1.608,0.195,-0.030
1.610,0.240,-0.025
1.612,0.270,-0.025
1.614,0.275,-0.025
1.616,0.235,-0.025
1.618,0.200,-0.030
1.620,0.150,-0.030
1.622,0.165,-0.035
1.624,0.105,-0.035
1.626,0.135,-0.035
1.628,0.190,-0.035
1.630,0.235,-0.035
1.632,0.245,-0.030
1.634,0.275,-0.025
1.636,0.245,-0.020
1.638,0.190,-0.020
1.640,0.160,-0.020
1.642,0.140,-0.020
1.644,0.115,-0.020
1.646,0.155,-0.025
1.648,0.195,-0.030
1.650,0.225,-0.035
1.652,0.250,-0.040
1.654,0.285,-0.040
1.656,0.245,-0.040
1.658,0.195,-0.040
1.660,0.160,-0.040
1.662,0.110,-0.035
1.664,0.115,-0.035
1.666,0.165,-0.030
1.668,0.215,-0.025
1.670,0.260,-0.025
1.672,0.270,-0.020
1.674,0.270,-0.020
1.676,0.245,-0.020
1.678,0.190,-0.020
1.680,0.185,-0.020
1.682,0.135,-0.020
1.684,0.145,-0.025
1.686,0.185,-0.030
1.688,0.240,-0.030
1.690,0.220,-0.035
1.692,0.270,-0.035
1.694,0.255,-0.030
1.696,0.220,-0.030
1.698,0.195,-0.025
1.700,0.155,-0.020
1.702,0.125,-0.020
1.704,0.145,-0.015
1.706,0.170,-0.015
1.708,0.220,-0.020
1.710,0.255,-0.020
1.712,0.280,-0.025
1.714,0.305,-0.030
1.716,0.225,-0.030
1.718,0.160,-0.035
1.720,0.140,-0.035
1.722,0.100,-0.035
1.724,0.120,-0.035
1.726,0.145,-0.030
1.728,0.185,-0.030
1.730,0.225,-0.030
1.732,0.270,-0.030
1.734,0.270,-0.030
1.736,0.230,-0.035
1.738,0.155,-0.035
1.740,0.155,-0.035
1.742,0.080,-0.035
1.744,0.135,-0.035
1.746,0.180,-0.035
1.748,0.220,-0.030
1.750,0.245,-0.030
1.752,0.285,-0.025
1.754,0.245,-0.025
1.756,0.240,-0.025
1.758,0.175,-0.025
1.760,0.140,-0.030
1.762,0.115,-0.030
1.764,0.135,-0.035
1.766,0.180,-0.040
1.768,0.220,-0.040
1.770,0.240,-0.040
1.772,0.270,-0.035
1.774,0.250,-0.035
1.776,0.220,-0.030
1.778,0.175,-0.030
1.780,0.170,-0.025
1.782,0.115,-0.025
1.784,0.155,-0.020
1.786,0.205,-0.020
1.788,0.270,-0.015
1.790,0.245,-0.010
1.792,0.305,-0.005
1.794,0.300,-0.005
1.796,0.250,0.000
1.798,0.190,0.005
1.800,0.190,0.005
1.802,0.120,0.005
1.804,0.155,0.005
1.806,0.200,0.000
1.808,0.285,-0.005
1.810,0.290,-0.010
1.812,0.320,-0.010
1.814,0.270,-0.015
1.816,0.225,-0.015
1.818,0.170,-0.015
1.820,0.180,-0.015
1.822,0.130,-0.015
1.824,0.170,-0.010
1.826,0.200,-0.010
1.828,0.250,-0.010
1.830,0.255,-0.010
1.832,0.285,-0.015
1.834,0.255,-0.020
1.836,0.205,-0.025
1.838,0.170,-0.030
1.840,0.155,-0.040
1.842,0.105,-0.045
1.844,0.130,-0.055
1.846,0.180,-0.055
1.848,0.235,-0.060
1.850,0.220,-0.055
1.852,0.255,-0.050
1.854,0.205,-0.050
1.856,0.185,-0.045
1.858,0.135,-0.040
1.860,0.145,-0.040
1.862,0.095,-0.040
1.864,0.125,-0.045
1.866,0.170,-0.050
1.868,0.220,-0.055
1.870,0.185,-0.060
1.872,0.240,-0.065
1.874,0.215,-0.070
1.876,0.180,-0.070
1.878,0.150,-0.070
1.880,0.130,-0.070
1.882,0.085,-0.065
1.884,0.110,-0.065
1.886,0.160,-0.060
1.888,0.195,-0.060
1.890,0.230,-0.055
1.892,0.265,-0.055
1.894,0.230,-0.050
1.896,0.170,-0.050
1.898,0.110,-0.055
1.900,0.100,-0.065
1.902,0.060,-0.075
1.904,0.090,-0.085
1.906,0.130,-0.100
1.908,0.145,-0.110
1.910,0.150,-0.115
1.912,0.175,-0.105
1.914,0.185,-0.080
1.916,0.200,-0.040
1.918,0.230,0.015
1.920,0.280,0.085
1.922,0.330,0.165
1.924,0.460,0.240
1.926,0.575,0.310
1.928,0.685,0.360
1.930,0.725,0.390
1.932,0.720,0.390
1.934,0.595,0.360
1.936,0.450,0.305
1.938,0.365,0.230
1.940,0.325,0.145
1.942,0.230,0.050
1.944,0.180,-0.040
1.946,0.070,-0.120
1.948,-0.015,-0.180
1.950,0.035,-0.225
1.952,0.035,-0.255
1.954,-0.005,-0.265
1.956,-0.020,-0.260
1.958,-0.035,-0.250
1.960,-0.090,-0.235
1.962,-0.095,-0.215
1.964,-0.020,-0.195
1.966,0.070,-0.175
1.968,0.115,-0.160
1.970,0.170,-0.140
1.972,0.200,-0.125
1.974,0.190,-0.115
1.976,0.155,-0.100
1.978,0.125,-0.090
1.980,0.095,-0.080
1.982,0.095,-0.070
1.984,0.140,-0.060
1.986,0.190,-0.055
1.988,0.240,-0.050
1.990,0.275,-0.040
1.992,0.275,-0.035
1.994,0.240,-0.030
1.996,0.175,-0.025
1.998,0.155,-0.020
2.000,0.115,-0.015
2.002,0.110,-0.010
2.004,0.170,-0.010
2.006,0.225,-0.015
2.008,0.245,-0.015
2.010,0.290,-0.015
2.012,0.290,-0.020
2.014,0.255,-0.020
2.016,0.200,-0.015
2.018,0.175,-0.010
2.020,0.110,-0.005
2.022,0.165,-0.005
2.024,0.195,0.000
2.026,0.240,0.000
2.028,0.270,-0.005
2.030,0.305,-0.005
2.032,0.265,-0.010
2.034,0.245,-0.015
2.036,0.195,-0.015
2.038,0.185,-0.015
2.040,0.125,-0.010
2.042,0.160,-0.005
2.044,0.205,0.005
2.046,0.240,0.010
2.048,0.305,0.010
2.050,0.305,0.015
2.052,0.290,0.010
2.054,0.265,0.010
2.056,0.210,0.010
2.058,0.180,0.010
2.060,0.165,0.015
2.062,0.190,0.025
2.064,0.245,0.030
2.066,0.295,0.040
2.068,0.310,0.045
2.070,0.360,0.050
2.072,0.330,0.050
2.074,0.280,0.050
2.076,0.240,0.045
2.078,0.225,0.045
2.080,0.180,0.040
2.082,0.230,0.040
2.084,0.255,0.045
2.086,0.315,0.050
2.088,0.350,0.060
2.090,0.390,0.070
2.092,0.365,0.080
2.094,0.325,0.085
2.096,0.300,0.095
2.098,0.305,0.100
2.100,0.250,0.110
2.102,0.300,0.115
2.104,0.335,0.120
2.106,0.370,0.130
2.108,0.410,0.135
2.110,0.490,0.140
2.112,0.425,0.145
2.114,0.385,0.150
2.116,0.355,0.150
2.118,0.340,0.150
2.120,0.340,0.150
2.122,0.365,0.155
2.124,0.395,0.160
2.126,0.435,0.165
2.128,0.420,0.175
2.130,0.490,0.185
2.132,0.475,0.195
2.134,0.460,0.200
2.136,0.395,0.205
2.138,0.365,0.200
2.140,0.320,0.200
2.142,0.350,0.190
2.144,0.390,0.185
2.146,0.460,0.175
2.148,0.440,0.170
2.150,0.480,0.165
2.152,0.440,0.165
2.154,0.380,0.160
2.156,0.340,0.155
2.158,0.320,0.150
2.160,0.285,0.145
2.162,0.340,0.135
2.164,0.360,0.130
2.166,0.375,0.120
2.168,0.350,0.110
2.170,0.370,0.100
2.172,0.350,0.095
2.174,0.295,0.085
2.176,0.240,0.075
2.178,0.220,0.065
2.180,0.200,0.055
2.182,0.205,0.045
2.184,0.280,0.030
2.186,0.240,0.020
2.188,0.265,0.010
2.190,0.330,0.000
2.192,0.260,-0.010
2.194,0.190,-0.015
2.196,0.160,-0.020
2.198,0.135,-0.025
2.200,0.110,-0.030
2.202,0.140,-0.030
2.204,0.170,-0.035
2.206,0.225,-0.040
2.208,0.255,-0.045
2.210,0.290,-0.045
2.212,0.210,-0.050
2.214,0.175,-0.055
2.216,0.135,-0.060
2.218,0.110,-0.060
2.220,0.090,-0.060
2.222,0.135,-0.060
2.224,0.185,-0.055
2.226,0.200,-0.050
2.228,0.215,-0.045
2.230,0.245,-0.040
2.232,0.215,-0.040
2.234,0.170,-0.035
2.236,0.155,-0.040
2.238,0.100,-0.045
2.240,0.095,-0.045
2.242,0.135,-0.050
2.244,0.210,-0.055
2.246,0.235,-0.050
2.248,0.215,-0.050
2.250,0.250,-0.040
2.252,0.230,-0.035
2.254,0.180,-0.025
2.256,0.140,-0.020
2.258,0.115,-0.015
2.260,0.120,-0.015
2.262,0.130,-0.020
2.264,0.215,-0.030
2.266,0.230,-0.035
2.268,0.245,-0.040
2.270,0.265,-0.045
2.272,0.220,-0.050
2.274,0.170,-0.045
2.276,0.155,-0.040
2.278,0.140,-0.035
2.280,0.130,-0.025
2.282,0.175,-0.020
2.284,0.230,-0.015
2.286,0.245,-0.015
2.288,0.260,-0.015
2.290,0.260,-0.015
2.292,0.215,-0.020
2.294,0.200,-0.025
2.296,0.150,-0.025
2.298,0.120,-0.025
2.300,0.120,-0.030
2.302,0.165,-0.030
2.304,0.220,-0.030
2.306,0.215,-0.030
2.308,0.290,-0.025
2.310,0.280,-0.025
2.312,0.210,-0.025
2.314,0.175,-0.020
2.316,0.160,-0.020
2.318,0.145,-0.015
2.320,0.150,-0.015
2.322,0.145,-0.010
2.324,0.205,-0.015
2.326,0.235,-0.015
2.328,0.300,-0.020
2.330,0.255,-0.030
2.332,0.220,-0.035
2.334,0.185,-0.040
2.336,0.150,-0.045
2.338,0.075,-0.050
2.340,0.125,-0.045
2.342,0.175,-0.040
2.344,0.235,-0.035
2.346,0.225,-0.025
2.348,0.285,-0.020
2.350,0.265,-0.015
2.352,0.220,-0.015
2.354,0.165,-0.020
2.356,0.150,-0.030
2.358,0.065,-0.035
2.360,0.115,-0.045
2.362,0.175,-0.055
2.364,0.210,-0.055
2.366,0.250,-0.055
2.368,0.285,-0.050
2.370,0.275,-0.040
2.372,0.235,-0.030
2.374,0.170,-0.020
2.376,0.120,-0.015
2.378,0.090,-0.010
2.380,0.155,-0.010
2.382,0.175,-0.010
2.384,0.225,-0.015
2.386,0.270,-0.020
2.388,0.300,-0.020
2.390,0.255,-0.025
2.392,0.235,-0.025
2.394,0.150,-0.020
2.396,0.165,-0.020
2.398,0.120,-0.020
2.400,0.150,-0.020
2.402,0.160,-0.020
2.404,0.220,-0.025
2.406,0.250,-0.030
2.408,0.280,-0.035
2.410,0.245,-0.035
2.412,0.215,-0.035
2.414,0.180,-0.030
2.416,0.165,-0.025
2.418,0.140,-0.015
2.420,0.185,-0.005
2.422,0.220,0.005
2.424,0.240,0.010
2.426,0.275,0.010
2.428,0.320,0.005
2.430,0.285,0.000
2.432,0.225,-0.005
2.434,0.195,-0.010
2.436,0.180,-0.015
2.438,0.120,-0.010
2.440,0.170,-0.010
2.442,0.220,-0.005
2.444,0.260,0.005
2.446,0.265,0.010
2.448,0.315,0.010
2.450,0.260,0.010
2.452,0.220,0.005
2.454,0.195,-0.005
2.456,0.190,-0.020
2.458,0.120,-0.035
2.460,0.120,-0.045
2.462,0.150,-0.055
2.464,0.185,-0.060
2.466,0.220,-0.060
2.468,0.250,-0.060
2.470,0.220,-0.060
2.472,0.155,-0.060
2.474,0.120,-0.060
2.476,0.115,-0.060
2.478,0.115,-0.060
2.480,0.105,-0.060
2.482,0.155,-0.065
2.484,0.215,-0.065
2.486,0.205,-0.065
2.488,0.245,-0.060
2.490,0.200,-0.055
2.492,0.180,-0.055
2.494,0.135,-0.050
2.496,0.130,-0.050
2.498,0.100,-0.050
2.500,0.135,-0.050
2.502,0.165,-0.055
2.504,0.190,-0.060
2.506,0.205,-0.065
2.508,0.210,-0.070
2.510,0.160,-0.075
2.512,0.130,-0.080
2.514,0.095,-0.085
2.516,0.050,-0.090
2.518,0.035,-0.085
2.520,0.110,-0.070
2.522,0.190,-0.050
2.524,0.235,-0.010
2.526,0.355,0.040
2.528,0.420,0.095
2.530,0.420,0.165
2.532,0.470,0.225
2.534,0.545,0.285
2.536,0.565,0.325
2.538,0.510,0.340
2.540,0.515,0.325
2.542,0.440,0.290
2.544,0.385,0.225
2.546,0.415,0.140
2.548,0.385,0.050
2.550,0.265,-0.040
2.552,0.090,-0.120
2.554,-0.055,-0.185
2.556,-0.150,-0.230
2.558,-0.120,-0.255
2.560,-0.055,-0.265
2.562,0.010,-0.260
2.564,0.045,-0.245
2.566,0.060,-0.225
2.568,0.050,-0.210
2.570,0.035,-0.195
2.572,-0.020,-0.180
2.574,0.025,-0.165
2.576,0.000,-0.155
2.578,0.070,-0.140
2.580,0.100,-0.125
2.582,0.160,-0.105
2.584,0.200,-0.085
2.586,0.230,-0.070
2.588,0.250,-0.060
2.590,0.210,-0.050
2.592,0.160,-0.045
2.594,0.135,-0.045
2.596,0.115,-0.050
2.598,0.115,-0.050
2.600,0.165,-0.055
2.602,0.230,-0.060
2.604,0.195,-0.060
2.606,0.245,-0.055
2.608,0.235,-0.055
2.610,0.230,-0.050
2.612,0.200,-0.040
2.614,0.150,-0.035
2.616,0.125,-0.035
2.618,0.140,-0.030
2.620,0.185,-0.025
2.622,0.210,-0.025
2.624,0.225,-0.025
2.626,0.270,-0.020
2.628,0.290,-0.020
2.630,0.245,-0.020
2.632,0.175,-0.015
2.634,0.155,-0.015
2.636,0.135,-0.010
2.638,0.165,-0.010
2.640,0.190,-0.005
2.642,0.255,-0.005
2.644,0.280,0.000
2.646,0.305,0.000
2.648,0.305,0.000
2.650,0.245,0.000
2.652,0.185,0.000
2.654,0.185,0.000
2.656,0.145,0.000
2.658,0.155,0.000
2.660,0.205,0.000
2.662,0.290,0.005
2.664,0.295,0.010
2.666,0.335,0.015
2.668,0.310,0.020
2.670,0.250,0.025
2.672,0.210,0.030
2.674,0.220,0.030
2.676,0.140,0.035
2.678,0.210,0.035
2.680,0.290,0.035
2.682,0.300,0.035
2.684,0.325,0.035
2.686,0.355,0.040
2.688,0.335,0.040
2.690,0.295,0.045
2.692,0.250,0.050
2.694,0.250,0.055
2.696,0.195,0.060
2.698,0.270,0.065
2.700,0.305,0.070
2.702,0.325,0.075
2.704,0.360,0.085
2.706,0.395,0.090
2.708,0.370,0.100
2.710,0.360,0.110
2.712,0.310,0.120
2.714,0.320,0.130
2.716,0.280,0.140
2.718,0.335,0.150
2.720,0.365,0.155
2.722,0.415,0.165
2.724,0.450,0.170
2.726,0.485,0.170
2.728,0.455,0.175
2.730,0.420,0.180
2.732,0.375,0.185
2.734,0.375,0.190
2.736,0.350,0.195
2.738,0.375,0.200
2.740,0.415,0.200
2.742,0.425,0.205
2.744,0.440,0.200
2.746,0.505,0.200
2.748,0.485,0.195
2.750,0.425,0.190
2.752,0.390,0.180
2.754,0.340,0.175
2.756,0.305,0.165
2.758,0.305,0.155
2.760,0.330,0.150
2.762,0.380,0.145
2.764,0.415,0.135
2.766,0.455,0.125
2.768,0.395,0.120
2.770,0.355,0.110
2.772,0.280,0.100
2.774,0.280,0.090
2.776,0.190,0.080
2.778,0.235,0.070
2.780,0.270,0.060
2.782,0.300,0.050
2.784,0.315,0.040
2.786,0.330,0.030
2.788,0.275,0.025
2.790,0.245,0.020
2.792,0.190,0.010
2.794,0.150,0.005
2.796,0.135,0.000
2.798,0.170,-0.005
2.800,0.230,-0.010
2.802,0.245,-0.020
2.804,0.265,-0.025
2.806,0.255,-0.035
2.808,0.225,-0.040
2.810,0.180,-0.040
2.812,0.150,-0.040
2.814,0.125,-0.040
2.816,0.125,-0.040
2.818,0.165,-0.035
2.820,0.190,-0.035
2.822,0.215,-0.035
2.824,0.260,-0.035
2.826,0.265,-0.040
2.828,0.210,-0.045
2.830,0.160,-0.050
2.832,0.145,-0.060
2.834,0.095,-0.065
2.836,0.095,-0.070
2.838,0.130,-0.075
2.840,0.150,-0.075
2.842,0.205,-0.070
2.844,0.235,-0.070
2.846,0.270,-0.065
2.848,0.200,-0.060
2.850,0.180,-0.055
2.852,0.120,-0.055
2.854,0.085,-0.055
2.856,0.105,-0.060
2.858,0.155,-0.060
2.860,0.220,-0.065
2.862,0.195,-0.065
2.864,0.240,-0.070
2.866,0.245,-0.070
2.868,0.215,-0.065
2.870,0.175,-0.060
2.872,0.150,-0.050
2.874,0.115,-0.045
2.876,0.120,-0.035
2.878,0.175,-0.025
2.880,0.205,-0.020
2.882,0.225,-0.015
2.884,0.280,-0.015
2.886,0.265,-0.015
2.888,0.225,-0.020
2.890,0.175,-0.025
2.892,0.185,-0.030
2.894,0.095,-0.035
2.896,0.135,-0.035
2.898,0.180,-0.035
2.900,0.235,-0.035
2.902,0.255,-0.030
2.904,0.285,-0.025
2.906,0.245,-0.025
2.908,0.245,-0.020
2.910,0.210,-0.025
2.912,0.180,-0.025
2.914,0.085,-0.025
2.916,0.145,-0.030
2.918,0.165,-0.030
2.920,0.220,-0.035
2.922,0.240,-0.035
2.924,0.280,-0.035
2.926,0.240,-0.035
2.928,0.210,-0.035
2.930,0.160,-0.035
2.932,0.150,-0.035
2.934,0.105,-0.035
2.936,0.130,-0.035
2.938,0.170,-0.035
2.940,0.225,-0.030
2.942,0.250,-0.030
2.944,0.295,-0.025
2.946,0.260,-0.025
2.948,0.205,-0.020
2.950,0.165,-0.020
2.952,0.140,-0.020
2.954,0.085,-0.020
2.956,0.175,-0.025
2.958,0.190,-0.025
2.960,0.215,-0.025
2.962,0.225,-0.025
2.964,0.280,-0.030
2.966,0.250,-0.030
2.968,0.220,-0.030
2.970,0.165,-0.030
2.972,0.140,-0.030
2.974,0.130,-0.030
2.976,0.155,-0.025
2.978,0.185,-0.025
2.980,0.235,-0.020
2.982,0.250,-0.020
2.984,0.305,-0.020
2.986,0.240,-0.020
2.988,0.190,-0.025
2.990,0.135,-0.030
2.992,0.135,-0.035
2.994,0.105,-0.040
2.996,0.145,-0.045
2.998,0.170,-0.050
3.000,0.210,-0.050
3.002,0.230,-0.050
3.004,0.265,-0.045
3.006,0.235,-0.040
3.008,0.195,-0.035
3.010,0.145,-0.030
3.012,0.175,-0.025
3.014,0.120,-0.025
3.016,0.125,-0.025
3.018,0.190,-0.025
3.020,0.220,-0.025
3.022,0.235,-0.020
3.024,0.280,-0.020
3.026,0.260,-0.015
3.028,0.220,-0.010
3.030,0.175,-0.005
3.032,0.140,0.000
3.034,0.150,0.005
3.036,0.215,0.010
3.038,0.235,0.010
3.040,0.270,0.010
3.042,0.255,0.005
3.044,0.320,0.005
3.046,0.260,0.005
3.048,0.230,0.000
3.050,0.205,0.000
3.052,0.185,0.000
3.054,0.140,0.000
3.056,0.190,0.000
3.058,0.210,0.000
3.060,0.260,0.000
3.062,0.265,-0.005
3.064,0.285,-0.005
3.066,0.265,-0.010
3.068,0.205,-0.015
3.070,0.155,-0.020
3.072,0.135,-0.030
3.074,0.095,-0.040
3.076,0.140,-0.045
3.078,0.195,-0.055
3.080,0.215,-0.060
3.082,0.240,-0.065
3.084,0.265,-0.070
3.086,0.200,-0.070
3.088,0.160,-0.065
3.090,0.120,-0.065
3.092,0.095,-0.060
3.094,0.090,-0.055
3.096,0.140,-0.055
3.098,0.170,-0.050
3.100,0.200,-0.050
3.102,0.250,-0.050
3.104,0.270,-0.050
3.106,0.210,-0.050
3.108,0.175,-0.050
3.110,0.135,-0.050
3.112,0.120,-0.050
3.114,0.095,-0.055
3.116,0.110,-0.055
3.118,0.165,-0.060
3.120,0.225,-0.065
3.122,0.210,-0.070
3.124,0.200,-0.080
3.126,0.185,-0.090
3.128,0.150,-0.100
3.130,0.095,-0.105
3.132,0.020,-0.100
3.134,0.045,-0.090
3.136,0.115,-0.065
3.138,0.210,-0.030
3.140,0.295,0.020
3.142,0.420,0.085
3.144,0.460,0.150
3.146,0.520,0.220
3.148,0.550,0.275
3.150,0.575,0.320
3.152,0.520,0.340
3.154,0.500,0.330
3.156,0.450,0.300
3.158,0.400,0.245
3.160,0.385,0.170
3.162,0.380,0.085
3.164,0.335,0.000
3.166,0.200,-0.080
3.168,0.030,-0.150
3.170,-0.085,-0.200
3.172,-0.115,-0.235
3.174,-0.085,-0.255
3.176,-0.045,-0.260
3.178,0.015,-0.255
3.180,0.045,-0.245
3.182,0.075,-0.230
3.184,0.070,-0.215
3.186,0.065,-0.200
3.188,0.050,-0.180
3.190,0.040,-0.160
3.192,0.035,-0.140
3.194,0.085,-0.115
3.196,0.115,-0.095
3.198,0.180,-0.075
3.200,0.240,-0.060
3.202,0.290,-0.050
3.204,0.240,-0.040
3.206,0.205,-0.040
3.208,0.170,-0.045
3.210,0.160,-0.045
3.212,0.095,-0.050
3.214,0.105,-0.050
3.216,0.170,-0.050
3.218,0.230,-0.040
3.220,0.245,-0.035
3.222,0.295,-0.025
3.224,0.260,-0.020
3.226,0.220,-0.015
3.228,0.175,-0.010
3.230,0.155,-0.010
3.232,0.140,-0.010
3.234,0.180,-0.010
3.236,0.185,-0.015
3.238,0.250,-0.015
3.240,0.265,-0.015
3.242,0.300,-0.015
3.244,0.265,-0.010
3.246,0.240,-0.010
3.248,0.165,-0.005
3.250,0.170,-0.005
3.252,0.130,0.000
3.254,0.195,0.000
3.256,0.225,0.005
3.258,0.270,0.010
3.260,0.260,0.010
3.262,0.340,0.015
3.264,0.300,0.020
3.266,0.260,0.020
3.268,0.215,0.025
3.270,0.230,0.025
3.272,0.155,0.030
3.274,0.175,0.030
3.276,0.230,0.030
3.278,0.280,0.030
3.280,0.290,0.030
3.282,0.355,0.030
3.284,0.310,0.030
3.286,0.250,0.030
3.288,0.225,0.030
3.290,0.235,0.030
3.292,0.175,0.030
3.294,0.225,0.030
3.296,0.270,0.035
3.298,0.320,0.045
3.300,0.340,0.050
3.302,0.365,0.060
3.304,0.325,0.070
3.306,0.300,0.075
3.308,0.250,0.080
3.310,0.275,0.080
3.312,0.220,0.080
3.314,0.265,0.080
3.316,0.320,0.085
3.318,0.365,0.085
3.320,0.405,0.095
3.322,0.425,0.105
3.324,0.400,0.120
3.326,0.385,0.130
3.328,0.365,0.145
3.330,0.315,0.160
3.332,0.300,0.170
3.334,0.355,0.180
3.336,0.405,0.185
3.338,0.440,0.190
3.340,0.475,0.195
3.342,0.510,0.195
3.344,0.480,0.200
3.346,0.430,0.200
3.348,0.390,0.200
3.350,0.375,0.200
3.352,0.350,0.200
3.354,0.370,0.200
3.356,0.420,0.200
3.358,0.475,0.200
3.360,0.495,0.200
3.362,0.505,0.200
3.364,0.475,0.200
3.366,0.415,0.200
3.368,0.385,0.200
3.370,0.355,0.195
3.372,0.355,0.195
3.374,0.350,0.185
3.376,0.385,0.175
3.378,0.410,0.165
3.380,0.425,0.150
3.382,0.445,0.135
3.384,0.380,0.125
3.386,0.335,0.115
3.388,0.295,0.100
3.390,0.265,0.095
3.392,0.225,0.085
3.394,0.255,0.075
3.396,0.305,0.070
3.398,0.325,0.060
3.400,0.345,0.055
3.402,0.330,0.045
3.404,0.310,0.040
3.406,0.240,0.035
3.408,0.185,0.030
3.410,0.160,0.025
3.412,0.155,0.020
3.414,0.200,0.010
3.416,0.255,0.005
3.418,0.260,-0.005
3.420,0.270,-0.015
3.422,0.270,-0.025
3.424,0.225,-0.030
3.426,0.190,-0.035
3.428,0.175,-0.035
3.430,0.145,-0.035
3.432,0.120,-0.035
3.434,0.145,-0.030
3.436,0.185,-0.030
3.438,0.230,-0.030
3.440,0.255,-0.035
3.442,0.255,-0.040
3.444,0.200,-0.045
3.446,0.165,-0.050
3.448,0.155,-0.050
3.450,0.130,-0.050
3.452,0.120,-0.050
3.454,0.140,-0.045
3.456,0.200,-0.040
3.458,0.220,-0.040
3.460,0.270,-0.035
3.462,0.255,-0.035
3.464,0.205,-0.040
3.466,0.175,-0.045
3.468,0.170,-0.050
3.470,0.095,-0.055
3.472,0.115,-0.060
3.474,0.165,-0.060
3.476,0.210,-0.055
3.478,0.225,-0.050
3.480,0.275,-0.040
3.482,0.235,-0.035
3.484,0.230,-0.030
3.486,0.165,-0.025
3.488,0.155,-0.025
3.490,0.105,-0.025
3.492,0.155,-0.030
3.494,0.200,-0.030
3.496,0.220,-0.030
3.498,0.245,-0.030
3.500,0.295,-0.025
3.502,0.260,-0.025
3.504,0.230,-0.020
3.506,0.180,-0.020
3.508,0.165,-0.020
3.510,0.140,-0.020
3.512,0.130,-0.025
3.514,0.175,-0.025
3.516,0.230,-0.025
3.518,0.265,-0.025
3.520,0.295,-0.025
3.522,0.265,-0.025
3.524,0.250,-0.020
3.526,0.165,-0.020
3.528,0.175,-0.015
3.530,0.115,-0.015
3.532,0.155,-0.015
3.534,0.190,-0.015
3.536,0.225,-0.020
3.538,0.230,-0.020
3.540,0.290,-0.020
3.542,0.255,-0.025
3.544,0.215,-0.025
3.546,0.185,-0.025
3.548,0.160,-0.025
3.550,0.105,-0.025
3.552,0.170,-0.025
3.554,0.185,-0.025
3.556,0.230,-0.020
3.558,0.225,-0.020
3.560,0.305,-0.020
3.562,0.280,-0.020
3.564,0.225,-0.020
3.566,0.185,-0.025
3.568,0.170,-0.025
3.570,0.120,-0.030
3.572,0.140,-0.035
3.574,0.160,-0.035
3.576,0.235,-0.035
3.578,0.245,-0.035
3.580,0.280,-0.035
3.582,0.255,-0.030
3.584,0.200,-0.030
3.586,0.160,-0.025
3.588,0.130,-0.025
3.590,0.115,-0.030
3.592,0.155,-0.030
3.594,0.190,-0.035
3.596,0.210,-0.040
3.598,0.250,-0.040
3.600,0.280,-0.045
3.602,0.245,-0.045
3.604,0.215,-0.040
3.606,0.165,-0.040
3.608,0.130,-0.040
3.610,0.100,-0.035
3.612,0.135,-0.035
3.614,0.195,-0.035
3.616,0.240,-0.035
3.618,0.245,-0.035
3.620,0.290,-0.035
3.622,0.255,-0.030
3.624,0.210,-0.030
3.626,0.160,-0.025
3.628,0.115,-0.025
3.630,0.105,-0.025
3.632,0.145,-0.030
3.634,0.170,-0.030
3.636,0.225,-0.035
3.638,0.250,-0.040
3.640,0.280,-0.045
3.642,0.235,-0.045
3.644,0.215,-0.045
3.646,0.150,-0.040
3.648,0.130,-0.035
3.650,0.115,-0.030
3.652,0.165,-0.025
3.654,0.200,-0.020
3.656,0.255,-0.020
3.658,0.275,-0.020
3.660,0.310,-0.025
3.662,0.240,-0.030
3.664,0.210,-0.030
3.666,0.155,-0.035
3.668,0.145,-0.035
3.670,0.140,-0.030
3.672,0.170,-0.025
3.674,0.245,-0.020
3.676,0.265,-0.015
3.678,0.310,-0.010
3.680,0.285,-0.010
3.682,0.255,-0.010
3.684,0.220,-0.010
3.686,0.165,-0.010
3.688,0.170,-0.010
3.690,0.155,-0.005
3.692,0.175,0.000
3.694,0.245,0.005
3.696,0.285,0.005
3.698,0.315,0.010
3.700,0.305,0.010
3.702,0.265,0.010
3.704,0.220,0.005
3.706,0.185,0.000
3.708,0.150,-0.005
3.710,0.130,-0.015
3.712,0.195,-0.020
3.714,0.210,-0.025
3.716,0.255,-0.030
3.718,0.280,-0.035
3.720,0.275,-0.035
3.722,0.225,-0.035
3.724,0.160,-0.035
3.726,0.145,-0.035
3.728,0.130,-0.040
3.730,0.125,-0.040
3.732,0.155,-0.040
3.734,0.205,-0.040
3.736,0.245,-0.040
3.738,0.300,-0.040
3.740,0.230,-0.045
3.742,0.190,-0.045
3.744,0.160,-0.045
3.746,0.160,-0.050
3.748,0.115,-0.050
3.750,0.120,-0.055
3.752,0.175,-0.060
3.754,0.160,-0.060
3.756,0.200,-0.060
3.758,0.255,-0.060
3.760,0.255,-0.060
3.762,0.210,-0.060
3.764,0.160,-0.060
3.766,0.135,-0.055
3.768,0.085,-0.055
3.770,0.130,-0.055
3.772,0.160,-0.050
3.774,0.210,-0.050
3.776,0.240,-0.050
3.778,0.285,-0.050
3.780,0.220,-0.055
3.782,0.165,-0.060
3.784,0.115,-0.070
3.786,0.070,-0.080
3.788,0.035,-0.095
3.790,0.080,-0.105
3.792,0.090,-0.110
3.794,0.140,-0.105
3.796,0.200,-0.085
3.798,0.300,-0.045
3.800,0.300,0.010
3.802,0.365,0.085
3.804,0.395,0.160
3.806,0.455,0.240
3.808,0.485,0.310
3.810,0.600,0.365
3.812,0.665,0.390
3.814,0.690,0.385
3.816,0.645,0.355
3.818,0.540,0.295
3.820,0.435,0.220
3.822,0.360,0.130
3.824,0.250,0.035
3.826,0.185,-0.050
3.828,0.010,-0.125
3.830,-0.090,-0.185
3.832,-0.070,-0.225
3.834,-0.005,-0.250
3.836,0.035,-0.260
3.838,0.075,-0.260
3.840,0.045,-0.250
3.842,0.030,-0.230
3.844,-0.010,-0.210
3.846,0.035,-0.190
3.848,-0.010,-0.170
3.850,0.050,-0.150
3.852,0.080,-0.130
3.854,0.165,-0.115
3.856,0.210,-0.100
3.858,0.265,-0.090
3.860,0.230,-0.080
3.862,0.195,-0.075
3.864,0.140,-0.065
3.866,0.130,-0.060
3.868,0.085,-0.050
3.870,0.145,-0.045
3.872,0.205,-0.035
3.874,0.255,-0.030
3.876,0.245,-0.025
3.878,0.275,-0.025
3.880,0.255,-0.025
3.882,0.215,-0.025
3.884,0.175,-0.030
3.886,0.175,-0.035
3.888,0.120,-0.040
3.890,0.150,-0.045
3.892,0.200,-0.045
3.894,0.265,-0.040
3.896,0.265,-0.035
3.898,0.300,-0.030
3.900,0.270,-0.025
3.902,0.200,-0.015
3.904,0.165,-0.010
3.906,0.180,-0.005
3.908,0.180,-0.005
3.910,0.190,-0.005
3.912,0.225,-0.010
3.914,0.280,-0.015
3.916,0.285,-0.020
3.918,0.290,-0.020
3.920,0.270,-0.025
3.922,0.240,-0.025
3.924,0.190,-0.020
3.926,0.160,-0.015
3.928,0.140,-0.005
3.930,0.185,0.000
3.932,0.270,0.005
3.934,0.265,0.010
3.936,0.315,0.010
3.938,0.315,0.010
3.940,0.295,0.005
3.942,0.255,0.005
3.944,0.215,0.005
3.946,0.185,0.005
3.948,0.195,0.005
3.950,0.230,0.010
3.952,0.255,0.015
3.954,0.305,0.025
3.956,0.335,0.030
3.958,0.365,0.040
3.960,0.360,0.045
3.962,0.275,0.050
3.964,0.260,0.050
3.966,0.215,0.050
3.968,0.220,0.055
3.970,0.260,0.055
3.972,0.320,0.060
3.974,0.350,0.065
3.976,0.385,0.070
3.978,0.360,0.080
3.980,0.370,0.085
3.982,0.350,0.095
3.984,0.320,0.100
3.986,0.285,0.110
3.988,0.310,0.115
3.990,0.335,0.125
3.992,0.380,0.130
3.994,0.440,0.140
3.996,0.450,0.145
3.998,0.470,0.155
4.000,0.445,0.160
4.002,0.390,0.170
4.004,0.385,0.180
4.006,0.350,0.185
4.008,0.360,0.190
4.010,0.405,0.195
4.012,0.455,0.200
4.014,0.460,0.205
4.016,0.525,0.205
4.018,0.515,0.210
4.020,0.470,0.210
4.022,0.405,0.210
4.024,0.390,0.210
4.026,0.355,0.205
4.028,0.360,0.200
4.030,0.390,0.195
4.032,0.455,0.190
4.034,0.455,0.180
4.036,0.495,0.170
4.038,0.480,0.160
4.040,0.450,0.150
4.042,0.350,0.140
4.044,0.315,0.135
4.046,0.265,0.125
4.048,0.290,0.120
4.050,0.305,0.115
4.052,0.345,0.105
4.054,0.375,0.100
4.056,0.390,0.090
4.058,0.350,0.080
4.060,0.285,0.065
4.062,0.245,0.055
4.064,0.255,0.040
4.066,0.185,0.030
4.068,0.240,0.020
4.070,0.235,0.010
4.072,0.280,0.005
4.074,0.270,0.000
4.076,0.300,-0.005
4.078,0.275,-0.010
4.080,0.240,-0.015
4.082,0.180,-0.020
4.084,0.145,-0.025
4.086,0.105,-0.035
4.088,0.140,-0.040
4.090,0.170,-0.050
4.092,0.225,-0.060
4.094,0.220,-0.065
4.096,0.265,-0.065
4.098,0.225,-0.065
4.100,0.195,-0.065
4.102,0.170,-0.060
4.104,0.145,-0.055
4.106,0.100,-0.055
4.108,0.105,-0.050
4.110,0.175,-0.050
4.112,0.235,-0.050
4.114,0.225,-0.055
4.116,0.270,-0.055
4.118,0.220,-0.060
4.120,0.215,-0.065
4.122,0.150,-0.065
4.124,0.120,-0.065
4.126,0.070,-0.060
4.128,0.125,-0.055
4.130,0.190,-0.050
4.132,0.230,-0.045
4.134,0.235,-0.040
4.136,0.285,-0.035
4.138,0.250,-0.035
4.140,0.220,-0.035
4.142,0.155,-0.035
4.144,0.140,-0.040
4.146,0.125,-0.040
4.148,0.160,-0.045
4.150,0.185,-0.040
4.152,0.225,-0.040
4.154,0.245,-0.035
4.156,0.285,-0.035
4.158,0.250,-0.030
4.160,0.185,-0.030
4.162,0.135,-0.035
4.164,0.160,-0.035
4.166,0.115,-0.040
4.168,0.150,-0.045
4.170,0.210,-0.050
4.172,0.220,-0.050
4.174,0.235,-0.050
4.176,0.270,-0.040
4.178,0.265,-0.035
4.180,0.215,-0.025
4.182,0.185,-0.015
4.184,0.155,-0.010
4.186,0.120,-0.010
4.188,0.175,-0.010
4.190,0.205,-0.020
4.192,0.255,-0.025
4.194,0.255,-0.035
4.196,0.265,-0.045
4.198,0.200,-0.050
4.200,0.205,-0.050
4.202,0.145,-0.050
4.204,0.130,-0.050
4.206,0.115,-0.045
4.208,0.165,-0.040
4.210,0.195,-0.030
4.212,0.260,-0.025
4.214,0.255,-0.020
4.216,0.290,-0.020
4.218,0.260,-0.020
4.220,0.195,-0.020
4.222,0.180,-0.025
4.224,0.135,-0.030
4.226,0.115,-0.035
4.228,0.145,-0.040
4.230,0.205,-0.045
4.232,0.215,-0.050
4.234,0.240,-0.050
4.236,0.285,-0.050
4.238,0.225,-0.045
4.240,0.185,-0.040
4.242,0.135,-0.035
4.244,0.125,-0.035
4.246,0.130,-0.035
4.248,0.150,-0.040
4.250,0.205,-0.045
4.252,0.205,-0.055
4.254,0.250,-0.060
4.256,0.255,-0.065
4.258,0.245,-0.070
4.260,0.160,-0.070
4.262,0.130,-0.065
4.264,0.115,-0.055
4.266,0.095,-0.050
4.268,0.155,-0.045
4.270,0.185,-0.040
4.272,0.230,-0.040
4.274,0.250,-0.045
4.276,0.230,-0.045
4.278,0.215,-0.050
4.280,0.180,-0.055
4.282,0.135,-0.055
4.284,0.110,-0.055
4.286,0.120,-0.055
4.288,0.150,-0.050
4.290,0.175,-0.045
4.292,0.215,-0.045
4.294,0.225,-0.045
4.296,0.270,-0.045
4.298,0.225,-0.045
4.300,0.175,-0.045
4.302,0.140,-0.050
4.304,0.120,-0.045
4.306,0.120,-0.045
4.308,0.135,-0.045
4.310,0.210,-0.040
4.312,0.225,-0.040
4.314,0.235,-0.035
4.316,0.240,-0.035
4.318,0.220,-0.035
4.320,0.170,-0.040
4.322,0.135,-0.040
4.324,0.090,-0.045
4.326,0.110,-0.050
4.328,0.180,-0.055
4.330,0.190,-0.055
4.332,0.200,-0.055
4.334,0.255,-0.055
4.336,0.235,-0.050
4.338,0.210,-0.045
4.340,0.145,-0.040
4.342,0.150,-0.035
4.344,0.125,-0.035
4.346,0.140,-0.030
4.348,0.185,-0.030
4.350,0.230,-0.030
4.352,0.235,-0.030
4.354,0.265,-0.030
4.356,0.255,-0.030
4.358,0.245,-0.025
4.360,0.185,-0.020
4.362,0.145,-0.015
4.364,0.115,-0.010
4.366,0.160,-0.005
4.368,0.200,0.000
4.370,0.250,0.005
4.372,0.275,0.005
4.374,0.285,0.000
4.376,0.260,-0.005
4.378,0.235,-0.010
4.380,0.175,-0.015
4.382,0.170,-0.015
4.384,0.135,-0.015
4.386,0.165,-0.015
4.388,0.190,-0.005
4.390,0.250,0.000
4.392,0.270,0.005
4.394,0.325,0.005
4.396,0.275,0.005
4.398,0.215,0.000
4.400,0.165,-0.005
4.402,0.150,-0.020
4.404,0.095,-0.030
4.406,0.135,-0.040
4.408,0.165,-0.050
4.410,0.210,-0.055
4.412,0.225,-0.055
4.414,0.260,-0.055
4.416,0.240,-0.050
4.418,0.205,-0.050
4.420,0.140,-0.045
4.422,0.115,-0.050
4.424,0.060,-0.050
4.426,0.100,-0.055
4.428,0.140,-0.060
4.430,0.205,-0.065
4.432,0.205,-0.070
4.434,0.240,-0.070
4.436,0.230,-0.070
4.438,0.160,-0.065
4.440,0.115,-0.060
4.442,0.125,-0.055
4.444,0.080,-0.050
4.446,0.130,-0.050
4.448,0.150,-0.045
4.450,0.210,-0.045
4.452,0.200,-0.050
4.454,0.240,-0.050
4.456,0.215,-0.055
4.458,0.175,-0.055
4.460,0.085,-0.060
4.462,0.110,-0.060
4.464,0.065,-0.065
4.466,0.090,-0.075
4.468,0.120,-0.080
4.470,0.150,-0.090
4.472,0.165,-0.100
4.474,0.175,-0.105
4.476,0.135,-0.100
4.478,0.070,-0.090
4.480,0.120,-0.070
4.482,0.155,-0.030
4.484,0.140,0.020
4.486,0.260,0.085
4.488,0.370,0.155
4.490,0.510,0.230
4.492,0.590,0.300
4.494,0.710,0.355
4.496,0.725,0.395
4.498,0.680,0.410
4.500,0.590,0.395
4.502,0.465,0.350
4.504,0.330,0.285
4.506,0.330,0.195
4.508,0.315,0.100
4.510,0.250,0.000
4.512,0.170,-0.095
4.514,0.050,-0.175
4.516,-0.030,-0.235
4.518,-0.115,-0.270
4.520,-0.105,-0.285
4.522,-0.100,-0.280
4.524,-0.120,-0.265
4.526,-0.050,-0.240
4.528,-0.010,-0.210
4.530,0.070,-0.180
4.532,0.120,-0.155
4.534,0.185,-0.135
4.536,0.150,-0.120
4.538,0.125,-0.105
4.540,0.080,-0.095
4.542,0.060,-0.085
4.544,0.075,-0.075
4.546,0.110,-0.065
4.548,0.150,-0.055
4.550,0.205,-0.050
4.552,0.240,-0.045
4.554,0.240,-0.040
4.556,0.200,-0.040
4.558,0.150,-0.040
4.560,0.115,-0.040
4.562,0.105,-0.040
4.564,0.110,-0.040
4.566,0.130,-0.035
4.568,0.180,-0.030
4.570,0.225,-0.025
4.572,0.260,-0.020
4.574,0.260,-0.015
4.576,0.225,-0.010
4.578,0.190,-0.005
4.580,0.125,-0.005
4.582,0.095,-0.005
4.584,0.115,-0.005
4.586,0.160,-0.010
4.588,0.215,-0.010
4.590,0.250,-0.010
4.592,0.275,-0.010
4.594,0.270,-0.010
4.596,0.210,-0.005
4.598,0.200,0.000
4.600,0.180,0.000
4.602,0.120,0.005
4.604,0.130,0.010
4.606,0.175,0.015
4.608,0.250,0.015
4.610,0.285,0.020
4.612,0.330,0.020
4.614,0.265,0.020
4.616,0.200,0.015
4.618,0.180,0.015
4.620,0.160,0.015
4.622,0.115,0.015
4.624,0.160,0.015
4.626,0.195,0.020
4.628,0.250,0.025
4.630,0.275,0.030
4.632,0.330,0.040
4.634,0.280,0.045
4.636,0.255,0.050
4.638,0.250,0.055
4.640,0.185,0.055
4.642,0.155,0.055
4.644,0.180,0.055
4.646,0.220,0.055
4.648,0.275,0.055
4.650,0.280,0.060
4.652,0.345,0.065
4.654,0.320,0.075
4.656,0.310,0.085
4.658,0.260,0.095
4.660,0.250,0.110
4.662,0.220,0.120
4.664,0.255,0.130
4.666,0.285,0.140
4.668,0.355,0.145
4.670,0.390,0.150
4.672,0.460,0.155
4.674,0.410,0.160
4.676,0.375,0.165
4.678,0.345,0.170
4.680,0.310,0.180
4.682,0.265,0.185
4.684,0.310,0.195
4.686,0.385,0.200
4.688,0.410,0.210
4.690,0.445,0.215
4.692,0.485,0.220
4.694,0.470,0.225
4.696,0.430,0.230
4.698,0.350,0.230
4.700,0.365,0.230
4.702,0.295,0.230
4.704,0.360,0.225
4.706,0.405,0.220
4.708,0.460,0.215
4.710,0.455,0.210
4.712,0.465,0.200
4.714,0.415,0.195
4.716,0.365,0.190
4.718,0.325,0.185
4.720,0.360,0.185
4.722,0.300,0.185
4.724,0.320,0.185
4.726,0.345,0.180
4.728,0.380,0.175
4.730,0.365,0.165
4.732,0.410,0.155
4.734,0.370,0.140
4.736,0.305,0.130
4.738,0.265,0.115
4.740,0.245,0.100
4.742,0.185,0.090
4.744,0.220,0.085
4.746,0.245,0.080
4.748,0.265,0.075
4.750,0.265,0.075
4.752,0.295,0.070
4.754,0.270,0.065
4.756,0.215,0.055
4.758,0.175,0.050
4.760,0.155,0.035
4.762,0.125,0.025
4.764,0.095,0.015
4.766,0.180,0.010
4.768,0.215,0.000
4.770,0.200,0.000
4.772,0.250,-0.005
4.774,0.200,-0.010
4.776,0.180,-0.010
4.778,0.110,-0.015
4.780,0.105,-0.020
4.782,0.075,-0.025
4.784,0.100,-0.030
4.786,0.135,-0.035
4.788,0.160,-0.040
4.790,0.180,-0.045
4.792,0.215,-0.045
4.794,0.175,-0.045
4.796,0.135,-0.040
4.798,0.110,-0.040
4.800,0.090,-0.035
4.802,0.050,-0.035
4.804,0.090,-0.030
4.806,0.155,-0.030
4.808,0.175,-0.030
4.810,0.170,-0.030
4.812,0.195,-0.035
4.814,0.180,-0.035
4.816,0.115,-0.035
4.818,0.085,-0.035
4.820,0.075,-0.030
4.822,0.060,-0.030
4.824,0.100,-0.030
4.826,0.170,-0.030
4.828,0.170,-0.030
4.830,0.185,-0.030
4.832,0.220,-0.035
4.834,0.205,-0.040
4.836,0.105,-0.040
4.838,0.080,-0.040
4.840,0.060,-0.040
4.842,0.070,-0.035
4.844,0.090,-0.030
4.846,0.145,-0.030
4.848,0.160,-0.025
4.850,0.200,-0.025
4.852,0.210,-0.025
4.854,0.160,-0.030
4.856,0.105,-0.035
4.858,0.090,-0.035
4.860,0.070,-0.040
4.862,0.045,-0.035
4.864,0.070,-0.030
4.866,0.160,-0.025
4.868,0.195,-0.020
4.870,0.200,-0.015
4.872,0.165,-0.015
4.874,0.160,-0.015
4.876,0.135,-0.020
4.878,0.090,-0.025
4.880,0.035,-0.035
4.882,0.050,-0.040
4.884,0.095,-0.045
4.886,0.175,-0.040
4.888,0.165,-0.040
4.890,0.200,-0.035
4.892,0.175,-0.025
4.894,0.140,-0.020
4.896,0.105,-0.015
4.898,0.085,-0.010
4.900,0.050,-0.015
4.902,0.060,-0.020
4.904,0.100,-0.025
4.906,0.140,-0.030
4.908,0.180,-0.040
4.910,0.205,-0.040
4.912,0.150,-0.045
4.914,0.135,-0.040
4.916,0.115,-0.040
4.918,0.060,-0.030
4.920,0.015,-0.025
4.922,0.070,-0.020
4.924,0.085,-0.015
4.926,0.110,-0.015
4.928,0.145,-0.020
4.930,0.195,-0.025
4.932,0.185,-0.030
4.934,0.130,-0.035
4.936,0.085,-0.040
4.938,0.050,-0.045
4.940,0.030,-0.045
4.942,0.060,-0.045
4.944,0.090,-0.040
4.946,0.140,-0.030
4.948,0.145,-0.025
4.950,0.190,-0.020
4.952,0.165,-0.015
4.954,0.125,-0.015
4.956,0.075,-0.015
4.958,0.045,-0.020
4.960,0.005,-0.025
4.962,0.050,-0.035
4.964,0.075,-0.040
4.966,0.145,-0.045
4.968,0.150,-0.050
4.970,0.175,-0.055
4.972,0.150,-0.055
4.974,0.105,-0.050
4.976,0.060,-0.045
4.978,0.050,-0.040
4.980,0.020,-0.035
4.982,0.050,-0.030
4.984,0.070,-0.025
4.986,0.155,-0.025
4.988,0.165,-0.025
4.990,0.195,-0.030
4.992,0.185,-0.035
4.994,0.100,-0.040
4.996,0.065,-0.045
4.998,0.045,-0.050
5.000,-0.015,-0.055
5.002,0.030,-0.055
5.004,0.070,-0.055
5.006,0.125,-0.055
5.008,0.135,-0.050
5.010,0.175,-0.045
5.012,0.135,-0.045
5.014,0.095,-0.040
5.016,0.050,-0.035
5.018,0.050,-0.030
5.020,0.010,-0.030
5.022,0.055,-0.025
5.024,0.085,-0.025
5.026,0.140,-0.025
5.028,0.155,-0.020
5.030,0.200,-0.020
5.032,0.165,-0.025
5.034,0.120,-0.025
5.036,0.085,-0.025
5.038,0.060,-0.025
5.040,0.020,-0.020
5.042,0.065,-0.015
5.044,0.090,-0.010
5.046,0.150,-0.005
5.048,0.170,0.000
5.050,0.200,0.000
5.052,0.170,0.005
5.054,0.120,0.005
5.056,0.085,0.005
5.058,0.080,0.005
5.060,0.075,0.005
5.062,0.110,0.010
5.064,0.125,0.010
5.066,0.160,0.010
5.068,0.195,0.015
5.070,0.230,0.015
5.072,0.200,0.010
5.074,0.100,0.005
5.076,0.065,0.000
5.078,0.045,-0.005
5.080,0.040,-0.010
5.082,0.080,-0.015
5.084,0.130,-0.015
5.086,0.150,-0.015
5.088,0.130,-0.010
5.090,0.180,-0.005
5.092,0.140,0.000
5.094,0.095,0.005
5.096,0.060,0.005
5.098,0.015,0.000
5.100,0.005,-0.010
5.102,0.045,-0.020
5.104,0.065,-0.030
5.106,0.105,-0.040
5.108,0.120,-0.050
5.110,0.140,-0.055
5.112,0.130,-0.055
5.114,0.060,-0.055
5.116,0.030,-0.050
5.118,-0.015,-0.045
5.120,0.005,-0.045
5.122,0.035,-0.040
5.124,0.095,-0.040
5.126,0.110,-0.040
5.128,0.150,-0.040
5.130,0.170,-0.040
5.132,0.095,-0.040
5.134,0.055,-0.040
5.136,0.035,-0.040
5.138,0.010,-0.040
5.140,0.015,-0.040
5.142,0.015,-0.045
5.144,0.025,-0.055
5.146,0.055,-0.065
5.148,0.085,-0.080
5.150,0.070,-0.090
5.152,0.030,-0.090
5.154,-0.010,-0.085
5.156,-0.020,-0.070
5.158,-0.040,-0.040
5.160,0.045,0.005
5.162,0.180,0.060
5.164,0.265,0.120
5.166,0.345,0.190
5.168,0.450,0.255
5.170,0.525,0.310
5.172,0.555,0.350
5.174,0.515,0.365
5.176,0.425,0.360
5.178,0.310,0.325
5.180,0.225,0.270
5.182,0.255,0.195
5.184,0.255,0.105
5.186,0.185,0.015
5.188,0.110,-0.070
5.190,-0.020,-0.145
5.192,-0.170,-0.205
5.194,-0.190,-0.240
5.196,-0.185,-0.260
5.198,-0.230,-0.260
5.200,-0.175,-0.250
5.202,-0.140,-0.230
5.204,-0.115,-0.210
5.206,-0.060,-0.190
5.208,0.015,-0.175
5.210,0.005,-0.160
5.212,-0.020,-0.145
5.214,-0.040,-0.130
5.216,-0.045,-0.110
5.218,-0.070,-0.090
5.220,-0.005,-0.070
5.222,0.010,-0.050
5.224,0.080,-0.035
5.226,0.095,-0.025
5.228,0.160,-0.020
5.230,0.110,-0.025
5.232,0.065,-0.030
5.234,0.035,-0.035
5.236,0.050,-0.045
5.238,-0.005,-0.045
5.240,0.015,-0.040
5.242,0.045,-0.030
5.244,0.100,-0.020
5.246,0.120,-0.005
5.248,0.175,0.005
5.250,0.155,0.015
5.252,0.105,0.015
5.254,0.045,0.010
5.256,0.050,0.005
5.258,-0.005,-0.005
5.260,0.035,-0.010
5.262,0.065,-0.015
5.264,0.120,-0.015
5.266,0.140,-0.010
5.268,0.160,-0.005
5.270,0.150,0.005
5.272,0.135,0.015
5.274,0.075,0.020
5.276,0.070,0.025
5.278,0.020,0.030
5.280,0.075,0.030
5.282,0.125,0.025
5.284,0.175,0.025
5.286,0.145,0.020
5.288,0.200,0.020
5.290,0.130,0.020
5.292,0.125,0.020
5.294,0.090,0.020
5.296,0.080,0.020
5.298,0.035,0.025
5.300,0.065,0.025
5.302,0.085,0.030
5.304,0.145,0.030
5.306,0.145,0.035
5.308,0.220,0.040
5.310,0.165,0.045
5.312,0.140,0.045
5.314,0.125,0.050
5.316,0.105,0.055
5.318,0.050,0.055
5.320,0.085,0.060
5.322,0.150,0.065
5.324,0.175,0.070
5.326,0.190,0.075
5.328,0.230,0.085
5.330,0.205,0.090
5.332,0.165,0.095
5.334,0.155,0.100
5.336,0.120,0.105
5.338,0.115,0.110
5.340,0.160,0.115
5.342,0.205,0.120
5.344,0.250,0.125
5.346,0.270,0.135
5.348,0.325,0.145
5.350,0.300,0.155
5.352,0.250,0.165
5.354,0.230,0.175
5.356,0.190,0.180
5.358,0.190,0.185
5.360,0.225,0.190
5.362,0.280,0.190
5.364,0.310,0.195
5.366,0.360,0.200
5.368,0.370,0.205
5.370,0.335,0.210
5.372,0.305,0.220
5.374,0.295,0.230
5.376,0.230,0.230
5.378,0.215,0.235
5.380,0.240,0.230
5.382,0.270,0.225
5.384,0.330,0.215
5.386,0.350,0.205
5.388,0.345,0.195
5.390,0.305,0.190
5.392,0.265,0.190
5.394,0.215,0.190
5.396,0.195,0.190
5.398,0.175,0.195
5.400,0.200,0.195
5.402,0.245,0.190
5.404,0.270,0.185
5.406,0.290,0.170
5.408,0.275,0.155
5.410,0.230,0.140
5.412,0.195,0.125
5.414,0.170,0.110
5.416,0.090,0.095
5.418,0.070,0.085
5.420,0.105,0.080
5.422,0.140,0.075
5.424,0.170,0.065
5.426,0.175,0.060
5.428,0.175,0.050
5.430,0.135,0.035
5.432,0.070,0.025
5.434,0.070,0.010
5.436,-0.010,0.000
5.438,-0.010,-0.005
5.440,0.020,-0.010
5.442,0.045,-0.010
5.444,0.115,-0.010
5.446,0.165,-0.005
5.448,0.150,-0.005
5.450,0.070,-0.005
5.452,0.010,-0.010
5.454,-0.005,-0.020
5.456,-0.045,-0.025
5.458,-0.045,-0.035
5.460,-0.005,-0.040
5.462,0.030,-0.045
5.464,0.040,-0.050
5.466,0.125,-0.050
5.468,0.075,-0.050
5.470,0.045,-0.050
5.472,-0.005,-0.050
5.474,-0.035,-0.055
5.476,-0.050,-0.060
5.478,-0.020,-0.060
5.480,-0.025,-0.065
5.482,0.020,-0.070
5.484,0.050,-0.070
5.486,0.085,-0.070
5.488,0.085,-0.065
5.490,0.060,-0.060
5.492,0.000,-0.055
5.494,-0.035,-0.050
5.496,-0.090,-0.045
5.498,-0.040,-0.040
5.500,-0.010,-0.040
5.502,0.050,-0.040
5.504,0.060,-0.040
5.506,0.120,-0.040
5.508,0.105,-0.035
5.510,0.045,-0.035
5.512,-0.030,-0.030
5.514,-0.020,-0.030
5.516,-0.045,-0.025
5.518,-0.040,-0.020
5.520,-0.015,-0.020
5.522,0.025,-0.020
5.524,0.060,-0.025
5.526,0.135,-0.030
5.528,0.095,-0.035
5.530,0.050,-0.040
5.532,-0.010,-0.040
5.534,-0.025,-0.040
5.536,-0.045,-0.040
5.538,-0.020,-0.035
5.540,-0.005,-0.030
5.542,0.085,-0.025
5.544,0.075,-0.025
5.546,0.120,-0.020
5.548,0.085,-0.020
5.550,0.070,-0.025
5.552,-0.010,-0.030
5.554,-0.010,-0.035
5.556,-0.065,-0.035
5.558,-0.025,-0.040
5.560,-0.005,-0.040
5.562,0.055,-0.040
5.564,0.070,-0.035
5.566,0.115,-0.030
5.568,0.090,-0.025
5.570,0.035,-0.020
5.572,-0.020,-0.020
5.574,-0.025,-0.015
5.576,-0.045,-0.015
5.578,-0.020,-0.020
5.580,0.015,-0.025
5.582,0.065,-0.030
5.584,0.070,-0.035
5.586,0.105,-0.040
5.588,0.090,-0.045
5.590,0.010,-0.050
5.592,-0.020,-0.050
5.594,-0.050,-0.055
5.596,-0.085,-0.055
5.598,-0.050,-0.055
5.600,-0.010,-0.050
5.602,0.045,-0.050
5.604,0.070,-0.050
5.606,0.115,-0.045
5.608,0.060,-0.045
5.610,0.015,-0.045
5.612,-0.040,-0.050
5.614,-0.045,-0.050
5.616,-0.075,-0.050
5.618,-0.035,-0.055
5.620,-0.010,-0.055
5.622,0.045,-0.055
5.624,0.050,-0.050
5.626,0.085,-0.050
5.628,0.055,-0.050
5.630,0.000,-0.050
5.632,-0.025,-0.050
5.634,-0.040,-0.050
5.636,-0.080,-0.055
5.638,-0.035,-0.055
5.640,0.005,-0.055
5.642,0.050,-0.050
5.644,0.045,-0.050
5.646,0.105,-0.045
5.648,0.045,-0.040
5.650,0.030,-0.035
5.652,0.000,-0.035
5.654,-0.005,-0.030
5.656,-0.035,-0.030
5.658,-0.025,-0.035
5.660,0.005,-0.035
5.662,0.060,-0.040
5.664,0.070,-0.040
5.666,0.080,-0.045
5.668,0.030,-0.045
5.670,0.030,-0.045
5.672,-0.020,-0.040
5.674,-0.060,-0.040
5.676,-0.070,-0.035
5.678,-0.040,-0.035
5.680,0.000,-0.035
5.682,0.065,-0.035
5.684,0.085,-0.035
5.686,0.105,-0.035
5.688,0.075,-0.035
5.690,0.045,-0.030
5.692,0.010,-0.030
5.694,-0.020,-0.025
5.696,-0.040,-0.020
5.698,0.000,-0.020
5.700,0.040,-0.015
5.702,0.090,-0.015
5.704,0.125,-0.015
5.706,0.130,-0.020
5.708,0.060,-0.020
5.710,0.025,-0.025
5.712,-0.010,-0.025
5.714,-0.055,-0.030
5.716,-0.055,-0.035
5.718,-0.025,-0.035
5.720,0.040,-0.040
5.722,0.045,-0.045
5.724,0.065,-0.050
5.726,0.070,-0.055
5.728,0.000,-0.060
5.730,-0.020,-0.065
5.732,-0.040,-0.070
5.734,-0.075,-0.075
5.736,-0.065,-0.075
5.738,-0.035,-0.080
5.740,0.000,-0.080
5.742,0.015,-0.080
5.744,0.030,-0.080
5.746,0.050,-0.080
5.748,0.025,-0.080
5.750,-0.035,-0.080
5.752,-0.080,-0.080
5.754,-0.105,-0.080
5.756,-0.090,-0.080
5.758,-0.040,-0.080
5.760,0.000,-0.075
5.762,0.015,-0.075
5.764,0.060,-0.075
5.766,0.060,-0.080
5.768,-0.005,-0.080
5.770,-0.040,-0.085
5.772,-0.100,-0.090
5.774,-0.150,-0.095
5.776,-0.115,-0.105
5.778,-0.100,-0.115
5.780,-0.075,-0.125
5.782,-0.045,-0.130
5.784,-0.020,-0.130
5.786,-0.015,-0.120
5.788,-0.020,-0.095
5.790,-0.005,-0.055
5.792,0.035,0.000
5.794,0.050,0.060
5.796,0.145,0.130
5.798,0.260,0.200
5.800,0.380,0.255
5.802,0.455,0.300
5.804,0.500,0.320
5.806,0.430,0.310
5.808,0.310,0.280
5.810,0.160,0.220
5.812,0.125,0.150
5.814,0.050,0.065
5.816,0.005,-0.025
5.818,-0.075,-0.105
5.820,-0.150,-0.175
5.822,-0.215,-0.230
5.824,-0.165,-0.265
5.826,-0.170,-0.285
5.828,-0.175,-0.290
5.830,-0.265,-0.285
5.832,-0.275,-0.270
5.834,-0.305,-0.255
5.836,-0.240,-0.240
5.838,-0.190,-0.225
5.840,-0.100,-0.210
5.842,-0.055,-0.195
5.844,-0.035,-0.180
5.846,-0.020,-0.165
5.848,-0.040,-0.145
5.850,-0.080,-0.125
5.852,-0.095,-0.110
5.854,-0.125,-0.095
5.856,-0.080,-0.085
5.858,-0.050,-0.075
5.860,-0.005,-0.075
5.862,0.050,-0.080
5.864,0.080,-0.080
5.866,0.025,-0.085
5.868,-0.010,-0.085
5.870,-0.050,-0.080
5.872,-0.055,-0.070
5.874,-0.090,-0.060
5.876,-0.040,-0.050
5.878,0.000,-0.040
5.880,0.035,-0.030
5.882,0.045,-0.025
5.884,0.090,-0.025
5.886,0.080,-0.030
5.888,0.015,-0.035
5.890,-0.030,-0.040
5.892,-0.050,-0.040
5.894,-0.075,-0.040
5.896,-0.025,-0.040
5.898,0.010,-0.035
5.900,0.055,-0.030
5.902,0.060,-0.030
5.904,0.110,-0.025
5.906,0.065,-0.025
5.908,0.030,-0.025
5.910,0.010,-0.030
5.912,-0.010,-0.030
5.914,-0.025,-0.030
5.916,-0.010,-0.030
5.918,0.015,-0.025
5.920,0.060,-0.020
5.922,0.070,-0.015
5.924,0.120,-0.005
5.926,0.090,0.005
5.928,0.050,0.010
5.930,0.030,0.015
5.932,-0.005,0.015
5.934,-0.025,0.015
5.936,-0.005,0.010
5.938,0.035,0.005
5.940,0.080,0.005
5.942,0.120,0.005
5.944,0.195,0.005
5.946,0.115,0.010
5.948,0.045,0.015
5.950,0.025,0.025
5.952,0.015,0.030
5.954,-0.005,0.035
5.956,0.050,0.045
5.958,0.095,0.050
5.960,0.120,0.050
5.962,0.165,0.055
5.964,0.175,0.055
5.966,0.140,0.060
5.968,0.115,0.065
5.970,0.080,0.070
5.972,0.095,0.075
5.974,0.085,0.085
5.976,0.120,0.095
5.978,0.170,0.105
5.980,0.210,0.115
5.982,0.245,0.125
5.984,0.275,0.135
5.986,0.270,0.145
5.988,0.185,0.155
5.990,0.175,0.160
5.992,0.165,0.170
5.994,0.150,0.175
5.996,0.190,0.180
5.998,0.240,0.185
6.000,0.280,0.185
6.002,0.285,0.180
6.004,0.290,0.175
6.006,0.275,0.175
6.008,0.215,0.170
6.010,0.190,0.170
6.012,0.170,0.170
6.014,0.170,0.170
6.016,0.185,0.170
6.018,0.235,0.170
6.020,0.270,0.170
6.022,0.295,0.170
6.024,0.285,0.165
6.026,0.230,0.160
6.028,0.190,0.155
6.030,0.155,0.145
6.032,0.110,0.140
6.034,0.110,0.130
6.036,0.155,0.120
6.038,0.165,0.115
6.040,0.160,0.100
6.042,0.205,0.090
6.044,0.165,0.075
6.046,0.135,0.065
6.048,0.080,0.050
6.050,0.015,0.035
6.052,0.000,0.025
6.054,0.020,0.015
6.056,0.030,0.010
6.058,0.095,0.005
6.060,0.070,0.000
6.062,0.135,0.000
6.064,0.115,-0.005
6.066,0.075,-0.010
6.068,-0.015,-0.020
6.070,-0.055,-0.025
6.072,-0.095,-0.030
6.074,-0.070,-0.035
6.076,-0.025,-0.040
6.078,0.015,-0.045
6.080,0.045,-0.045
6.082,0.100,-0.050
6.084,0.060,-0.055
6.086,0.000,-0.055
6.088,-0.035,-0.060
6.090,-0.065,-0.060
6.092,-0.090,-0.065
6.094,-0.060,-0.065
6.096,-0.055,-0.065
6.098,0.005,-0.065
6.100,0.035,-0.065
6.102,0.065,-0.060
6.104,0.040,-0.060
6.106,0.010,-0.060
6.108,-0.045,-0.065
6.110,-0.060,-0.065
6.112,-0.115,-0.070
6.114,-0.070,-0.070
6.116,-0.045,-0.070
6.118,0.020,-0.070
6.120,0.005,-0.065
6.122,0.070,-0.060
6.124,0.045,-0.055
6.126,0.010,-0.055
6.128,-0.040,-0.050
6.130,-0.050,-0.050
6.132,-0.070,-0.055
6.134,-0.045,-0.055
6.136,-0.030,-0.055
6.138,0.015,-0.055
6.140,0.030,-0.055
6.142,0.065,-0.050
6.144,0.045,-0.040
6.146,0.055,-0.035
6.148,-0.005,-0.030
6.150,-0.055,-0.030
6.152,-0.095,-0.030
6.154,-0.040,-0.035
6.156,-0.020,-0.040
6.158,0.040,-0.045
6.160,0.050,-0.045
6.162,0.100,-0.045
6.164,0.065,-0.040
6.166,0.015,-0.035
6.168,-0.020,-0.030
6.170,-0.025,-0.025
6.172,-0.050,-0.020
6.174,-0.035,-0.020
6.176,-0.020,-0.025
6.178,0.030,-0.030
6.180,0.065,-0.035
6.182,0.090,-0.040
6.184,0.065,-0.045
6.186,0.040,-0.045
6.188,-0.020,-0.040
6.190,-0.025,-0.035
6.192,-0.070,-0.030
6.194,-0.040,-0.030
6.196,0.000,-0.025
6.198,0.050,-0.025
6.200,0.065,-0.025
6.202,0.100,-0.030
6.204,0.060,-0.035
6.206,0.005,-0.040
6.208,-0.030,-0.045
6.210,-0.055,-0.045
6.212,-0.060,-0.045
6.214,-0.020,-0.045
6.216,0.020,-0.040
6.218,0.040,-0.040
6.220,0.045,-0.035
6.222,0.075,-0.035
6.224,0.045,-0.035
6.226,0.010,-0.035
6.228,-0.010,-0.040
6.230,-0.035,-0.045
6.232,-0.075,-0.050
6.234,-0.040,-0.055
6.236,-0.005,-0.055
6.238,0.025,-0.055
6.240,0.045,-0.055
6.242,0.095,-0.050
6.244,0.045,-0.045
6.246,0.005,-0.045
6.248,-0.035,-0.045
6.250,-0.060,-0.040
6.252,-0.075,-0.040
6.254,-0.025,-0.040
6.256,-0.010,-0.045
6.258,0.065,-0.045
6.260,0.060,-0.045
6.262,0.065,-0.045
6.264,0.045,-0.040
6.266,0.000,-0.040
6.268,-0.035,-0.035
6.270,-0.065,-0.035
6.272,-0.080,-0.035
6.274,-0.035,-0.035
6.276,0.005,-0.040
6.278,0.050,-0.040
6.280,0.055,-0.045
6.282,0.075,-0.045
6.284,0.005,-0.045
6.286,0.010,-0.045
6.288,-0.025,-0.040
6.290,-0.065,-0.035
6.292,-0.035,-0.030
6.294,-0.040,-0.030
6.296,0.020,-0.025
6.298,0.060,-0.025
6.300,0.070,-0.030
6.302,0.095,-0.030
6.304,0.055,-0.030
6.306,-0.030,-0.035
6.308,-0.035,-0.035
6.310,-0.055,-0.040
6.312,-0.065,-0.040
6.314,-0.030,-0.040
6.316,0.020,-0.040
6.318,0.060,-0.035
6.320,0.095,-0.035
6.322,0.090,-0.030
6.324,0.065,-0.025
6.326,0.045,-0.015
6.328,0.005,-0.010
6.330,-0.035,-0.005
6.332,-0.005,0.000
6.334,0.015,0.005
6.336,0.060,0.005
6.338,0.065,0.000
6.340,0.115,0.000
6.342,0.105,-0.005
6.344,0.085,-0.005
6.346,0.045,-0.005
6.348,0.010,-0.005
6.350,-0.045,-0.005
6.352,-0.010,0.000
6.354,0.010,0.005
6.356,0.070,0.005
6.358,0.075,0.005
6.360,0.095,0.000
6.362,0.080,-0.010
6.364,0.075,-0.015
6.366,0.000,-0.025
6.368,-0.060,-0.030
6.370,-0.085,-0.040
6.372,-0.030,-0.040
6.374,-0.025,-0.040
6.376,0.025,-0.040
6.378,0.040,-0.040
6.380,0.080,-0.040
6.382,0.065,-0.040
6.384,0.060,-0.040
6.386,-0.025,-0.045
6.388,-0.070,-0.045
6.390,-0.100,-0.050
6.392,-0.075,-0.050
6.394,-0.035,-0.050
6.396,0.010,-0.055
6.398,0.050,-0.055
6.400,0.080,-0.055
6.402,0.055,-0.055
6.404,0.005,-0.055
6.406,-0.040,-0.055
6.408,-0.050,-0.055
6.410,-0.085,-0.055
6.412,-0.050,-0.050
6.414,-0.010,-0.050
6.416,0.030,-0.045
6.418,0.030,-0.045
6.420,0.075,-0.045
6.422,0.040,-0.045
6.424,0.000,-0.050
6.426,-0.015,-0.055
6.428,-0.070,-0.060
6.430,-0.120,-0.070
6.432,-0.090,-0.075
6.434,-0.060,-0.085
6.436,-0.025,-0.090
6.438,-0.040,-0.100
6.440,0.025,-0.105
6.442,0.005,-0.105
6.444,-0.070,-0.095
6.446,-0.090,-0.080
6.448,-0.050,-0.045
6.450,-0.010,0.000
6.452,0.105,0.065
6.454,0.200,0.135
6.456,0.310,0.215
6.458,0.395,0.290
6.460,0.525,0.350
6.462,0.555,0.390
6.464,0.485,0.400
6.466,0.395,0.385
6.468,0.275,0.335
6.470,0.140,0.265
6.472,0.155,0.175
6.474,0.150,0.080
6.476,0.065,-0.015
6.478,0.015,-0.100
6.480,-0.070,-0.170
6.482,-0.215,-0.220
6.484,-0.235,-0.250
6.486,-0.255,-0.265
6.488,-0.255,-0.265
6.490,-0.260,-0.255
6.492,-0.205,-0.235
6.494,-0.160,-0.215
6.496,-0.085,-0.190
6.498,-0.065,-0.165
6.500,0.005,-0.140
6.502,0.015,-0.115
6.504,-0.050,-0.095
6.506,-0.080,-0.075
6.508,-0.075,-0.060
6.510,-0.075,-0.050
6.512,-0.040,-0.045
6.514,-0.015,-0.040
6.516,0.070,-0.040
6.518,0.075,-0.035
6.520,0.090,-0.030
6.522,0.075,-0.025
6.524,0.030,-0.020
6.526,-0.030,-0.015
6.528,-0.030,-0.010
6.530,-0.045,-0.005
6.532,-0.010,-0.005
6.534,0.035,-0.005
6.536,0.100,-0.010
6.538,0.095,-0.015
6.540,0.100,-0.020
6.542,0.070,-0.020
6.544,0.035,-0.025
6.546,0.000,-0.025
6.548,-0.025,-0.020
6.550,-0.040,-0.015
6.552,-0.015,-0.010
6.554,0.045,-0.010
6.556,0.075,-0.005
6.558,0.110,-0.005
6.560,0.115,-0.010
6.562,0.110,-0.010
6.564,0.040,-0.010
6.566,0.010,-0.010
6.568,-0.025,-0.010
6.570,-0.015,-0.005
6.572,0.020,0.000
6.574,0.065,0.005
6.576,0.130,0.010
6.578,0.125,0.015
6.580,0.140,0.020
6.582,0.100,0.025
6.584,0.060,0.030
6.586,0.025,0.030
6.588,0.000,0.035
6.590,0.005,0.035
6.592,0.055,0.040
6.594,0.100,0.045
6.596,0.125,0.050
6.598,0.140,0.055
6.600,0.150,0.060
6.602,0.125,0.060
6.604,0.085,0.060
6.606,0.090,0.055
6.608,0.025,0.055
6.610,0.005,0.050
6.612,0.065,0.050
6.614,0.110,0.050
6.616,0.160,0.055
6.618,0.220,0.060
6.620,0.190,0.070
6.622,0.175,0.075
6.624,0.130,0.085
6.626,0.045,0.090
6.628,0.045,0.095
6.630,0.095,0.100
6.632,0.140,0.110
6.634,0.210,0.115
6.636,0.220,0.125
6.638,0.280,0.135
6.640,0.255,0.150
6.642,0.225,0.160
6.644,0.195,0.170
6.646,0.175,0.180
6.648,0.155,0.190
6.650,0.160,0.195
6.652,0.230,0.200
6.654,0.250,0.205
6.656,0.305,0.210
6.658,0.355,0.215
6.660,0.320,0.215
6.662,0.310,0.220
6.664,0.255,0.225
6.666,0.225,0.230
6.668,0.175,0.230
6.670,0.215,0.230
6.672,0.265,0.230
6.674,0.270,0.225
6.676,0.305,0.220
6.678,0.360,0.220
6.680,0.300,0.215
6.682,0.275,0.210
6.684,0.225,0.205
6.686,0.210,0.200
6.688,0.155,0.200
6.690,0.185,0.190
6.692,0.175,0.185
6.694,0.240,0.175
6.696,0.265,0.165
6.698,0.290,0.155
6.700,0.235,0.145
6.702,0.215,0.130
6.704,0.125,0.120
6.706,0.055,0.110
6.708,0.025,0.095
6.710,0.075,0.085
6.712,0.075,0.075
6.714,0.130,0.065
6.716,0.125,0.055
6.718,0.150,0.045
6.720,0.140,0.035
6.722,0.090,0.030
6.724,0.025,0.025
6.726,-0.005,0.020
6.728,-0.025,0.015
6.730,-0.005,0.010
6.732,0.015,0.000
6.734,0.075,-0.005
6.736,0.070,-0.010
6.738,0.120,-0.010
6.740,0.095,-0.015
6.742,0.025,-0.015
6.744,-0.015,-0.010
6.746,-0.010,-0.010
6.748,-0.065,-0.010
6.750,-0.010,-0.010
6.752,0.015,-0.015
6.754,0.070,-0.020
6.756,0.055,-0.025
6.758,0.080,-0.035
6.760,0.045,-0.040
6.762,0.020,-0.045
6.764,-0.020,-0.045
6.766,-0.040,-0.045
6.768,-0.080,-0.040
6.770,-0.040,-0.035
6.772,0.010,-0.025
6.774,0.080,-0.020
6.776,0.095,-0.015
6.778,0.115,-0.010
6.780,0.050,-0.010
6.782,0.040,-0.010
6.784,-0.030,-0.015
6.786,-0.035,-0.015
6.788,-0.050,-0.020
6.790,-0.015,-0.020
6.792,0.010,-0.025
6.794,0.060,-0.025
6.796,0.060,-0.025
6.798,0.095,-0.025
6.800,0.055,-0.025
6.802,0.025,-0.020
6.804,-0.005,-0.020
6.806,-0.035,-0.015
6.808,-0.025,-0.010
6.810,-0.005,-0.005
6.812,0.035,0.000
6.814,0.065,0.005
6.816,0.080,0.005
6.818,0.110,0.005
6.820,0.075,0.005
6.822,0.030,0.000
6.824,0.015,-0.005
6.826,-0.035,-0.010
6.828,-0.060,-0.015
6.830,-0.025,-0.015
6.832,0.040,-0.015
6.834,0.075,-0.010
6.836,0.090,0.000
6.838,0.115,0.005
6.840,0.080,0.015
6.842,0.025,0.020
6.844,0.015,0.020
6.846,-0.005,0.020
6.848,-0.020,0.015
6.850,0.025,0.010
6.852,0.035,0.000
6.854,0.065,-0.005
6.856,0.090,-0.015
6.858,0.100,-0.020
6.860,0.080,-0.020
6.862,0.025,-0.020
6.864,0.000,-0.020
6.866,-0.055,-0.015
6.868,-0.050,-0.010
6.870,-0.010,-0.010
6.872,0.025,-0.005
6.874,0.050,-0.005
6.876,0.105,-0.005
6.878,0.100,-0.005
6.880,0.060,-0.005
6.882,0.035,-0.010
6.884,-0.025,-0.010
6.886,-0.045,-0.015
6.888,-0.045,-0.015
6.890,-0.015,-0.020
6.892,0.060,-0.020
6.894,0.070,-0.020
6.896,0.100,-0.025
6.898,0.065,-0.025
6.900,0.035,-0.020
6.902,-0.010,-0.015
6.904,-0.025,-0.015
6.906,-0.040,-0.010
6.908,-0.040,-0.005
6.910,-0.010,-0.005
6.912,0.035,-0.005
6.914,0.050,-0.010
6.916,0.095,-0.015
6.918,0.095,-0.025
6.920,0.070,-0.030
6.922,-0.010,-0.035
6.924,-0.040,-0.040
6.926,-0.060,-0.040
6.928,-0.050,-0.035
6.930,-0.005,-0.030
6.932,0.020,-0.025
6.934,0.065,-0.020
6.936,0.110,-0.015
6.938,0.100,-0.010
6.940,0.050,-0.010
6.942,0.000,-0.010
6.944,-0.045,-0.015
6.946,-0.095,-0.020
6.948,-0.030,-0.020
6.950,-0.015,-0.020
6.952,0.020,-0.020
6.954,0.050,-0.020
6.956,0.100,-0.015
6.958,0.085,-0.015
6.960,0.045,-0.015
6.962,-0.030,-0.020
6.964,-0.020,-0.025
6.966,-0.100,-0.030
6.968,-0.045,-0.035
6.970,-0.030,-0.040
6.972,0.030,-0.040
6.974,0.055,-0.040
6.976,0.090,-0.040
6.978,0.075,-0.035
6.980,0.035,-0.030
6.982,-0.010,-0.025
6.984,-0.055,-0.025
6.986,-0.070,-0.025
6.988,-0.035,-0.025
6.990,-0.010,-0.025
6.992,0.055,-0.025
6.994,0.105,-0.025
6.996,0.090,-0.020
6.998,0.095,-0.015
7.000,0.055,-0.010
7.002,-0.015,0.000
7.004,-0.005,0.005
7.006,-0.030,0.010
7.008,-0.005,0.020
7.010,0.035,0.020
7.012,0.070,0.020
7.014,0.060,0.020
7.016,0.135,0.020
7.018,0.110,0.020
7.020,0.075,0.015
7.022,0.050,0.015
7.024,0.035,0.010
7.026,-0.040,0.010
7.028,-0.010,0.010
7.030,0.000,0.005
7.032,0.070,0.005
7.034,0.090,0.005
7.036,0.125,0.005
7.038,0.080,0.005
7.040,0.045,0.000
7.042,-0.015,0.000
7.044,-0.025,0.000
7.046,-0.060,-0.005
7.048,-0.010,-0.010
7.050,0.010,-0.015
7.052,0.050,-0.020
7.054,0.065,-0.025
7.056,0.060,-0.035
7.058,0.050,-0.040
7.060,0.000,-0.045
7.062,-0.045,-0.050
7.064,-0.070,-0.050
7.066,-0.105,-0.050
7.068,-0.055,-0.050
7.070,-0.020,-0.050
7.072,0.010,-0.045
7.074,0.020,-0.040
7.076,0.060,-0.040
7.078,0.045,-0.035
7.080,-0.015,-0.035
7.082,-0.050,-0.035
7.084,-0.035,-0.035
7.086,-0.070,-0.035
7.088,-0.055,-0.040
7.090,-0.025,-0.045
7.092,0.010,-0.050
7.094,0.035,-0.060
7.096,0.045,-0.065
7.098,0.000,-0.070
7.100,-0.030,-0.070
7.102,-0.060,-0.070
7.104,-0.075,-0.070
7.106,-0.095,-0.065
7.108,-0.050,-0.060
7.110,-0.050,-0.060
7.112,-0.030,-0.065
7.114,0.025,-0.075
7.116,-0.010,-0.085
7.118,-0.040,-0.095
7.120,-0.075,-0.100
7.122,-0.110,-0.100
7.124,-0.110,-0.085
7.126,-0.100,-0.055
7.128,-0.005,-0.005
7.130,0.135,0.060
7.132,0.245,0.135
7.134,0.350,0.215
7.136,0.405,0.295
7.138,0.490,0.360
7.140,0.490,0.400
7.142,0.465,0.420
7.144,0.410,0.410
7.146,0.320,0.365
7.148,0.200,0.300
7.150,0.225,0.215
7.152,0.205,0.120
7.154,0.125,0.020
7.156,0.050,-0.075
7.158,-0.120,-0.155
7.160,-0.275,-0.215
7.162,-0.290,-0.255
7.164,-0.320,-0.275
7.166,-0.325,-0.275
7.168,-0.245,-0.260
7.170,-0.165,-0.240
7.172,-0.140,-0.210
7.174,-0.090,-0.180
7.176,-0.020,-0.155
7.178,-0.040,-0.135
7.180,-0.115,-0.120
7.182,-0.125,-0.105
7.184,-0.135,-0.100
7.186,-0.090,-0.090
7.188,-0.035,-0.080
7.190,0.000,-0.070
7.192,0.015,-0.055
7.194,0.055,-0.040
7.196,0.065,-0.025
7.198,0.040,-0.015
7.200,0.000,-0.010
7.202,-0.050,-0.005
7.204,-0.040,-0.010
7.206,-0.045,-0.015
7.208,-0.010,-0.020
7.210,0.005,-0.030
7.212,0.060,-0.035
7.214,0.085,-0.040
7.216,0.095,-0.040
7.218,0.035,-0.035
7.220,-0.005,-0.025
7.222,-0.015,-0.020
7.224,-0.055,-0.010
7.226,-0.030,-0.005
7.228,0.020,-0.005
7.230,0.055,-0.005
7.232,0.045,-0.005
7.234,0.100,-0.005
7.236,0.080,-0.010
7.238,0.050,-0.005
7.240,0.015,-0.005
7.242,-0.030,0.005
7.244,-0.065,0.010
7.246,0.030,0.015
7.248,0.045,0.020
7.250,0.055,0.020
7.252,0.065,0.015
7.254,0.105,0.010
7.256,0.115,0.010
7.258,0.070,0.005
7.260,0.025,0.005
7.262,0.020,0.010
7.264,-0.040,0.015
7.266,0.010,0.025
7.268,0.030,0.035
7.270,0.095,0.045
7.272,0.125,0.050
7.274,0.165,0.055
7.276,0.145,0.050
7.278,0.115,0.050
7.280,0.050,0.045
7.282,0.015,0.045
7.284,-0.005,0.045
7.286,0.030,0.045
7.288,0.055,0.050
7.290,0.110,0.055
7.292,0.140,0.065
7.294,0.215,0.070
7.296,0.200,0.075
7.298,0.105,0.080
7.300,0.060,0.085
7.302,0.090,0.085
7.304,0.060,0.090
7.306,0.080,0.090
7.308,0.105,0.095
7.310,0.160,0.100
7.312,0.190,0.110
7.314,0.230,0.115
7.316,0.240,0.125
7.318,0.225,0.130
7.320,0.145,0.140
7.322,0.145,0.145
7.324,0.125,0.150
7.326,0.140,0.160
7.328,0.190,0.165
7.330,0.295,0.175
7.332,0.255,0.185
7.334,0.315,0.195
7.336,0.290,0.205
7.338,0.265,0.215
7.340,0.210,0.225
7.342,0.195,0.230
7.344,0.195,0.235
7.346,0.215,0.235
7.348,0.250,0.235
7.350,0.285,0.235
7.352,0.290,0.230
7.354,0.325,0.230
7.356,0.300,0.225
7.358,0.260,0.220
7.360,0.220,0.220
7.362,0.180,0.215
7.364,0.160,0.210
7.366,0.185,0.205
7.368,0.205,0.195
7.370,0.250,0.185
7.372,0.245,0.175
7.374,0.270,0.160
7.376,0.220,0.145
7.378,0.175,0.130
7.380,0.110,0.115
7.382,0.105,0.105
7.384,0.030,0.090
7.386,0.050,0.080
7.388,0.105,0.070
7.390,0.155,0.060
7.392,0.130,0.050
7.394,0.155,0.040
7.396,0.145,0.030
7.398,0.045,0.020
7.400,0.010,0.015
7.402,0.000,0.005
7.404,-0.045,0.000
7.406,-0.015,-0.010
7.408,0.020,-0.015
7.410,0.055,-0.020
7.412,0.085,-0.025
7.414,0.095,-0.025
7.416,0.065,-0.030
7.418,-0.005,-0.030
7.420,-0.050,-0.030
7.422,-0.040,-0.030
7.424,-0.065,-0.030
7.426,-0.060,-0.030
7.428,-0.020,-0.035
7.430,0.025,-0.035
7.432,0.050,-0.040
7.434,0.060,-0.045
7.436,0.035,-0.050
7.438,-0.025,-0.050
7.440,-0.050,-0.055
7.442,-0.070,-0.055
7.444,-0.095,-0.050
7.446,-0.040,-0.050
7.448,0.015,-0.045
7.450,0.060,-0.040
7.452,0.075,-0.035
7.454,0.050,-0.035
7.456,0.030,-0.035
7.458,-0.030,-0.040
7.460,-0.080,-0.045
7.462,-0.085,-0.050
7.464,-0.120,-0.055
7.466,-0.050,-0.060
7.468,0.000,-0.060
7.470,0.030,-0.055
7.472,0.060,-0.050
7.474,0.090,-0.045
7.476,0.015,-0.035
7.478,-0.005,-0.030
7.480,-0.045,-0.025
7.482,-0.075,-0.020
7.484,-0.065,-0.025
7.486,-0.045,-0.030
7.488,0.005,-0.035
7.490,0.015,-0.040
7.492,0.060,-0.045
7.494,0.080,-0.050
7.496,0.035,-0.050
7.498,-0.030,-0.050
7.500,-0.065,-0.045
7.502,-0.085,-0.040
7.504,-0.045,-0.040
7.506,-0.015,-0.035
7.508,-0.005,-0.035
7.510,0.030,-0.035
7.512,0.080,-0.035
7.514,0.060,-0.035
7.516,0.025,-0.035
7.518,-0.005,-0.030
7.520,-0.050,-0.030
7.522,-0.055,-0.025
7.524,-0.050,-0.020
7.526,0.005,-0.015
7.528,0.035,-0.010
7.530,0.050,-0.010
7.532,0.095,-0.015
7.534,0.055,-0.025
7.536,0.015,-0.030
7.538,-0.055,-0.040
7.540,-0.065,-0.045
7.542,-0.085,-0.050
7.544,-0.065,-0.050
7.546,-0.030,-0.050
7.548,0.015,-0.045
7.550,0.040,-0.035
7.552,0.100,-0.030
7.554,0.050,-0.025
7.556,0.000,-0.025
7.558,-0.050,-0.030
7.560,-0.050,-0.035
7.562,-0.095,-0.040
7.564,-0.080,-0.045
7.566,-0.050,-0.045
7.568,0.015,-0.045
7.570,0.045,-0.045
7.572,0.090,-0.040
7.574,0.065,-0.035
7.576,0.035,-0.030
7.578,-0.035,-0.030
7.580,-0.055,-0.030
7.582,-0.090,-0.035
7.584,-0.055,-0.040
7.586,-0.005,-0.045
7.588,-0.005,-0.050
7.590,0.015,-0.050
7.592,0.070,-0.050
7.594,0.040,-0.050
7.596,0.005,-0.045
7.598,-0.045,-0.045
7.600,-0.060,-0.045
7.602,-0.095,-0.045
7.604,-0.080,-0.045
7.606,-0.035,-0.050
7.608,0.030,-0.055
7.610,0.025,-0.060
7.612,0.065,-0.060
7.614,0.040,-0.060
7.616,-0.005,-0.055
7.618,-0.065,-0.050
7.620,-0.085,-0.050
7.622,-0.100,-0.045
7.624,-0.060,-0.045
7.626,-0.030,-0.045
7.628,0.040,-0.050
7.630,0.045,-0.055
7.632,0.055,-0.060
7.634,0.015,-0.065
7.636,-0.020,-0.065
7.638,-0.045,-0.065
7.640,-0.060,-0.065
7.642,-0.115,-0.060
7.644,-0.060,-0.055
7.646,-0.005,-0.050
7.648,0.045,-0.045
7.650,0.050,-0.045
7.652,0.095,-0.040
7.654,0.015,-0.045
7.656,-0.050,-0.045
7.658,-0.070,-0.050
7.660,-0.050,-0.050
7.662,-0.080,-0.055
7.664,-0.080,-0.055
7.666,-0.025,-0.055
7.668,0.035,-0.055
7.670,0.045,-0.050
7.672,0.075,-0.045
7.674,0.030,-0.045
7.676,0.005,-0.040
7.678,-0.030,-0.040
7.680,-0.050,-0.035
7.682,-0.080,-0.035
7.684,-0.045,-0.035
7.686,0.025,-0.035
7.688,0.050,-0.030
7.690,0.050,-0.030
7.692,0.070,-0.025
7.694,0.055,-0.025
7.696,-0.005,-0.025
7.698,-0.020,-0.020
7.700,-0.030,-0.020
7.702,-0.040,-0.020
7.704,0.015,-0.025
7.706,0.000,-0.025
7.708,0.040,-0.025
7.710,0.070,-0.025
7.712,0.080,-0.020
7.714,0.055,-0.020
7.716,0.005,-0.015
7.718,-0.015,-0.015
7.720,-0.045,-0.015
7.722,-0.070,-0.020
7.724,-0.065,-0.025
7.726,-0.005,-0.035
7.728,0.025,-0.045
7.730,0.015,-0.055
7.732,0.055,-0.065
7.734,0.040,-0.070
7.736,-0.030,-0.075
7.738,-0.095,-0.075
7.740,-0.095,-0.075
7.742,-0.105,-0.070
7.744,-0.075,-0.065
7.746,-0.030,-0.060
7.748,0.010,-0.055
7.750,0.025,-0.055
7.752,0.040,-0.055
7.754,-0.010,-0.060
7.756,-0.045,-0.065
7.758,-0.085,-0.070
7.760,-0.105,-0.075
7.762,-0.110,-0.080
7.764,-0.060,-0.080
7.766,-0.065,-0.085
7.768,-0.005,-0.080
7.770,0.060,-0.080
7.772,0.030,-0.080
7.774,-0.035,-0.080
7.776,-0.065,-0.080
7.778,-0.100,-0.080
7.780,-0.115,-0.075
7.782,-0.090,-0.075
7.784,-0.070,-0.075
7.786,-0.005,-0.075
7.788,0.005,-0.075
7.790,0.025,-0.080
7.792,0.000,-0.085
7.794,-0.060,-0.095
7.796,-0.105,-0.110
7.798,-0.155,-0.120
7.800,-0.190,-0.130
7.802,-0.160,-0.130
7.804,-0.085,-0.115
7.806,-0.015,-0.085
7.808,0.075,-0.035
7.810,0.155,0.030
7.812,0.235,0.105
7.814,0.240,0.185
7.816,0.280,0.255
7.818,0.350,0.310
7.820,0.355,0.345
7.822,0.370,0.355
7.824,0.340,0.330
7.826,0.260,0.285
7.828,0.230,0.215
7.830,0.270,0.135
7.832,0.180,0.045
7.834,0.055,-0.040
7.836,-0.095,-0.120
7.838,-0.285,-0.185
7.840,-0.385,-0.235
7.842,-0.335,-0.270
7.844,-0.275,-0.290
7.846,-0.210,-0.300
7.848,-0.210,-0.295
7.850,-0.145,-0.280
7.852,-0.155,-0.265
7.854,-0.205,-0.245
7.856,-0.235,-0.220
7.858,-0.185,-0.200
7.860,-0.195,-0.175
7.862,-0.150,-0.155
7.864,-0.105,-0.140
7.866,-0.045,-0.125
7.868,0.000,-0.110
7.870,0.060,-0.095
7.872,0.045,-0.080
7.874,-0.035,-0.065
7.876,-0.045,-0.050
7.878,-0.045,-0.040
7.880,-0.120,-0.030
7.882,-0.050,-0.030
7.884,-0.005,-0.030
7.886,-0.005,-0.035
7.888,0.035,-0.045
7.890,0.075,-0.050
7.892,0.035,-0.055
7.894,0.000,-0.060
7.896,-0.040,-0.060
7.898,-0.065,-0.055
7.900,-0.080,-0.045
7.902,-0.045,-0.040
7.904,-0.030,-0.030
7.906,0.035,-0.025
7.908,0.050,-0.025
7.910,0.070,-0.025
7.912,0.080,-0.025
7.914,0.030,-0.025
7.916,-0.030,-0.025
7.918,-0.030,-0.020
7.920,-0.075,-0.015
7.922,-0.015,-0.010
7.924,0.015,0.000
7.926,0.065,0.005
7.928,0.075,0.010
7.930,0.110,0.010
7.932,0.095,0.005
7.934,0.050,0.000
7.936,-0.020,-0.005
7.938,-0.040,-0.010
7.940,-0.040,-0.010
7.942,-0.005,-0.010
7.944,0.020,-0.005
7.946,0.085,0.000
7.948,0.070,0.010
7.950,0.140,0.020
7.952,0.115,0.030
7.954,0.085,0.035
7.956,0.025,0.040
7.958,-0.015,0.045
7.960,-0.005,0.045
7.962,0.020,0.040
7.964,0.060,0.040
7.966,0.115,0.035
7.968,0.105,0.035
7.970,0.160,0.035
7.972,0.150,0.035
7.974,0.095,0.040
7.976,0.050,0.050
7.978,0.030,0.055
7.980,0.005,0.065
7.982,0.070,0.075
7.984,0.125,0.085
7.986,0.155,0.090
7.988,0.175,0.095
7.990,0.195,0.095
7.992,0.195,0.095
7.994,0.125,0.095
7.996,0.115,0.100
7.998,0.095,0.105
8.000,0.100,0.110
8.002,0.140,0.120
8.004,0.200,0.135
8.006,0.235,0.150
8.008,0.255,0.165
8.010,0.295,0.180
8.012,0.260,0.190
8.014,0.240,0.200
8.016,0.195,0.205
8.018,0.170,0.210
8.020,0.160,0.210
8.022,0.200,0.215
8.024,0.250,0.215
8.026,0.275,0.215
8.028,0.320,0.215
8.030,0.320,0.215
8.032,0.280,0.215
8.034,0.210,0.210
8.036,0.205,0.205
8.038,0.140,0.200
8.040,0.125,0.195
8.042,0.180,0.185
8.044,0.235,0.175
8.046,0.240,0.165
8.048,0.260,0.155
8.050,0.250,0.150
8.052,0.230,0.140
8.054,0.130,0.135
8.056,0.135,0.125
8.058,0.065,0.120
8.060,0.045,0.110
8.062,0.085,0.100
8.064,0.125,0.090
8.066,0.145,0.080
8.068,0.155,0.065
8.070,0.145,0.055
8.072,0.080,0.045
8.074,0.035,0.040
8.076,-0.015,0.030
8.078,-0.045,0.025
8.080,-0.040,0.020
8.082,0.000,0.015
8.084,0.050,0.010
8.086,0.075,0.000
8.088,0.075,-0.010
8.090,0.065,-0.020
8.092,0.040,-0.025
8.094,-0.030,-0.035
8.096,-0.030,-0.040
8.098,-0.090,-0.045
8.100,-0.090,-0.045
8.102,-0.075,-0.045
8.104,0.005,-0.045
8.106,0.015,-0.045
8.108,0.075,-0.045
8.110,0.035,-0.050
8.112,0.020,-0.055
8.114,-0.030,-0.060
8.116,-0.060,-0.065
8.118,-0.110,-0.070
8.120,-0.115,-0.070
8.122,-0.040,-0.070
8.124,0.000,-0.065
8.126,0.020,-0.060
8.128,0.040,-0.055
8.130,0.035,-0.050
8.132,-0.005,-0.045
8.134,-0.065,-0.045
8.136,-0.065,-0.050
8.138,-0.095,-0.050
8.140,-0.065,-0.050
8.142,-0.045,-0.055
8.144,-0.005,-0.055
8.146,0.010,-0.055
8.148,0.050,-0.050
8.150,0.025,-0.050
8.152,-0.035,-0.050
8.154,-0.020,-0.045
8.156,-0.050,-0.045
8.158,-0.095,-0.045
8.160,-0.070,-0.045
8.162,-0.050,-0.045
8.164,-0.015,-0.045
8.166,0.040,-0.045
8.168,0.085,-0.040
8.170,0.060,-0.040
8.172,0.005,-0.040
8.174,-0.020,-0.035
8.176,-0.035,-0.035
8.178,-0.090,-0.035
8.180,-0.050,-0.035
8.182,-0.025,-0.035
8.184,0.020,-0.035
8.186,0.015,-0.035
8.188,0.095,-0.035
8.190,0.065,-0.030
8.192,0.035,-0.025
8.194,-0.040,-0.025
8.196,-0.025,-0.020
8.198,-0.055,-0.020
8.200,-0.065,-0.020
8.202,-0.015,-0.020
8.204,0.020,-0.025
8.206,0.070,-0.025
8.208,0.110,-0.030
8.210,0.065,-0.030
8.212,0.040,-0.030
8.214,-0.015,-0.030
8.216,-0.045,-0.030
8.218,-0.090,-0.025
8.220,-0.065,-0.020
8.222,0.000,-0.020
8.224,0.045,-0.020
8.226,0.055,-0.025
8.228,0.110,-0.030
8.230,0.040,-0.035
8.232,0.005,-0.045
8.234,-0.025,-0.050
8.236,-0.040,-0.055
8.238,-0.110,-0.060
8.240,-0.080,-0.055
8.242,-0.010,-0.050
8.244,0.020,-0.045
8.246,0.045,-0.035
8.248,0.090,-0.025
8.250,0.055,-0.020
8.252,0.015,-0.020
8.254,-0.045,-0.020
8.256,-0.055,-0.025
8.258,-0.065,-0.030
8.260,-0.050,-0.035
8.262,0.000,-0.035
8.264,0.005,-0.040
8.266,0.030,-0.035
8.268,0.085,-0.035
8.270,0.080,-0.030
8.272,0.025,-0.025
8.274,-0.040,-0.020
8.276,-0.035,-0.015
8.278,-0.050,-0.015
8.280,-0.035,-0.015
8.282,-0.005,-0.020
8.284,0.050,-0.025
8.286,0.065,-0.025
8.288,0.090,-0.030
8.290,0.055,-0.030
8.292,0.015,-0.035
8.294,-0.040,-0.035
8.296,-0.090,-0.035
8.298,-0.085,-0.030
8.300,-0.020,-0.030
8.302,0.055,-0.025
8.304,0.040,-0.025
8.306,0.065,-0.020
8.308,0.105,-0.015
8.310,0.060,-0.010
8.312,0.030,-0.005
8.314,-0.015,0.000
8.316,-0.055,0.000
8.318,-0.065,-0.005
8.320,-0.025,-0.010
8.322,0.050,-0.015
8.324,0.055,-0.020
8.326,0.105,-0.025
8.328,0.115,-0.025
8.330,0.080,-0.020
8.332,0.030,-0.015
8.334,-0.015,-0.005
8.336,-0.025,0.010
8.338,-0.010,0.020
8.340,0.020,0.025
8.342,0.055,0.025
8.344,0.090,0.025
8.346,0.085,0.015
8.348,0.100,0.005
8.350,0.060,-0.005
8.352,0.015,-0.015
8.354,-0.040,-0.025
8.356,-0.055,-0.030
8.358,-0.055,-0.030
8.360,-0.030,-0.030
8.362,0.010,-0.030
8.364,0.005,-0.030
8.366,0.105,-0.035
8.368,0.055,-0.040
8.370,0.010,-0.045
8.372,-0.020,-0.050
8.374,-0.045,-0.055
8.376,-0.100,-0.060
8.378,-0.075,-0.060
8.380,-0.005,-0.060
8.382,-0.005,-0.060
8.384,0.030,-0.055
8.386,0.060,-0.050
8.388,0.085,-0.050
8.390,0.000,-0.045
8.392,-0.055,-0.045
8.394,-0.060,-0.045
8.396,-0.100,-0.050
8.398,-0.055,-0.050
8.400,-0.035,-0.050
8.402,0.005,-0.055
8.404,0.005,-0.055
8.406,0.045,-0.060
8.408,0.035,-0.060
8.410,-0.020,-0.065
8.412,-0.075,-0.075
8.414,-0.095,-0.085
8.416,-0.135,-0.090
8.418,-0.125,-0.100
8.420,-0.075,-0.095
8.422,-0.045,-0.090
8.424,0.010,-0.065
8.426,0.120,-0.030
8.428,0.120,0.020
8.430,0.175,0.085
8.432,0.195,0.155
8.434,0.245,0.225
8.436,0.280,0.290
8.438,0.390,0.335
8.440,0.430,0.365
8.442,0.490,0.365
8.444,0.440,0.335
8.446,0.325,0.285
8.448,0.250,0.215
8.450,0.240,0.130
8.452,0.065,0.045
8.454,-0.025,-0.035
8.456,-0.185,-0.110
8.458,-0.265,-0.170
8.460,-0.200,-0.210
8.462,-0.185,-0.240
8.464,-0.145,-0.255
8.466,-0.115,-0.260
8.468,-0.145,-0.255
8.470,-0.180,-0.240
8.472,-0.210,-0.225
8.474,-0.190,-0.200
8.476,-0.225,-0.175
8.478,-0.130,-0.145
8.480,-0.085,-0.120
8.482,-0.005,-0.095
8.484,0.010,-0.075
8.486,0.100,-0.060
8.488,0.035,-0.050
8.490,0.020,-0.045
8.492,-0.030,-0.040
8.494,-0.035,-0.045
8.496,-0.080,-0.045
8.498,-0.060,-0.045
8.500,0.000,-0.040
8.502,0.070,-0.035
8.504,0.070,-0.030
8.506,0.110,-0.025
8.508,0.085,-0.015
8.510,0.025,-0.010
8.512,0.000,-0.005
8.514,-0.015,0.000
8.516,-0.035,0.000
8.518,0.010,0.000
8.520,0.055,0.000
8.522,0.055,0.000
8.524,0.070,-0.005
8.526,0.130,-0.005
8.528,0.070,-0.005
8.530,0.030,-0.010
8.532,-0.005,-0.010
8.534,-0.005,-0.015
8.536,-0.025,-0.020
8.538,0.000,-0.020
8.540,0.030,-0.020
8.542,0.075,-0.015
8.544,0.090,-0.010
8.546,0.135,-0.005
8.548,0.105,0.005
8.550,0.075,0.010
8.552,0.000,0.015
8.554,0.010,0.020
8.556,-0.020,0.020
8.558,0.030,0.020
8.560,0.065,0.015
8.562,0.095,0.010
8.564,0.120,0.010
8.566,0.145,0.010
8.568,0.105,0.010
8.570,0.070,0.015
8.572,0.055,0.025
8.574,0.025,0.035
8.576,0.010,0.040
8.578,0.060,0.050
8.580,0.110,0.055
8.582,0.140,0.060
8.584,0.165,0.065
8.586,0.175,0.065
8.588,0.160,0.065
8.590,0.100,0.065
8.592,0.090,0.070
8.594,0.070,0.070
8.596,0.025,0.080
8.598,0.105,0.085
8.600,0.145,0.095
8.602,0.165,0.105
8.604,0.225,0.110
8.606,0.235,0.115
8.608,0.200,0.120
8.610,0.160,0.120
8.612,0.150,0.125
8.614,0.110,0.125
8.616,0.120,0.130
8.618,0.180,0.135
8.620,0.235,0.140
8.622,0.240,0.150
8.624,0.285,0.160
8.626,0.310,0.165
8.628,0.295,0.175
8.630,0.235,0.180
8.632,0.195,0.190
8.634,0.180,0.195
8.636,0.195,0.200
8.638,0.230,0.205
8.640,0.285,0.210
8.642,0.310,0.215
8.644,0.360,0.215
8.646,0.325,0.220
8.648,0.310,0.220
8.650,0.285,0.215
8.652,0.210,0.215
8.654,0.210,0.215
8.656,0.215,0.210
8.658,0.270,0.210
8.660,0.245,0.210
8.662,0.265,0.205
8.664,0.345,0.205
8.666,0.310,0.200
8.668,0.265,0.190
8.670,0.205,0.175
8.672,0.155,0.160
8.674,0.095,0.140
8.676,0.085,0.120
8.678,0.125,0.100
8.680,0.175,0.085
8.682,0.180,0.075
8.684,0.235,0.070
8.686,0.185,0.065
8.688,0.115,0.065
8.690,0.105,0.065
8.692,0.055,0.065
8.694,0.025,0.055
8.696,0.020,0.045
8.698,0.050,0.030
8.700,0.115,0.020
8.702,0.100,0.005
8.704,0.150,-0.010
8.706,0.120,-0.015
8.708,0.060,-0.020
8.710,0.015,-0.020
8.712,-0.010,-0.020
8.714,-0.030,-0.015
8.716,-0.010,-0.015
8.718,0.015,-0.015
8.720,0.090,-0.020
8.722,0.075,-0.025
8.724,0.110,-0.035
8.726,0.080,-0.040
8.728,0.025,-0.050
8.730,-0.010,-0.055
8.732,-0.045,-0.055
8.734,-0.070,-0.055
8.736,-0.020,-0.050
8.738,0.000,-0.050
8.740,0.045,-0.050
8.742,0.060,-0.050
8.744,0.095,-0.050
8.746,0.090,-0.055
8.748,0.030,-0.055
8.750,-0.005,-0.060
8.752,-0.035,-0.060
8.754,-0.090,-0.055
8.756,-0.010,-0.050
8.758,0.045,-0.045
8.760,0.060,-0.040
8.762,0.040,-0.035
8.764,0.090,-0.030
8.766,0.070,-0.035
8.768,0.030,-0.040
8.770,-0.025,-0.045
8.772,-0.025,-0.055
8.774,-0.065,-0.060
8.776,-0.040,-0.065
8.778,0.015,-0.070
8.780,0.070,-0.065
8.782,0.100,-0.055
8.784,0.125,-0.045
8.786,0.075,-0.035
8.788,0.055,-0.025
8.790,0.030,-0.015
8.792,0.000,-0.010
8.794,-0.015,-0.010
8.796,-0.010,-0.015
8.798,0.040,-0.020
8.800,0.075,-0.025
8.802,0.110,-0.030
8.804,0.120,-0.035
8.806,0.100,-0.030
8.808,0.055,-0.030
8.810,0.020,-0.025
8.812,0.010,-0.015
8.814,-0.015,-0.010
8.816,0.020,-0.005
8.818,0.055,0.000
8.820,0.095,0.000
8.822,0.100,-0.005
8.824,0.130,-0.010
8.826,0.090,-0.020
8.828,0.065,-0.025
8.830,0.030,-0.030
8.832,0.010,-0.035
8.834,-0.035,-0.035
8.836,-0.020,-0.030
8.838,0.060,-0.030
8.840,0.080,-0.025
8.842,0.135,-0.020
8.844,0.160,-0.015
8.846,0.100,-0.015
8.848,0.025,-0.015
8.850,0.015,-0.020
8.852,-0.005,-0.020
8.854,-0.005,-0.025
8.856,0.010,-0.030
8.858,0.065,-0.030
8.860,0.060,-0.030
8.862,0.090,-0.035
8.864,0.135,-0.030
8.866,0.095,-0.030
8.868,0.065,-0.030
8.870,0.005,-0.030
8.872,0.010,-0.030
8.874,-0.020,-0.030
8.876,0.005,-0.030
8.878,0.045,-0.030
8.880,0.085,-0.035
8.882,0.120,-0.035
8.884,0.130,-0.040
8.886,0.085,-0.040
8.888,0.035,-0.040
8.890,0.000,-0.040
8.892,-0.020,-0.040
8.894,-0.015,-0.040
8.896,-0.010,-0.040
8.898,0.055,-0.040
8.900,0.095,-0.040
8.902,0.120,-0.040
8.904,0.120,-0.035
8.906,0.090,-0.035
8.908,0.025,-0.035
8.910,-0.015,-0.030
8.912,0.015,-0.025
8.914,0.005,-0.020
8.916,0.015,-0.020
8.918,0.075,-0.015
8.920,0.100,-0.015
8.922,0.140,-0.015
8.924,0.125,-0.020
8.926,0.065,-0.025
8.928,0.070,-0.030
8.930,0.045,-0.035
8.932,-0.030,-0.035
8.934,-0.015,-0.035
8.936,0.060,-0.030
8.938,0.055,-0.025
8.940,0.075,-0.020
8.942,0.150,-0.010
8.944,0.150,-0.005
8.946,0.115,0.000
8.948,0.075,0.000
8.950,0.025,0.000
8.952,-0.010,0.000
8.954,0.010,-0.005
8.956,0.060,-0.005
8.958,0.105,-0.005
8.960,0.115,-0.005
8.962,0.180,-0.005
8.964,0.155,0.000
8.966,0.120,0.000
8.968,0.065,0.000
8.970,0.050,0.000
8.972,-0.010,-0.005
8.974,0.020,-0.005
8.976,0.070,-0.010
8.978,0.125,-0.010
8.980,0.110,-0.015
8.982,0.150,-0.015
8.984,0.130,-0.020
8.986,0.090,-0.020
8.988,0.035,-0.025
8.990,0.020,-0.030
8.992,-0.035,-0.035
8.994,0.005,-0.040
8.996,0.020,-0.045
8.998,0.085,-0.050
9.000,0.075,-0.055
9.002,0.115,-0.055
9.004,0.110,-0.050
9.006,0.075,-0.050
9.008,0.035,-0.045
9.010,-0.010,-0.045
9.012,-0.060,-0.040
9.014,0.000,-0.040
9.016,0.025,-0.040
9.018,0.060,-0.040
9.020,0.070,-0.045
9.022,0.105,-0.045
9.024,0.100,-0.050
9.026,0.070,-0.055
9.028,0.025,-0.060
9.030,-0.010,-0.065
9.032,-0.065,-0.065
9.034,-0.035,-0.070
9.036,0.020,-0.070
9.038,0.050,-0.075
9.040,0.070,-0.080
9.042,0.085,-0.085
9.044,0.075,-0.095
9.046,0.000,-0.105
9.048,-0.025,-0.110
9.050,-0.040,-0.115
9.052,-0.115,-0.110
9.054,-0.065,-0.095
9.056,0.030,-0.065
9.058,0.120,-0.020
9.060,0.205,0.040
9.062,0.305,0.110
9.064,0.345,0.185
9.066,0.380,0.255
9.068,0.465,0.310
9.070,0.460,0.355
9.072,0.455,0.370
9.074,0.415,0.355
9.076,0.395,0.320
9.078,0.295,0.255
9.080,0.265,0.180
9.082,0.275,0.090
9.084,0.175,0.000
9.086,0.035,-0.085
9.088,-0.130,-0.155
9.090,-0.220,-0.205
9.092,-0.260,-0.245
9.094,-0.215,-0.260
9.096,-0.135,-0.265
9.098,-0.125,-0.260
9.100,-0.065,-0.245
9.102,-0.030,-0.225
9.104,-0.040,-0.205
9.106,-0.055,-0.185
9.108,-0.080,-0.165
9.110,-0.060,-0.140
9.112,-0.080,-0.120
9.114,-0.040,-0.105
9.116,0.010,-0.085
9.118,0.080,-0.070
9.120,0.085,-0.060
9.122,0.140,-0.050
9.124,0.105,-0.045
9.126,0.060,-0.045
9.128,0.005,-0.040
9.130,-0.005,-0.045
9.132,-0.015,-0.045
9.134,0.020,-0.045
9.136,0.070,-0.050
9.138,0.105,-0.050
9.140,0.155,-0.045
9.142,0.170,-0.040
9.144,0.110,-0.035
9.146,0.080,-0.030
9.148,0.040,-0.025
9.150,0.045,-0.020
9.152,0.035,-0.010
9.154,0.035,-0.010
9.156,0.060,-0.005
9.158,0.125,-0.005
9.160,0.155,-0.010
9.162,0.160,-0.015
9.164,0.120,-0.015
9.166,0.100,-0.020
9.168,0.070,-0.015
9.170,0.050,-0.015
9.172,0.035,-0.010
9.174,0.040,-0.005
9.176,0.105,0.005
9.178,0.140,0.010
9.180,0.160,0.010
9.182,0.165,0.010
9.184,0.130,0.005
9.186,0.085,0.000
9.188,0.055,-0.005
9.190,0.035,-0.010
9.192,0.045,-0.010
9.194,0.090,-0.005
9.196,0.135,0.000
9.198,0.185,0.010
9.200,0.225,0.020
9.202,0.205,0.030
9.204,0.190,0.035
9.206,0.130,0.035
9.208,0.095,0.040
9.210,0.065,0.040
9.212,0.085,0.040
9.214,0.125,0.040
9.216,0.150,0.040
9.218,0.165,0.045
9.220,0.270,0.050
9.222,0.235,0.055
9.224,0.185,0.060
9.226,0.160,0.060
9.228,0.135,0.055
9.230,0.105,0.055
9.232,0.130,0.055
9.234,0.175,0.060
9.236,0.230,0.065
9.238,0.265,0.075
9.240,0.300,0.090
9.242,0.250,0.110
9.244,0.290,0.125
9.246,0.230,0.140
9.248,0.170,0.150
9.250,0.190,0.155
9.252,0.195,0.155
9.254,0.230,0.145
9.256,0.290,0.140
9.258,0.320,0.135
9.260,0.365,0.135
9.262,0.350,0.135
9.264,0.310,0.145
9.266,0.270,0.160
9.268,0.270,0.175
9.270,0.210,0.190
9.272,0.260,0.200
9.274,0.285,0.210
9.276,0.325,0.210
9.278,0.335,0.205
9.280,0.405,0.200
9.282,0.365,0.190
9.284,0.315,0.180
9.286,0.270,0.170
9.288,0.265,0.170
9.290,0.215,0.170
9.292,0.230,0.170
9.294,0.275,0.170
9.296,0.315,0.175
9.298,0.335,0.170
9.300,0.380,0.165
9.302,0.315,0.160
9.304,0.270,0.145
9.306,0.235,0.130
9.308,0.195,0.115
9.310,0.125,0.095
9.312,0.125,0.080
9.314,0.130,0.065
9.316,0.200,0.050
9.318,0.195,0.035
9.320,0.230,0.025
9.322,0.205,0.015
9.324,0.160,0.010
9.326,0.115,0.005
9.328,0.090,0.000
9.330,0.035,-0.005
9.332,0.035,-0.010
9.334,0.075,-0.015
9.336,0.115,-0.020
9.338,0.120,-0.025
9.340,0.185,-0.030
9.342,0.145,-0.035
9.344,0.095,-0.040
9.346,0.045,-0.045
9.348,0.030,-0.050
9.350,-0.010,-0.050
9.352,0.030,-0.055
9.354,0.070,-0.055
9.356,0.100,-0.055
9.358,0.135,-0.050
9.360,0.175,-0.050
9.362,0.145,-0.045
9.364,0.105,-0.045
9.366,0.035,-0.045
9.368,0.040,-0.045
9.370,-0.025,-0.050
9.372,0.010,-0.055
9.374,0.050,-0.055
9.376,0.105,-0.060
9.378,0.120,-0.060
9.380,0.170,-0.065
9.382,0.125,-0.065
9.384,0.085,-0.060
9.386,0.050,-0.060
9.388,0.035,-0.055
9.390,0.000,-0.050
9.392,0.030,-0.045
9.394,0.100,-0.040
9.396,0.130,-0.040
9.398,0.135,-0.035
9.400,0.145,-0.035
9.402,0.115,-0.040
9.404,0.095,-0.040
9.406,0.065,-0.040
9.408,0.035,-0.045
9.410,0.000,-0.045
9.412,0.030,-0.045
9.414,0.080,-0.050
9.416,0.105,-0.050
9.418,0.160,-0.050
9.420,0.180,-0.050
9.422,0.140,-0.050
9.424,0.110,-0.045
9.426,0.060,-0.045
9.428,0.040,-0.045
9.430,0.030,-0.040
9.432,0.045,-0.035
9.434,0.095,-0.035
9.436,0.125,-0.030
9.438,0.160,-0.030
9.440,0.185,-0.030
9.442,0.155,-0.030
9.444,0.110,-0.035
9.446,0.065,-0.035
9.448,0.035,-0.040
9.450,0.020,-0.040
9.452,0.050,-0.040
9.454,0.095,-0.040
9.456,0.115,-0.035
9.458,0.185,-0.035
9.460,0.180,-0.030
9.462,0.140,-0.025
9.464,0.110,-0.025
9.466,0.045,-0.025
9.468,0.030,-0.025
9.470,0.015,-0.025
9.472,0.080,-0.030
9.474,0.120,-0.030
9.476,0.160,-0.030
9.478,0.175,-0.030
9.480,0.185,-0.030
9.482,0.135,-0.030
9.484,0.085,-0.030
9.486,0.005,-0.030
9.488,0.020,-0.035
9.490,0.030,-0.040
9.492,0.045,-0.050
9.494,0.100,-0.055
9.496,0.105,-0.060
9.498,0.140,-0.060
9.500,0.170,-0.060
9.502,0.160,-0.060
9.504,0.080,-0.050
9.506,0.065,-0.045
9.508,0.025,-0.035
9.510,0.070,-0.030
9.512,0.050,-0.025
9.514,0.095,-0.025
9.516,0.140,-0.025
9.518,0.160,-0.030
9.520,0.155,-0.035
9.522,0.130,-0.040
9.524,0.100,-0.045
9.526,0.060,-0.045
9.528,0.010,-0.045
9.530,0.035,-0.045
9.532,0.070,-0.045
9.534,0.115,-0.040
9.536,0.155,-0.040
9.538,0.150,-0.035
9.540,0.145,-0.035
9.542,0.110,-0.035
9.544,0.085,-0.040
9.546,0.045,-0.045
9.548,0.015,-0.045
9.550,0.035,-0.050
9.552,0.050,-0.050
9.554,0.105,-0.050
9.556,0.115,-0.045
9.558,0.205,-0.045
9.560,0.150,-0.040
9.562,0.105,-0.040
9.564,0.060,-0.040
9.566,0.025,-0.040
9.568,0.035,-0.040
9.570,0.045,-0.045
9.572,0.060,-0.045
9.574,0.105,-0.045
9.576,0.155,-0.045
9.578,0.200,-0.040
9.580,0.185,-0.030
9.582,0.135,-0.020
9.584,0.050,-0.010
9.586,0.070,-0.005
9.588,0.035,0.000
9.590,0.095,0.000
9.592,0.095,-0.005
9.594,0.135,-0.010
9.596,0.165,-0.015
9.598,0.230,-0.020
9.600,0.180,-0.020
9.602,0.110,-0.020
9.604,0.070,-0.015
9.606,0.085,-0.010
9.608,0.070,-0.005
9.610,0.070,0.000
9.612,0.080,0.000
9.614,0.170,0.000
9.616,0.165,-0.005
9.618,0.220,-0.010
9.620,0.185,-0.015
9.622,0.140,-0.020
9.624,0.100,-0.020
9.626,0.080,-0.020
9.628,0.000,-0.020
9.630,0.070,-0.020
9.632,0.110,-0.020
9.634,0.145,-0.025
9.636,0.140,-0.030
9.638,0.160,-0.040
9.640,0.110,-0.045
9.642,0.095,-0.055
9.644,0.045,-0.060
9.646,0.065,-0.065
9.648,0.015,-0.065
9.650,0.015,-0.065
9.652,0.040,-0.060
9.654,0.100,-0.060
9.656,0.150,-0.060
9.658,0.150,-0.060
9.660,0.145,-0.060
9.662,0.100,-0.060
9.664,0.050,-0.060
9.666,0.050,-0.060
9.668,-0.005,-0.065
9.670,0.040,-0.060
9.672,0.075,-0.060
9.674,0.090,-0.060
9.676,0.100,-0.055
9.678,0.155,-0.055
9.680,0.140,-0.050
9.682,0.075,-0.050
9.684,0.015,-0.050
9.686,0.070,-0.050
9.688,-0.005,-0.055
9.690,0.015,-0.055
9.692,0.080,-0.055
9.694,0.115,-0.055
9.696,0.135,-0.060
9.698,0.160,-0.060
9.700,0.095,-0.065
9.702,0.050,-0.075
9.704,-0.005,-0.085
9.706,-0.035,-0.095
9.708,-0.045,-0.105
9.710,-0.025,-0.105
9.712,0.035,-0.100
9.714,0.070,-0.080
9.716,0.155,-0.045
9.718,0.210,0.005
9.720,0.260,0.070
9.722,0.330,0.140
9.724,0.350,0.215
9.726,0.410,0.285
9.728,0.445,0.345
9.730,0.520,0.380
9.732,0.575,0.390
9.734,0.565,0.370
9.736,0.510,0.325
9.738,0.395,0.255
9.740,0.295,0.170
9.742,0.215,0.075
9.744,0.085,-0.020
9.746,-0.030,-0.110
9.748,-0.145,-0.180
9.750,-0.230,-0.235
9.752,-0.195,-0.270
9.754,-0.110,-0.285
9.756,-0.080,-0.285
9.758,-0.040,-0.275
9.760,-0.045,-0.255
9.762,-0.070,-0.230
9.764,-0.080,-0.205
9.766,-0.090,-0.175
9.768,-0.040,-0.150
9.770,0.000,-0.130
9.772,0.050,-0.105
9.774,0.080,-0.090
9.776,0.135,-0.075
9.778,0.130,-0.065
9.780,0.125,-0.060
9.782,0.090,-0.055
9.784,0.070,-0.055
9.786,-0.050,-0.055
9.788,0.015,-0.055
9.790,0.075,-0.055
9.792,0.105,-0.055
9.794,0.140,-0.055
9.796,0.180,-0.050
9.798,0.185,-0.045
9.800,0.160,-0.040
9.802,0.070,-0.035
9.804,0.055,-0.035
9.806,0.020,-0.030
9.808,0.030,-0.030
9.810,0.075,-0.030
9.812,0.150,-0.030
9.814,0.170,-0.030
9.816,0.195,-0.025
9.818,0.185,-0.020
9.820,0.160,-0.015
9.822,0.095,-0.005
9.824,0.070,-0.005
9.826,0.040,0.000
9.828,0.075,0.000
9.830,0.135,-0.005
9.832,0.170,-0.005
9.834,0.165,-0.010
9.836,0.190,-0.010
9.838,0.210,-0.010
9.840,0.190,-0.005
9.842,0.105,0.000
9.844,0.105,0.005
9.846,0.040,0.005
9.848,0.085,0.010
9.850,0.100,0.010
9.852,0.160,0.010
9.854,0.195,0.010
9.856,0.235,0.010
9.858,0.250,0.010
9.860,0.180,0.015
9.862,0.135,0.025
9.864,0.130,0.030
9.866,0.095,0.040
9.868,0.145,0.050
9.870,0.140,0.055
9.872,0.205,0.055
9.874,0.220,0.055
9.876,0.255,0.050
9.878,0.240,0.050
9.880,0.200,0.050
9.882,0.195,0.055
9.884,0.180,0.065
9.886,0.110,0.075
9.888,0.195,0.085
9.890,0.195,0.100
9.892,0.225,0.105
9.894,0.275,0.110
9.896,0.335,0.110
9.898,0.300,0.110
9.900,0.275,0.110
9.902,0.250,0.115
9.904,0.205,0.120
9.906,0.180,0.130
9.908,0.240,0.140
9.910,0.275,0.155
9.912,0.375,0.175
9.914,0.345,0.185
9.916,0.435,0.200
9.918,0.385,0.205
9.920,0.340,0.210
9.922,0.300,0.210
9.924,0.320,0.210
9.926,0.265,0.210
9.928,0.290,0.210
9.930,0.360,0.215
9.932,0.405,0.220
9.934,0.390,0.225
9.936,0.440,0.225
9.938,0.420,0.230
9.940,0.405,0.230
9.942,0.315,0.225
9.944,0.305,0.220
9.946,0.280,0.220
9.948,0.325,0.215
9.950,0.295,0.215
9.952,0.385,0.210
9.954,0.385,0.210
9.956,0.415,0.210
9.958,0.390,0.205
9.960,0.340,0.195
9.962,0.255,0.185
9.964,0.250,0.175
9.966,0.215,0.160
9.968,0.210,0.150
9.970,0.265,0.135
9.972,0.285,0.125
9.974,0.300,0.115
9.976,0.310,0.105
9.978,0.285,0.100
9.980,0.215,0.090
9.982,0.150,0.085
9.984,0.115,0.075
9.986,0.090,0.060
9.988,0.140,0.050
9.990,0.150,0.035
9.992,0.185,0.025
9.994,0.200,0.015
9.996,0.220,0.005
9.998,0.180,0.000
