'Elapsed time','ECG I','ECG I filtered'
'seconds','mV','mV'
0.000,-0.105,-0.045
0.002,-0.100,-0.035
0.004,-0.060,-0.025
0.006,-0.045,-0.020
0.008,-0.050,-0.020
0.010,-0.060,-0.015
0.012,-0.090,-0.015
0.014,-0.125,-0.020
0.016,-0.110,-0.020
0.018,-0.140,-0.025
0.020,-0.095,-0.025
0.022,-0.070,-0.025
0.024,-0.030,-0.025
0.026,-0.070,-0.025
0.028,-0.050,-0.025
0.030,-0.070,-0.020
0.032,-0.105,-0.020
0.034,-0.110,-0.020
0.036,-0.160,-0.025
0.038,-0.115,-0.025
0.040,-0.090,-0.025
0.042,-0.045,-0.020
0.044,-0.040,-0.020
0.046,-0.030,-0.015
0.048,-0.040,-0.005
0.050,-0.075,0.000
0.052,-0.065,0.005
0.054,-0.105,0.005
0.056,-0.115,0.005
0.058,-0.120,0.000
0.060,-0.095,-0.005
0.062,-0.085,-0.010
0.064,-0.065,-0.015
0.066,-0.020,-0.020
0.068,-0.010,-0.020
0.070,-0.040,-0.020
0.072,-0.095,-0.020
0.074,-0.145,-0.015
0.076,-0.115,-0.010
0.078,-0.130,-0.010
0.080,-0.095,-0.010
0.082,-0.065,-0.010
0.084,-0.020,-0.010
0.086,-0.005,-0.010
0.088,-0.040,-0.010
0.090,-0.040,-0.010
0.092,-0.085,-0.010
0.094,-0.130,-0.005
0.096,-0.095,-0.005
0.098,-0.120,-0.005
0.100,-0.085,-0.005
0.102,-0.075,-0.010
0.104,-0.030,-0.015
0.106,-0.005,-0.020
0.108,-0.025,-0.025
0.110,-0.055,-0.025
0.112,-0.105,-0.020
0.114,-0.135,-0.015
0.116,-0.110,-0.010
0.118,-0.095,-0.005
0.120,-0.095,0.000
0.122,-0.065,0.000
0.124,-0.010,0.000
0.126,-0.005,0.000
0.128,-0.035,-0.005
0.130,-0.065,-0.010
0.132,-0.085,-0.015
0.134,-0.120,-0.020
0.136,-0.120,-0.020
0.138,-0.110,-0.020
0.140,-0.120,-0.020
0.142,-0.055,-0.015
0.144,-0.010,-0.015
0.146,0.020,-0.010
0.148,0.005,-0.010
0.150,-0.030,-0.005
0.152,-0.085,-0.005
0.154,-0.120,-0.005
0.156,-0.115,-0.005
0.158,-0.080,-0.005
0.160,-0.065,-0.005
0.162,-0.045,-0.005
0.164,-0.025,0.000
0.166,0.010,0.000
0.168,-0.010,0.000
0.170,-0.025,0.000
0.172,-0.080,0.000
0.174,-0.115,0.000
0.176,-0.115,-0.005
0.178,-0.090,-0.005
0.180,-0.070,-0.005
0.182,-0.030,-0.005
0.184,-0.010,-0.005
0.186,0.000,-0.005
0.188,-0.015,-0.005
0.190,-0.035,-0.005
0.192,-0.075,0.000
0.194,-0.095,0.000
0.196,-0.090,0.000
0.198,-0.090,0.000
0.200,-0.095,0.005
0.202,-0.030,0.005
0.204,-0.015,0.005
0.206,-0.010,0.005
0.208,-0.030,0.005
0.210,-0.030,0.005
0.212,-0.070,0.005
0.214,-0.070,0.005
0.216,-0.095,0.005
0.218,-0.110,0.010
0.220,-0.045,0.010
0.222,-0.020,0.015
0.224,-0.015,0.015
0.226,0.025,0.015
0.228,-0.025,0.010
0.230,-0.025,0.005
0.232,-0.085,-0.005
0.234,-0.115,-0.015
0.236,-0.120,-0.025
0.238,-0.080,-0.030
0.240,-0.085,-0.035
0.242,-0.060,-0.035
0.244,-0.040,-0.030
0.246,-0.030,-0.025
0.248,0.015,-0.020
0.250,-0.010,-0.015
0.252,-0.080,-0.010
0.254,-0.105,-0.010
0.256,-0.110,-0.010
0.258,-0.085,-0.015
0.260,-0.095,-0.015
0.262,-0.040,-0.020
0.264,-0.030,-0.020
0.266,-0.020,-0.020
0.268,-0.015,-0.020
0.270,-0.050,-0.015
0.272,-0.095,-0.015
0.274,-0.105,-0.010
0.276,-0.120,-0.010
0.278,-0.095,-0.010
0.280,-0.080,-0.010
0.282,-0.030,-0.015
0.284,-0.020,-0.015
0.286,0.000,-0.015
0.288,-0.020,-0.015
0.290,-0.075,-0.015
0.292,-0.090,-0.015
0.294,-0.100,-0.015
0.296,-0.130,-0.015
0.298,-0.065,-0.020
0.300,-0.105,-0.025
0.302,-0.035,-0.030
0.304,-0.010,-0.030
0.306,-0.020,-0.035
0.308,-0.045,-0.035
0.310,-0.055,-0.030
0.312,-0.120,-0.025
0.314,-0.105,-0.025
0.316,-0.105,-0.020
0.318,-0.100,-0.015
0.320,-0.065,-0.015
0.322,-0.035,-0.015
0.324,-0.035,-0.020
0.326,-0.020,-0.020
0.328,-0.030,-0.025
0.330,-0.080,-0.025
0.332,-0.110,-0.020
0.334,-0.095,-0.015
0.336,-0.075,-0.010
0.338,-0.080,-0.005
0.340,-0.065,-0.005
0.342,-0.050,-0.005
0.344,-0.030,-0.005
0.346,-0.025,-0.010
0.348,-0.055,-0.020
0.350,-0.085,-0.025
0.352,-0.125,-0.030
0.354,-0.120,-0.030
0.356,-0.095,-0.035
0.358,-0.070,-0.030
0.360,-0.080,-0.030
0.362,-0.045,-0.025
0.364,-0.020,-0.025
0.366,-0.015,-0.020
0.368,-0.035,-0.025
0.370,-0.080,-0.025
0.372,-0.110,-0.025
0.374,-0.120,-0.030
0.376,-0.090,-0.030
0.378,-0.080,-0.030
0.380,-0.050,-0.025
0.382,-0.040,-0.025
0.384,-0.015,-0.020
0.386,-0.040,-0.025
0.388,-0.070,-0.025
0.390,-0.090,-0.030
0.392,-0.150,-0.035
0.394,-0.130,-0.040
0.396,-0.095,-0.045
0.398,-0.085,-0.045
0.400,-0.045,-0.045
0.402,-0.010,-0.040
0.404,-0.025,-0.035
0.406,-0.045,-0.025
0.408,-0.055,-0.020
0.410,-0.080,-0.015
0.412,-0.110,-0.010
0.414,-0.085,-0.010
0.416,-0.065,-0.010
0.418,-0.065,-0.010
0.420,-0.040,-0.010
0.422,-0.035,-0.010
0.424,-0.015,-0.005
0.426,-0.030,0.000
0.428,-0.010,0.005
0.430,-0.035,0.015
0.432,-0.070,0.015
0.434,-0.085,0.015
0.436,-0.075,0.015
0.438,-0.060,0.010
0.440,-0.020,0.005
0.442,0.015,0.005
0.444,0.045,0.005
0.446,0.060,0.015
0.448,0.035,0.025
0.450,0.010,0.040
0.452,0.015,0.055
0.454,-0.045,0.075
0.456,0.000,0.085
0.458,-0.005,0.095
0.460,0.015,0.095
0.462,0.050,0.090
0.464,0.070,0.080
0.466,0.065,0.070
0.468,0.045,0.055
0.470,-0.015,0.045
0.472,-0.030,0.035
0.474,-0.035,0.030
0.476,-0.025,0.025
0.478,-0.020,0.025
0.480,-0.010,0.025
0.482,0.035,0.025
0.484,0.015,0.025
0.486,-0.005,0.020
0.488,-0.040,0.015
0.490,-0.095,0.010
0.492,-0.090,0.000
0.494,-0.090,-0.005
0.496,-0.090,-0.015
0.498,-0.060,-0.020
0.500,-0.030,-0.025
0.502,-0.010,-0.030
0.504,-0.015,-0.030
0.506,-0.040,-0.035
0.508,-0.055,-0.040
0.510,-0.100,-0.040
0.512,-0.125,-0.040
0.514,-0.120,-0.045
0.516,-0.130,-0.040
0.518,-0.125,-0.040
0.520,-0.040,-0.040
0.522,-0.035,-0.035
0.524,-0.015,-0.035
0.526,-0.050,-0.035
0.528,-0.045,-0.035
0.530,-0.115,-0.040
0.532,-0.125,-0.050
0.534,-0.110,-0.055
0.536,-0.135,-0.060
0.538,-0.095,-0.065
0.540,-0.065,-0.065
0.542,-0.060,-0.060
0.544,-0.050,-0.055
0.546,-0.075,-0.050
0.548,-0.075,-0.040
0.550,-0.110,-0.035
0.552,-0.130,-0.030
0.554,-0.135,-0.030
0.556,-0.125,-0.030
0.558,-0.110,-0.035
0.560,-0.055,-0.040
0.562,-0.030,-0.045
0.564,-0.030,-0.050
0.566,-0.070,-0.055
0.568,-0.095,-0.060
0.570,-0.140,-0.065
0.572,-0.145,-0.075
0.574,-0.165,-0.090
0.576,-0.170,-0.105
0.578,-0.210,-0.120
0.580,-0.190,-0.135
0.582,-0.155,-0.135
0.584,-0.135,-0.125
0.586,-0.155,-0.095
0.588,-0.110,-0.045
0.590,-0.030,0.025
0.592,0.085,0.125
0.594,0.230,0.235
0.596,0.330,0.365
0.598,0.475,0.490
0.600,0.605,0.615
0.602,0.745,0.725
0.604,0.835,0.805
0.606,0.925,0.855
0.608,0.865,0.870
0.610,0.775,0.850
0.612,0.720,0.790
0.614,0.655,0.700
0.616,0.530,0.590
0.618,0.405,0.470
0.620,0.285,0.345
0.622,0.165,0.225
0.624,0.080,0.120
0.626,-0.005,0.035
0.628,-0.100,-0.025
0.630,-0.140,-0.070
0.632,-0.185,-0.090
0.634,-0.175,-0.100
0.636,-0.155,-0.105
0.638,-0.115,-0.100
0.640,-0.095,-0.095
0.642,-0.070,-0.090
0.644,-0.065,-0.080
0.646,-0.050,-0.075
0.648,-0.095,-0.070
0.650,-0.135,-0.065
0.652,-0.135,-0.060
0.654,-0.125,-0.060
0.656,-0.130,-0.055
0.658,-0.085,-0.055
0.660,-0.060,-0.060
0.662,-0.040,-0.060
0.664,-0.035,-0.065
0.666,-0.070,-0.065
0.668,-0.095,-0.065
0.670,-0.145,-0.065
0.672,-0.140,-0.060
0.674,-0.105,-0.055
0.676,-0.115,-0.045
0.678,-0.090,-0.045
0.680,-0.060,-0.040
0.682,-0.040,-0.040
0.684,-0.040,-0.045
0.686,-0.055,-0.050
0.688,-0.090,-0.050
0.690,-0.130,-0.055
0.692,-0.125,-0.055
0.694,-0.115,-0.055
0.696,-0.105,-0.050
0.698,-0.110,-0.045
0.700,-0.050,-0.045
0.702,0.005,-0.040
0.704,0.010,-0.040
0.706,-0.045,-0.040
0.708,-0.085,-0.045
0.710,-0.120,-0.045
0.712,-0.140,-0.050
0.714,-0.140,-0.050
0.716,-0.095,-0.050
0.718,-0.050,-0.045
0.720,-0.030,-0.045
0.722,-0.005,-0.040
0.724,-0.030,-0.035
0.726,-0.065,-0.035
0.728,-0.085,-0.030
0.730,-0.095,-0.030
0.732,-0.115,-0.030
0.734,-0.075,-0.025
0.736,-0.080,-0.025
0.738,-0.045,-0.025
0.740,-0.020,-0.025
0.742,0.005,-0.025
0.744,-0.020,-0.025
0.746,-0.045,-0.030
0.748,-0.065,-0.030
0.750,-0.100,-0.030
0.752,-0.105,-0.030
0.754,-0.080,-0.030
0.756,-0.065,-0.030
0.758,-0.045,-0.030
0.760,-0.025,-0.030
0.762,0.010,-0.025
0.764,-0.005,-0.025
0.766,-0.030,-0.020
0.768,-0.065,-0.015
0.770,-0.090,-0.010
0.772,-0.085,-0.010
0.774,-0.070,-0.005
0.776,-0.075,0.000
0.778,-0.005,0.005
0.780,0.015,0.010
0.782,0.015,0.010
0.784,0.025,0.010
0.786,0.015,0.010
0.788,-0.040,0.010
0.790,-0.050,0.005
0.792,-0.070,0.005
0.794,-0.055,0.000
0.796,-0.035,0.000
0.798,0.005,0.000
0.800,0.030,0.000
0.802,0.050,0.005
0.804,0.020,0.010
0.806,0.015,0.020
0.808,-0.050,0.025
0.810,-0.050,0.025
0.812,-0.045,0.030
0.814,-0.020,0.035
0.816,0.030,0.035
0.818,0.050,0.040
0.820,0.070,0.040
0.822,0.085,0.045
0.824,0.090,0.055
0.826,0.035,0.060
0.828,-0.005,0.070
0.830,-0.005,0.075
0.832,0.015,0.085
0.834,0.030,0.090
0.836,0.050,0.095
0.838,0.105,0.100
0.840,0.130,0.105
0.842,0.155,0.110
0.844,0.125,0.115
0.846,0.125,0.120
0.848,0.070,0.125
0.850,0.045,0.130
0.852,0.060,0.135
0.854,0.090,0.140
0.856,0.140,0.140
0.858,0.135,0.135
0.860,0.155,0.135
0.862,0.195,0.135
0.864,0.170,0.140
0.866,0.150,0.145
0.868,0.110,0.155
0.870,0.105,0.165
0.872,0.110,0.175
0.874,0.115,0.185
0.876,0.150,0.190
0.878,0.175,0.195
0.880,0.175,0.190
0.882,0.210,0.185
0.884,0.180,0.175
0.886,0.165,0.165
0.888,0.105,0.160
0.890,0.095,0.155
0.892,0.100,0.150
0.894,0.095,0.155
0.896,0.130,0.155
0.898,0.175,0.160
0.900,0.175,0.160
0.902,0.150,0.160
0.904,0.125,0.155
0.906,0.115,0.140
0.908,0.070,0.130
0.910,0.005,0.110
0.912,0.025,0.095
0.914,0.040,0.085
0.916,0.060,0.075
0.918,0.095,0.070
0.920,0.075,0.070
0.922,0.085,0.065
0.924,0.045,0.065
0.926,0.005,0.060
0.928,-0.040,0.055
0.930,-0.070,0.045
0.932,-0.055,0.040
0.934,-0.040,0.030
0.936,-0.010,0.020
0.938,0.040,0.010
0.940,0.045,0.005
0.942,0.020,0.000
0.944,-0.025,0.000
0.946,-0.060,-0.005
0.948,-0.085,-0.010
0.950,-0.110,-0.015
0.952,-0.095,-0.020
0.954,-0.085,-0.030
0.956,-0.055,-0.035
0.958,-0.025,-0.040
0.960,-0.010,-0.040
0.962,0.000,-0.040
0.964,-0.050,-0.035
0.966,-0.065,-0.030
0.968,-0.100,-0.030
0.970,-0.100,-0.025
0.972,-0.095,-0.025
0.974,-0.095,-0.025
0.976,-0.080,-0.030
0.978,-0.040,-0.040
0.980,-0.030,-0.045
0.982,-0.005,-0.050
0.984,-0.050,-0.055
0.986,-0.095,-0.055
0.988,-0.115,-0.055
0.990,-0.115,-0.050
0.992,-0.115,-0.050
0.994,-0.110,-0.045
0.996,-0.100,-0.040
0.998,-0.040,-0.040
1.000,-0.010,-0.045
1.002,-0.025,-0.045
1.004,-0.035,-0.050
1.006,-0.100,-0.055
1.008,-0.145,-0.060
1.010,-0.140,-0.060
1.012,-0.130,-0.060
1.014,-0.115,-0.055
1.016,-0.055,-0.055
1.018,-0.030,-0.050
1.020,-0.025,-0.045
1.022,-0.040,-0.040
1.024,-0.050,-0.040
1.026,-0.090,-0.040
1.028,-0.130,-0.040
1.030,-0.155,-0.045
1.032,-0.110,-0.050
1.034,-0.095,-0.050
1.036,-0.060,-0.055
1.038,-0.050,-0.060
1.040,-0.075,-0.060
1.042,-0.050,-0.060
1.044,-0.045,-0.065
1.046,-0.100,-0.065
1.048,-0.125,-0.060
1.050,-0.135,-0.060
1.052,-0.110,-0.060
1.054,-0.075,-0.055
1.056,-0.045,-0.050
1.058,-0.015,-0.045
1.060,0.005,-0.040
1.062,-0.025,-0.035
1.064,-0.040,-0.030
1.066,-0.085,-0.030
1.068,-0.120,-0.030
1.070,-0.115,-0.030
1.072,-0.095,-0.035
1.074,-0.100,-0.040
1.076,-0.070,-0.045
1.078,-0.065,-0.050
1.080,-0.025,-0.055
1.082,0.005,-0.055
1.084,-0.045,-0.055
1.086,-0.095,-0.050
1.088,-0.120,-0.045
1.090,-0.100,-0.040
1.092,-0.095,-0.035
1.094,-0.095,-0.030
1.096,-0.050,-0.030
1.098,-0.025,-0.030
1.100,0.015,-0.030
1.102,-0.010,-0.035
1.104,-0.025,-0.040
1.106,-0.085,-0.045
1.108,-0.105,-0.045
1.110,-0.135,-0.045
1.112,-0.095,-0.045
1.114,-0.080,-0.040
1.116,-0.055,-0.040
1.118,-0.035,-0.040
1.120,-0.015,-0.040
1.122,-0.025,-0.045
1.124,-0.030,-0.050
1.126,-0.095,-0.055
1.128,-0.105,-0.060
1.130,-0.110,-0.060
1.132,-0.090,-0.060
1.134,-0.115,-0.055
1.136,-0.075,-0.050
1.138,0.000,-0.045
1.140,0.025,-0.035
1.142,-0.015,-0.030
1.144,-0.045,-0.025
1.146,-0.095,-0.025
1.148,-0.110,-0.025
1.150,-0.115,-0.025
1.152,-0.110,-0.030
1.154,-0.085,-0.035
1.156,-0.055,-0.040
1.158,-0.020,-0.045
1.160,-0.025,-0.050
1.162,-0.030,-0.050
1.164,-0.035,-0.050
1.166,-0.105,-0.045
1.168,-0.110,-0.040
1.170,-0.130,-0.040
1.172,-0.080,-0.035
1.174,-0.080,-0.040
1.176,-0.035,-0.045
1.178,-0.020,-0.050
1.180,0.000,-0.060
1.182,-0.065,-0.065
1.184,-0.090,-0.075
1.186,-0.115,-0.075
1.188,-0.125,-0.075
1.190,-0.105,-0.075
1.192,-0.090,-0.070
1.194,-0.080,-0.060
1.196,-0.040,-0.055
1.198,-0.030,-0.045
1.200,-0.015,-0.040
1.202,-0.045,-0.035
1.204,-0.070,-0.035
1.206,-0.100,-0.030
1.208,-0.095,-0.030
1.210,-0.100,-0.035
1.212,-0.095,-0.035
1.214,-0.085,-0.040
1.216,-0.035,-0.045
1.218,-0.025,-0.050
1.220,-0.055,-0.055
1.222,-0.055,-0.060
1.224,-0.090,-0.065
1.226,-0.125,-0.065
1.228,-0.120,-0.065
1.230,-0.145,-0.065
1.232,-0.105,-0.060
1.234,-0.055,-0.050
1.236,-0.010,-0.045
1.238,0.005,-0.040
1.240,-0.015,-0.040
1.242,-0.035,-0.040
1.244,-0.075,-0.045
1.246,-0.150,-0.050
1.248,-0.145,-0.055
1.250,-0.120,-0.065
1.252,-0.105,-0.070
1.254,-0.085,-0.070
1.256,-0.040,-0.075
1.258,-0.020,-0.075
1.260,-0.040,-0.075
1.262,-0.060,-0.075
1.264,-0.090,-0.075
1.266,-0.120,-0.075
1.268,-0.130,-0.075
1.270,-0.120,-0.070
1.272,-0.110,-0.070
1.274,-0.060,-0.065
1.276,-0.045,-0.060
1.278,-0.065,-0.055
1.280,-0.035,-0.045
1.282,-0.065,-0.040
1.284,-0.095,-0.035
1.286,-0.110,-0.035
1.288,-0.120,-0.040
1.290,-0.105,-0.045
1.292,-0.105,-0.050
1.294,-0.070,-0.055
1.296,-0.040,-0.060
1.298,-0.020,-0.065
1.300,-0.010,-0.065
1.302,-0.055,-0.060
1.304,-0.100,-0.055
1.306,-0.115,-0.050
1.308,-0.135,-0.045
1.310,-0.110,-0.040
1.312,-0.095,-0.040
1.314,-0.070,-0.040
1.316,-0.040,-0.040
1.318,-0.030,-0.045
1.320,-0.005,-0.050
1.322,-0.045,-0.050
1.324,-0.095,-0.055
1.326,-0.125,-0.055
1.328,-0.125,-0.060
1.330,-0.070,-0.060
1.332,-0.085,-0.060
1.334,-0.045,-0.060
1.336,-0.025,-0.055
1.338,-0.015,-0.055
1.340,-0.015,-0.055
1.342,-0.055,-0.050
1.344,-0.120,-0.050
1.346,-0.110,-0.050
1.348,-0.125,-0.045
1.350,-0.110,-0.050
1.352,-0.095,-0.050
1.354,-0.050,-0.050
1.356,-0.020,-0.055
1.358,-0.005,-0.055
1.360,-0.030,-0.060
1.362,-0.045,-0.060
1.364,-0.085,-0.060
1.366,-0.105,-0.055
1.368,-0.105,-0.050
1.370,-0.110,-0.045
1.372,-0.095,-0.045
1.374,-0.055,-0.040
1.376,-0.035,-0.040
1.378,0.015,-0.040
1.380,-0.035,-0.040
1.382,-0.060,-0.040
1.384,-0.085,-0.040
1.386,-0.105,-0.045
1.388,-0.090,-0.045
1.390,-0.055,-0.040
1.392,-0.070,-0.040
1.394,-0.030,-0.040
1.396,-0.040,-0.035
1.398,0.000,-0.035
1.400,-0.010,-0.030
1.402,-0.040,-0.025
1.404,-0.080,-0.025
1.406,-0.070,-0.020
1.408,-0.080,-0.015
1.410,-0.065,-0.015
1.412,-0.045,-0.010
1.414,-0.035,-0.005
1.416,0.010,-0.005
1.418,0.050,0.000
1.420,0.035,0.005
1.422,0.030,0.010
1.424,-0.020,0.015
1.426,-0.035,0.020
1.428,-0.045,0.025
1.430,-0.015,0.030
1.432,0.005,0.040
1.434,0.070,0.040
1.436,0.070,0.045
1.438,0.080,0.040
1.440,0.040,0.040
1.442,0.030,0.035
1.444,-0.020,0.035
1.446,-0.035,0.030
1.448,-0.015,0.030
1.450,-0.005,0.030
1.452,0.010,0.030
1.454,0.040,0.030
1.456,0.040,0.030
1.458,0.050,0.030
1.460,0.030,0.025
1.462,-0.010,0.015
1.464,-0.070,0.010
1.466,-0.090,0.000
1.468,-0.105,-0.010
1.470,-0.090,-0.020
1.472,-0.065,-0.030
1.474,-0.040,-0.035
1.476,-0.030,-0.040
1.478,-0.010,-0.045
1.480,-0.030,-0.045
1.482,-0.075,-0.045
1.484,-0.115,-0.050
1.486,-0.110,-0.050
1.488,-0.115,-0.050
1.490,-0.060,-0.050
1.492,-0.100,-0.055
1.494,-0.045,-0.055
1.496,-0.055,-0.060
1.498,-0.010,-0.065
1.500,-0.050,-0.070
1.502,-0.080,-0.070
1.504,-0.125,-0.075
1.506,-0.145,-0.080
1.508,-0.140,-0.085
1.510,-0.100,-0.085
1.512,-0.060,-0.085
1.514,-0.070,-0.080
1.516,-0.055,-0.075
1.518,-0.025,-0.070
1.520,-0.055,-0.070
1.522,-0.105,-0.065
1.524,-0.135,-0.065
1.526,-0.130,-0.065
1.528,-0.130,-0.065
1.530,-0.120,-0.065
1.532,-0.070,-0.070
1.534,-0.040,-0.070
1.536,-0.030,-0.075
1.538,-0.045,-0.075
1.540,-0.080,-0.075
1.542,-0.120,-0.075
1.544,-0.135,-0.080
1.546,-0.135,-0.085
1.548,-0.160,-0.090
1.550,-0.160,-0.105
1.552,-0.150,-0.120
1.554,-0.155,-0.135
1.556,-0.165,-0.155
1.558,-0.170,-0.165
1.560,-0.180,-0.165
1.562,-0.210,-0.150
1.564,-0.195,-0.115
1.566,-0.110,-0.055
1.568,-0.020,0.025
1.570,0.130,0.130
1.572,0.305,0.250
1.574,0.430,0.380
1.576,0.550,0.520
1.578,0.660,0.645
1.580,0.790,0.760
1.582,0.865,0.850
1.584,0.895,0.905
1.586,0.920,0.925
1.588,0.915,0.910
1.590,0.860,0.860
1.592,0.785,0.775
1.594,0.670,0.670
1.596,0.550,0.550
1.598,0.390,0.425
1.600,0.215,0.305
1.602,0.100,0.195
1.604,0.015,0.105
1.606,-0.030,0.035
1.608,-0.040,-0.005
1.610,-0.070,-0.030
1.612,-0.050,-0.040
1.614,0.005,-0.040
1.616,0.005,-0.035
1.618,-0.015,-0.030
1.620,-0.030,-0.025
1.622,-0.075,-0.030
1.624,-0.110,-0.035
1.626,-0.135,-0.045
1.628,-0.100,-0.055
1.630,-0.095,-0.060
1.632,-0.075,-0.065
1.634,-0.050,-0.065
1.636,-0.010,-0.060
1.638,-0.020,-0.060
1.640,-0.055,-0.055
1.642,-0.075,-0.050
1.644,-0.125,-0.050
1.646,-0.160,-0.050
1.648,-0.120,-0.055
1.650,-0.100,-0.060
1.652,-0.045,-0.065
1.654,-0.035,-0.065
1.656,-0.065,-0.070
1.658,-0.030,-0.070
1.660,-0.060,-0.070
1.662,-0.090,-0.070
1.664,-0.130,-0.065
1.666,-0.140,-0.065
1.668,-0.110,-0.065
1.670,-0.105,-0.070
1.672,-0.050,-0.070
1.674,-0.040,-0.070
1.676,-0.035,-0.070
1.678,-0.055,-0.065
1.680,-0.060,-0.065
1.682,-0.100,-0.060
1.684,-0.115,-0.055
1.686,-0.095,-0.050
1.688,-0.095,-0.045
1.690,-0.095,-0.045
1.692,-0.035,-0.040
1.694,0.000,-0.040
1.696,-0.005,-0.040
1.698,-0.035,-0.045
1.700,-0.045,-0.045
1.702,-0.105,-0.050
1.704,-0.115,-0.055
1.706,-0.110,-0.060
1.708,-0.100,-0.060
1.710,-0.110,-0.065
1.712,-0.045,-0.060
1.714,-0.015,-0.060
1.716,-0.020,-0.055
1.718,-0.030,-0.055
1.720,-0.045,-0.050
1.722,-0.090,-0.045
1.724,-0.095,-0.040
1.726,-0.100,-0.040
1.728,-0.075,-0.035
1.730,-0.075,-0.035
1.732,-0.030,-0.035
1.734,0.015,-0.035
1.736,0.000,-0.035
1.738,0.000,-0.030
1.740,-0.040,-0.025
1.742,-0.090,-0.025
1.744,-0.075,-0.020
1.746,-0.075,-0.020
1.748,-0.065,-0.015
1.750,-0.065,-0.015
1.752,-0.005,-0.020
1.754,0.015,-0.020
1.756,0.025,-0.020
1.758,0.000,-0.025
1.760,-0.030,-0.020
1.762,-0.070,-0.020
1.764,-0.075,-0.020
1.766,-0.090,-0.015
1.768,-0.060,-0.010
1.770,-0.040,-0.010
1.772,-0.010,-0.010
1.774,0.025,-0.010
1.776,0.045,-0.010
1.778,0.010,-0.010
1.780,0.005,-0.010
1.782,-0.055,-0.005
1.784,-0.060,0.000
1.786,-0.065,0.005
1.788,0.005,0.010
1.790,0.005,0.015
1.792,0.040,0.020
1.794,0.065,0.030
1.796,0.080,0.035
1.798,0.045,0.040
1.800,0.040,0.040
1.802,-0.010,0.045
1.804,0.005,0.045
1.806,0.020,0.045
1.808,-0.015,0.050
1.810,0.015,0.050
1.812,0.080,0.050
1.814,0.090,0.055
1.816,0.115,0.060
1.818,0.080,0.070
1.820,0.075,0.075
1.822,0.050,0.090
1.824,0.025,0.100
1.826,0.055,0.110
1.828,0.095,0.120
1.830,0.110,0.125
1.832,0.145,0.125
1.834,0.160,0.130
1.836,0.165,0.125
1.838,0.145,0.125
1.840,0.120,0.125
1.842,0.055,0.120
1.844,0.050,0.125
1.846,0.065,0.125
1.848,0.125,0.130
1.850,0.135,0.140
1.852,0.200,0.145
1.854,0.210,0.150
1.856,0.205,0.155
1.858,0.185,0.155
1.860,0.125,0.155
1.862,0.095,0.155
1.864,0.095,0.155
1.866,0.115,0.150
1.868,0.115,0.150
1.870,0.120,0.145
1.872,0.165,0.145
1.874,0.195,0.145
1.876,0.180,0.145
1.878,0.140,0.145
1.880,0.100,0.140
1.882,0.045,0.135
1.884,0.055,0.125
1.886,0.050,0.120
1.888,0.060,0.110
1.890,0.070,0.100
1.892,0.100,0.090
1.894,0.120,0.080
1.896,0.110,0.070
1.898,0.075,0.065
1.900,0.010,0.060
1.902,-0.015,0.055
1.904,-0.020,0.055
1.906,-0.020,0.050
1.908,-0.015,0.045
1.910,0.015,0.040
1.912,0.035,0.035
1.914,0.040,0.030
1.916,0.040,0.020
1.918,0.015,0.015
1.920,-0.020,0.010
1.922,-0.080,0.000
1.924,-0.095,-0.005
1.926,-0.070,-0.010
1.928,-0.045,-0.015
1.930,-0.015,-0.020
1.932,-0.020,-0.025
1.934,0.015,-0.035
1.936,-0.030,-0.045
1.938,-0.045,-0.050
1.940,-0.095,-0.060
1.942,-0.105,-0.060
1.944,-0.095,-0.060
1.946,-0.060,-0.055
1.948,-0.080,-0.045
1.950,-0.040,-0.035
1.952,-0.040,-0.030
1.954,0.030,-0.020
1.956,0.000,-0.020
1.958,-0.040,-0.020
1.960,-0.060,-0.025
1.962,-0.095,-0.035
1.964,-0.135,-0.045
1.966,-0.085,-0.050
1.968,-0.065,-0.055
1.970,-0.030,-0.055
1.972,-0.030,-0.050
1.974,0.005,-0.045
1.976,-0.025,-0.040
1.978,-0.035,-0.035
1.980,-0.095,-0.035
1.982,-0.080,-0.035
1.984,-0.100,-0.035
1.986,-0.100,-0.040
1.988,-0.090,-0.050
1.990,-0.050,-0.055
1.992,0.000,-0.055
1.994,-0.015,-0.060
1.996,-0.025,-0.060
1.998,-0.035,-0.055
2.000,-0.080,-0.050
2.002,-0.095,-0.050
2.004,-0.100,-0.050
2.006,-0.110,-0.045
2.008,-0.055,-0.045
2.010,-0.015,-0.050
2.012,-0.030,-0.050
2.014,-0.005,-0.050
2.016,-0.050,-0.055
2.018,-0.050,-0.055
2.020,-0.095,-0.055
2.022,-0.105,-0.055
2.024,-0.110,-0.055
2.026,-0.095,-0.055
2.028,-0.060,-0.060
2.030,-0.015,-0.060
2.032,-0.035,-0.060
2.034,-0.025,-0.060
2.036,-0.020,-0.060
2.038,-0.010,-0.055
2.040,-0.100,-0.055
2.042,-0.105,-0.050
2.044,-0.110,-0.050
2.046,-0.100,-0.050
2.048,-0.065,-0.050
2.050,-0.025,-0.050
2.052,-0.010,-0.050
2.054,0.000,-0.055
2.056,-0.020,-0.055
2.058,-0.055,-0.055
2.060,-0.120,-0.055
2.062,-0.130,-0.055
2.064,-0.090,-0.055
2.066,-0.090,-0.050
2.068,-0.055,-0.045
2.070,-0.020,-0.040
2.072,-0.010,-0.040
2.074,-0.050,-0.040
2.076,-0.020,-0.040
2.078,-0.045,-0.040
2.080,-0.120,-0.045
2.082,-0.105,-0.050
2.084,-0.095,-0.050
2.086,-0.065,-0.055
2.088,-0.055,-0.055
2.090,-0.030,-0.055
2.092,-0.040,-0.050
2.094,-0.005,-0.045
2.096,0.020,-0.035
2.098,-0.030,-0.030
2.100,-0.110,-0.025
2.102,-0.090,-0.025
2.104,-0.105,-0.030
2.106,-0.085,-0.035
2.108,-0.060,-0.040
2.110,-0.020,-0.050
2.112,-0.015,-0.055
2.114,-0.010,-0.060
2.116,-0.020,-0.055
2.118,-0.045,-0.055
2.120,-0.095,-0.050
2.122,-0.115,-0.040
2.124,-0.085,-0.035
2.126,-0.075,-0.030
2.128,-0.060,-0.030
2.130,-0.015,-0.035
2.132,0.020,-0.040
2.134,0.010,-0.050
2.136,-0.040,-0.055
2.138,-0.070,-0.065
2.140,-0.100,-0.065
2.142,-0.095,-0.065
2.144,-0.095,-0.060
2.146,-0.055,-0.050
2.148,-0.045,-0.040
2.150,0.000,-0.035
2.152,-0.005,-0.030
2.154,-0.030,-0.025
2.156,-0.030,-0.030
2.158,-0.055,-0.035
2.160,-0.105,-0.040
2.162,-0.090,-0.045
2.164,-0.090,-0.055
2.166,-0.085,-0.055
2.168,-0.045,-0.055
2.170,-0.010,-0.055
2.172,-0.020,-0.050
2.174,0.000,-0.045
2.176,-0.035,-0.040
2.178,-0.050,-0.040
2.180,-0.100,-0.040
2.182,-0.100,-0.040
2.184,-0.090,-0.045
2.186,-0.080,-0.050
2.188,-0.045,-0.055
2.190,-0.040,-0.060
2.192,-0.020,-0.065
2.194,-0.010,-0.070
2.196,-0.020,-0.070
2.198,-0.075,-0.070
2.200,-0.105,-0.065
2.202,-0.100,-0.060
2.204,-0.100,-0.060
2.206,-0.045,-0.055
2.208,-0.055,-0.055
2.210,-0.030,-0.055
2.212,0.000,-0.055
2.214,0.010,-0.055
2.216,-0.040,-0.050
2.218,-0.085,-0.050
2.220,-0.085,-0.050
2.222,-0.085,-0.050
2.224,-0.100,-0.045
2.226,-0.110,-0.040
2.228,-0.030,-0.040
2.230,0.020,-0.040
2.232,0.025,-0.035
2.234,0.005,-0.035
2.236,-0.015,-0.035
2.238,-0.060,-0.030
2.240,-0.105,-0.030
2.242,-0.095,-0.030
2.244,-0.085,-0.030
2.246,-0.075,-0.030
2.248,-0.040,-0.030
2.250,-0.010,-0.035
2.252,0.025,-0.040
2.254,-0.010,-0.045
2.256,-0.010,-0.045
2.258,-0.075,-0.050
2.260,-0.115,-0.055
2.262,-0.095,-0.055
2.264,-0.085,-0.055
2.266,-0.060,-0.055
2.268,-0.010,-0.055
2.270,-0.010,-0.050
2.272,-0.015,-0.050
2.274,-0.010,-0.045
2.276,-0.030,-0.045
2.278,-0.080,-0.045
2.280,-0.115,-0.050
2.282,-0.105,-0.050
2.284,-0.050,-0.050
2.286,-0.060,-0.050
2.288,-0.040,-0.055
2.290,-0.015,-0.055
2.292,-0.005,-0.050
2.294,-0.020,-0.050
2.296,-0.020,-0.050
2.298,-0.070,-0.050
2.300,-0.080,-0.050
2.302,-0.075,-0.050
2.304,-0.105,-0.050
2.306,-0.090,-0.055
2.308,-0.050,-0.055
2.310,0.010,-0.055
2.312,0.010,-0.050
2.314,-0.025,-0.050
2.316,-0.020,-0.045
2.318,-0.095,-0.045
2.320,-0.080,-0.045
2.322,-0.090,-0.040
2.324,-0.085,-0.040
2.326,-0.075,-0.045
2.328,-0.025,-0.045
2.330,-0.025,-0.050
2.332,-0.020,-0.055
2.334,-0.025,-0.055
2.336,-0.040,-0.055
2.338,-0.070,-0.055
2.340,-0.075,-0.055
2.342,-0.075,-0.055
2.344,-0.105,-0.050
2.346,-0.050,-0.050
2.348,-0.025,-0.045
2.350,0.000,-0.045
2.352,0.020,-0.050
2.354,-0.015,-0.055
2.356,-0.035,-0.055
2.358,-0.085,-0.065
2.360,-0.105,-0.070
2.362,-0.100,-0.070
2.364,-0.085,-0.075
2.366,-0.045,-0.075
2.368,-0.005,-0.070
2.370,-0.020,-0.070
2.372,-0.005,-0.065
2.374,-0.025,-0.060
2.376,-0.060,-0.055
2.378,-0.115,-0.050
2.380,-0.105,-0.050
2.382,-0.095,-0.050
2.384,-0.060,-0.055
2.386,-0.050,-0.055
2.388,-0.005,-0.055
2.390,0.010,-0.055
2.392,-0.005,-0.055
2.394,-0.010,-0.050
2.396,-0.035,-0.045
2.398,-0.100,-0.040
2.400,-0.080,-0.040
2.402,-0.075,-0.040
2.404,-0.025,-0.040
2.406,-0.050,-0.045
2.408,-0.005,-0.045
2.410,-0.005,-0.050
2.412,0.020,-0.050
2.414,0.010,-0.045
2.416,-0.015,-0.040
2.418,-0.065,-0.035
2.420,-0.060,-0.025
2.422,-0.035,-0.015
2.424,-0.020,-0.005
2.426,0.010,0.000
2.428,0.045,0.000
2.430,0.095,0.000
2.432,0.055,0.000
2.434,0.050,0.000
2.436,0.020,0.000
2.438,0.005,0.005
2.440,-0.005,0.010
2.442,0.005,0.020
2.444,0.015,0.030
2.446,0.050,0.035
2.448,0.090,0.040
2.450,0.090,0.045
2.452,0.080,0.040
2.454,0.040,0.035
2.456,0.005,0.030
2.458,-0.015,0.015
2.460,-0.005,0.005
2.462,-0.020,0.000
2.464,0.000,-0.010
2.466,0.020,-0.015
2.468,0.050,-0.015
2.470,0.030,-0.015
2.472,0.035,-0.020
2.474,0.000,-0.020
2.476,-0.055,-0.025
2.478,-0.090,-0.030
2.480,-0.090,-0.035
2.482,-0.085,-0.045
2.484,-0.055,-0.050
2.486,0.005,-0.055
2.488,0.000,-0.060
2.490,0.025,-0.060
2.492,0.000,-0.060
2.494,-0.020,-0.060
2.496,-0.080,-0.060
2.498,-0.105,-0.060
2.500,-0.115,-0.060
2.502,-0.115,-0.065
2.504,-0.075,-0.065
2.506,-0.040,-0.070
2.508,-0.020,-0.075
2.510,0.010,-0.075
2.512,0.005,-0.075
2.514,-0.010,-0.075
2.516,-0.060,-0.075
2.518,-0.095,-0.075
2.520,-0.105,-0.075
2.522,-0.090,-0.070
2.524,-0.070,-0.070
2.526,-0.045,-0.070
2.528,-0.020,-0.070
2.530,0.000,-0.070
2.532,0.000,-0.070
2.534,0.005,-0.075
2.536,-0.050,-0.075
2.538,-0.085,-0.075
2.540,-0.135,-0.070
2.542,-0.095,-0.065
2.544,-0.040,-0.060
2.546,-0.035,-0.055
2.548,-0.010,-0.045
2.550,0.035,-0.045
2.552,0.005,-0.050
2.554,-0.035,-0.060
2.556,-0.085,-0.075
2.558,-0.135,-0.095
2.560,-0.165,-0.120
2.562,-0.190,-0.140
2.564,-0.180,-0.155
2.566,-0.135,-0.155
2.568,-0.105,-0.140
2.570,-0.045,-0.105
2.572,0.010,-0.045
2.574,0.095,0.040
2.576,0.175,0.145
2.578,0.285,0.260
2.580,0.430,0.390
2.582,0.510,0.525
2.584,0.635,0.655
2.586,0.815,0.770
2.588,0.965,0.870
2.590,1.065,0.935
2.592,1.115,0.975
2.594,1.075,0.975
2.596,0.965,0.935
2.598,0.850,0.865
2.600,0.720,0.765
2.602,0.625,0.645
2.604,0.465,0.515
2.606,0.330,0.390
2.608,0.255,0.275
2.610,0.240,0.180
2.612,0.170,0.110
2.614,0.130,0.065
2.616,0.055,0.040
2.618,0.020,0.030
2.620,0.010,0.030
2.622,0.025,0.030
2.624,0.010,0.030
2.626,0.050,0.025
2.628,0.040,0.015
2.630,0.075,0.005
2.632,0.060,-0.010
2.634,0.020,-0.020
2.636,-0.005,-0.020
2.638,-0.015,-0.020
2.640,-0.030,-0.020
2.642,0.015,-0.010
2.644,-0.010,-0.010
2.646,0.030,-0.005
2.648,0.070,-0.005
2.650,0.060,-0.010
2.652,0.035,-0.020
2.654,-0.015,-0.025
2.656,-0.055,-0.030
2.658,-0.065,-0.035
2.660,-0.035,-0.035
2.662,-0.005,-0.035
2.664,0.000,-0.030
2.666,0.030,-0.025
2.668,0.020,-0.025
2.670,0.060,-0.025
2.672,0.040,-0.025
2.674,0.025,-0.025
2.676,-0.030,-0.025
2.678,-0.045,-0.025
2.680,-0.050,-0.030
2.682,-0.025,-0.030
2.684,0.000,-0.030
2.686,0.045,-0.030
2.688,0.050,-0.030
2.690,0.060,-0.030
2.692,0.015,-0.035
2.694,0.015,-0.035
2.696,-0.055,-0.035
2.698,-0.075,-0.035
2.700,-0.010,-0.030
2.702,0.005,-0.025
2.704,0.035,-0.020
2.706,0.040,-0.015
2.708,0.060,-0.015
2.710,0.075,-0.010
2.712,0.055,-0.010
2.714,-0.005,-0.015
2.716,-0.025,-0.020
2.718,-0.025,-0.030
2.720,-0.005,-0.035
2.722,-0.030,-0.040
2.724,0.020,-0.045
2.726,0.045,-0.045
2.728,0.065,-0.040
2.730,0.055,-0.035
2.732,0.020,-0.025
2.734,0.020,-0.020
2.736,-0.030,-0.015
2.738,-0.020,-0.010
2.740,0.010,-0.005
2.742,0.015,0.000
2.744,0.035,0.000
2.746,0.050,0.000
2.748,0.030,0.000
2.750,0.090,0.000
2.752,0.070,0.000
2.754,0.025,-0.005
2.756,-0.030,-0.005
2.758,-0.035,-0.005
2.760,0.020,-0.005
2.762,0.025,-0.005
2.764,0.055,-0.005
2.766,0.080,0.000
2.768,0.080,0.005
2.770,0.080,0.010
2.772,0.070,0.010
2.774,0.045,0.015
2.776,0.010,0.015
2.778,0.020,0.015
2.780,0.040,0.015
2.782,0.040,0.015
2.784,0.075,0.015
2.786,0.115,0.015
2.788,0.110,0.020
2.790,0.125,0.020
2.792,0.095,0.025
2.794,0.040,0.025
2.796,0.025,0.030
2.798,0.025,0.030
2.800,0.060,0.030
2.802,0.075,0.030
2.804,0.105,0.030
2.806,0.155,0.035
2.808,0.160,0.040
2.810,0.140,0.050
2.812,0.135,0.060
2.814,0.090,0.070
2.816,0.075,0.080
2.818,0.090,0.085
2.820,0.105,0.090
2.822,0.110,0.090
2.824,0.150,0.090
2.826,0.190,0.090
2.828,0.225,0.095
2.830,0.205,0.100
2.832,0.185,0.110
2.834,0.120,0.125
2.836,0.165,0.135
2.838,0.140,0.145
2.840,0.110,0.150
2.842,0.175,0.145
2.844,0.180,0.145
2.846,0.205,0.140
2.848,0.250,0.135
2.850,0.240,0.130
2.852,0.230,0.130
2.854,0.180,0.140
2.856,0.150,0.150
2.858,0.170,0.160
2.860,0.210,0.170
2.862,0.195,0.180
2.864,0.225,0.180
2.866,0.255,0.175
2.868,0.265,0.165
2.870,0.225,0.155
2.872,0.225,0.145
2.874,0.150,0.135
2.876,0.145,0.130
2.878,0.175,0.130
2.880,0.190,0.135
2.882,0.175,0.140
2.884,0.220,0.140
2.886,0.215,0.140
2.888,0.230,0.135
2.890,0.205,0.130
2.892,0.185,0.120
2.894,0.130,0.110
2.896,0.120,0.100
2.898,0.105,0.095
2.900,0.110,0.090
2.902,0.120,0.085
2.904,0.130,0.085
2.906,0.150,0.080
2.908,0.155,0.075
2.910,0.150,0.060
2.912,0.105,0.050
2.914,0.045,0.035
2.916,0.010,0.020
2.918,0.025,0.005
2.920,0.020,-0.005
2.922,0.060,-0.005
2.924,0.090,-0.010
2.926,0.100,-0.005
2.928,0.085,-0.005
2.930,0.095,0.000
2.932,0.070,-0.005
2.934,0.000,-0.010
2.936,-0.030,-0.015
2.938,0.000,-0.025
2.940,0.000,-0.030
2.942,0.010,-0.040
2.944,0.040,-0.045
2.946,0.040,-0.050
2.948,0.060,-0.050
2.950,0.035,-0.050
2.952,0.005,-0.050
2.954,-0.030,-0.050
2.956,-0.045,-0.050
2.958,-0.050,-0.050
2.960,-0.010,-0.050
2.962,0.005,-0.055
2.964,0.050,-0.055
2.966,0.060,-0.055
2.968,0.060,-0.055
2.970,0.035,-0.050
2.972,0.025,-0.045
2.974,-0.015,-0.045
2.976,-0.030,-0.040
2.978,-0.035,-0.035
2.980,-0.025,-0.035
2.982,-0.010,-0.040
2.984,0.020,-0.045
2.986,0.040,-0.050
2.988,0.040,-0.055
2.990,0.015,-0.060
2.992,0.000,-0.065
2.994,-0.020,-0.065
2.996,-0.025,-0.070
2.998,-0.055,-0.065
3.000,-0.010,-0.060
3.002,0.005,-0.060
3.004,0.045,-0.055
3.006,0.070,-0.050
3.008,0.070,-0.050
3.010,0.010,-0.050
3.012,0.010,-0.050
3.014,-0.065,-0.055
3.016,-0.015,-0.055
3.018,-0.015,-0.060
3.020,-0.010,-0.060
3.022,0.010,-0.060
3.024,0.055,-0.060
3.026,0.050,-0.060
3.028,0.055,-0.055
3.030,0.030,-0.055
3.032,-0.010,-0.050
3.034,-0.030,-0.050
3.036,-0.045,-0.055
3.038,-0.015,-0.055
3.040,-0.010,-0.060
3.042,0.015,-0.065
3.044,0.040,-0.065
3.046,0.030,-0.070
3.048,0.050,-0.070
3.050,0.010,-0.070
3.052,-0.025,-0.070
3.054,-0.025,-0.065
3.056,-0.030,-0.065
3.058,-0.030,-0.065
3.060,-0.020,-0.065
3.062,0.015,-0.065
3.064,0.050,-0.065
3.066,0.065,-0.065
3.068,0.070,-0.065
3.070,0.050,-0.065
3.072,-0.005,-0.065
3.074,-0.030,-0.065
3.076,-0.035,-0.070
3.078,-0.040,-0.070
3.080,-0.030,-0.070
3.082,-0.010,-0.075
3.084,0.030,-0.075
3.086,0.070,-0.075
3.088,0.065,-0.070
3.090,0.070,-0.065
3.092,-0.005,-0.055
3.094,-0.015,-0.045
3.096,-0.005,-0.040
3.098,0.030,-0.035
3.100,0.015,-0.030
3.102,0.055,-0.030
3.104,0.065,-0.035
3.106,0.070,-0.045
3.108,0.070,-0.050
3.110,-0.005,-0.060
3.112,0.005,-0.060
3.114,0.005,-0.060
3.116,0.000,-0.055
3.118,-0.005,-0.045
3.120,-0.005,-0.035
3.122,0.040,-0.030
3.124,0.095,-0.025
3.126,0.085,-0.025
3.128,0.085,-0.030
3.130,0.060,-0.035
3.132,-0.010,-0.045
3.134,-0.020,-0.055
3.136,-0.015,-0.065
3.138,0.005,-0.065
3.140,0.040,-0.065
3.142,0.035,-0.060
3.144,0.090,-0.055
3.146,0.090,-0.045
3.148,0.070,-0.035
3.150,0.075,-0.030
3.152,0.030,-0.030
3.154,-0.010,-0.035
3.156,-0.040,-0.040
3.158,-0.015,-0.045
3.160,-0.005,-0.050
3.162,0.045,-0.055
3.164,0.070,-0.060
3.166,0.095,-0.060
3.168,0.095,-0.055
3.170,0.055,-0.055
3.172,0.020,-0.045
3.174,0.010,-0.045
3.176,-0.015,-0.040
3.178,-0.005,-0.040
3.180,0.005,-0.040
3.182,0.045,-0.040
3.184,0.070,-0.045
3.186,0.080,-0.050
3.188,0.050,-0.055
3.190,0.045,-0.055
3.192,0.005,-0.060
3.194,-0.005,-0.060
3.196,-0.005,-0.055
3.198,0.005,-0.050
3.200,0.005,-0.045
3.202,0.050,-0.040
3.204,0.060,-0.035
3.206,0.115,-0.030
3.208,0.085,-0.030
3.210,0.100,-0.030
3.212,0.025,-0.035
3.214,-0.020,-0.040
3.216,-0.040,-0.045
3.218,0.005,-0.055
3.220,-0.010,-0.060
3.222,0.040,-0.065
3.224,0.080,-0.065
3.226,0.105,-0.070
3.228,0.080,-0.070
3.230,0.055,-0.065
3.232,0.015,-0.065
3.234,-0.020,-0.060
3.236,0.005,-0.055
3.238,0.010,-0.050
3.240,0.020,-0.050
3.242,0.060,-0.050
3.244,0.090,-0.050
3.246,0.085,-0.050
3.248,0.020,-0.055
3.250,0.070,-0.055
3.252,-0.010,-0.060
3.254,-0.025,-0.060
3.256,0.000,-0.060
3.258,0.010,-0.055
3.260,0.040,-0.055
3.262,0.085,-0.050
3.264,0.090,-0.045
3.266,0.075,-0.040
3.268,0.065,-0.040
3.270,0.030,-0.045
3.272,-0.025,-0.050
3.274,-0.030,-0.060
3.276,-0.005,-0.065
3.278,0.000,-0.075
3.280,0.030,-0.075
3.282,0.055,-0.075
3.284,0.075,-0.075
3.286,0.090,-0.065
3.288,0.060,-0.055
3.290,0.015,-0.045
3.292,0.000,-0.035
3.294,-0.015,-0.030
3.296,-0.015,-0.030
3.298,0.010,-0.040
3.300,0.015,-0.045
3.302,0.055,-0.060
3.304,0.090,-0.070
3.306,0.115,-0.075
3.308,0.050,-0.075
3.310,0.025,-0.075
3.312,-0.035,-0.070
3.314,-0.025,-0.060
3.316,-0.005,-0.050
3.318,0.010,-0.045
3.320,0.030,-0.040
3.322,0.075,-0.040
3.324,0.120,-0.045
3.326,0.150,-0.045
3.328,0.090,-0.050
3.330,0.010,-0.050
3.332,-0.005,-0.045
3.334,0.020,-0.040
3.336,0.020,-0.035
3.338,0.025,-0.030
3.340,0.080,-0.020
3.342,0.125,-0.020
3.344,0.125,-0.015
3.346,0.140,-0.015
3.348,0.100,-0.020
3.350,0.070,-0.020
3.352,0.025,-0.020
3.354,0.025,-0.020
3.356,0.050,-0.015
3.358,0.080,-0.005
3.360,0.095,0.000
3.362,0.145,0.010
3.364,0.160,0.020
3.366,0.175,0.025
3.368,0.140,0.030
3.370,0.125,0.035
3.372,0.085,0.040
3.374,0.085,0.040
3.376,0.110,0.045
3.378,0.110,0.045
3.380,0.160,0.045
3.382,0.180,0.050
3.384,0.200,0.050
3.386,0.190,0.050
3.388,0.180,0.050
3.390,0.115,0.050
3.392,0.095,0.050
3.394,0.065,0.045
3.396,0.120,0.045
3.398,0.110,0.045
3.400,0.135,0.045
3.402,0.155,0.040
3.404,0.185,0.035
3.406,0.160,0.025
3.408,0.120,0.020
3.410,0.065,0.005
3.412,0.020,-0.005
3.414,0.020,-0.015
3.416,0.025,-0.025
3.418,0.040,-0.035
3.420,0.075,-0.040
3.422,0.085,-0.045
3.424,0.120,-0.050
3.426,0.090,-0.050
3.428,0.035,-0.055
3.430,0.010,-0.055
3.432,0.005,-0.060
3.434,0.010,-0.060
3.436,-0.005,-0.060
3.438,0.015,-0.060
3.440,0.025,-0.060
3.442,0.075,-0.060
3.444,0.095,-0.055
3.446,0.080,-0.055
3.448,0.045,-0.055
3.450,0.035,-0.050
3.452,-0.005,-0.055
3.454,-0.005,-0.055
3.456,0.000,-0.055
3.458,0.010,-0.060
3.460,0.055,-0.060
3.462,0.075,-0.060
3.464,0.085,-0.060
3.466,0.060,-0.060
3.468,0.050,-0.060
3.470,0.020,-0.060
3.472,-0.005,-0.060
3.474,-0.025,-0.060
3.476,-0.020,-0.065
3.478,-0.005,-0.070
3.480,0.050,-0.070
3.482,0.065,-0.070
3.484,0.070,-0.070
3.486,0.055,-0.065
3.488,0.050,-0.060
3.490,0.010,-0.060
3.492,-0.010,-0.065
3.494,-0.020,-0.075
3.496,-0.025,-0.090
3.498,-0.045,-0.115
3.500,-0.035,-0.140
3.502,-0.090,-0.165
3.504,-0.075,-0.180
3.506,-0.090,-0.185
3.508,-0.115,-0.175
3.510,-0.130,-0.145
3.512,-0.025,-0.085
3.514,0.040,-0.010
3.516,0.185,0.095
3.518,0.375,0.215
3.520,0.540,0.350
3.522,0.640,0.490
3.524,0.755,0.625
3.526,0.880,0.755
3.528,0.990,0.860
3.530,1.050,0.935
3.532,1.120,0.980
3.534,1.065,0.980
3.536,1.050,0.940
3.538,0.965,0.860
3.540,0.860,0.750
3.542,0.750,0.625
3.544,0.615,0.485
3.546,0.390,0.350
3.548,0.240,0.225
3.550,0.130,0.125
3.552,0.105,0.050
3.554,0.060,0.005
3.556,0.050,-0.025
3.558,0.050,-0.035
3.560,0.060,-0.035
3.562,0.100,-0.035
3.564,0.115,-0.035
3.566,0.065,-0.040
3.568,0.065,-0.050
3.570,0.005,-0.060
3.572,-0.005,-0.070
3.574,0.010,-0.075
3.576,0.025,-0.080
3.578,0.030,-0.075
3.580,0.030,-0.070
3.582,0.055,-0.065
3.584,0.085,-0.060
3.586,0.065,-0.060
3.588,0.010,-0.065
3.590,-0.040,-0.070
3.592,-0.030,-0.080
3.594,-0.025,-0.085
3.596,0.030,-0.090
3.598,0.060,-0.095
3.600,0.020,-0.095
3.602,0.055,-0.090
3.604,0.060,-0.085
3.606,0.020,-0.080
3.608,0.025,-0.075
3.610,-0.010,-0.075
3.612,-0.005,-0.070
3.614,-0.030,-0.075
3.616,-0.020,-0.075
3.618,0.020,-0.075
3.620,0.050,-0.075
3.622,0.050,-0.070
3.624,0.085,-0.070
3.626,0.065,-0.065
3.628,0.025,-0.060
3.630,0.005,-0.060
3.632,0.000,-0.060
3.634,0.010,-0.060
3.636,0.005,-0.065
3.638,0.030,-0.065
3.640,0.080,-0.070
3.642,0.100,-0.070
3.644,0.090,-0.065
3.646,0.080,-0.065
3.648,0.010,-0.060
3.650,-0.030,-0.055
3.652,-0.010,-0.055
3.654,0.005,-0.055
3.656,0.025,-0.055
3.658,0.075,-0.060
3.660,0.065,-0.065
3.662,0.090,-0.070
3.664,0.095,-0.075
3.666,0.075,-0.075
3.668,0.040,-0.070
3.670,0.025,-0.060
3.672,0.025,-0.050
3.674,0.030,-0.045
3.676,0.000,-0.035
3.678,0.080,-0.035
3.680,0.095,-0.035
3.682,0.110,-0.040
3.684,0.125,-0.045
3.686,0.045,-0.055
3.688,0.045,-0.060
3.690,0.035,-0.060
3.692,0.000,-0.060
3.694,0.020,-0.055
3.696,0.030,-0.045
3.698,0.030,-0.035
3.700,0.125,-0.025
3.702,0.130,-0.020
3.704,0.130,-0.015
3.706,0.095,-0.015
3.708,0.050,-0.020
3.710,0.060,-0.025
3.712,0.010,-0.030
3.714,0.025,-0.030
3.716,0.070,-0.035
3.718,0.120,-0.030
3.720,0.125,-0.025
3.722,0.130,-0.020
3.724,0.135,-0.015
3.726,0.100,-0.005
3.728,0.070,0.000
3.730,0.065,0.005
3.732,0.060,0.005
3.734,0.085,0.005
3.736,0.090,0.010
3.738,0.135,0.010
3.740,0.175,0.010
3.742,0.150,0.015
3.744,0.150,0.015
3.746,0.165,0.020
3.748,0.100,0.025
3.750,0.085,0.030
3.752,0.100,0.035
3.754,0.105,0.040
3.756,0.140,0.045
3.758,0.175,0.050
3.760,0.215,0.055
3.762,0.235,0.060
3.764,0.210,0.065
3.766,0.160,0.070
3.768,0.160,0.080
3.770,0.130,0.085
3.772,0.155,0.090
3.774,0.160,0.095
3.776,0.180,0.100
3.778,0.230,0.105
3.780,0.230,0.110
3.782,0.275,0.115
3.784,0.260,0.120
3.786,0.245,0.125
3.788,0.220,0.130
3.790,0.230,0.135
3.792,0.230,0.145
3.794,0.245,0.150
3.796,0.240,0.155
3.798,0.300,0.165
3.800,0.305,0.175
3.802,0.335,0.180
3.804,0.300,0.180
3.806,0.270,0.180
3.808,0.240,0.180
3.810,0.185,0.170
3.812,0.180,0.160
3.814,0.210,0.150
3.816,0.240,0.140
3.818,0.305,0.130
3.820,0.275,0.125
3.822,0.285,0.120
3.824,0.240,0.120
3.826,0.220,0.120
3.828,0.175,0.120
3.830,0.170,0.115
3.832,0.180,0.110
3.834,0.170,0.105
3.836,0.155,0.095
3.838,0.200,0.080
3.840,0.220,0.070
3.842,0.210,0.060
3.844,0.195,0.055
3.846,0.165,0.050
3.848,0.110,0.045
3.850,0.075,0.050
3.852,0.095,0.050
3.854,0.115,0.050
3.856,0.115,0.050
3.858,0.140,0.040
3.860,0.155,0.030
3.862,0.155,0.020
3.864,0.115,0.005
3.866,0.065,-0.010
3.868,0.050,-0.020
3.870,0.035,-0.030
3.872,0.035,-0.035
3.874,-0.035,-0.040
3.876,0.055,-0.040
3.878,0.110,-0.040
3.880,0.110,-0.040
3.882,0.105,-0.040
3.884,0.070,-0.040
3.886,0.050,-0.045
3.888,-0.020,-0.050
3.890,0.000,-0.050
3.892,0.005,-0.055
3.894,0.000,-0.055
3.896,0.065,-0.050
3.898,0.085,-0.050
3.900,0.090,-0.045
3.902,0.090,-0.045
3.904,0.085,-0.045
3.906,0.070,-0.045
3.908,0.000,-0.045
3.910,-0.010,-0.050
3.912,-0.015,-0.055
3.914,0.035,-0.060
3.916,0.050,-0.060
3.918,0.055,-0.060
3.920,0.080,-0.055
3.922,0.090,-0.055
3.924,0.070,-0.055
3.926,0.025,-0.055
3.928,-0.015,-0.060
3.930,-0.020,-0.065
3.932,0.015,-0.065
3.934,0.015,-0.070
3.936,0.045,-0.070
3.938,0.075,-0.070
3.940,0.060,-0.070
3.942,0.095,-0.065
3.944,0.085,-0.060
3.946,0.035,-0.055
3.948,0.000,-0.055
3.950,0.000,-0.055
3.952,0.000,-0.055
3.954,0.010,-0.055
3.956,0.045,-0.060
3.958,0.060,-0.060
3.960,0.085,-0.060
3.962,0.080,-0.060
3.964,0.040,-0.060
3.966,0.035,-0.060
3.968,-0.010,-0.060
3.970,-0.025,-0.055
3.972,0.010,-0.055
3.974,0.045,-0.060
3.976,0.045,-0.060
3.978,0.080,-0.060
3.980,0.075,-0.065
3.982,0.080,-0.065
3.984,0.090,-0.060
3.986,0.020,-0.060
3.988,0.010,-0.060
3.990,-0.025,-0.055
3.992,0.000,-0.055
3.994,0.010,-0.055
3.996,0.045,-0.055
3.998,0.065,-0.060
4.000,0.100,-0.065
4.002,0.095,-0.065
4.004,0.070,-0.065
4.006,-0.005,-0.065
4.008,-0.010,-0.060
4.010,0.025,-0.055
4.012,0.010,-0.050
4.014,0.015,-0.045
4.016,0.040,-0.045
4.018,0.065,-0.045
4.020,0.075,-0.045
4.022,0.110,-0.050
4.024,0.070,-0.055
4.026,0.005,-0.055
4.028,0.010,-0.055
4.030,0.035,-0.055
4.032,0.005,-0.050
4.034,0.015,-0.045
4.036,0.055,-0.045
4.038,0.090,-0.040
4.040,0.100,-0.040
4.042,0.085,-0.045
4.044,0.070,-0.050
4.046,0.025,-0.060
4.048,0.010,-0.065
4.050,-0.025,-0.065
4.052,-0.005,-0.065
4.054,-0.010,-0.065
4.056,0.055,-0.060
4.058,0.120,-0.050
4.060,0.105,-0.045
4.062,0.085,-0.040
4.064,0.075,-0.040
4.066,0.010,-0.040
4.068,0.005,-0.045
4.070,0.005,-0.050
4.072,0.040,-0.050
4.074,0.020,-0.050
4.076,0.070,-0.050
4.078,0.080,-0.050
4.080,0.105,-0.045
4.082,0.085,-0.040
4.084,0.080,-0.045
4.086,0.020,-0.045
4.088,-0.020,-0.050
4.090,-0.015,-0.060
4.092,0.025,-0.065
4.094,0.010,-0.070
4.096,0.060,-0.070
4.098,0.075,-0.065
4.100,0.100,-0.060
4.102,0.060,-0.050
4.104,0.075,-0.045
4.106,0.015,-0.045
4.108,0.000,-0.045
4.110,-0.015,-0.050
4.112,0.015,-0.060
4.114,0.025,-0.065
4.116,0.060,-0.070
4.118,0.085,-0.075
4.120,0.110,-0.070
4.122,0.075,-0.065
4.124,0.055,-0.060
4.126,0.000,-0.050
4.128,-0.020,-0.045
4.130,-0.020,-0.045
4.132,0.025,-0.045
4.134,0.040,-0.045
4.136,0.060,-0.050
4.138,0.100,-0.055
4.140,0.105,-0.055
4.142,0.060,-0.055
4.144,0.055,-0.055
4.146,-0.005,-0.055
4.148,-0.015,-0.050
4.150,-0.015,-0.050
4.152,0.025,-0.055
4.154,0.035,-0.060
4.156,0.045,-0.060
4.158,0.080,-0.065
4.160,0.105,-0.065
4.162,0.070,-0.065
4.164,0.055,-0.060
4.166,-0.025,-0.055
4.168,0.020,-0.050
4.170,0.025,-0.045
4.172,-0.005,-0.045
4.174,0.060,-0.045
4.176,0.065,-0.050
4.178,0.095,-0.055
4.180,0.090,-0.060
4.182,0.055,-0.060
4.184,0.030,-0.060
4.186,-0.015,-0.060
4.188,-0.015,-0.050
4.190,-0.005,-0.045
4.192,0.020,-0.040
4.194,0.050,-0.035
4.196,0.070,-0.035
4.198,0.085,-0.040
4.200,0.090,-0.045
4.202,0.070,-0.055
4.204,0.030,-0.060
4.206,0.015,-0.065
4.208,0.000,-0.065
4.210,-0.040,-0.060
4.212,-0.015,-0.055
4.214,0.075,-0.045
4.216,0.100,-0.040
4.218,0.110,-0.040
4.220,0.105,-0.040
4.222,0.065,-0.045
4.224,0.045,-0.050
4.226,-0.010,-0.060
4.228,-0.010,-0.070
4.230,0.000,-0.075
4.232,0.025,-0.075
4.234,0.060,-0.075
4.236,0.060,-0.070
4.238,0.085,-0.065
4.240,0.100,-0.055
4.242,0.075,-0.050
4.244,0.055,-0.045
4.246,0.020,-0.040
4.248,0.010,-0.040
4.250,0.010,-0.045
4.252,0.040,-0.045
4.254,0.035,-0.050
4.256,0.080,-0.050
4.258,0.115,-0.050
4.260,0.090,-0.050
4.262,0.080,-0.045
4.264,0.060,-0.040
4.266,0.035,-0.035
4.268,0.040,-0.025
4.270,0.025,-0.020
4.272,0.055,-0.015
4.274,0.090,-0.010
4.276,0.115,-0.005
4.278,0.175,0.000
4.280,0.130,0.005
4.282,0.135,0.010
4.284,0.105,0.015
4.286,0.095,0.020
4.288,0.095,0.025
4.290,0.110,0.030
4.292,0.100,0.040
4.294,0.165,0.045
4.296,0.180,0.050
4.298,0.205,0.060
4.300,0.180,0.060
4.302,0.175,0.065
4.304,0.145,0.065
4.306,0.125,0.065
4.308,0.095,0.065
4.310,0.115,0.060
4.312,0.120,0.055
4.314,0.145,0.050
4.316,0.165,0.045
4.318,0.190,0.035
4.320,0.165,0.030
4.322,0.135,0.020
4.324,0.070,0.010
4.326,0.010,0.000
4.328,0.000,-0.010
4.330,0.060,-0.015
4.332,0.050,-0.020
4.334,0.085,-0.025
4.336,0.115,-0.030
4.338,0.110,-0.030
4.340,0.125,-0.035
4.342,0.090,-0.035
4.344,0.025,-0.040
4.346,0.000,-0.040
4.348,0.000,-0.045
4.350,0.030,-0.050
4.352,0.035,-0.055
4.354,0.070,-0.060
4.356,0.080,-0.065
4.358,0.095,-0.065
4.360,0.060,-0.065
4.362,0.010,-0.065
4.364,0.005,-0.065
4.366,-0.005,-0.065
4.368,-0.035,-0.065
4.370,-0.010,-0.065
4.372,0.025,-0.065
4.374,0.055,-0.070
4.376,0.060,-0.070
4.378,0.080,-0.070
4.380,0.100,-0.070
4.382,0.085,-0.070
4.384,-0.015,-0.070
4.386,-0.015,-0.070
4.388,-0.020,-0.070
4.390,-0.015,-0.075
4.392,-0.015,-0.080
4.394,0.035,-0.085
4.396,0.065,-0.085
4.398,0.070,-0.085
4.400,0.075,-0.080
4.402,0.050,-0.075
4.404,0.015,-0.070
4.406,0.005,-0.060
4.408,-0.015,-0.055
4.410,-0.005,-0.060
4.412,0.015,-0.065
4.414,0.035,-0.085
4.416,0.025,-0.105
4.418,-0.025,-0.135
4.420,-0.055,-0.160
4.422,-0.110,-0.175
4.424,-0.145,-0.180
4.426,-0.125,-0.165
4.428,-0.065,-0.125
4.430,0.005,-0.060
4.432,0.130,0.025
4.434,0.290,0.140
4.436,0.485,0.265
4.438,0.590,0.405
4.440,0.655,0.540
4.442,0.760,0.670
4.444,0.860,0.780
4.446,0.970,0.865
4.448,1.040,0.920
4.450,1.060,0.935
4.452,1.055,0.910
4.454,0.985,0.845
4.456,0.875,0.750
4.458,0.775,0.630
4.460,0.615,0.490
4.462,0.385,0.350
4.464,0.200,0.220
4.466,0.070,0.105
4.468,0.050,0.020
4.470,0.040,-0.040
4.472,0.045,-0.075
4.474,0.055,-0.090
4.476,0.080,-0.085
4.478,0.050,-0.075
4.480,0.045,-0.070
4.482,0.040,-0.065
4.484,0.000,-0.065
4.486,-0.035,-0.070
4.488,-0.020,-0.080
4.490,0.010,-0.090
4.492,0.045,-0.100
4.494,0.075,-0.100
4.496,0.080,-0.100
4.498,0.080,-0.095
4.500,0.055,-0.085
4.502,0.030,-0.075
4.504,-0.015,-0.070
4.506,-0.035,-0.060
4.508,-0.005,-0.055
4.510,0.015,-0.055
4.512,0.070,-0.050
4.514,0.095,-0.050
4.516,0.130,-0.055
4.518,0.090,-0.055
4.520,0.050,-0.055
4.522,0.040,-0.055
4.524,-0.005,-0.050
4.526,-0.005,-0.050
4.528,0.005,-0.050
4.530,0.025,-0.045
4.532,0.045,-0.045
4.534,0.060,-0.040
4.536,0.110,-0.040
4.538,0.115,-0.045
4.540,0.080,-0.045
4.542,0.040,-0.050
4.544,-0.015,-0.050
4.546,-0.020,-0.055
4.548,0.015,-0.055
4.550,0.050,-0.050
4.552,0.075,-0.045
4.554,0.070,-0.040
4.556,0.115,-0.035
4.558,0.135,-0.030
4.560,0.100,-0.025
4.562,0.055,-0.020
4.564,0.025,-0.020
4.566,0.020,-0.025
4.568,0.030,-0.030
4.570,0.035,-0.040
4.572,0.080,-0.045
4.574,0.075,-0.045
4.576,0.125,-0.050
4.578,0.130,-0.045
4.580,0.090,-0.040
4.582,0.065,-0.035
4.584,0.055,-0.030
4.586,0.035,-0.020
4.588,0.055,-0.020
4.590,0.050,-0.015
4.592,0.080,-0.015
4.594,0.110,-0.020
4.596,0.120,-0.020
4.598,0.120,-0.020
4.600,0.140,-0.020
4.602,0.080,-0.020
4.604,0.050,-0.015
4.606,0.060,-0.010
4.608,0.060,-0.005
4.610,0.100,0.000
4.612,0.135,0.005
4.614,0.160,0.005
4.616,0.160,0.010
4.618,0.155,0.010
4.620,0.145,0.010
4.622,0.085,0.015
4.624,0.075,0.015
4.626,0.070,0.020
4.628,0.115,0.025
4.630,0.130,0.030
4.632,0.155,0.035
4.634,0.170,0.040
4.636,0.210,0.045
4.638,0.180,0.045
4.640,0.185,0.050
4.642,0.135,0.055
4.644,0.120,0.060
4.646,0.115,0.065
4.648,0.165,0.070
4.650,0.190,0.075
4.652,0.235,0.080
4.654,0.240,0.085
4.656,0.260,0.090
4.658,0.250,0.095
4.660,0.240,0.100
4.662,0.215,0.110
4.664,0.180,0.115
4.666,0.170,0.120
4.668,0.205,0.125
4.670,0.225,0.130
4.672,0.245,0.130
4.674,0.275,0.135
4.676,0.315,0.135
4.678,0.280,0.135
4.680,0.265,0.140
4.682,0.225,0.140
4.684,0.220,0.145
4.686,0.245,0.155
4.688,0.255,0.160
4.690,0.295,0.165
4.692,0.295,0.170
4.694,0.330,0.170
4.696,0.345,0.170
4.698,0.300,0.170
4.700,0.295,0.170
4.702,0.230,0.165
4.704,0.215,0.165
4.706,0.250,0.165
4.708,0.265,0.170
4.710,0.280,0.170
4.712,0.315,0.175
4.714,0.320,0.175
4.716,0.325,0.170
4.718,0.285,0.165
4.720,0.275,0.160
4.722,0.230,0.150
4.724,0.210,0.140
4.726,0.215,0.130
4.728,0.200,0.125
4.730,0.225,0.120
4.732,0.250,0.115
4.734,0.235,0.110
4.736,0.275,0.110
4.738,0.220,0.105
4.740,0.195,0.095
4.742,0.145,0.085
4.744,0.150,0.075
4.746,0.130,0.065
4.748,0.180,0.050
4.750,0.135,0.040
4.752,0.180,0.035
4.754,0.185,0.025
4.756,0.180,0.020
4.758,0.140,0.015
4.760,0.110,0.005
4.762,0.070,0.000
4.764,0.040,-0.005
4.766,0.060,-0.010
4.768,0.065,-0.015
4.770,0.085,-0.020
4.772,0.125,-0.020
4.774,0.150,-0.020
4.776,0.150,-0.020
4.778,0.125,-0.020
4.780,0.065,-0.025
4.782,0.030,-0.025
4.784,0.035,-0.030
4.786,0.030,-0.035
4.788,0.055,-0.040
4.790,0.090,-0.040
4.792,0.090,-0.040
4.794,0.135,-0.040
4.796,0.140,-0.040
4.798,0.110,-0.035
4.800,0.060,-0.035
4.802,0.010,-0.035
4.804,0.005,-0.040
4.806,0.030,-0.045
4.808,0.075,-0.055
4.810,0.065,-0.060
4.812,0.110,-0.065
4.814,0.130,-0.065
4.816,0.140,-0.060
4.818,0.080,-0.055
4.820,0.060,-0.045
4.822,0.025,-0.040
4.824,0.030,-0.035
4.826,0.030,-0.030
4.828,0.070,-0.030
4.830,0.090,-0.035
4.832,0.105,-0.045
4.834,0.120,-0.050
4.836,0.120,-0.055
4.838,0.080,-0.060
4.840,0.060,-0.060
4.842,0.030,-0.060
4.844,0.020,-0.060
4.846,0.010,-0.060
4.848,0.030,-0.060
4.850,0.060,-0.060
4.852,0.090,-0.060
4.854,0.115,-0.060
4.856,0.125,-0.060
4.858,0.095,-0.060
4.860,0.075,-0.055
4.862,0.045,-0.045
4.864,0.015,-0.040
4.866,0.040,-0.035
4.868,0.055,-0.030
4.870,0.085,-0.030
4.872,0.145,-0.035
4.874,0.140,-0.040
4.876,0.085,-0.050
4.878,0.085,-0.055
4.880,0.075,-0.065
4.882,0.010,-0.070
4.884,0.005,-0.070
4.886,0.015,-0.065
4.888,0.050,-0.060
4.890,0.075,-0.055
4.892,0.110,-0.050
4.894,0.140,-0.045
4.896,0.110,-0.045
4.898,0.100,-0.045
4.900,0.075,-0.045
4.902,0.055,-0.045
4.904,0.040,-0.045
4.906,0.050,-0.045
4.908,0.070,-0.040
4.910,0.105,-0.035
4.912,0.120,-0.035
4.914,0.115,-0.030
4.916,0.120,-0.030
4.918,0.080,-0.030
4.920,0.075,-0.030
4.922,0.040,-0.030
4.924,0.035,-0.035
4.926,0.055,-0.035
4.928,0.100,-0.035
4.930,0.105,-0.035
4.932,0.105,-0.030
4.934,0.140,-0.025
4.936,0.135,-0.025
4.938,0.105,-0.020
4.940,0.075,-0.020
4.942,0.055,-0.020
4.944,0.050,-0.020
4.946,0.035,-0.025
4.948,0.045,-0.025
4.950,0.110,-0.030
4.952,0.125,-0.030
4.954,0.130,-0.035
4.956,0.105,-0.040
4.958,0.095,-0.040
4.960,0.045,-0.045
4.962,0.010,-0.045
4.964,0.025,-0.050
4.966,0.070,-0.050
4.968,0.060,-0.050
4.970,0.100,-0.045
4.972,0.115,-0.045
4.974,0.140,-0.045
4.976,0.105,-0.045
4.978,0.095,-0.050
4.980,0.020,-0.050
4.982,0.005,-0.055
4.984,-0.005,-0.060
4.986,0.015,-0.065
4.988,0.050,-0.065
4.990,0.100,-0.065
4.992,0.130,-0.060
4.994,0.155,-0.055
4.996,0.130,-0.050
4.998,0.100,-0.040
5.000,0.035,-0.040
5.002,0.030,-0.035
5.004,0.025,-0.040
5.006,0.010,-0.045
5.008,0.080,-0.050
5.010,0.110,-0.055
5.012,0.085,-0.060
5.014,0.120,-0.065
5.016,0.120,-0.065
5.018,0.065,-0.060
5.020,0.045,-0.055
5.022,0.035,-0.050
5.024,0.040,-0.045
5.026,0.070,-0.040
5.028,0.075,-0.040
5.030,0.125,-0.040
5.032,0.145,-0.045
5.034,0.125,-0.045
5.036,0.120,-0.050
5.038,0.090,-0.050
5.040,0.005,-0.050
5.042,0.030,-0.045
5.044,0.020,-0.040
5.046,0.080,-0.040
5.048,0.090,-0.035
5.050,0.080,-0.035
5.052,0.140,-0.040
5.054,0.130,-0.045
5.056,0.075,-0.050
5.058,0.030,-0.060
5.060,0.025,-0.065
5.062,0.025,-0.070
5.064,0.020,-0.070
5.066,0.045,-0.070
5.068,0.060,-0.065
5.070,0.105,-0.060
5.072,0.105,-0.055
5.074,0.110,-0.055
5.076,0.095,-0.050
5.078,0.065,-0.055
5.080,0.020,-0.055
5.082,0.020,-0.060
5.084,0.010,-0.065
5.086,0.050,-0.065
5.088,0.050,-0.065
5.090,0.110,-0.065
5.092,0.130,-0.060
5.094,0.135,-0.060
5.096,0.100,-0.055
5.098,0.075,-0.055
5.100,0.020,-0.055
5.102,0.025,-0.050
5.104,0.030,-0.050
5.106,0.060,-0.050
5.108,0.095,-0.045
5.110,0.105,-0.040
5.112,0.140,-0.040
5.114,0.125,-0.035
5.116,0.120,-0.030
5.118,0.070,-0.030
5.120,0.040,-0.030
5.122,0.045,-0.030
5.124,0.035,-0.035
5.126,0.070,-0.035
5.128,0.105,-0.030
5.130,0.160,-0.030
5.132,0.135,-0.025
5.134,0.160,-0.020
5.136,0.155,-0.015
5.138,0.125,-0.010
5.140,0.105,-0.005
5.142,0.085,0.000
5.144,0.080,0.000
5.146,0.115,0.005
5.148,0.170,0.010
5.150,0.175,0.015
5.152,0.195,0.020
5.154,0.220,0.025
5.156,0.170,0.030
5.158,0.105,0.035
5.160,0.130,0.040
5.162,0.115,0.040
5.164,0.130,0.040
5.166,0.145,0.035
5.168,0.185,0.035
5.170,0.200,0.030
5.172,0.210,0.025
5.174,0.205,0.025
5.176,0.170,0.020
5.178,0.110,0.020
5.180,0.090,0.010
5.182,0.075,0.005
5.184,0.050,-0.005
5.186,0.045,-0.020
5.188,0.110,-0.030
5.190,0.110,-0.045
5.192,0.110,-0.050
5.194,0.135,-0.055
5.196,0.130,-0.055
5.198,0.080,-0.050
5.200,0.030,-0.045
5.202,0.035,-0.035
5.204,0.050,-0.030
5.206,0.050,-0.030
5.208,0.085,-0.035
5.210,0.085,-0.040
5.212,0.105,-0.055
5.214,0.100,-0.065
5.216,0.090,-0.075
5.218,0.020,-0.080
5.220,0.010,-0.080
5.222,0.030,-0.080
5.224,0.035,-0.075
5.226,0.020,-0.065
5.228,0.080,-0.055
5.230,0.110,-0.050
5.232,0.120,-0.045
5.234,0.095,-0.045
5.236,0.075,-0.050
5.238,0.030,-0.055
5.240,0.005,-0.060
5.242,0.000,-0.065
5.244,0.000,-0.065
5.246,0.040,-0.070
5.248,0.080,-0.070
5.250,0.095,-0.075
5.252,0.115,-0.075
5.254,0.085,-0.075
5.256,0.070,-0.080
5.258,0.020,-0.080
5.260,0.010,-0.075
5.262,0.015,-0.075
5.264,0.050,-0.070
5.266,0.045,-0.065
5.268,0.095,-0.065
5.270,0.110,-0.065
5.272,0.110,-0.070
5.274,0.095,-0.085
5.276,0.030,-0.105
5.278,-0.040,-0.125
5.280,-0.065,-0.145
5.282,-0.100,-0.160
5.284,-0.070,-0.160
5.286,-0.065,-0.145
5.288,0.015,-0.110
5.290,0.115,-0.050
5.292,0.220,0.030
5.294,0.315,0.130
5.296,0.425,0.245
5.298,0.500,0.365
5.300,0.605,0.490
5.302,0.700,0.605
5.304,0.795,0.705
5.306,0.930,0.780
5.308,1.060,0.825
5.310,1.040,0.840
5.312,1.045,0.815
5.314,0.930,0.760
5.316,0.830,0.675
5.318,0.635,0.570
5.320,0.500,0.450
5.322,0.365,0.325
5.324,0.245,0.205
5.326,0.175,0.100
5.328,0.115,0.010
5.330,0.080,-0.055
5.332,0.100,-0.095
5.334,0.050,-0.120
5.336,0.000,-0.130
5.338,-0.035,-0.125
5.340,-0.030,-0.120
5.342,-0.040,-0.110
5.344,-0.015,-0.105
5.346,0.035,-0.100
5.348,0.080,-0.100
5.350,0.120,-0.095
5.352,0.105,-0.095
5.354,0.075,-0.090
5.356,0.045,-0.085
5.358,0.045,-0.075
5.360,0.030,-0.065
5.362,0.050,-0.055
5.364,0.040,-0.050
5.366,0.055,-0.045
5.368,0.095,-0.045
5.370,0.090,-0.050
5.372,0.125,-0.055
5.374,0.115,-0.060
5.376,0.075,-0.060
5.378,0.015,-0.060
5.380,0.010,-0.060
5.382,0.030,-0.055
5.384,0.040,-0.055
5.386,0.070,-0.050
5.388,0.095,-0.050
5.390,0.095,-0.050
5.392,0.120,-0.055
5.394,0.070,-0.060
5.396,0.040,-0.065
5.398,0.015,-0.075
5.400,0.015,-0.080
5.402,0.030,-0.085
5.404,0.020,-0.085
5.406,0.060,-0.080
5.408,0.085,-0.075
5.410,0.150,-0.065
5.412,0.130,-0.060
5.414,0.105,-0.050
5.416,0.075,-0.045
5.418,0.055,-0.040
5.420,0.030,-0.040
5.422,0.030,-0.045
5.424,0.050,-0.045
5.426,0.085,-0.050
5.428,0.120,-0.055
5.430,0.145,-0.060
5.432,0.120,-0.055
5.434,0.080,-0.050
5.436,0.050,-0.045
5.438,0.005,-0.035
5.440,0.045,-0.030
5.442,0.065,-0.020
5.444,0.090,-0.015
5.446,0.115,-0.015
5.448,0.120,-0.020
5.450,0.165,-0.020
5.452,0.135,-0.025
5.454,0.135,-0.030
5.456,0.080,-0.035
5.458,0.015,-0.035
5.460,0.045,-0.030
5.462,0.080,-0.025
5.464,0.095,-0.025
5.466,0.115,-0.020
5.468,0.140,-0.020
5.470,0.160,-0.020
5.472,0.150,-0.020
5.474,0.120,-0.025
5.476,0.090,-0.025
5.478,0.025,-0.030
5.480,0.055,-0.030
5.482,0.070,-0.030
5.484,0.070,-0.025
5.486,0.160,-0.025
5.488,0.140,-0.015
5.490,0.170,-0.010
5.492,0.160,-0.005
5.494,0.170,0.000
5.496,0.110,0.005
5.498,0.090,0.005
5.500,0.110,0.010
5.502,0.110,0.015
5.504,0.130,0.015
5.506,0.140,0.020
5.508,0.170,0.020
5.510,0.215,0.020
5.512,0.190,0.025
5.514,0.185,0.020
5.516,0.125,0.020
5.518,0.120,0.020
5.520,0.110,0.020
5.522,0.120,0.020
5.524,0.165,0.025
5.526,0.190,0.030
5.528,0.210,0.035
5.530,0.265,0.045
5.532,0.250,0.055
5.534,0.220,0.065
5.536,0.155,0.080
5.538,0.155,0.090
5.540,0.180,0.095
5.542,0.210,0.100
5.544,0.225,0.105
5.546,0.260,0.105
5.548,0.265,0.110
5.550,0.295,0.110
5.552,0.285,0.115
5.554,0.290,0.120
5.556,0.235,0.125
5.558,0.225,0.135
5.560,0.220,0.145
5.562,0.240,0.155
5.564,0.265,0.160
5.566,0.345,0.165
5.568,0.330,0.165
5.570,0.315,0.165
5.572,0.310,0.165
5.574,0.315,0.165
5.576,0.255,0.160
5.578,0.245,0.160
5.580,0.240,0.160
5.582,0.265,0.160
5.584,0.275,0.160
5.586,0.315,0.160
5.588,0.330,0.160
5.590,0.325,0.160
5.592,0.320,0.160
5.594,0.305,0.155
5.596,0.225,0.150
5.598,0.245,0.145
5.600,0.250,0.140
5.602,0.280,0.135
5.604,0.235,0.130
5.606,0.270,0.125
5.608,0.285,0.115
5.610,0.265,0.110
5.612,0.255,0.105
5.614,0.220,0.100
5.616,0.155,0.090
5.618,0.135,0.085
5.620,0.160,0.075
5.622,0.145,0.065
5.624,0.175,0.055
5.626,0.210,0.045
5.628,0.195,0.035
5.630,0.210,0.025
5.632,0.155,0.015
5.634,0.110,0.010
5.636,0.090,0.005
5.638,0.080,0.000
5.640,0.075,-0.005
5.642,0.060,-0.010
5.644,0.110,-0.015
5.646,0.160,-0.015
5.648,0.145,-0.020
5.650,0.160,-0.025
5.652,0.115,-0.030
5.654,0.075,-0.035
5.656,0.035,-0.035
5.658,0.035,-0.040
5.660,0.025,-0.040
5.662,0.045,-0.045
5.664,0.075,-0.045
5.666,0.105,-0.050
5.668,0.125,-0.050
5.670,0.115,-0.050
5.672,0.105,-0.050
5.674,0.070,-0.050
5.676,0.020,-0.050
5.678,0.010,-0.045
5.680,0.025,-0.045
5.682,0.055,-0.040
5.684,0.085,-0.040
5.686,0.095,-0.040
5.688,0.125,-0.045
5.690,0.110,-0.050
5.692,0.100,-0.055
5.694,0.050,-0.060
5.696,0.010,-0.060
5.698,0.005,-0.065
5.700,0.000,-0.065
5.702,0.035,-0.065
5.704,0.060,-0.060
5.706,0.085,-0.055
5.708,0.105,-0.055
5.710,0.105,-0.055
5.712,0.075,-0.055
5.714,0.050,-0.055
5.716,0.030,-0.055
5.718,0.010,-0.060
5.720,0.015,-0.060
5.722,0.045,-0.060
5.724,0.085,-0.065
5.726,0.100,-0.065
5.728,0.125,-0.060
5.730,0.140,-0.060
5.732,0.075,-0.065
5.734,0.030,-0.065
5.736,0.000,-0.070
5.738,-0.005,-0.075
5.740,0.030,-0.080
5.742,0.030,-0.085
5.744,0.055,-0.090
5.746,0.075,-0.090
5.748,0.085,-0.090
5.750,0.100,-0.085
5.752,0.085,-0.080
5.754,0.055,-0.070
5.756,0.010,-0.060
5.758,0.015,-0.050
5.760,0.040,-0.040
5.762,0.050,-0.035
5.764,0.070,-0.035
5.766,0.115,-0.035
5.768,0.125,-0.040
5.770,0.110,-0.045
5.772,0.095,-0.050
5.774,0.030,-0.050
5.776,0.000,-0.055
5.778,0.040,-0.055
5.780,0.025,-0.050
5.782,0.050,-0.045
5.784,0.090,-0.045
5.786,0.120,-0.040
5.788,0.125,-0.040
5.790,0.115,-0.040
5.792,0.110,-0.040
5.794,0.045,-0.045
5.796,0.030,-0.050
5.798,0.040,-0.050
5.800,0.055,-0.055
5.802,0.055,-0.050
5.804,0.075,-0.050
5.806,0.110,-0.045
5.808,0.155,-0.040
5.810,0.125,-0.040
5.812,0.095,-0.040
5.814,0.025,-0.035
5.816,0.035,-0.040
5.818,0.040,-0.040
5.820,0.045,-0.040
5.822,0.055,-0.040
5.824,0.095,-0.040
5.826,0.100,-0.040
5.828,0.125,-0.035
5.830,0.105,-0.035
5.832,0.115,-0.030
5.834,0.060,-0.030
5.836,0.055,-0.035
5.838,0.025,-0.035
5.840,0.040,-0.040
5.842,0.050,-0.045
5.844,0.080,-0.050
5.846,0.090,-0.055
5.848,0.125,-0.050
5.850,0.120,-0.050
5.852,0.075,-0.045
5.854,0.015,-0.040
5.856,0.055,-0.035
5.858,0.050,-0.030
5.860,0.045,-0.030
5.862,0.065,-0.030
5.864,0.110,-0.030
5.866,0.110,-0.035
5.868,0.125,-0.040
5.870,0.090,-0.045
5.872,0.050,-0.050
5.874,0.045,-0.050
5.876,0.035,-0.055
5.878,0.030,-0.055
5.880,0.055,-0.055
5.882,0.040,-0.050
5.884,0.085,-0.050
5.886,0.105,-0.050
5.888,0.105,-0.050
5.890,0.100,-0.050
5.892,0.070,-0.050
5.894,0.015,-0.050
5.896,-0.010,-0.050
5.898,0.000,-0.045
5.900,0.020,-0.045
5.902,0.040,-0.045
5.904,0.125,-0.045
5.906,0.135,-0.045
5.908,0.105,-0.045
5.910,0.075,-0.050
5.912,0.040,-0.050
5.914,0.030,-0.055
5.916,0.015,-0.060
5.918,0.005,-0.060
5.920,0.020,-0.060
5.922,0.085,-0.060
5.924,0.070,-0.060
5.926,0.095,-0.055
5.928,0.120,-0.055
5.930,0.095,-0.050
5.932,0.045,-0.050
5.934,0.040,-0.050
5.936,0.025,-0.050
5.938,0.000,-0.055
5.940,0.025,-0.055
5.942,0.050,-0.060
5.944,0.070,-0.060
5.946,0.090,-0.055
5.948,0.090,-0.055
5.950,0.105,-0.050
5.952,0.060,-0.050
5.954,0.015,-0.045
5.956,-0.010,-0.045
5.958,0.020,-0.050
5.960,0.020,-0.055
5.962,0.025,-0.055
5.964,0.085,-0.060
5.966,0.090,-0.065
5.968,0.105,-0.070
5.970,0.075,-0.070
5.972,0.020,-0.070
5.974,0.005,-0.070
5.976,0.015,-0.065
5.978,0.025,-0.060
5.980,0.025,-0.055
5.982,0.065,-0.050
5.984,0.105,-0.050
5.986,0.120,-0.045
5.988,0.100,-0.045
5.990,0.090,-0.040
5.992,0.045,-0.045
5.994,0.005,-0.045
5.996,0.000,-0.045
5.998,-0.010,-0.050
6.000,0.025,-0.050
6.002,0.065,-0.050
6.004,0.090,-0.050
6.006,0.100,-0.045
6.008,0.130,-0.045
6.010,0.105,-0.040
6.012,0.065,-0.040
6.014,0.015,-0.035
6.016,0.005,-0.035
6.018,0.035,-0.035
6.020,0.035,-0.035
6.022,0.065,-0.035
6.024,0.090,-0.035
6.026,0.140,-0.035
6.028,0.140,-0.030
6.030,0.115,-0.025
6.032,0.070,-0.020
6.034,0.035,-0.015
6.036,0.060,-0.010
6.038,0.080,0.000
6.040,0.095,0.005
6.042,0.150,0.010
6.044,0.180,0.015
6.046,0.180,0.020
6.048,0.170,0.020
6.050,0.155,0.020
6.052,0.110,0.020
6.054,0.080,0.015
6.056,0.080,0.015
6.058,0.100,0.010
6.060,0.135,0.010
6.062,0.140,0.010
6.064,0.160,0.015
6.066,0.190,0.020
6.068,0.190,0.025
6.070,0.150,0.030
6.072,0.115,0.035
6.074,0.090,0.040
6.076,0.070,0.040
6.078,0.065,0.035
6.080,0.110,0.025
6.082,0.145,0.015
6.084,0.145,0.000
6.086,0.140,-0.010
6.088,0.115,-0.020
6.090,0.090,-0.030
6.092,0.040,-0.035
6.094,-0.015,-0.035
6.096,0.020,-0.035
6.098,0.040,-0.030
6.100,0.055,-0.030
6.102,0.075,-0.030
6.104,0.110,-0.035
6.106,0.115,-0.040
6.108,0.095,-0.045
6.110,0.050,-0.050
6.112,-0.015,-0.055
6.114,-0.010,-0.060
6.116,-0.010,-0.060
6.118,-0.005,-0.060
6.120,0.025,-0.060
6.122,0.070,-0.055
6.124,0.095,-0.055
6.126,0.090,-0.050
6.128,0.070,-0.050
6.130,0.060,-0.050
6.132,0.020,-0.055
6.134,-0.010,-0.060
6.136,-0.010,-0.060
6.138,-0.010,-0.065
6.140,0.010,-0.070
6.142,0.080,-0.070
6.144,0.080,-0.075
6.146,0.060,-0.075
6.148,0.045,-0.075
6.150,0.045,-0.080
6.152,-0.010,-0.080
6.154,-0.010,-0.080
6.156,-0.025,-0.080
6.158,0.025,-0.080
6.160,0.015,-0.075
6.162,0.050,-0.070
6.164,0.085,-0.065
6.166,0.090,-0.055
6.168,0.075,-0.055
6.170,0.020,-0.060
6.172,-0.025,-0.070
6.174,-0.050,-0.090
6.176,-0.080,-0.115
6.178,-0.100,-0.145
6.180,-0.090,-0.170
6.182,-0.075,-0.185
6.184,-0.035,-0.185
6.186,-0.025,-0.165
6.188,-0.020,-0.125
6.190,0.030,-0.060
6.192,0.105,0.030
6.194,0.200,0.135
6.196,0.380,0.255
6.198,0.505,0.385
6.200,0.615,0.515
6.202,0.765,0.640
6.204,0.915,0.750
6.206,1.030,0.835
6.208,1.085,0.895
6.210,1.090,0.920
6.212,1.045,0.910
6.214,0.925,0.860
6.216,0.825,0.780
6.218,0.720,0.670
6.220,0.605,0.540
6.222,0.495,0.410
6.224,0.340,0.280
6.226,0.250,0.165
6.228,0.190,0.075
6.230,0.130,0.010
6.232,0.045,-0.025
6.234,0.025,-0.045
6.236,-0.010,-0.045
6.238,0.020,-0.040
6.240,0.055,-0.035
6.242,0.080,-0.030
6.244,0.100,-0.030
6.246,0.110,-0.035
6.248,0.060,-0.045
6.250,0.020,-0.055
6.252,-0.025,-0.060
6.254,-0.005,-0.065
6.256,-0.005,-0.060
6.258,-0.005,-0.060
6.260,0.055,-0.055
6.262,0.095,-0.050
6.264,0.090,-0.050
6.266,0.080,-0.050
6.268,0.065,-0.055
6.270,0.015,-0.065
6.272,-0.010,-0.070
6.274,-0.020,-0.075
6.276,-0.005,-0.075
6.278,0.000,-0.075
6.280,0.035,-0.075
6.282,0.095,-0.070
6.284,0.085,-0.070
6.286,0.085,-0.070
6.288,0.065,-0.070
6.290,0.010,-0.075
6.292,-0.030,-0.080
6.294,-0.055,-0.080
6.296,-0.020,-0.085
6.298,0.030,-0.080
6.300,0.025,-0.080
6.302,0.050,-0.070
6.304,0.100,-0.065
6.306,0.100,-0.060
6.308,0.070,-0.055
6.310,0.050,-0.050
6.312,0.000,-0.050
6.314,-0.010,-0.050
6.316,0.005,-0.055
6.318,0.045,-0.055
6.320,0.065,-0.060
6.322,0.080,-0.060
6.324,0.095,-0.060
6.326,0.080,-0.060
6.328,0.070,-0.060
6.330,0.035,-0.055
6.332,0.010,-0.055
6.334,-0.025,-0.050
6.336,0.015,-0.050
6.338,0.025,-0.045
6.340,0.070,-0.045
6.342,0.090,-0.040
6.344,0.090,-0.040
6.346,0.120,-0.035
6.348,0.080,-0.035
6.350,0.015,-0.035
6.352,-0.010,-0.035
6.354,0.005,-0.040
6.356,0.040,-0.045
6.358,0.045,-0.045
6.360,0.075,-0.045
6.362,0.110,-0.045
6.364,0.120,-0.040
6.366,0.080,-0.035
6.368,0.095,-0.025
6.370,0.055,-0.015
6.372,0.025,-0.010
6.374,0.030,-0.005
6.376,0.045,0.000
6.378,0.075,0.000
6.380,0.095,0.000
6.382,0.120,0.000
6.384,0.145,-0.005
6.386,0.135,-0.005
6.388,0.105,0.000
6.390,0.060,0.000
6.392,0.060,0.005
6.394,0.045,0.005
6.396,0.050,0.005
6.398,0.055,0.005
6.400,0.110,0.000
6.402,0.125,-0.010
6.404,0.145,-0.015
6.406,0.150,-0.015
6.408,0.160,-0.015
6.410,0.080,-0.010
6.412,0.050,0.000
6.414,0.065,0.010
6.416,0.090,0.025
6.418,0.105,0.035
6.420,0.135,0.045
6.422,0.155,0.050
6.424,0.235,0.055
6.426,0.215,0.050
6.428,0.145,0.050
6.430,0.115,0.045
6.432,0.115,0.040
6.434,0.115,0.040
6.436,0.135,0.040
6.438,0.160,0.050
6.440,0.190,0.060
6.442,0.205,0.070
6.444,0.275,0.080
6.446,0.225,0.090
6.448,0.185,0.095
6.450,0.160,0.100
6.452,0.170,0.105
6.454,0.160,0.105
6.456,0.180,0.105
6.458,0.210,0.110
6.460,0.265,0.110
6.462,0.265,0.120
6.464,0.295,0.125
6.466,0.275,0.135
6.468,0.255,0.145
6.470,0.205,0.150
6.472,0.190,0.155
6.474,0.190,0.160
6.476,0.225,0.160
6.478,0.255,0.160
6.480,0.310,0.160
6.482,0.300,0.155
6.484,0.330,0.155
6.486,0.260,0.155
6.488,0.255,0.155
6.490,0.200,0.155
6.492,0.205,0.155
6.494,0.190,0.150
6.496,0.200,0.150
6.498,0.245,0.140
6.500,0.285,0.135
6.502,0.265,0.130
6.504,0.290,0.120
6.506,0.240,0.110
6.508,0.210,0.105
6.510,0.175,0.100
6.512,0.140,0.095
6.514,0.135,0.090
6.516,0.115,0.085
6.518,0.190,0.080
6.520,0.200,0.075
6.522,0.180,0.065
6.524,0.210,0.060
6.526,0.170,0.055
6.528,0.140,0.045
6.530,0.085,0.040
6.532,0.080,0.035
6.534,0.045,0.030
6.536,0.105,0.025
6.538,0.135,0.020
6.540,0.135,0.010
6.542,0.125,0.005
6.544,0.130,-0.005
6.546,0.120,-0.015
6.548,0.070,-0.020
6.550,0.030,-0.025
6.552,0.020,-0.030
6.554,0.010,-0.030
6.556,0.020,-0.030
6.558,0.065,-0.030
6.560,0.085,-0.030
6.562,0.110,-0.030
6.564,0.115,-0.035
6.566,0.110,-0.035
6.568,0.060,-0.035
6.570,0.000,-0.040
6.572,0.010,-0.040
6.574,0.010,-0.040
6.576,0.050,-0.040
6.578,0.075,-0.035
6.580,0.110,-0.035
6.582,0.105,-0.035
6.584,0.110,-0.035
6.586,0.100,-0.035
6.588,0.050,-0.035
6.590,0.000,-0.035
6.592,0.015,-0.035
6.594,0.030,-0.040
6.596,0.025,-0.040
6.598,0.070,-0.045
6.600,0.075,-0.050
6.602,0.095,-0.055
6.604,0.105,-0.060
6.606,0.090,-0.060
6.608,0.035,-0.060
6.610,0.000,-0.055
6.612,0.015,-0.050
6.614,0.020,-0.045
6.616,0.030,-0.040
6.618,0.055,-0.040
6.620,0.075,-0.035
6.622,0.105,-0.035
6.624,0.095,-0.040
6.626,0.100,-0.040
6.628,0.045,-0.045
6.630,0.030,-0.045
6.632,0.020,-0.045
6.634,0.035,-0.040
6.636,0.060,-0.035
6.638,0.065,-0.030
6.640,0.120,-0.025
6.642,0.115,-0.025
6.644,0.100,-0.025
6.646,0.100,-0.030
6.648,0.025,-0.040
6.650,-0.005,-0.045
6.652,-0.005,-0.055
6.654,0.015,-0.060
6.656,0.045,-0.065
6.658,0.060,-0.065
6.660,0.085,-0.060
6.662,0.105,-0.055
6.664,0.105,-0.050
6.666,0.080,-0.045
6.668,0.030,-0.040
6.670,0.010,-0.035
6.672,0.015,-0.035
6.674,0.025,-0.035
6.676,0.070,-0.040
6.678,0.070,-0.040
6.680,0.075,-0.040
6.682,0.090,-0.040
6.684,0.090,-0.040
6.686,0.075,-0.040
6.688,0.050,-0.040
6.690,-0.030,-0.040
6.692,0.010,-0.040
6.694,0.045,-0.040
6.696,0.050,-0.040
6.698,0.085,-0.040
6.700,0.100,-0.040
6.702,0.110,-0.040
6.704,0.085,-0.040
6.706,0.065,-0.040
6.708,0.020,-0.035
6.710,-0.010,-0.035
6.712,0.020,-0.030
6.714,0.030,-0.030
6.716,0.035,-0.030
6.718,0.085,-0.035
6.720,0.100,-0.040
6.722,0.100,-0.040
6.724,0.095,-0.045
6.726,0.070,-0.045
6.728,0.030,-0.045
6.730,0.035,-0.040
6.732,0.030,-0.035
6.734,0.030,-0.030
6.736,0.065,-0.025
6.738,0.090,-0.020
6.740,0.115,-0.015
6.742,0.120,-0.020
6.744,0.085,-0.020
6.746,0.055,-0.025
6.748,0.060,-0.030
6.750,0.000,-0.035
6.752,0.015,-0.035
6.754,0.025,-0.040
6.756,0.030,-0.035
6.758,0.120,-0.035
6.760,0.105,-0.030
6.762,0.120,-0.030
6.764,0.115,-0.025
6.766,0.060,-0.025
6.768,0.025,-0.025
6.770,0.025,-0.025
6.772,0.015,-0.030
6.774,0.045,-0.030
6.776,0.065,-0.030
6.778,0.095,-0.035
6.780,0.105,-0.035
6.782,0.110,-0.035
6.784,0.095,-0.035
6.786,0.040,-0.040
6.788,0.015,-0.040
6.790,0.010,-0.045
6.792,0.005,-0.050
6.794,0.035,-0.055
6.796,0.040,-0.055
6.798,0.080,-0.055
6.800,0.100,-0.055
6.802,0.115,-0.055
6.804,0.070,-0.050
6.806,0.055,-0.045
6.808,0.015,-0.040
6.810,0.010,-0.035
6.812,0.030,-0.030
6.814,0.035,-0.030
6.816,0.060,-0.030
6.818,0.100,-0.030
6.820,0.110,-0.035
6.822,0.100,-0.035
6.824,0.080,-0.040
6.826,0.020,-0.045
6.828,-0.015,-0.045
6.830,0.010,-0.050
6.832,0.015,-0.050
6.834,0.010,-0.050
6.836,0.055,-0.050
6.838,0.090,-0.045
6.840,0.105,-0.045
6.842,0.095,-0.040
6.844,0.085,-0.035
6.846,0.080,-0.030
6.848,0.050,-0.025
6.850,0.005,-0.020
6.852,0.015,-0.020
6.854,0.040,-0.020
6.856,0.060,-0.020
6.858,0.110,-0.025
6.860,0.110,-0.030
6.862,0.105,-0.035
6.864,0.080,-0.040
6.866,0.050,-0.040
6.868,-0.005,-0.045
6.870,-0.015,-0.045
6.872,0.030,-0.045
6.874,0.050,-0.045
6.876,0.070,-0.045
6.878,0.090,-0.050
6.880,0.100,-0.050
6.882,0.105,-0.050
6.884,0.060,-0.055
6.886,0.030,-0.055
6.888,0.020,-0.055
6.890,0.015,-0.055
6.892,0.015,-0.050
6.894,0.040,-0.050
6.896,0.050,-0.050
6.898,0.075,-0.050
6.900,0.090,-0.050
6.902,0.110,-0.050
6.904,0.065,-0.055
6.906,0.035,-0.055
6.908,0.000,-0.060
6.910,0.000,-0.060
6.912,0.015,-0.060
6.914,0.030,-0.060
6.916,0.055,-0.060
6.918,0.080,-0.060
6.920,0.110,-0.055
6.922,0.080,-0.055
6.924,0.070,-0.055
6.926,0.025,-0.055
6.928,0.000,-0.060
6.930,-0.010,-0.060
6.932,0.015,-0.060
6.934,0.035,-0.055
6.936,0.050,-0.055
6.938,0.070,-0.055
6.940,0.105,-0.050
6.942,0.095,-0.050
6.944,0.075,-0.050
6.946,0.020,-0.050
6.948,-0.010,-0.050
6.950,0.000,-0.050
6.952,0.025,-0.050
6.954,0.020,-0.050
6.956,0.070,-0.055
6.958,0.095,-0.055
6.960,0.105,-0.050
6.962,0.110,-0.050
6.964,0.060,-0.045
6.966,0.015,-0.040
6.968,-0.025,-0.035
6.970,0.000,-0.030
6.972,0.040,-0.025
6.974,0.065,-0.025
6.976,0.105,-0.020
6.978,0.115,-0.020
6.980,0.095,-0.025
6.982,0.085,-0.025
6.984,0.125,-0.030
6.986,0.045,-0.030
6.988,0.030,-0.030
6.990,0.040,-0.030
6.992,0.065,-0.025
6.994,0.100,-0.020
6.996,0.140,-0.010
6.998,0.120,-0.005
7.000,0.155,0.005
7.002,0.160,0.015
7.004,0.155,0.025
7.006,0.075,0.030
7.008,0.085,0.040
7.010,0.090,0.040
7.012,0.100,0.045
7.014,0.115,0.045
7.016,0.160,0.045
7.018,0.180,0.045
7.020,0.190,0.040
7.022,0.180,0.035
7.024,0.175,0.030
7.026,0.085,0.030
7.028,0.080,0.025
7.030,0.095,0.025
7.032,0.095,0.025
7.034,0.095,0.025
7.036,0.140,0.025
7.038,0.145,0.025
7.040,0.155,0.020
7.042,0.160,0.015
7.044,0.090,0.005
7.046,0.050,-0.005
7.048,0.025,-0.010
7.050,0.035,-0.020
7.052,0.035,-0.025
7.054,0.035,-0.030
7.056,0.100,-0.030
7.058,0.105,-0.035
7.060,0.105,-0.035
7.062,0.075,-0.035
7.064,0.060,-0.040
7.066,0.015,-0.045
7.068,-0.010,-0.045
7.070,0.000,-0.050
7.072,0.015,-0.055
7.074,0.055,-0.055
7.076,0.075,-0.055
7.078,0.080,-0.055
7.080,0.070,-0.055
7.082,0.060,-0.055
7.084,0.015,-0.055
7.086,-0.015,-0.055
7.088,-0.025,-0.060
7.090,-0.005,-0.065
7.092,0.005,-0.070
7.094,0.025,-0.075
7.096,0.065,-0.080
7.098,0.085,-0.075
7.100,0.090,-0.075
7.102,0.065,-0.070
7.104,0.015,-0.065
7.106,0.000,-0.060
7.108,-0.005,-0.060
7.110,-0.020,-0.060
7.112,-0.010,-0.065
7.114,0.025,-0.070
7.116,0.080,-0.075
7.118,0.075,-0.085
7.120,0.085,-0.085
7.122,0.045,-0.085
7.124,0.030,-0.085
7.126,-0.010,-0.080
7.128,-0.025,-0.080
7.130,-0.010,-0.085
7.132,-0.020,-0.095
7.134,-0.035,-0.110
7.136,-0.025,-0.130
7.138,-0.035,-0.150
7.140,-0.065,-0.170
7.142,-0.070,-0.180
7.144,-0.050,-0.170
7.146,-0.090,-0.140
7.148,-0.065,-0.085
7.150,0.050,-0.005
7.152,0.190,0.095
7.154,0.365,0.210
7.156,0.520,0.340
7.158,0.635,0.470
7.160,0.720,0.600
7.162,0.830,0.715
7.164,0.965,0.815
7.166,1.010,0.885
7.168,1.035,0.925
7.170,1.060,0.935
7.172,1.045,0.905
7.174,0.955,0.845
7.176,0.875,0.750
7.178,0.755,0.635
7.180,0.610,0.510
7.182,0.420,0.380
7.184,0.260,0.260
7.186,0.155,0.155
7.188,0.125,0.075
7.190,0.120,0.020
7.192,0.090,-0.010
7.194,0.100,-0.025
7.196,0.100,-0.025
7.198,0.105,-0.020
7.200,0.125,-0.015
7.202,0.110,-0.015
7.204,0.055,-0.020
7.206,0.000,-0.030
7.208,-0.015,-0.040
7.210,0.005,-0.050
7.212,0.035,-0.055
7.214,0.070,-0.060
7.216,0.085,-0.060
7.218,0.080,-0.055
7.220,0.070,-0.055
7.222,0.070,-0.055
7.224,0.040,-0.055
7.226,-0.020,-0.060
7.228,-0.015,-0.065
7.230,-0.015,-0.070
7.232,0.005,-0.075
7.234,0.055,-0.080
7.236,0.070,-0.075
7.238,0.095,-0.075
7.240,0.075,-0.065
7.242,0.045,-0.060
7.244,0.015,-0.055
7.246,-0.015,-0.055
7.248,-0.035,-0.055
7.250,-0.015,-0.055
7.252,0.010,-0.060
7.254,0.045,-0.065
7.256,0.055,-0.070
7.258,0.100,-0.075
7.260,0.070,-0.075
7.262,0.050,-0.075
7.264,0.030,-0.070
7.266,0.015,-0.065
7.268,-0.015,-0.060
7.270,0.010,-0.055
7.272,0.060,-0.050
7.274,0.090,-0.045
7.276,0.115,-0.045
7.278,0.100,-0.045
7.280,0.095,-0.045
7.282,0.065,-0.045
7.284,0.030,-0.045
7.286,0.000,-0.050
7.288,0.005,-0.050
7.290,0.030,-0.055
7.292,0.035,-0.055
7.294,0.095,-0.050
7.296,0.075,-0.050
7.298,0.110,-0.045
7.300,0.080,-0.040
7.302,0.070,-0.035
7.304,0.035,-0.030
7.306,0.045,-0.025
7.308,0.045,-0.025
7.310,0.030,-0.025
7.312,0.035,-0.025
7.314,0.075,-0.025
7.316,0.105,-0.025
7.318,0.115,-0.025
7.320,0.095,-0.025
7.322,0.090,-0.025
7.324,0.055,-0.025
7.326,0.050,-0.025
7.328,0.025,-0.025
7.330,0.035,-0.025
7.332,0.060,-0.025
7.334,0.115,-0.030
7.336,0.110,-0.030
7.338,0.120,-0.035
7.340,0.115,-0.035
7.342,0.085,-0.035
7.344,0.055,-0.035
7.346,0.040,-0.030
7.348,0.055,-0.025
7.350,0.060,-0.015
7.352,0.035,-0.005
7.354,0.135,0.000
7.356,0.130,0.010
7.358,0.165,0.015
7.360,0.140,0.020
7.362,0.120,0.025
7.364,0.090,0.020
7.366,0.090,0.020
7.368,0.075,0.015
7.370,0.095,0.010
7.372,0.095,0.005
7.374,0.125,0.000
7.376,0.155,0.000
7.378,0.170,0.005
7.380,0.170,0.010
7.382,0.140,0.020
7.384,0.115,0.030
7.386,0.095,0.045
7.388,0.130,0.055
7.390,0.140,0.065
7.392,0.165,0.070
7.394,0.200,0.075
7.396,0.225,0.075
7.398,0.235,0.075
7.400,0.215,0.075
7.402,0.195,0.080
7.404,0.140,0.080
7.406,0.145,0.080
7.408,0.155,0.085
7.410,0.175,0.090
7.412,0.205,0.100
7.414,0.245,0.105
7.416,0.280,0.110
7.418,0.255,0.115
7.420,0.250,0.120
7.422,0.265,0.125
7.424,0.195,0.130
7.426,0.180,0.135
7.428,0.170,0.140
7.430,0.220,0.145
7.432,0.250,0.150
7.434,0.305,0.150
7.436,0.310,0.155
7.438,0.320,0.155
7.440,0.280,0.155
7.442,0.235,0.150
7.444,0.170,0.150
7.446,0.190,0.145
7.448,0.210,0.145
7.450,0.215,0.140
7.452,0.255,0.140
7.454,0.335,0.135
7.456,0.315,0.135
7.458,0.280,0.135
7.460,0.250,0.135
7.462,0.210,0.135
7.464,0.185,0.130
7.466,0.180,0.130
7.468,0.165,0.125
7.470,0.180,0.115
7.472,0.200,0.105
7.474,0.220,0.095
7.476,0.240,0.080
7.478,0.190,0.070
7.480,0.175,0.060
7.482,0.125,0.050
7.484,0.105,0.040
7.486,0.090,0.035
7.488,0.085,0.035
7.490,0.130,0.035
7.492,0.120,0.030
7.494,0.145,0.030
7.496,0.170,0.025
7.498,0.155,0.015
7.500,0.135,0.010
7.502,0.080,0.005
7.504,0.030,-0.005
7.506,0.035,-0.010
7.508,0.040,-0.015
7.510,0.060,-0.015
7.512,0.080,-0.015
7.514,0.120,-0.015
7.516,0.140,-0.015
7.518,0.110,-0.015
7.520,0.085,-0.020
7.522,0.050,-0.025
7.524,0.050,-0.030
7.526,0.000,-0.035
7.528,0.000,-0.040
7.530,0.025,-0.045
7.532,0.060,-0.045
7.534,0.090,-0.050
7.536,0.125,-0.050
7.538,0.110,-0.050
7.540,0.085,-0.050
7.542,0.060,-0.050
7.544,0.020,-0.050
7.546,0.000,-0.050
7.548,0.030,-0.045
7.550,0.055,-0.045
7.552,0.075,-0.045
7.554,0.100,-0.040
7.556,0.105,-0.040
7.558,0.075,-0.040
7.560,0.085,-0.040
7.562,0.045,-0.040
7.564,0.005,-0.040
7.566,0.005,-0.045
7.568,0.035,-0.050
7.570,0.045,-0.050
7.572,0.070,-0.050
7.574,0.105,-0.050
7.576,0.115,-0.045
7.578,0.095,-0.040
7.580,0.080,-0.035
7.582,0.045,-0.030
7.584,0.015,-0.030
7.586,0.025,-0.025
7.588,0.015,-0.025
7.590,0.050,-0.030
7.592,0.070,-0.030
7.594,0.095,-0.035
7.596,0.125,-0.040
7.598,0.095,-0.040
7.600,0.085,-0.045
7.602,0.050,-0.040
7.604,0.010,-0.040
7.606,-0.015,-0.035
7.608,0.035,-0.030
7.610,0.040,-0.030
7.612,0.090,-0.025
7.614,0.125,-0.025
7.616,0.125,-0.025
7.618,0.100,-0.030
7.620,0.065,-0.035
7.622,0.030,-0.040
7.624,0.035,-0.050
7.626,0.005,-0.050
7.628,0.045,-0.055
7.630,0.020,-0.055
7.632,0.070,-0.055
7.634,0.085,-0.050
7.636,0.115,-0.045
7.638,0.090,-0.045
7.640,0.080,-0.040
7.642,0.035,-0.040
7.644,0.020,-0.045
7.646,-0.005,-0.050
7.648,0.030,-0.055
7.650,0.030,-0.055
7.652,0.080,-0.060
7.654,0.075,-0.060
7.656,0.110,-0.055
7.658,0.085,-0.050
7.660,0.080,-0.045
7.662,0.020,-0.035
7.664,0.025,-0.030
7.666,0.020,-0.025
7.668,0.035,-0.020
7.670,0.055,-0.025
7.672,0.130,-0.025
7.674,0.110,-0.035
7.676,0.125,-0.040
7.678,0.075,-0.045
7.680,0.055,-0.050
7.682,0.030,-0.050
7.684,0.020,-0.050
7.686,0.010,-0.045
7.688,0.040,-0.040
7.690,0.040,-0.035
7.692,0.100,-0.035
7.694,0.110,-0.030
7.696,0.125,-0.030
7.698,0.095,-0.035
7.700,0.060,-0.040
7.702,0.025,-0.040
7.704,0.025,-0.040
7.706,0.030,-0.045
7.708,0.015,-0.040
7.710,0.025,-0.040
7.712,0.120,-0.040
7.714,0.125,-0.040
7.716,0.100,-0.040
7.718,0.085,-0.040
7.720,0.045,-0.045
7.722,0.000,-0.050
7.724,0.000,-0.055
7.726,0.020,-0.060
7.728,0.030,-0.060
7.730,0.050,-0.055
7.732,0.085,-0.055
7.734,0.110,-0.050
7.736,0.095,-0.050
7.738,0.090,-0.045
7.740,0.080,-0.045
7.742,0.030,-0.045
7.744,0.020,-0.045
7.746,0.015,-0.045
7.748,0.045,-0.045
7.750,0.040,-0.040
7.752,0.100,-0.040
7.754,0.115,-0.035
7.756,0.110,-0.030
7.758,0.070,-0.030
7.760,0.060,-0.025
7.762,0.040,-0.030
7.764,0.025,-0.030
7.766,0.025,-0.035
7.768,0.030,-0.035
7.770,0.060,-0.040
7.772,0.095,-0.045
7.774,0.120,-0.045
7.776,0.110,-0.045
7.778,0.100,-0.045
7.780,0.045,-0.045
7.782,0.020,-0.045
7.784,0.005,-0.045
7.786,-0.010,-0.045
7.788,0.025,-0.045
7.790,0.075,-0.050
7.792,0.090,-0.050
7.794,0.145,-0.050
7.796,0.115,-0.050
7.798,0.075,-0.050
7.800,0.035,-0.050
7.802,0.010,-0.045
7.804,0.000,-0.045
7.806,0.000,-0.040
7.808,0.050,-0.040
7.810,0.060,-0.045
7.812,0.090,-0.045
7.814,0.100,-0.050
7.816,0.100,-0.050
7.818,0.065,-0.055
7.820,0.040,-0.055
7.822,0.020,-0.055
7.824,0.030,-0.055
7.826,-0.015,-0.055
7.828,-0.005,-0.055
7.830,0.070,-0.050
7.832,0.105,-0.045
7.834,0.110,-0.045
7.836,0.140,-0.045
7.838,0.090,-0.040
7.840,0.030,-0.040
7.842,0.025,-0.040
7.844,0.000,-0.040
7.846,0.025,-0.045
7.848,0.030,-0.045
7.850,0.070,-0.050
7.852,0.095,-0.050
7.854,0.125,-0.055
7.856,0.095,-0.055
7.858,0.075,-0.060
7.860,0.060,-0.060
7.862,0.035,-0.055
7.864,-0.010,-0.050
7.866,0.025,-0.045
7.868,0.060,-0.040
7.870,0.080,-0.040
7.872,0.110,-0.035
7.874,0.110,-0.040
7.876,0.070,-0.040
7.878,0.075,-0.050
7.880,0.035,-0.055
7.882,0.020,-0.055
7.884,0.030,-0.060
7.886,0.035,-0.055
7.888,0.055,-0.055
7.890,0.085,-0.050
7.892,0.085,-0.045
7.894,0.115,-0.040
7.896,0.095,-0.040
7.898,0.085,-0.040
7.900,0.035,-0.045
7.902,-0.005,-0.050
7.904,0.010,-0.055
7.906,0.015,-0.060
7.908,0.005,-0.060
7.910,0.080,-0.060
7.912,0.120,-0.055
7.914,0.110,-0.055
7.916,0.100,-0.050
7.918,0.090,-0.045
7.920,0.040,-0.045
7.922,0.030,-0.045
7.924,0.035,-0.045
7.926,0.055,-0.045
7.928,0.050,-0.045
7.930,0.070,-0.045
7.932,0.085,-0.040
7.934,0.125,-0.040
7.936,0.125,-0.035
7.938,0.095,-0.035
7.940,0.040,-0.035
7.942,0.000,-0.040
7.944,0.030,-0.045
7.946,-0.010,-0.045
7.948,0.010,-0.050
7.950,0.085,-0.050
7.952,0.110,-0.050
7.954,0.130,-0.045
7.956,0.110,-0.045
7.958,0.095,-0.040
7.960,0.060,-0.040
7.962,0.030,-0.035
7.964,0.025,-0.040
7.966,0.055,-0.040
7.968,0.050,-0.045
7.970,0.080,-0.050
7.972,0.110,-0.055
7.974,0.120,-0.060
7.976,0.095,-0.060
7.978,0.080,-0.060
7.980,0.040,-0.055
7.982,0.020,-0.055
7.984,0.020,-0.050
7.986,0.065,-0.045
7.988,0.045,-0.040
7.990,0.105,-0.035
7.992,0.145,-0.030
7.994,0.140,-0.020
7.996,0.095,-0.015
7.998,0.085,-0.015
8.000,0.055,-0.010
8.002,0.055,-0.010
8.004,0.055,-0.010
8.006,0.085,-0.015
8.008,0.130,-0.015
8.010,0.125,-0.015
8.012,0.155,-0.015
8.014,0.155,-0.010
8.016,0.155,-0.005
8.018,0.130,0.005
8.020,0.095,0.020
8.022,0.095,0.030
8.024,0.065,0.045
8.026,0.145,0.050
8.028,0.155,0.060
8.030,0.225,0.065
8.032,0.235,0.065
8.034,0.210,0.065
8.036,0.205,0.065
8.038,0.170,0.065
8.040,0.110,0.065
8.042,0.135,0.065
8.044,0.120,0.070
8.046,0.130,0.070
8.048,0.160,0.065
8.050,0.180,0.065
8.052,0.215,0.055
8.054,0.210,0.045
8.056,0.180,0.035
8.058,0.125,0.020
8.060,0.065,0.010
8.062,0.050,-0.005
8.064,0.010,-0.010
8.066,0.070,-0.020
8.068,0.105,-0.020
8.070,0.140,-0.020
8.072,0.150,-0.020
8.074,0.135,-0.020
8.076,0.125,-0.020
8.078,0.065,-0.020
8.080,0.035,-0.025
8.082,0.020,-0.025
8.084,0.015,-0.030
8.086,0.030,-0.035
8.088,0.060,-0.040
8.090,0.085,-0.045
8.092,0.105,-0.045
8.094,0.110,-0.045
8.096,0.090,-0.045
8.098,0.060,-0.040
8.100,0.040,-0.040
8.102,0.020,-0.040
8.104,0.015,-0.040
8.106,0.030,-0.035
8.108,0.060,-0.035
8.110,0.095,-0.040
8.112,0.105,-0.040
8.114,0.105,-0.045
8.116,0.080,-0.045
8.118,0.040,-0.055
8.120,-0.010,-0.060
8.122,-0.010,-0.070
8.124,0.015,-0.075
8.126,0.015,-0.080
8.128,0.050,-0.085
8.130,0.090,-0.085
8.132,0.115,-0.085
8.134,0.085,-0.075
8.136,0.085,-0.070
8.138,0.040,-0.060
8.140,0.010,-0.055
8.142,0.000,-0.050
8.144,0.010,-0.055
8.146,0.005,-0.060
8.148,0.040,-0.080
8.150,0.055,-0.100
8.152,0.035,-0.125
8.154,-0.005,-0.150
8.156,-0.060,-0.165
8.158,-0.105,-0.175
8.160,-0.120,-0.170
8.162,-0.085,-0.145
8.164,-0.020,-0.100
8.166,0.070,-0.030
8.168,0.190,0.060
8.170,0.340,0.170
8.172,0.530,0.295
8.174,0.610,0.425
8.176,0.700,0.560
8.178,0.800,0.690
8.180,0.890,0.800
8.182,0.965,0.890
8.184,1.070,0.950
8.186,1.110,0.970
8.188,1.125,0.955
8.190,1.090,0.900
8.192,1.005,0.815
8.194,0.845,0.700
8.196,0.680,0.570
8.198,0.475,0.435
8.200,0.260,0.310
8.202,0.205,0.200
8.204,0.180,0.115
8.206,0.150,0.055
8.208,0.155,0.015
8.210,0.155,-0.005
8.212,0.155,-0.005
8.214,0.130,-0.005
8.216,0.110,0.000
8.218,0.065,0.000
8.220,0.045,-0.005
8.222,0.030,-0.015
8.224,0.045,-0.020
8.226,0.055,-0.030
8.228,0.080,-0.040
8.230,0.115,-0.040
8.232,0.125,-0.040
8.234,0.110,-0.040
8.236,0.085,-0.040
8.238,0.020,-0.040
8.240,0.010,-0.040
8.242,0.010,-0.045
8.244,0.020,-0.050
8.246,0.035,-0.060
8.248,0.075,-0.065
8.250,0.095,-0.070
8.252,0.120,-0.070
8.254,0.075,-0.070
8.256,0.075,-0.065
8.258,0.015,-0.060
8.260,0.025,-0.055
8.262,0.005,-0.050
8.264,0.055,-0.045
8.266,0.050,-0.045
8.268,0.075,-0.045
8.270,0.075,-0.045
8.272,0.140,-0.050
8.274,0.085,-0.050
8.276,0.075,-0.050
8.278,0.035,-0.055
8.280,0.015,-0.050
8.282,0.040,-0.050
8.284,0.050,-0.050
8.286,0.070,-0.045
8.288,0.100,-0.040
8.290,0.140,-0.035
8.292,0.140,-0.035
8.294,0.100,-0.030
8.296,0.065,-0.030
8.298,0.005,-0.025
8.300,0.035,-0.030
8.302,0.030,-0.035
8.304,0.045,-0.040
8.306,0.070,-0.045
8.308,0.110,-0.050
8.310,0.125,-0.050
8.312,0.130,-0.050
8.314,0.115,-0.050
8.316,0.095,-0.045
8.318,0.050,-0.035
8.320,0.050,-0.030
8.322,0.020,-0.025
8.324,0.065,-0.025
8.326,0.090,-0.025
8.328,0.095,-0.030
8.330,0.140,-0.035
8.332,0.105,-0.040
8.334,0.115,-0.045
8.336,0.075,-0.045
8.338,0.040,-0.040
8.340,0.040,-0.035
8.342,0.075,-0.030
8.344,0.075,-0.020
8.346,0.105,-0.015
8.348,0.110,-0.010
8.350,0.125,-0.010
8.352,0.155,-0.010
8.354,0.170,-0.015
8.356,0.115,-0.020
8.358,0.060,-0.025
8.360,0.045,-0.025
8.362,0.055,-0.020
8.364,0.065,-0.020
8.366,0.115,-0.010
8.368,0.175,-0.005
8.370,0.165,0.000
8.372,0.175,0.005
8.374,0.145,0.010
8.376,0.130,0.010
8.378,0.095,0.015
8.380,0.095,0.020
8.382,0.085,0.025
8.384,0.135,0.030
8.386,0.160,0.035
8.388,0.195,0.045
8.390,0.215,0.050
8.392,0.205,0.050
8.394,0.175,0.050
8.396,0.150,0.045
8.398,0.105,0.040
8.400,0.110,0.035
8.402,0.155,0.030
8.404,0.150,0.030
8.406,0.180,0.035
8.408,0.215,0.040
8.410,0.235,0.045
8.412,0.225,0.055
8.414,0.230,0.065
8.416,0.180,0.075
8.418,0.175,0.085
8.420,0.185,0.095
8.422,0.160,0.100
8.424,0.205,0.105
8.426,0.235,0.110
8.428,0.285,0.115
8.430,0.285,0.120
8.432,0.270,0.125
8.434,0.285,0.130
8.436,0.255,0.135
8.438,0.160,0.140
8.440,0.230,0.145
8.442,0.235,0.145
8.444,0.240,0.145
8.446,0.275,0.145
8.448,0.335,0.145
8.450,0.325,0.145
8.452,0.325,0.145
8.454,0.280,0.145
8.456,0.260,0.150
8.458,0.245,0.155
8.460,0.255,0.160
8.462,0.255,0.170
8.464,0.255,0.175
8.466,0.310,0.180
8.468,0.335,0.185
8.470,0.345,0.180
8.472,0.315,0.175
8.474,0.275,0.170
8.476,0.250,0.160
8.478,0.215,0.150
8.480,0.220,0.140
8.482,0.215,0.135
8.484,0.245,0.125
8.486,0.280,0.125
8.488,0.285,0.120
8.490,0.280,0.115
8.492,0.255,0.110
8.494,0.220,0.100
8.496,0.155,0.085
8.498,0.130,0.075
8.500,0.140,0.055
8.502,0.135,0.040
8.504,0.130,0.025
8.506,0.165,0.015
8.508,0.200,0.010
8.510,0.195,0.005
8.512,0.185,0.010
8.514,0.165,0.015
8.516,0.110,0.015
8.518,0.065,0.020
8.520,0.085,0.020
8.522,0.095,0.015
8.524,0.105,0.010
8.526,0.125,0.000
8.528,0.135,-0.010
8.530,0.145,-0.020
8.532,0.115,-0.030
8.534,0.095,-0.040
8.536,0.060,-0.045
8.538,0.075,-0.045
8.540,0.025,-0.045
8.542,0.055,-0.045
8.544,0.065,-0.040
8.546,0.115,-0.035
8.548,0.115,-0.035
8.550,0.145,-0.030
8.552,0.120,-0.030
8.554,0.090,-0.030
8.556,0.030,-0.035
8.558,0.060,-0.035
8.560,0.035,-0.040
8.562,0.070,-0.040
8.564,0.075,-0.045
8.566,0.115,-0.045
8.568,0.150,-0.045
8.570,0.175,-0.050
8.572,0.110,-0.050
8.574,0.085,-0.050
8.576,0.050,-0.050
8.578,0.030,-0.055
8.580,0.035,-0.055
8.582,0.070,-0.055
8.584,0.105,-0.060
8.586,0.105,-0.060
8.588,0.125,-0.055
8.590,0.130,-0.055
8.592,0.105,-0.050
8.594,0.095,-0.050
8.596,0.045,-0.050
8.598,0.015,-0.045
8.600,0.040,-0.045
8.602,0.070,-0.045
8.604,0.070,-0.045
8.606,0.085,-0.040
8.608,0.150,-0.040
8.610,0.145,-0.035
8.612,0.120,-0.030
8.614,0.080,-0.025
8.616,0.015,-0.025
8.618,0.050,-0.025
8.620,0.050,-0.030
8.622,0.065,-0.035
8.624,0.075,-0.045
8.626,0.120,-0.055
8.628,0.125,-0.060
8.630,0.125,-0.060
8.632,0.110,-0.060
8.634,0.055,-0.055
8.636,0.060,-0.050
8.638,0.080,-0.040
8.640,0.045,-0.035
8.642,0.030,-0.030
8.644,0.050,-0.030
8.646,0.105,-0.035
8.648,0.155,-0.040
8.650,0.185,-0.045
8.652,0.160,-0.050
8.654,0.085,-0.050
8.656,0.045,-0.050
8.658,0.025,-0.050
8.660,0.035,-0.050
8.662,0.065,-0.045
8.664,0.110,-0.040
8.666,0.130,-0.040
8.668,0.155,-0.040
8.670,0.135,-0.040
8.672,0.100,-0.045
8.674,0.065,-0.045
8.676,0.040,-0.050
8.678,0.025,-0.050
8.680,0.050,-0.050
8.682,0.065,-0.050
8.684,0.100,-0.050
8.686,0.125,-0.050
8.688,0.115,-0.050
8.690,0.105,-0.055
8.692,0.100,-0.055
8.694,0.060,-0.055
8.696,0.050,-0.060
8.698,0.050,-0.060
8.700,0.045,-0.055
8.702,0.075,-0.055
8.704,0.110,-0.050
8.706,0.120,-0.045
8.708,0.125,-0.045
8.710,0.140,-0.040
8.712,0.115,-0.035
8.714,0.075,-0.030
8.716,0.035,-0.030
8.718,0.035,-0.030
8.720,0.050,-0.035
8.722,0.070,-0.035
8.724,0.100,-0.040
8.726,0.130,-0.045
8.728,0.130,-0.050
8.730,0.140,-0.055
8.732,0.125,-0.055
8.734,0.075,-0.060
8.736,0.005,-0.060
8.738,0.025,-0.055
8.740,0.040,-0.055
8.742,0.050,-0.050
8.744,0.100,-0.050
8.746,0.130,-0.045
8.748,0.155,-0.045
8.750,0.140,-0.045
8.752,0.115,-0.045
8.754,0.065,-0.045
8.756,0.015,-0.045
8.758,0.045,-0.045
8.760,0.055,-0.045
8.762,0.065,-0.045
8.764,0.110,-0.045
8.766,0.135,-0.040
8.768,0.145,-0.040
8.770,0.125,-0.035
8.772,0.120,-0.035
8.774,0.050,-0.030
8.776,0.025,-0.035
8.778,0.065,-0.035
8.780,0.055,-0.040
8.782,0.075,-0.045
8.784,0.110,-0.050
8.786,0.165,-0.055
8.788,0.130,-0.055
8.790,0.125,-0.055
8.792,0.115,-0.055
8.794,0.075,-0.050
8.796,0.020,-0.045
8.798,0.025,-0.040
8.800,0.050,-0.040
8.802,0.065,-0.045
8.804,0.100,-0.045
8.806,0.140,-0.050
8.808,0.165,-0.055
8.810,0.150,-0.060
8.812,0.115,-0.060
8.814,0.055,-0.060
8.816,0.020,-0.055
8.818,0.020,-0.050
8.820,0.060,-0.045
8.822,0.075,-0.040
8.824,0.110,-0.045
8.826,0.120,-0.050
8.828,0.120,-0.055
8.830,0.110,-0.065
8.832,0.105,-0.075
8.834,0.020,-0.080
8.836,0.010,-0.080
8.838,0.050,-0.075
8.840,0.040,-0.065
8.842,0.040,-0.055
8.844,0.130,-0.045
8.846,0.115,-0.040
8.848,0.145,-0.035
8.850,0.115,-0.035
8.852,0.105,-0.040
8.854,0.055,-0.045
8.856,0.025,-0.055
8.858,0.040,-0.060
8.860,0.070,-0.060
8.862,0.055,-0.060
8.864,0.135,-0.060
8.866,0.140,-0.055
8.868,0.145,-0.050
8.870,0.115,-0.045
8.872,0.090,-0.040
8.874,0.045,-0.040
8.876,0.045,-0.045
8.878,0.055,-0.045
8.880,0.060,-0.045
8.882,0.070,-0.045
8.884,0.125,-0.050
8.886,0.125,-0.050
8.888,0.115,-0.050
8.890,0.115,-0.050
8.892,0.085,-0.055
8.894,0.045,-0.055
8.896,0.030,-0.055
8.898,0.035,-0.055
8.900,0.070,-0.055
8.902,0.100,-0.050
8.904,0.105,-0.045
8.906,0.155,-0.045
8.908,0.145,-0.045
8.910,0.100,-0.045
8.912,0.080,-0.045
8.914,0.040,-0.050
8.916,0.040,-0.060
8.918,0.040,-0.065
8.920,0.045,-0.070
8.922,0.075,-0.070
8.924,0.115,-0.070
8.926,0.115,-0.070
8.928,0.130,-0.065
8.930,0.100,-0.060
8.932,0.095,-0.055
8.934,0.045,-0.050
8.936,0.040,-0.045
8.938,0.050,-0.045
8.940,0.050,-0.045
8.942,0.110,-0.045
8.944,0.125,-0.045
8.946,0.130,-0.050
8.948,0.140,-0.050
8.950,0.115,-0.050
8.952,0.095,-0.045
8.954,0.055,-0.045
8.956,0.020,-0.045
8.958,0.060,-0.045
8.960,0.100,-0.040
8.962,0.120,-0.040
8.964,0.150,-0.040
8.966,0.170,-0.040
8.968,0.175,-0.035
8.970,0.140,-0.035
8.972,0.120,-0.030
8.974,0.045,-0.025
8.976,0.070,-0.020
8.978,0.095,-0.015
8.980,0.110,-0.010
8.982,0.120,-0.005
8.984,0.190,-0.005
8.986,0.180,0.000
8.988,0.200,0.000
8.990,0.205,0.010
8.992,0.155,0.015
8.994,0.115,0.025
8.996,0.130,0.035
8.998,0.115,0.040
9.000,0.160,0.050
9.002,0.190,0.055
9.004,0.225,0.055
9.006,0.235,0.055
9.008,0.245,0.050
9.010,0.220,0.045
9.012,0.160,0.040
9.014,0.130,0.030
9.016,0.155,0.030
9.018,0.135,0.025
9.020,0.135,0.025
9.022,0.155,0.020
9.024,0.220,0.020
9.026,0.220,0.015
9.028,0.175,0.010
9.030,0.140,0.000
9.032,0.095,-0.005
9.034,0.060,-0.015
9.036,0.035,-0.025
9.038,0.045,-0.035
9.040,0.100,-0.040
9.042,0.125,-0.045
9.044,0.140,-0.050
9.046,0.155,-0.050
9.048,0.145,-0.050
9.050,0.115,-0.055
9.052,0.070,-0.055
9.054,0.040,-0.055
9.056,0.025,-0.060
9.058,0.040,-0.060
9.060,0.050,-0.060
9.062,0.105,-0.065
9.064,0.155,-0.065
9.066,0.150,-0.065
9.068,0.150,-0.060
9.070,0.115,-0.060
9.072,0.065,-0.060
9.074,0.050,-0.060
9.076,0.055,-0.060
9.078,0.070,-0.060
9.080,0.020,-0.060
9.082,0.100,-0.065
9.084,0.120,-0.065
9.086,0.160,-0.065
9.088,0.135,-0.065
9.090,0.105,-0.065
9.092,0.055,-0.065
9.094,0.035,-0.070
9.096,0.030,-0.070
9.098,0.035,-0.070
9.100,0.055,-0.070
9.102,0.090,-0.065
9.104,0.110,-0.060
9.106,0.160,-0.055
9.108,0.145,-0.050
9.110,0.110,-0.045
9.112,0.055,-0.050
9.114,0.010,-0.060
9.116,0.015,-0.075
9.118,0.025,-0.100
9.120,0.000,-0.125
9.122,-0.005,-0.150
9.124,-0.005,-0.170
9.126,0.020,-0.175
9.128,0.030,-0.155
9.130,0.045,-0.120
9.132,0.065,-0.055
9.134,0.140,0.030
9.136,0.260,0.140
9.138,0.415,0.260
9.140,0.560,0.385
9.142,0.680,0.510
9.144,0.805,0.625
9.146,0.950,0.720
9.148,1.030,0.795
9.150,1.090,0.840
9.152,1.005,0.850
9.154,0.970,0.825
9.156,0.905,0.770
9.158,0.810,0.685
9.160,0.670,0.575
9.162,0.605,0.450
9.164,0.450,0.320
9.166,0.330,0.195
9.168,0.230,0.085
9.170,0.130,-0.010
9.172,0.020,-0.075
9.174,0.005,-0.115
9.176,0.000,-0.135
9.178,0.025,-0.135
9.180,0.035,-0.125
9.182,0.075,-0.105
9.184,0.110,-0.090
9.186,0.135,-0.075
9.188,0.105,-0.065
9.190,0.095,-0.065
9.192,0.040,-0.065
9.194,0.040,-0.070
9.196,0.045,-0.070
9.198,0.060,-0.075
9.200,0.095,-0.070
9.202,0.135,-0.070
9.204,0.140,-0.060
9.206,0.145,-0.055
9.208,0.090,-0.050
9.210,0.115,-0.050
9.212,0.055,-0.050
9.214,0.030,-0.050
9.216,0.050,-0.050
9.218,0.065,-0.055
9.220,0.080,-0.060
9.222,0.120,-0.065
9.224,0.150,-0.070
9.226,0.145,-0.070
9.228,0.130,-0.070
9.230,0.080,-0.070
9.232,0.050,-0.065
9.234,0.040,-0.065
9.236,0.050,-0.060
9.238,0.065,-0.055
9.240,0.080,-0.050
9.242,0.140,-0.050
9.244,0.145,-0.045
9.246,0.160,-0.045
9.248,0.160,-0.045
9.250,0.125,-0.045
9.252,0.070,-0.045
9.254,0.060,-0.040
9.256,0.060,-0.040
9.258,0.075,-0.040
9.260,0.095,-0.040
9.262,0.140,-0.040
9.264,0.150,-0.040
9.266,0.145,-0.040
9.268,0.120,-0.040
9.270,0.100,-0.045
9.272,0.070,-0.045
9.274,0.045,-0.045
9.276,0.070,-0.045
9.278,0.100,-0.045
9.280,0.130,-0.040
9.282,0.165,-0.040
9.284,0.170,-0.035
9.286,0.165,-0.035
9.288,0.145,-0.030
9.290,0.110,-0.030
9.292,0.065,-0.030
9.294,0.065,-0.030
9.296,0.080,-0.035
9.298,0.105,-0.035
9.300,0.120,-0.035
9.302,0.155,-0.040
9.304,0.180,-0.040
9.306,0.180,-0.040
9.308,0.155,-0.035
9.310,0.120,-0.035
9.312,0.090,-0.035
9.314,0.080,-0.030
9.316,0.115,-0.025
9.318,0.110,-0.025
9.320,0.145,-0.020
9.322,0.175,-0.020
9.324,0.200,-0.020
9.326,0.175,-0.015
9.328,0.175,-0.010
9.330,0.135,-0.010
9.332,0.115,-0.005
9.334,0.095,0.000
9.336,0.105,0.005
9.338,0.135,0.005
9.340,0.215,0.005
9.342,0.220,0.005
9.344,0.225,0.005
9.346,0.220,0.005
9.348,0.205,0.005
9.350,0.170,0.005
9.352,0.140,0.010
9.354,0.125,0.015
9.356,0.145,0.025
9.358,0.160,0.035
9.360,0.210,0.040
9.362,0.230,0.050
9.364,0.275,0.055
9.366,0.230,0.055
9.368,0.210,0.055
9.370,0.185,0.050
9.372,0.160,0.045
9.374,0.165,0.045
9.376,0.185,0.045
9.378,0.215,0.050
9.380,0.270,0.060
9.382,0.305,0.070
9.384,0.315,0.085
9.386,0.300,0.100
9.388,0.295,0.110
9.390,0.265,0.120
9.392,0.225,0.130
9.394,0.240,0.135
9.396,0.245,0.135
9.398,0.240,0.135
9.400,0.315,0.140
9.402,0.320,0.140
9.404,0.365,0.145
9.406,0.360,0.150
9.408,0.330,0.160
9.410,0.305,0.165
9.412,0.270,0.170
9.414,0.275,0.175
9.416,0.285,0.180
9.418,0.295,0.180
9.420,0.350,0.180
9.422,0.375,0.175
9.424,0.405,0.170
9.426,0.365,0.170
9.428,0.345,0.170
9.430,0.305,0.170
9.432,0.295,0.175
9.434,0.290,0.175
9.436,0.295,0.175
9.438,0.305,0.175
9.440,0.340,0.170
9.442,0.350,0.165
9.444,0.330,0.155
9.446,0.315,0.140
9.448,0.315,0.125
9.450,0.225,0.115
9.452,0.205,0.105
9.454,0.195,0.100
9.456,0.235,0.095
9.458,0.225,0.095
9.460,0.280,0.095
9.462,0.295,0.100
9.464,0.285,0.095
9.466,0.265,0.090
9.468,0.210,0.085
9.470,0.170,0.070
9.472,0.170,0.055
9.474,0.160,0.040
9.476,0.145,0.025
9.478,0.145,0.010
9.480,0.180,0.005
9.482,0.195,0.000
9.484,0.190,-0.005
9.486,0.180,-0.005
9.488,0.145,-0.005
9.490,0.095,-0.010
9.492,0.070,-0.010
9.494,0.085,-0.020
9.496,0.110,-0.025
9.498,0.115,-0.035
9.500,0.150,-0.040
9.502,0.155,-0.045
9.504,0.160,-0.050
9.506,0.155,-0.045
9.508,0.140,-0.045
9.510,0.100,-0.035
9.512,0.095,-0.030
9.514,0.075,-0.025
9.516,0.100,-0.025
9.518,0.110,-0.025
9.520,0.110,-0.030
9.522,0.155,-0.035
9.524,0.180,-0.045
9.526,0.155,-0.050
9.528,0.115,-0.060
9.530,0.065,-0.060
9.532,0.050,-0.065
9.534,0.040,-0.065
9.536,0.060,-0.065
9.538,0.075,-0.065
9.540,0.125,-0.065
9.542,0.140,-0.065
9.544,0.175,-0.065
9.546,0.110,-0.065
9.548,0.100,-0.060
9.550,0.055,-0.060
9.552,0.055,-0.055
9.554,0.065,-0.055
9.556,0.075,-0.050
9.558,0.100,-0.050
9.560,0.140,-0.050
9.562,0.150,-0.055
9.564,0.150,-0.055
9.566,0.130,-0.055
9.568,0.075,-0.060
9.570,0.050,-0.060
9.572,0.070,-0.060
9.574,0.060,-0.060
9.576,0.085,-0.060
9.578,0.110,-0.060
9.580,0.125,-0.060
9.582,0.145,-0.060
9.584,0.145,-0.060
9.586,0.105,-0.060
9.588,0.085,-0.065
9.590,0.055,-0.065
9.592,0.065,-0.065
9.594,0.075,-0.065
9.596,0.075,-0.065
9.598,0.110,-0.065
9.600,0.140,-0.065
9.602,0.160,-0.060
9.604,0.160,-0.060
9.606,0.145,-0.055
9.608,0.105,-0.050
9.610,0.060,-0.045
9.612,0.070,-0.040
9.614,0.060,-0.035
9.616,0.080,-0.035
9.618,0.120,-0.035
9.620,0.145,-0.040
9.622,0.180,-0.045
9.624,0.155,-0.050
9.626,0.145,-0.055
9.628,0.100,-0.060
9.630,0.065,-0.060
9.632,0.065,-0.060
9.634,0.090,-0.055
9.636,0.075,-0.045
9.638,0.115,-0.040
9.640,0.130,-0.035
9.642,0.165,-0.030
9.644,0.205,-0.030
9.646,0.185,-0.030
9.648,0.105,-0.030
9.650,0.080,-0.035
9.652,0.085,-0.035
9.654,0.090,-0.040
9.656,0.105,-0.040
9.658,0.140,-0.040
9.660,0.165,-0.035
9.662,0.185,-0.035
9.664,0.165,-0.035
9.666,0.170,-0.030
9.668,0.115,-0.030
9.670,0.090,-0.025
9.672,0.095,-0.025
9.674,0.080,-0.020
9.676,0.115,-0.020
9.678,0.145,-0.020
9.680,0.165,-0.020
9.682,0.165,-0.025
9.684,0.170,-0.025
9.686,0.155,-0.030
9.688,0.065,-0.035
9.690,0.075,-0.040
9.692,0.085,-0.040
9.694,0.105,-0.040
9.696,0.110,-0.040
9.698,0.150,-0.035
9.700,0.170,-0.035
9.702,0.160,-0.030
9.704,0.160,-0.030
9.706,0.170,-0.035
9.708,0.085,-0.035
9.710,0.090,-0.040
9.712,0.075,-0.045
9.714,0.085,-0.045
9.716,0.105,-0.045
9.718,0.150,-0.040
9.720,0.150,-0.035
9.722,0.205,-0.030
9.724,0.160,-0.025
9.726,0.150,-0.020
9.728,0.100,-0.015
9.730,0.085,-0.015
9.732,0.085,-0.020
9.734,0.100,-0.025
9.736,0.100,-0.030
9.738,0.135,-0.035
9.740,0.160,-0.040
9.742,0.175,-0.040
9.744,0.155,-0.040
9.746,0.135,-0.040
9.748,0.090,-0.040
9.750,0.080,-0.040
9.752,0.070,-0.040
9.754,0.080,-0.040
9.756,0.090,-0.045
9.758,0.130,-0.045
9.760,0.165,-0.045
9.762,0.165,-0.050
9.764,0.145,-0.050
9.766,0.130,-0.050
9.768,0.065,-0.050
9.770,0.055,-0.045
9.772,0.045,-0.045
9.774,0.105,-0.045
9.776,0.090,-0.045
9.778,0.110,-0.045
9.780,0.165,-0.045
9.782,0.180,-0.050
9.784,0.150,-0.050
9.786,0.125,-0.050
9.788,0.085,-0.045
9.790,0.065,-0.045
9.792,0.075,-0.040
9.794,0.115,-0.040
9.796,0.125,-0.040
9.798,0.155,-0.040
9.800,0.150,-0.040
9.802,0.155,-0.040
9.804,0.130,-0.040
9.806,0.100,-0.040
9.808,0.085,-0.040
9.810,0.070,-0.040
9.812,0.075,-0.040
9.814,0.100,-0.040
9.816,0.110,-0.045
9.818,0.140,-0.045
9.820,0.160,-0.045
9.822,0.160,-0.045
9.824,0.130,-0.050
9.826,0.100,-0.055
9.828,0.075,-0.055
9.830,0.065,-0.060
9.832,0.065,-0.065
9.834,0.080,-0.065
9.836,0.105,-0.065
9.838,0.145,-0.065
9.840,0.160,-0.065
9.842,0.180,-0.060
9.844,0.155,-0.055
9.846,0.075,-0.050
9.848,0.065,-0.045
9.850,0.075,-0.040
9.852,0.075,-0.035
9.854,0.085,-0.035
9.856,0.105,-0.035
9.858,0.140,-0.035
9.860,0.150,-0.040
9.862,0.150,-0.040
9.864,0.125,-0.045
9.866,0.120,-0.045
9.868,0.070,-0.045
9.870,0.080,-0.045
9.872,0.095,-0.040
9.874,0.110,-0.040
9.876,0.135,-0.035
9.878,0.170,-0.030
9.880,0.185,-0.030
9.882,0.195,-0.025
9.884,0.170,-0.020
9.886,0.120,-0.015
9.888,0.100,-0.010
9.890,0.080,-0.005
9.892,0.100,0.000
9.894,0.125,0.005
9.896,0.165,0.010
9.898,0.195,0.010
9.900,0.215,0.010
9.902,0.210,0.010
9.904,0.205,0.010
9.906,0.185,0.010
9.908,0.155,0.015
9.910,0.145,0.020
9.912,0.145,0.030
9.914,0.160,0.035
9.916,0.195,0.045
9.918,0.210,0.050
9.920,0.270,0.055
9.922,0.260,0.055
9.924,0.250,0.055
9.926,0.205,0.050
9.928,0.140,0.045
9.930,0.140,0.035
9.932,0.160,0.030
9.934,0.165,0.025
9.936,0.190,0.020
9.938,0.235,0.015
9.940,0.220,0.010
9.942,0.190,0.005
9.944,0.135,-0.005
9.946,0.100,-0.015
9.948,0.075,-0.025
9.950,0.075,-0.035
9.952,0.075,-0.045
9.954,0.085,-0.050
9.956,0.120,-0.055
9.958,0.170,-0.055
9.960,0.195,-0.055
9.962,0.150,-0.055
9.964,0.115,-0.050
9.966,0.065,-0.050
9.968,0.050,-0.045
9.970,0.055,-0.050
9.972,0.070,-0.055
9.974,0.070,-0.060
9.976,0.120,-0.065
9.978,0.115,-0.070
9.980,0.130,-0.075
9.982,0.115,-0.075
9.984,0.115,-0.075
9.986,0.065,-0.070
9.988,0.050,-0.065
9.990,0.025,-0.060
9.992,0.030,-0.060
9.994,0.075,-0.060
9.996,0.110,-0.065
9.998,0.105,-0.070
