'Elapsed time','ECG I','ECG I filtered'
'seconds','mV','mV'
0.000,-0.040,-0.020
0.002,0.005,-0.010
0.004,-0.015,-0.005
0.006,-0.005,0.000
0.008,-0.045,0.000
0.010,-0.030,-0.005
0.012,0.010,-0.015
0.014,0.025,-0.025
0.016,-0.085,-0.035
0.018,-0.055,-0.045
0.020,-0.055,-0.050
0.022,-0.055,-0.055
0.024,-0.055,-0.055
0.026,-0.050,-0.050
0.028,-0.030,-0.040
0.030,-0.020,-0.035
0.032,-0.025,-0.030
0.034,-0.025,-0.025
0.036,-0.045,-0.025
0.038,-0.025,-0.025
0.040,-0.025,-0.025
0.042,-0.100,-0.025
0.044,-0.045,-0.030
0.046,-0.020,-0.030
0.048,-0.035,-0.030
0.050,-0.040,-0.030
0.052,-0.060,-0.025
0.054,-0.055,-0.025
0.056,-0.055,-0.025
0.058,-0.005,-0.025
0.060,-0.030,-0.025
0.062,0.000,-0.030
0.064,-0.055,-0.030
0.066,-0.065,-0.035
0.068,-0.060,-0.040
0.070,-0.025,-0.045
0.072,-0.025,-0.040
0.074,-0.060,-0.040
0.076,-0.035,-0.030
0.078,-0.035,-0.020
0.080,-0.035,-0.010
0.082,-0.020,0.000
0.084,-0.020,0.010
0.086,0.005,0.010
0.088,-0.005,0.010
0.090,-0.030,0.005
0.092,-0.035,-0.005
0.094,-0.015,-0.020
0.096,-0.075,-0.035
0.098,-0.100,-0.045
0.100,-0.055,-0.050
0.102,-0.040,-0.050
0.104,-0.065,-0.050
0.106,-0.025,-0.040
0.108,-0.060,-0.025
0.110,0.000,-0.015
0.112,-0.040,-0.010
0.114,-0.055,-0.010
0.116,-0.045,-0.015
0.118,-0.050,-0.025
0.120,-0.055,-0.035
0.122,-0.105,-0.050
0.124,-0.070,-0.060
0.126,-0.045,-0.070
0.128,-0.050,-0.075
0.130,-0.065,-0.070
0.132,-0.060,-0.065
0.134,-0.055,-0.060
0.136,-0.050,-0.050
0.138,-0.070,-0.040
0.140,-0.060,-0.030
0.142,-0.080,-0.025
0.144,-0.035,-0.020
0.146,-0.025,-0.020
0.148,-0.025,-0.020
0.150,-0.040,-0.020
0.152,-0.025,-0.025
0.154,-0.075,-0.030
0.156,-0.065,-0.040
0.158,-0.030,-0.045
0.160,-0.005,-0.050
0.162,-0.060,-0.055
0.164,-0.045,-0.055
0.166,-0.055,-0.055
0.168,-0.060,-0.050
0.170,-0.055,-0.045
0.172,-0.065,-0.035
0.174,-0.050,-0.030
0.176,-0.020,-0.025
0.178,-0.010,-0.020
0.180,-0.045,-0.015
0.182,-0.035,-0.020
0.184,-0.020,-0.020
0.186,-0.015,-0.025
0.188,-0.015,-0.030
0.190,-0.025,-0.035
0.192,-0.055,-0.040
0.194,-0.070,-0.040
0.196,-0.070,-0.040
0.198,-0.050,-0.040
0.200,-0.015,-0.040
0.202,0.000,-0.035
0.204,0.030,-0.030
0.206,-0.045,-0.020
0.208,-0.025,-0.015
0.210,-0.025,-0.005
0.212,-0.005,0.005
0.214,0.010,0.015
0.216,0.025,0.025
0.218,0.035,0.030
0.220,0.030,0.035
0.222,-0.030,0.040
0.224,0.045,0.045
0.226,0.025,0.045
0.228,0.000,0.045
0.230,0.035,0.050
0.232,0.050,0.055
0.234,0.040,0.055
0.236,0.030,0.060
0.238,0.030,0.060
0.240,0.020,0.060
0.242,0.050,0.060
0.244,0.050,0.055
0.246,0.015,0.045
0.248,0.020,0.035
0.250,0.035,0.020
0.252,-0.035,0.010
0.254,-0.010,0.000
0.256,0.040,-0.010
0.258,0.005,-0.015
0.260,-0.085,-0.015
0.262,-0.060,-0.020
0.264,-0.010,-0.020
0.266,-0.015,-0.025
0.268,-0.035,-0.025
0.270,-0.075,-0.030
0.272,-0.050,-0.035
0.274,-0.095,-0.035
0.276,-0.035,-0.040
0.278,-0.040,-0.045
0.280,-0.055,-0.045
0.282,-0.080,-0.040
0.284,-0.025,-0.040
0.286,-0.020,-0.035
0.288,-0.005,-0.030
0.290,-0.055,-0.025
0.292,-0.025,-0.025
0.294,-0.045,-0.025
0.296,-0.075,-0.030
0.298,-0.035,-0.040
0.300,-0.005,-0.045
0.302,-0.120,-0.055
0.304,-0.060,-0.055
0.306,-0.060,-0.055
0.308,-0.025,-0.050
0.310,-0.045,-0.040
0.312,-0.075,-0.030
0.314,-0.045,-0.025
0.316,-0.020,-0.020
0.318,-0.020,-0.020
0.320,-0.065,-0.025
0.322,-0.075,-0.035
0.324,-0.040,-0.040
0.326,-0.045,-0.035
0.328,-0.015,-0.020
0.330,-0.015,0.020
0.332,0.060,0.080
0.334,0.150,0.155
0.336,0.225,0.235
0.338,0.335,0.310
0.340,0.430,0.365
0.342,0.470,0.395
0.344,0.450,0.385
0.346,0.345,0.335
0.348,0.240,0.255
0.350,0.090,0.150
0.352,-0.055,0.040
0.354,-0.180,-0.065
0.356,-0.210,-0.145
0.358,-0.235,-0.200
0.360,-0.240,-0.225
0.362,-0.170,-0.225
0.364,-0.150,-0.200
0.366,-0.170,-0.165
0.368,-0.120,-0.135
0.370,-0.120,-0.110
0.372,-0.135,-0.095
0.374,-0.115,-0.090
0.376,-0.125,-0.095
0.378,-0.130,-0.100
0.380,-0.145,-0.105
0.382,-0.095,-0.105
0.384,-0.080,-0.100
0.386,-0.035,-0.085
0.388,-0.010,-0.065
0.390,-0.040,-0.050
0.392,-0.045,-0.035
0.394,-0.075,-0.025
0.396,-0.040,-0.020
0.398,-0.045,-0.020
0.400,-0.035,-0.025
0.402,-0.045,-0.030
0.404,-0.025,-0.035
0.406,-0.035,-0.035
0.408,-0.075,-0.035
0.410,-0.020,-0.030
0.412,-0.005,-0.020
0.414,0.035,-0.010
0.416,0.010,0.000
0.418,-0.045,0.005
0.420,-0.030,0.005
0.422,0.005,0.005
0.424,-0.010,0.000
0.426,-0.030,-0.005
0.428,-0.030,-0.010
0.430,-0.005,-0.015
0.432,-0.030,-0.020
0.434,-0.020,-0.025
0.436,0.015,-0.025
0.438,-0.040,-0.020
0.440,-0.025,-0.020
0.442,0.005,-0.015
0.444,-0.040,-0.015
0.446,-0.015,-0.010
0.448,0.015,0.000
0.450,0.025,0.005
0.452,0.010,0.015
0.454,0.000,0.020
0.456,0.015,0.030
0.458,0.005,0.035
0.460,-0.005,0.035
0.462,0.040,0.035
0.464,0.085,0.030
0.466,0.005,0.025
0.468,-0.025,0.015
0.470,0.015,0.010
0.472,0.035,0.010
0.474,0.050,0.010
0.476,0.025,0.015
0.478,0.010,0.025
0.480,-0.030,0.040
0.482,0.045,0.050
0.484,0.085,0.065
0.486,0.060,0.070
0.488,0.095,0.075
0.490,0.095,0.080
0.492,0.060,0.075
0.494,0.065,0.075
0.496,0.100,0.075
0.498,0.050,0.075
0.500,0.030,0.080
0.502,0.085,0.085
0.504,0.070,0.090
0.506,0.075,0.100
0.508,0.070,0.105
0.510,0.100,0.110
0.512,0.150,0.110
0.514,0.135,0.110
0.516,0.135,0.110
0.518,0.155,0.110
0.520,0.100,0.115
0.522,0.070,0.120
0.524,0.105,0.125
0.526,0.125,0.130
0.528,0.055,0.140
0.530,0.180,0.145
0.532,0.180,0.150
0.534,0.185,0.150
0.536,0.130,0.150
0.538,0.100,0.145
0.540,0.095,0.145
0.542,0.155,0.145
0.544,0.160,0.145
0.546,0.120,0.150
0.548,0.160,0.155
0.550,0.160,0.160
0.552,0.155,0.165
0.554,0.175,0.170
0.556,0.160,0.175
0.558,0.180,0.175
0.560,0.185,0.175
0.562,0.185,0.175
0.564,0.120,0.175
0.566,0.165,0.175
0.568,0.210,0.175
0.570,0.230,0.180
0.572,0.185,0.185
0.574,0.180,0.185
0.576,0.200,0.185
0.578,0.175,0.185
0.580,0.155,0.175
0.582,0.140,0.165
0.584,0.140,0.155
0.586,0.150,0.145
0.588,0.135,0.135
0.590,0.155,0.130
0.592,0.115,0.130
0.594,0.120,0.135
0.596,0.110,0.140
0.598,0.185,0.145
0.600,0.155,0.145
0.602,0.140,0.145
0.604,0.175,0.135
0.606,0.075,0.120
0.608,0.065,0.105
0.610,0.095,0.085
0.612,0.065,0.070
0.614,0.055,0.060
0.616,0.060,0.050
0.618,0.010,0.045
0.620,-0.015,0.045
0.622,0.065,0.050
0.624,0.060,0.045
0.626,0.095,0.045
0.628,0.010,0.035
0.630,-0.005,0.030
0.632,-0.020,0.015
0.634,0.005,0.005
0.636,0.020,0.000
0.638,0.045,-0.005
0.640,0.000,-0.010
0.642,-0.035,-0.010
0.644,-0.055,-0.010
0.646,-0.040,-0.010
0.648,0.005,-0.015
0.650,-0.010,-0.020
0.652,-0.040,-0.025
0.654,-0.025,-0.030
0.656,-0.010,-0.035
0.658,-0.035,-0.040
0.660,-0.005,-0.040
0.662,-0.085,-0.040
0.664,-0.035,-0.040
0.666,-0.070,-0.040
0.668,-0.050,-0.040
0.670,-0.040,-0.040
0.672,-0.050,-0.040
0.674,-0.035,-0.045
0.676,-0.065,-0.045
0.678,-0.035,-0.045
0.680,-0.025,-0.045
0.682,-0.030,-0.045
0.684,-0.065,-0.045
0.686,-0.030,-0.040
0.688,-0.040,-0.035
0.690,-0.025,-0.035
0.692,-0.040,-0.035
0.694,-0.040,-0.030
0.696,-0.050,-0.030
0.698,-0.045,-0.025
0.700,-0.060,-0.025
0.702,-0.005,-0.020
0.704,0.020,-0.015
0.706,0.025,-0.015
0.708,0.000,-0.020
0.710,-0.065,-0.020
0.712,-0.065,-0.025
0.714,-0.075,-0.030
0.716,-0.045,-0.040
0.718,-0.045,-0.040
0.720,-0.025,-0.045
0.722,0.030,-0.040
0.724,-0.015,-0.035
0.726,-0.055,-0.035
0.728,-0.065,-0.030
0.730,-0.005,-0.030
0.732,-0.030,-0.030
0.734,-0.070,-0.035
0.736,-0.095,-0.040
0.738,-0.060,-0.045
0.740,-0.045,-0.050
0.742,-0.045,-0.050
0.744,-0.040,-0.050
0.746,0.020,-0.045
0.748,-0.035,-0.045
0.750,-0.025,-0.040
0.752,-0.065,-0.040
0.754,-0.060,-0.040
0.756,-0.040,-0.040
0.758,-0.080,-0.045
0.760,-0.035,-0.050
0.762,0.005,-0.050
0.764,-0.035,-0.050
0.766,-0.035,-0.050
0.768,-0.055,-0.045
0.770,-0.085,-0.040
0.772,-0.050,-0.040
0.774,-0.055,-0.040
0.776,-0.040,-0.045
0.778,-0.080,-0.050
0.780,-0.085,-0.055
0.782,-0.020,-0.060
0.784,-0.040,-0.060
0.786,-0.035,-0.060
0.788,-0.025,-0.060
0.790,-0.085,-0.055
0.792,-0.045,-0.050
0.794,-0.045,-0.050
0.796,-0.040,-0.050
0.798,-0.055,-0.050
0.800,-0.030,-0.055
0.802,-0.070,-0.060
0.804,-0.070,-0.065
0.806,-0.055,-0.070
0.808,-0.040,-0.070
0.810,-0.070,-0.065
0.812,-0.045,-0.060
0.814,-0.020,-0.055
0.816,-0.065,-0.050
0.818,-0.095,-0.045
0.820,-0.070,-0.045
0.822,-0.065,-0.045
0.824,-0.060,-0.050
0.826,-0.050,-0.055
0.828,-0.025,-0.065
0.830,-0.055,-0.070
0.832,-0.070,-0.075
0.834,-0.070,-0.075
0.836,-0.060,-0.075
0.838,-0.090,-0.070
0.840,-0.090,-0.065
0.842,-0.055,-0.060
0.844,-0.055,-0.055
0.846,-0.065,-0.050
0.848,-0.040,-0.045
0.850,-0.025,-0.040
0.852,-0.030,-0.040
0.854,0.000,-0.040
0.856,-0.025,-0.045
0.858,-0.095,-0.050
0.860,-0.100,-0.050
0.862,-0.090,-0.055
0.864,-0.060,-0.060
0.866,-0.055,-0.065
0.868,-0.055,-0.065
0.870,-0.070,-0.070
0.872,-0.075,-0.070
0.874,-0.060,-0.070
0.876,-0.075,-0.070
0.878,-0.070,-0.070
0.880,-0.050,-0.070
0.882,-0.010,-0.065
0.884,-0.075,-0.060
0.886,-0.095,-0.055
0.888,-0.040,-0.045
0.890,-0.055,-0.040
0.892,-0.055,-0.040
0.894,-0.050,-0.040
0.896,-0.045,-0.040
0.898,-0.050,-0.050
0.900,-0.100,-0.055
0.902,-0.060,-0.065
0.904,-0.080,-0.070
0.906,-0.055,-0.075
0.908,-0.040,-0.070
0.910,-0.060,-0.065
0.912,-0.020,-0.055
0.914,-0.030,-0.045
0.916,-0.080,-0.030
0.918,-0.035,-0.020
0.920,0.030,-0.015
0.922,-0.040,-0.010
0.924,-0.045,-0.015
0.926,0.020,-0.015
0.928,-0.030,-0.020
0.930,-0.010,-0.020
0.932,0.000,-0.020
0.934,-0.010,-0.015
0.936,-0.040,-0.005
0.938,0.000,0.005
0.940,0.025,0.010
0.942,0.025,0.020
0.944,-0.010,0.025
0.946,0.030,0.030
0.948,0.020,0.030
0.950,0.045,0.025
0.952,0.020,0.025
0.954,0.055,0.020
0.956,0.010,0.015
0.958,-0.015,0.015
0.960,0.005,0.010
0.962,-0.020,0.005
0.964,-0.020,-0.005
0.966,-0.025,-0.015
0.968,-0.025,-0.020
0.970,-0.025,-0.030
0.972,-0.075,-0.040
0.974,-0.045,-0.045
0.976,-0.060,-0.050
0.978,-0.075,-0.050
0.980,-0.060,-0.050
0.982,-0.030,-0.050
0.984,-0.035,-0.050
0.986,-0.070,-0.055
0.988,-0.015,-0.065
0.990,-0.110,-0.070
0.992,-0.095,-0.080
0.994,-0.080,-0.085
0.996,-0.075,-0.085
0.998,-0.095,-0.085
1.000,-0.145,-0.080
1.002,-0.070,-0.070
1.004,-0.075,-0.065
1.006,-0.060,-0.065
1.008,-0.060,-0.060
1.010,-0.080,-0.060
1.012,-0.060,-0.060
1.014,0.010,-0.060
1.016,-0.065,-0.055
1.018,-0.095,-0.050
1.020,-0.060,-0.040
1.022,-0.005,-0.035
1.024,-0.045,-0.040
1.026,-0.080,-0.050
1.028,-0.090,-0.065
1.030,-0.140,-0.085
1.032,-0.135,-0.105
1.034,-0.105,-0.110
1.036,-0.075,-0.100
1.038,-0.035,-0.060
1.040,0.010,0.000
1.042,0.080,0.085
1.044,0.205,0.185
1.046,0.300,0.280
1.048,0.395,0.355
1.050,0.440,0.400
1.052,0.425,0.405
1.054,0.385,0.365
1.056,0.275,0.290
1.058,0.225,0.195
1.060,0.030,0.085
1.062,-0.145,-0.020
1.064,-0.170,-0.100
1.066,-0.190,-0.155
1.068,-0.200,-0.185
1.070,-0.100,-0.185
1.072,-0.140,-0.165
1.074,-0.115,-0.145
1.076,-0.145,-0.120
1.078,-0.170,-0.100
1.080,-0.155,-0.095
1.082,-0.085,-0.095
1.084,-0.090,-0.105
1.086,-0.085,-0.115
1.088,-0.125,-0.120
1.090,-0.095,-0.125
1.092,-0.085,-0.120
1.094,-0.135,-0.115
1.096,-0.135,-0.105
1.098,-0.095,-0.090
1.100,-0.085,-0.080
1.102,-0.080,-0.070
1.104,-0.050,-0.065
1.106,-0.025,-0.060
1.108,-0.060,-0.055
1.110,-0.060,-0.050
1.112,-0.030,-0.050
1.114,-0.040,-0.045
1.116,-0.100,-0.045
1.118,-0.075,-0.050
1.120,-0.070,-0.050
1.122,-0.045,-0.055
1.124,-0.050,-0.055
1.126,-0.075,-0.055
1.128,-0.085,-0.060
1.130,-0.080,-0.055
1.132,-0.085,-0.055
1.134,-0.040,-0.050
1.136,-0.035,-0.045
1.138,-0.015,-0.040
1.140,-0.035,-0.035
1.142,-0.105,-0.035
1.144,-0.045,-0.035
1.146,-0.030,-0.035
1.148,0.005,-0.030
1.150,0.010,-0.030
1.152,-0.015,-0.025
1.154,-0.065,-0.020
1.156,-0.040,-0.015
1.158,-0.005,-0.010
1.160,-0.015,-0.005
1.162,-0.040,0.000
1.164,-0.010,0.005
1.166,-0.015,0.005
1.168,-0.005,0.010
1.170,-0.005,0.010
1.172,-0.015,0.010
1.174,-0.040,0.015
1.176,0.010,0.015
1.178,0.040,0.015
1.180,0.035,0.015
1.182,-0.025,0.015
1.184,0.000,0.010
1.186,-0.020,0.010
1.188,0.010,0.010
1.190,0.000,0.010
1.192,0.010,0.010
1.194,0.025,0.015
1.196,0.015,0.025
1.198,0.030,0.035
1.200,0.040,0.045
1.202,0.040,0.055
1.204,0.020,0.060
1.206,0.065,0.070
1.208,0.115,0.075
1.210,0.070,0.075
1.212,0.025,0.075
1.214,0.030,0.075
1.216,0.075,0.075
1.218,0.075,0.075
1.220,0.070,0.080
1.222,0.055,0.085
1.224,0.065,0.090
1.226,0.115,0.095
1.228,0.100,0.100
1.230,0.070,0.105
1.232,0.075,0.110
1.234,0.100,0.110
1.236,0.130,0.110
1.238,0.160,0.110
1.240,0.135,0.115
1.242,0.130,0.120
1.244,0.105,0.125
1.246,0.115,0.135
1.248,0.135,0.145
1.250,0.150,0.155
1.252,0.150,0.165
1.254,0.180,0.170
1.256,0.170,0.175
1.258,0.140,0.175
1.260,0.115,0.175
1.262,0.130,0.175
1.264,0.200,0.175
1.266,0.165,0.175
1.268,0.155,0.180
1.270,0.170,0.185
1.272,0.200,0.190
1.274,0.195,0.195
1.276,0.210,0.200
1.278,0.200,0.195
1.280,0.175,0.195
1.282,0.155,0.185
1.284,0.145,0.175
1.286,0.100,0.170
1.288,0.160,0.160
1.290,0.135,0.155
1.292,0.120,0.155
1.294,0.100,0.155
1.296,0.170,0.155
1.298,0.195,0.160
1.300,0.145,0.160
1.302,0.160,0.160
1.304,0.120,0.155
1.306,0.115,0.155
1.308,0.115,0.145
1.310,0.140,0.135
1.312,0.105,0.125
1.314,0.055,0.110
1.316,0.070,0.095
1.318,0.065,0.080
1.320,0.080,0.065
1.322,0.010,0.050
1.324,0.015,0.035
1.326,0.035,0.030
1.328,0.045,0.020
1.330,0.015,0.015
1.332,-0.040,0.010
1.334,-0.045,0.005
1.336,-0.025,0.005
1.338,0.000,0.000
1.340,-0.020,-0.005
1.342,-0.045,-0.015
1.344,-0.055,-0.020
1.346,-0.045,-0.025
1.348,-0.055,-0.030
1.350,-0.050,-0.025
1.352,-0.030,-0.025
1.354,-0.025,-0.015
1.356,-0.060,-0.010
1.358,-0.010,-0.005
1.360,-0.040,0.000
1.362,-0.055,-0.005
1.364,-0.005,-0.010
1.366,-0.030,-0.020
1.368,-0.095,-0.030
1.370,-0.105,-0.045
1.372,-0.075,-0.050
1.374,-0.080,-0.055
1.376,-0.070,-0.050
1.378,-0.025,-0.045
1.380,-0.020,-0.035
1.382,-0.035,-0.030
1.384,-0.060,-0.025
1.386,-0.095,-0.025
1.388,-0.080,-0.030
1.390,-0.045,-0.045
1.392,-0.115,-0.055
1.394,-0.140,-0.070
1.396,-0.070,-0.085
1.398,-0.095,-0.090
1.400,-0.085,-0.090
1.402,-0.090,-0.090
1.404,-0.095,-0.080
1.406,-0.075,-0.075
1.408,-0.065,-0.065
1.410,-0.070,-0.060
1.412,-0.105,-0.055
1.414,-0.105,-0.050
1.416,-0.050,-0.050
1.418,-0.035,-0.045
1.420,-0.090,-0.040
1.422,-0.075,-0.035
1.424,0.025,-0.025
1.426,-0.030,-0.020
1.428,-0.065,-0.015
1.430,-0.070,-0.010
1.432,-0.050,-0.010
1.434,-0.045,-0.015
1.436,-0.060,-0.025
1.438,-0.080,-0.035
1.440,-0.105,-0.050
1.442,-0.125,-0.060
1.444,-0.095,-0.070
1.446,-0.070,-0.075
1.448,-0.100,-0.075
1.450,-0.095,-0.070
1.452,-0.090,-0.060
1.454,-0.080,-0.050
1.456,-0.065,-0.040
1.458,-0.075,-0.035
1.460,-0.005,-0.025
1.462,-0.055,-0.020
1.464,-0.090,-0.020
1.466,-0.105,-0.025
1.468,-0.060,-0.030
1.470,-0.090,-0.035
1.472,-0.075,-0.040
1.474,-0.095,-0.045
1.476,-0.100,-0.050
1.478,-0.105,-0.050
1.480,-0.070,-0.050
1.482,-0.085,-0.050
1.484,-0.060,-0.045
1.486,-0.075,-0.040
1.488,-0.045,-0.040
1.490,-0.090,-0.035
1.492,-0.085,-0.030
1.494,-0.060,-0.030
1.496,-0.025,-0.030
1.498,-0.030,-0.030
1.500,-0.055,-0.035
1.502,-0.110,-0.040
1.504,-0.125,-0.045
1.506,-0.120,-0.055
1.508,-0.100,-0.060
1.510,-0.070,-0.065
1.512,-0.100,-0.070
1.514,-0.115,-0.070
1.516,-0.075,-0.070
1.518,-0.110,-0.065
1.520,-0.095,-0.060
1.522,-0.105,-0.055
1.524,-0.090,-0.050
1.526,-0.085,-0.045
1.528,-0.080,-0.045
1.530,-0.060,-0.045
1.532,-0.055,-0.045
1.534,-0.105,-0.050
1.536,-0.085,-0.050
1.538,-0.100,-0.055
1.540,-0.095,-0.055
1.542,-0.115,-0.060
1.544,-0.130,-0.065
1.546,-0.145,-0.075
1.548,-0.145,-0.080
1.550,-0.120,-0.080
1.552,-0.145,-0.085
1.554,-0.105,-0.080
1.556,-0.115,-0.075
1.558,-0.080,-0.065
1.560,-0.040,-0.055
1.562,-0.030,-0.045
1.564,-0.080,-0.040
1.566,-0.140,-0.040
1.568,-0.120,-0.045
1.570,-0.130,-0.055
1.572,-0.165,-0.060
1.574,-0.105,-0.070
1.576,-0.080,-0.080
1.578,-0.135,-0.080
1.580,-0.145,-0.080
1.582,-0.070,-0.070
1.584,-0.080,-0.065
1.586,-0.110,-0.055
1.588,-0.090,-0.050
1.590,-0.120,-0.045
1.592,-0.135,-0.050
1.594,-0.115,-0.050
1.596,-0.105,-0.060
1.598,-0.085,-0.065
1.600,-0.100,-0.065
1.602,-0.075,-0.065
1.604,-0.090,-0.060
1.606,-0.105,-0.055
1.608,-0.095,-0.045
1.610,-0.120,-0.040
1.612,-0.135,-0.035
1.614,-0.035,-0.035
1.616,-0.085,-0.035
1.618,-0.115,-0.040
1.620,-0.100,-0.050
1.622,-0.075,-0.055
1.624,-0.095,-0.060
1.626,-0.115,-0.065
1.628,-0.100,-0.065
1.630,-0.130,-0.065
1.632,-0.140,-0.060
1.634,-0.150,-0.055
1.636,-0.090,-0.050
1.638,-0.085,-0.045
1.640,-0.090,-0.040
1.642,-0.070,-0.035
1.644,-0.105,-0.030
1.646,-0.065,-0.030
1.648,-0.040,-0.025
1.650,-0.035,-0.020
1.652,-0.065,-0.015
1.654,-0.065,-0.010
1.656,-0.065,-0.010
1.658,-0.080,-0.005
1.660,-0.045,0.005
1.662,-0.020,0.010
1.664,-0.030,0.020
1.666,-0.025,0.030
1.668,0.025,0.035
1.670,0.000,0.045
1.672,-0.045,0.050
1.674,0.005,0.050
1.676,-0.025,0.045
1.678,-0.060,0.040
1.680,-0.055,0.030
1.682,-0.020,0.020
1.684,-0.055,0.005
1.686,-0.035,-0.005
1.688,-0.005,-0.015
1.690,-0.090,-0.020
1.692,-0.115,-0.025
1.694,-0.085,-0.030
1.696,-0.075,-0.030
1.698,-0.115,-0.030
1.700,-0.095,-0.035
1.702,-0.070,-0.035
1.704,-0.085,-0.035
1.706,-0.090,-0.035
1.708,-0.140,-0.040
1.710,-0.160,-0.035
1.712,-0.080,-0.035
1.714,-0.095,-0.035
1.716,-0.055,-0.035
1.718,-0.100,-0.040
1.720,-0.140,-0.040
1.722,-0.135,-0.050
1.724,-0.085,-0.055
1.726,-0.140,-0.065
1.728,-0.165,-0.070
1.730,-0.145,-0.080
1.732,-0.115,-0.085
1.734,-0.100,-0.090
1.736,-0.160,-0.090
1.738,-0.145,-0.090
1.740,-0.160,-0.080
1.742,-0.125,-0.075
1.744,-0.110,-0.065
1.746,-0.135,-0.060
1.748,-0.115,-0.060
1.750,-0.145,-0.060
1.752,-0.155,-0.070
1.754,-0.140,-0.085
1.756,-0.185,-0.095
1.758,-0.165,-0.095
1.760,-0.175,-0.085
1.762,-0.065,-0.055
1.764,-0.080,-0.005
1.766,-0.045,0.065
1.768,0.085,0.155
1.770,0.165,0.250
1.772,0.305,0.335
1.774,0.400,0.405
1.776,0.460,0.440
1.778,0.495,0.440
1.780,0.410,0.395
1.782,0.260,0.320
1.784,0.105,0.220
1.786,-0.085,0.105
1.788,-0.200,0.000
1.790,-0.235,-0.090
1.792,-0.300,-0.155
1.794,-0.220,-0.195
1.796,-0.210,-0.200
1.798,-0.180,-0.185
1.800,-0.160,-0.160
1.802,-0.160,-0.130
1.804,-0.190,-0.100
1.806,-0.175,-0.085
1.808,-0.165,-0.075
1.810,-0.180,-0.075
1.812,-0.160,-0.085
1.814,-0.100,-0.090
1.816,-0.185,-0.100
1.818,-0.180,-0.100
1.820,-0.130,-0.095
1.822,-0.130,-0.085
1.824,-0.135,-0.070
1.826,-0.120,-0.055
1.828,-0.090,-0.040
1.830,-0.125,-0.030
1.832,-0.115,-0.020
1.834,-0.020,-0.020
1.836,-0.090,-0.020
1.838,-0.145,-0.025
1.840,-0.120,-0.035
1.842,-0.155,-0.045
1.844,-0.120,-0.050
1.846,-0.095,-0.055
1.848,-0.105,-0.060
1.850,-0.110,-0.055
1.852,-0.110,-0.050
1.854,-0.095,-0.045
1.856,-0.100,-0.035
1.858,-0.085,-0.025
1.860,-0.085,-0.015
1.862,-0.090,-0.010
1.864,-0.105,-0.005
1.866,-0.090,-0.005
1.868,-0.105,-0.010
1.870,-0.110,-0.015
1.872,-0.095,-0.020
1.874,-0.115,-0.025
1.876,-0.140,-0.025
1.878,-0.140,-0.025
1.880,-0.050,-0.020
1.882,-0.045,-0.010
1.884,-0.085,-0.005
1.886,-0.095,0.005
1.888,-0.100,0.010
1.890,-0.075,0.010
1.892,0.000,0.010
1.894,-0.075,0.005
1.896,-0.090,-0.005
1.898,-0.095,-0.010
1.900,-0.100,-0.015
1.902,-0.085,-0.015
1.904,-0.060,-0.010
1.906,-0.045,0.000
1.908,-0.045,0.010
1.910,-0.060,0.025
1.912,-0.035,0.040
1.914,-0.020,0.050
1.916,-0.015,0.060
1.918,-0.025,0.065
1.920,-0.015,0.065
1.922,-0.060,0.065
1.924,-0.030,0.060
1.926,0.020,0.055
1.928,0.035,0.050
1.930,-0.045,0.045
1.932,-0.025,0.045
1.934,-0.035,0.050
1.936,-0.040,0.055
1.938,-0.015,0.065
1.940,0.010,0.075
1.942,0.000,0.085
1.944,0.040,0.095
1.946,0.070,0.110
1.948,-0.020,0.120
1.950,-0.030,0.125
1.952,0.070,0.130
1.954,0.055,0.135
1.956,0.065,0.135
1.958,0.025,0.135
1.960,0.065,0.135
1.962,0.055,0.135
1.964,0.040,0.140
1.966,0.030,0.140
1.968,0.070,0.145
1.970,0.085,0.150
1.972,0.105,0.155
1.974,0.085,0.155
1.976,0.060,0.155
1.978,0.055,0.155
1.980,0.060,0.155
1.982,0.045,0.155
1.984,0.060,0.155
1.986,0.050,0.160
1.988,0.085,0.165
1.990,0.070,0.165
1.992,0.100,0.170
1.994,0.135,0.175
1.996,0.160,0.180
1.998,0.065,0.185
2.000,0.075,0.190
2.002,0.095,0.190
2.004,0.105,0.195
2.006,0.105,0.200
2.008,0.125,0.210
2.010,0.165,0.215
2.012,0.155,0.215
2.014,0.085,0.215
2.016,0.060,0.210
2.018,0.125,0.200
2.020,0.065,0.190
2.022,0.055,0.170
2.024,0.075,0.155
2.026,0.050,0.140
2.028,0.005,0.125
2.030,0.025,0.115
2.032,0.060,0.115
2.034,0.025,0.115
2.036,0.030,0.115
2.038,0.025,0.120
2.040,0.010,0.120
2.042,-0.010,0.120
2.044,0.020,0.115
2.046,0.000,0.105
2.048,-0.030,0.095
2.050,-0.030,0.085
2.052,-0.010,0.070
2.054,-0.040,0.055
2.056,-0.070,0.045
2.058,-0.085,0.030
2.060,-0.080,0.020
2.062,-0.100,0.015
2.064,-0.065,0.005
2.066,-0.110,0.000
2.068,-0.135,0.000
2.070,-0.110,0.000
2.072,-0.065,0.000
2.074,-0.080,0.000
2.076,-0.140,0.000
2.078,-0.095,0.000
2.080,-0.065,0.000
2.082,-0.100,-0.005
2.084,-0.115,-0.010
2.086,-0.175,-0.020
2.088,-0.190,-0.030
2.090,-0.160,-0.035
2.092,-0.120,-0.040
2.094,-0.120,-0.040
2.096,-0.090,-0.040
2.098,-0.080,-0.035
2.100,-0.145,-0.025
2.102,-0.105,-0.020
2.104,-0.105,-0.010
2.106,-0.105,-0.005
2.108,-0.100,-0.005
2.110,-0.110,-0.005
2.112,-0.145,-0.010
2.114,-0.160,-0.015
2.116,-0.115,-0.020
2.118,-0.095,-0.025
2.120,-0.125,-0.030
2.122,-0.100,-0.035
2.124,-0.130,-0.035
2.126,-0.150,-0.035
2.128,-0.160,-0.035
2.130,-0.200,-0.035
2.132,-0.160,-0.035
2.134,-0.150,-0.040
2.136,-0.115,-0.040
2.138,-0.105,-0.045
2.140,-0.170,-0.045
2.142,-0.145,-0.045
2.144,-0.125,-0.045
2.146,-0.175,-0.045
2.148,-0.170,-0.040
2.150,-0.115,-0.040
2.152,-0.110,-0.035
2.154,-0.130,-0.030
2.156,-0.120,-0.030
2.158,-0.145,-0.030
2.160,-0.165,-0.030
2.162,-0.150,-0.035
2.164,-0.145,-0.035
2.166,-0.140,-0.040
2.168,-0.175,-0.040
2.170,-0.140,-0.045
2.172,-0.120,-0.040
2.174,-0.135,-0.040
2.176,-0.125,-0.035
2.178,-0.135,-0.025
2.180,-0.155,-0.020
2.182,-0.135,-0.015
2.184,-0.140,-0.010
2.186,-0.140,-0.010
2.188,-0.160,-0.010
2.190,-0.145,-0.015
2.192,-0.160,-0.020
2.194,-0.085,-0.025
2.196,-0.140,-0.030
2.198,-0.105,-0.035
2.200,-0.075,-0.040
2.202,-0.175,-0.040
2.204,-0.175,-0.040
2.206,-0.145,-0.035
2.208,-0.175,-0.030
2.210,-0.130,-0.030
2.212,-0.115,-0.025
2.214,-0.135,-0.020
2.216,-0.120,-0.020
2.218,-0.080,-0.015
2.220,-0.090,-0.015
2.222,-0.120,-0.010
2.224,-0.185,-0.010
2.226,-0.145,-0.010
2.228,-0.160,-0.015
2.230,-0.175,-0.020
2.232,-0.165,-0.025
2.234,-0.155,-0.035
2.236,-0.150,-0.045
2.238,-0.140,-0.050
2.240,-0.175,-0.055
2.242,-0.165,-0.060
2.244,-0.150,-0.060
2.246,-0.175,-0.055
2.248,-0.220,-0.050
2.250,-0.150,-0.045
2.252,-0.150,-0.040
2.254,-0.170,-0.040
2.256,-0.160,-0.045
2.258,-0.130,-0.050
2.260,-0.150,-0.055
2.262,-0.180,-0.060
2.264,-0.180,-0.065
2.266,-0.180,-0.060
2.268,-0.160,-0.055
2.270,-0.095,-0.050
2.272,-0.150,-0.040
2.274,-0.195,-0.035
2.276,-0.185,-0.030
2.278,-0.115,-0.030
2.280,-0.150,-0.035
2.282,-0.115,-0.045
2.284,-0.150,-0.050
2.286,-0.200,-0.055
2.288,-0.205,-0.060
2.290,-0.160,-0.060
2.292,-0.145,-0.055
2.294,-0.175,-0.045
2.296,-0.115,-0.035
2.298,-0.130,-0.030
2.300,-0.120,-0.020
2.302,-0.150,-0.015
2.304,-0.190,-0.020
2.306,-0.135,-0.020
2.308,-0.090,-0.030
2.310,-0.180,-0.040
2.312,-0.180,-0.050
2.314,-0.175,-0.055
2.316,-0.135,-0.065
2.318,-0.130,-0.065
2.320,-0.125,-0.065
2.322,-0.180,-0.065
2.324,-0.195,-0.060
2.326,-0.200,-0.050
2.328,-0.160,-0.045
2.330,-0.120,-0.040
2.332,-0.140,-0.035
2.334,-0.165,-0.035
2.336,-0.185,-0.040
2.338,-0.150,-0.045
2.340,-0.130,-0.050
2.342,-0.155,-0.055
2.344,-0.225,-0.060
2.346,-0.200,-0.060
2.348,-0.165,-0.055
2.350,-0.100,-0.050
2.352,-0.135,-0.040
2.354,-0.160,-0.035
2.356,-0.135,-0.030
2.358,-0.135,-0.030
2.360,-0.180,-0.030
2.362,-0.185,-0.035
2.364,-0.190,-0.040
2.366,-0.165,-0.045
2.368,-0.140,-0.045
2.370,-0.130,-0.045
2.372,-0.145,-0.045
2.374,-0.170,-0.045
2.376,-0.165,-0.040
2.378,-0.175,-0.040
2.380,-0.120,-0.040
2.382,-0.140,-0.040
2.384,-0.195,-0.045
2.386,-0.165,-0.040
2.388,-0.155,-0.040
2.390,-0.110,-0.035
2.392,-0.130,-0.025
2.394,-0.115,-0.020
2.396,-0.090,-0.010
2.398,-0.110,-0.005
2.400,-0.170,0.000
2.402,-0.145,0.000
2.404,-0.110,0.000
2.406,-0.130,0.000
2.408,-0.090,0.000
2.410,-0.110,0.005
2.412,-0.100,0.010
2.414,-0.040,0.020
2.416,-0.025,0.030
2.418,-0.090,0.040
2.420,-0.080,0.050
2.422,-0.070,0.055
2.424,-0.015,0.060
2.426,-0.105,0.055
2.428,-0.055,0.055
2.430,-0.050,0.045
2.432,-0.090,0.040
2.434,-0.080,0.030
2.436,-0.050,0.025
2.438,-0.095,0.020
2.440,-0.125,0.015
2.442,-0.115,0.010
2.444,-0.125,0.005
2.446,-0.155,0.000
2.448,-0.155,0.000
2.450,-0.170,-0.005
2.452,-0.085,-0.010
2.454,-0.085,-0.015
2.456,-0.075,-0.025
2.458,-0.180,-0.030
2.460,-0.210,-0.040
2.462,-0.185,-0.050
2.464,-0.120,-0.055
2.466,-0.195,-0.060
2.468,-0.160,-0.060
2.470,-0.150,-0.060
2.472,-0.170,-0.055
2.474,-0.185,-0.045
2.476,-0.130,-0.035
2.478,-0.155,-0.030
2.480,-0.175,-0.025
2.482,-0.190,-0.025
2.484,-0.130,-0.030
2.486,-0.165,-0.035
2.488,-0.165,-0.045
2.490,-0.160,-0.055
2.492,-0.195,-0.060
2.494,-0.165,-0.065
2.496,-0.145,-0.065
2.498,-0.135,-0.060
2.500,-0.180,-0.060
2.502,-0.215,-0.060
2.504,-0.195,-0.065
2.506,-0.175,-0.075
2.508,-0.160,-0.090
2.510,-0.230,-0.100
2.512,-0.220,-0.100
2.514,-0.180,-0.090
2.516,-0.160,-0.055
2.518,-0.090,0.000
2.520,-0.010,0.080
2.522,0.025,0.170
2.524,0.120,0.265
2.526,0.290,0.355
2.528,0.380,0.420
2.530,0.420,0.450
2.532,0.420,0.445
2.534,0.305,0.395
2.536,0.210,0.315
2.538,0.120,0.215
2.540,-0.095,0.100
2.542,-0.275,-0.005
2.544,-0.225,-0.090
2.546,-0.315,-0.155
2.548,-0.295,-0.185
2.550,-0.255,-0.195
2.552,-0.220,-0.180
2.554,-0.255,-0.160
2.556,-0.235,-0.130
2.558,-0.245,-0.110
2.560,-0.215,-0.095
2.562,-0.185,-0.090
2.564,-0.170,-0.090
2.566,-0.200,-0.090
2.568,-0.190,-0.090
2.570,-0.190,-0.090
2.572,-0.195,-0.085
2.574,-0.250,-0.075
2.576,-0.185,-0.065
2.578,-0.105,-0.055
2.580,-0.110,-0.050
2.582,-0.185,-0.045
2.584,-0.165,-0.045
2.586,-0.190,-0.050
2.588,-0.175,-0.050
2.590,-0.170,-0.050
2.592,-0.175,-0.050
2.594,-0.185,-0.045
2.596,-0.120,-0.035
2.598,-0.130,-0.030
2.600,-0.130,-0.025
2.602,-0.155,-0.020
2.604,-0.190,-0.020
2.606,-0.185,-0.025
2.608,-0.130,-0.035
2.610,-0.145,-0.045
2.612,-0.160,-0.050
2.614,-0.145,-0.055
2.616,-0.155,-0.055
2.618,-0.160,-0.050
2.620,-0.130,-0.045
2.622,-0.145,-0.035
2.624,-0.130,-0.020
2.626,-0.115,-0.010
2.628,-0.085,0.000
2.630,-0.095,0.000
2.632,-0.125,0.005
2.634,-0.115,0.000
2.636,-0.120,-0.010
2.638,-0.115,-0.020
2.640,-0.135,-0.025
2.642,-0.180,-0.035
2.644,-0.160,-0.040
2.646,-0.160,-0.040
2.648,-0.130,-0.035
2.650,-0.105,-0.030
2.652,-0.110,-0.020
2.654,-0.100,-0.015
2.656,-0.090,-0.005
2.658,-0.115,0.005
2.660,-0.105,0.010
2.662,-0.115,0.015
2.664,-0.100,0.020
2.666,-0.065,0.020
2.668,-0.050,0.025
2.670,-0.115,0.030
2.672,-0.050,0.030
2.674,-0.065,0.035
2.676,-0.080,0.040
2.678,-0.110,0.045
2.680,-0.060,0.045
2.682,-0.080,0.045
2.684,-0.115,0.045
2.686,-0.015,0.050
2.688,-0.040,0.050
2.690,-0.025,0.055
2.692,-0.040,0.060
2.694,-0.015,0.070
2.696,0.005,0.080
2.698,-0.030,0.090
2.700,0.000,0.100
2.702,-0.040,0.105
2.704,-0.040,0.110
2.706,-0.005,0.115
2.708,-0.005,0.115
2.710,0.065,0.110
2.712,0.045,0.110
2.714,0.010,0.115
2.716,0.020,0.115
2.718,0.015,0.125
2.720,0.030,0.135
2.722,0.055,0.145
2.724,0.060,0.155
2.726,0.045,0.160
2.728,0.075,0.165
2.730,0.080,0.165
2.732,0.045,0.160
2.734,0.075,0.155
2.736,0.055,0.150
2.738,0.010,0.145
2.740,0.045,0.145
2.742,0.060,0.150
2.744,0.040,0.160
2.746,0.095,0.170
2.748,0.085,0.175
2.750,0.090,0.185
2.752,0.070,0.190
2.754,0.115,0.190
2.756,0.090,0.185
2.758,0.055,0.180
2.760,0.060,0.175
2.762,0.080,0.175
2.764,0.065,0.170
2.766,0.100,0.170
2.768,0.095,0.175
2.770,0.075,0.180
2.772,0.085,0.180
2.774,0.090,0.180
2.776,0.055,0.175
2.778,0.040,0.160
2.780,0.005,0.145
2.782,0.045,0.130
2.784,0.065,0.115
2.786,0.005,0.100
2.788,0.010,0.095
2.790,-0.010,0.090
2.792,-0.020,0.095
2.794,0.035,0.095
2.796,0.010,0.100
2.798,-0.015,0.100
2.800,0.000,0.100
2.802,-0.035,0.090
2.804,-0.055,0.080
2.806,-0.070,0.060
2.808,-0.070,0.045
2.810,-0.055,0.025
2.812,-0.055,0.005
2.814,-0.040,-0.005
2.816,-0.145,-0.015
2.818,-0.125,-0.025
2.820,-0.110,-0.025
2.822,-0.135,-0.030
2.824,-0.140,-0.030
2.826,-0.105,-0.035
2.828,-0.120,-0.035
2.830,-0.120,-0.040
2.832,-0.145,-0.050
2.834,-0.150,-0.055
2.836,-0.170,-0.060
2.838,-0.155,-0.060
2.840,-0.145,-0.060
2.842,-0.120,-0.055
2.844,-0.105,-0.050
2.846,-0.060,-0.045
2.848,-0.145,-0.040
2.850,-0.160,-0.040
2.852,-0.110,-0.040
2.854,-0.140,-0.045
2.856,-0.180,-0.055
2.858,-0.205,-0.065
2.860,-0.190,-0.075
2.862,-0.180,-0.080
2.864,-0.150,-0.080
2.866,-0.155,-0.075
2.868,-0.170,-0.065
2.870,-0.090,-0.055
2.872,-0.080,-0.045
2.874,-0.155,-0.035
2.876,-0.170,-0.035
2.878,-0.115,-0.040
2.880,-0.115,-0.050
2.882,-0.190,-0.060
2.884,-0.190,-0.075
2.886,-0.205,-0.090
2.888,-0.185,-0.095
2.890,-0.170,-0.095
2.892,-0.140,-0.090
2.894,-0.145,-0.085
2.896,-0.160,-0.070
2.898,-0.135,-0.060
2.900,-0.160,-0.050
2.902,-0.210,-0.045
2.904,-0.150,-0.045
2.906,-0.165,-0.050
2.908,-0.120,-0.055
2.910,-0.115,-0.060
2.912,-0.110,-0.065
2.914,-0.170,-0.070
2.916,-0.205,-0.070
2.918,-0.175,-0.070
2.920,-0.165,-0.070
2.922,-0.160,-0.065
2.924,-0.160,-0.060
2.926,-0.115,-0.060
2.928,-0.140,-0.055
2.930,-0.165,-0.060
2.932,-0.120,-0.060
2.934,-0.140,-0.065
2.936,-0.190,-0.070
2.938,-0.175,-0.075
2.940,-0.140,-0.080
2.942,-0.170,-0.080
2.944,-0.190,-0.075
2.946,-0.150,-0.075
2.948,-0.150,-0.065
2.950,-0.110,-0.060
2.952,-0.120,-0.055
2.954,-0.190,-0.050
2.956,-0.120,-0.050
2.958,-0.135,-0.050
2.960,-0.145,-0.060
2.962,-0.215,-0.070
2.964,-0.185,-0.080
2.966,-0.105,-0.085
2.968,-0.170,-0.095
2.970,-0.145,-0.095
2.972,-0.140,-0.090
2.974,-0.105,-0.085
2.976,-0.125,-0.075
2.978,-0.165,-0.065
2.980,-0.180,-0.060
2.982,-0.150,-0.055
2.984,-0.155,-0.055
2.986,-0.150,-0.065
2.988,-0.125,-0.070
2.990,-0.165,-0.080
2.992,-0.170,-0.090
2.994,-0.170,-0.095
2.996,-0.155,-0.100
2.998,-0.145,-0.100
3.000,-0.125,-0.095
3.002,-0.175,-0.090
3.004,-0.185,-0.085
3.006,-0.160,-0.080
3.008,-0.120,-0.080
3.010,-0.160,-0.085
3.012,-0.185,-0.090
3.014,-0.190,-0.095
3.016,-0.165,-0.100
3.018,-0.155,-0.100
3.020,-0.140,-0.100
3.022,-0.190,-0.090
3.024,-0.210,-0.085
3.026,-0.165,-0.075
3.028,-0.105,-0.070
3.030,-0.120,-0.065
3.032,-0.140,-0.065
3.034,-0.140,-0.070
3.036,-0.160,-0.075
3.038,-0.180,-0.085
3.040,-0.180,-0.090
3.042,-0.150,-0.100
3.044,-0.180,-0.100
3.046,-0.175,-0.100
3.048,-0.125,-0.100
3.050,-0.135,-0.095
3.052,-0.145,-0.090
3.054,-0.145,-0.085
3.056,-0.190,-0.085
3.058,-0.175,-0.080
3.060,-0.145,-0.080
3.062,-0.165,-0.085
3.064,-0.120,-0.080
3.066,-0.145,-0.080
3.068,-0.115,-0.075
3.070,-0.145,-0.070
3.072,-0.160,-0.065
3.074,-0.200,-0.060
3.076,-0.120,-0.055
3.078,-0.130,-0.055
3.080,-0.155,-0.060
3.082,-0.160,-0.065
3.084,-0.120,-0.070
3.086,-0.110,-0.080
3.088,-0.100,-0.090
3.090,-0.170,-0.095
3.092,-0.185,-0.095
3.094,-0.170,-0.090
3.096,-0.135,-0.085
3.098,-0.135,-0.075
3.100,-0.150,-0.060
3.102,-0.125,-0.050
3.104,-0.095,-0.045
3.106,-0.100,-0.040
3.108,-0.105,-0.040
3.110,-0.110,-0.045
3.112,-0.115,-0.050
3.114,-0.165,-0.060
3.116,-0.130,-0.075
3.118,-0.145,-0.080
3.120,-0.170,-0.090
3.122,-0.145,-0.095
3.124,-0.170,-0.100
3.126,-0.170,-0.100
3.128,-0.135,-0.100
3.130,-0.175,-0.095
3.132,-0.120,-0.095
3.134,-0.160,-0.090
3.136,-0.160,-0.090
3.138,-0.140,-0.085
3.140,-0.095,-0.080
3.142,-0.155,-0.080
3.144,-0.130,-0.075
3.146,-0.130,-0.070
3.148,-0.115,-0.070
3.150,-0.125,-0.075
3.152,-0.105,-0.075
3.154,-0.085,-0.080
3.156,-0.175,-0.080
3.158,-0.165,-0.080
3.160,-0.185,-0.075
3.162,-0.140,-0.070
3.164,-0.065,-0.055
3.166,-0.090,-0.045
3.168,-0.100,-0.030
3.170,-0.095,-0.020
3.172,-0.025,-0.010
3.174,-0.030,-0.005
3.176,-0.090,-0.005
3.178,-0.095,-0.010
3.180,-0.100,-0.015
3.182,-0.145,-0.015
3.184,-0.050,-0.020
3.186,-0.025,-0.015
3.188,-0.040,-0.010
3.190,-0.025,0.000
3.192,-0.055,0.010
3.194,-0.050,0.020
3.196,-0.020,0.030
3.198,0.000,0.035
3.200,0.000,0.035
3.202,0.000,0.030
3.204,-0.075,0.025
3.206,-0.075,0.020
3.208,-0.035,0.015
3.210,-0.060,0.010
3.212,-0.070,0.005
3.214,-0.075,0.005
3.216,-0.030,0.000
3.218,-0.055,-0.005
3.220,-0.075,-0.015
3.222,-0.060,-0.025
3.224,-0.095,-0.035
3.226,-0.135,-0.040
3.228,-0.125,-0.050
3.230,-0.135,-0.055
3.232,-0.070,-0.060
3.234,-0.055,-0.060
3.236,-0.110,-0.060
3.238,-0.125,-0.055
3.240,-0.130,-0.050
3.242,-0.110,-0.050
3.244,-0.070,-0.050
3.246,-0.080,-0.050
3.248,-0.115,-0.050
3.250,-0.090,-0.050
3.252,-0.105,-0.050
3.254,-0.100,-0.050
3.256,-0.120,-0.050
3.258,-0.125,-0.050
3.260,-0.155,-0.055
3.262,-0.095,-0.055
3.264,-0.110,-0.055
3.266,-0.115,-0.055
3.268,-0.120,-0.050
3.270,-0.065,-0.045
3.272,-0.065,-0.035
3.274,-0.090,-0.030
3.276,-0.085,-0.020
3.278,-0.065,-0.020
3.280,-0.095,-0.020
3.282,-0.040,-0.025
3.284,-0.070,-0.030
3.286,-0.090,-0.025
3.288,-0.085,-0.015
3.290,-0.020,0.010
3.292,-0.015,0.050
3.294,0.045,0.110
3.296,0.155,0.185
3.298,0.220,0.265
3.300,0.300,0.335
3.302,0.430,0.390
3.304,0.470,0.410
3.306,0.420,0.395
3.308,0.325,0.345
3.310,0.200,0.255
3.312,-0.010,0.150
3.314,-0.095,0.035
3.316,-0.175,-0.075
3.318,-0.245,-0.165
3.320,-0.345,-0.225
3.322,-0.335,-0.250
3.324,-0.225,-0.250
3.326,-0.180,-0.230
3.328,-0.175,-0.195
3.330,-0.205,-0.160
3.332,-0.205,-0.135
3.334,-0.200,-0.115
3.336,-0.160,-0.110
3.338,-0.130,-0.110
3.340,-0.175,-0.110
3.342,-0.100,-0.110
3.344,-0.100,-0.105
3.346,-0.125,-0.090
3.348,-0.095,-0.070
3.350,-0.055,-0.055
3.352,-0.135,-0.035
3.354,-0.060,-0.025
3.356,-0.085,-0.020
3.358,-0.120,-0.020
3.360,-0.125,-0.030
3.362,-0.055,-0.035
3.364,-0.010,-0.040
3.366,-0.050,-0.040
3.368,-0.055,-0.035
3.370,-0.020,-0.025
3.372,-0.045,-0.010
3.374,-0.055,0.000
3.376,-0.050,0.010
3.378,-0.065,0.015
3.380,-0.055,0.015
3.382,-0.030,0.010
3.384,-0.020,0.000
3.386,-0.035,-0.010
3.388,-0.020,-0.020
3.390,-0.020,-0.030
3.392,-0.120,-0.035
3.394,-0.075,-0.035
3.396,-0.015,-0.030
3.398,-0.105,-0.025
3.400,-0.080,-0.015
3.402,-0.035,-0.010
3.404,-0.040,0.000
3.406,0.010,0.005
3.408,-0.015,0.010
3.410,-0.020,0.010
3.412,-0.040,0.010
3.414,-0.035,0.010
3.416,-0.015,0.010
3.418,-0.010,0.010
3.420,-0.050,0.015
3.422,-0.030,0.015
3.424,-0.055,0.020
3.426,0.015,0.025
3.428,0.015,0.030
3.430,0.040,0.035
3.432,0.010,0.040
3.434,-0.035,0.045
3.436,-0.005,0.045
3.438,-0.020,0.045
3.440,-0.030,0.045
3.442,0.030,0.045
3.444,0.030,0.045
3.446,0.045,0.045
3.448,0.060,0.050
3.450,0.025,0.055
3.452,-0.020,0.060
3.454,0.020,0.070
3.456,0.030,0.080
3.458,0.110,0.090
3.460,0.080,0.095
3.462,0.055,0.100
3.464,0.045,0.100
3.466,0.065,0.100
3.468,0.035,0.100
3.470,0.070,0.095
3.472,0.030,0.095
3.474,0.110,0.095
3.476,0.090,0.100
3.478,0.090,0.105
3.480,0.085,0.115
3.482,0.140,0.120
3.484,0.075,0.120
3.486,0.085,0.125
3.488,0.065,0.120
3.490,0.080,0.120
3.492,0.115,0.115
3.494,0.085,0.115
3.496,0.115,0.115
3.498,0.075,0.115
3.500,0.030,0.120
3.502,0.115,0.130
3.504,0.135,0.135
3.506,0.130,0.140
3.508,0.070,0.145
3.510,0.120,0.150
3.512,0.110,0.150
3.514,0.125,0.150
3.516,0.145,0.150
3.518,0.135,0.150
3.520,0.155,0.155
3.522,0.150,0.155
3.524,0.140,0.155
3.526,0.145,0.160
3.528,0.170,0.160
3.530,0.170,0.160
3.532,0.095,0.160
3.534,0.105,0.155
3.536,0.140,0.155
3.538,0.130,0.160
3.540,0.135,0.165
3.542,0.175,0.170
3.544,0.160,0.175
3.546,0.125,0.175
3.548,0.155,0.180
3.550,0.140,0.175
3.552,0.120,0.170
3.554,0.125,0.165
3.556,0.120,0.155
3.558,0.100,0.145
3.560,0.120,0.135
3.562,0.165,0.130
3.564,0.090,0.125
3.566,0.075,0.120
3.568,0.100,0.115
3.570,0.075,0.115
3.572,0.050,0.110
3.574,0.030,0.100
3.576,0.040,0.090
3.578,0.090,0.080
3.580,0.065,0.070
3.582,0.055,0.060
3.584,0.030,0.055
3.586,0.030,0.050
3.588,0.040,0.050
3.590,0.005,0.050
3.592,0.010,0.050
3.594,0.010,0.055
3.596,0.010,0.055
3.598,0.010,0.050
3.600,0.005,0.045
3.602,0.005,0.040
3.604,-0.025,0.030
3.606,-0.035,0.020
3.608,-0.035,0.010
3.610,-0.060,0.000
3.612,0.015,-0.005
3.614,-0.020,-0.010
3.616,-0.010,-0.015
3.618,-0.065,-0.015
3.620,-0.040,-0.015
3.622,-0.010,-0.010
3.624,-0.015,-0.005
3.626,0.005,0.000
3.628,0.025,0.000
3.630,0.000,0.000
3.632,0.010,0.000
3.634,-0.075,-0.005
3.636,-0.105,-0.010
3.638,-0.100,-0.015
3.640,-0.005,-0.020
3.642,-0.025,-0.025
3.644,-0.015,-0.025
3.646,-0.040,-0.025
3.648,-0.050,-0.020
3.650,-0.035,-0.015
3.652,-0.005,-0.010
3.654,-0.015,-0.005
3.656,-0.055,0.000
3.658,-0.030,0.000
3.660,-0.015,0.000
3.662,-0.025,0.000
3.664,-0.010,-0.005
3.666,-0.005,-0.005
3.668,-0.010,-0.005
3.670,-0.035,-0.005
3.672,-0.020,-0.005
3.674,-0.010,-0.005
3.676,-0.040,-0.005
3.678,-0.025,-0.005
3.680,-0.030,-0.005
3.682,-0.005,-0.010
3.684,-0.040,-0.015
3.686,-0.050,-0.020
3.688,-0.035,-0.025
3.690,-0.115,-0.030
3.692,-0.030,-0.030
3.694,0.000,-0.025
3.696,-0.030,-0.020
3.698,-0.010,-0.010
3.700,0.025,0.000
3.702,-0.020,0.005
3.704,-0.025,0.010
3.706,-0.005,0.010
3.708,0.010,0.005
3.710,-0.010,0.000
3.712,-0.010,-0.010
3.714,0.015,-0.020
3.716,-0.060,-0.030
3.718,-0.065,-0.035
3.720,-0.050,-0.035
3.722,-0.070,-0.035
3.724,-0.020,-0.030
3.726,-0.015,-0.020
3.728,-0.030,-0.015
3.730,-0.015,-0.010
3.732,0.005,-0.005
3.734,-0.035,-0.005
3.736,-0.055,-0.005
3.738,-0.035,-0.010
3.740,0.015,-0.010
3.742,-0.030,-0.015
3.744,-0.020,-0.015
3.746,-0.030,-0.015
3.748,-0.050,-0.015
3.750,-0.035,-0.010
3.752,-0.055,-0.010
3.754,-0.020,-0.010
3.756,-0.025,-0.015
3.758,0.010,-0.015
3.760,0.010,-0.015
3.762,-0.060,-0.020
3.764,-0.120,-0.020
3.766,-0.020,-0.020
3.768,-0.060,-0.020
3.770,-0.060,-0.020
3.772,-0.005,-0.020
3.774,-0.045,-0.025
3.776,0.025,-0.025
3.778,-0.060,-0.030
3.780,-0.045,-0.035
3.782,0.010,-0.035
3.784,-0.080,-0.035
3.786,-0.025,-0.030
3.788,-0.075,-0.030
3.790,-0.065,-0.025
3.792,-0.020,-0.025
3.794,-0.030,-0.020
3.796,-0.025,-0.020
3.798,-0.035,-0.020
3.800,-0.015,-0.020
3.802,-0.055,-0.025
3.804,-0.040,-0.025
3.806,-0.030,-0.030
3.808,-0.030,-0.035
3.810,-0.075,-0.035
3.812,-0.055,-0.040
3.814,-0.015,-0.040
3.816,-0.055,-0.040
3.818,-0.055,-0.040
3.820,-0.025,-0.035
3.822,-0.010,-0.030
3.824,0.005,-0.025
3.826,0.025,-0.020
3.828,-0.025,-0.015
3.830,-0.075,-0.015
3.832,-0.055,-0.015
3.834,-0.035,-0.025
3.836,-0.055,-0.035
3.838,-0.020,-0.045
3.840,-0.050,-0.055
3.842,-0.035,-0.060
3.844,-0.100,-0.065
3.846,-0.065,-0.060
3.848,-0.050,-0.055
3.850,-0.015,-0.045
3.852,-0.035,-0.030
3.854,-0.015,-0.015
3.856,-0.065,-0.010
3.858,-0.040,0.000
3.860,0.050,0.000
3.862,0.005,0.000
3.864,-0.030,0.000
3.866,0.015,-0.005
3.868,0.030,-0.005
3.870,-0.015,-0.005
3.872,-0.015,0.000
3.874,-0.025,0.000
3.876,-0.035,0.000
3.878,-0.035,0.000
3.880,-0.055,-0.005
3.882,-0.055,-0.015
3.884,-0.025,-0.025
3.886,0.000,-0.035
3.888,-0.045,-0.045
3.890,-0.060,-0.045
3.892,-0.060,-0.045
3.894,-0.040,-0.040
3.896,-0.030,-0.030
3.898,0.025,-0.020
3.900,0.005,-0.010
3.902,-0.045,0.005
3.904,-0.005,0.010
3.906,0.040,0.015
3.908,-0.010,0.020
3.910,0.030,0.020
3.912,0.020,0.015
3.914,-0.010,0.010
3.916,0.025,0.005
3.918,-0.020,0.005
3.920,-0.010,0.005
3.922,0.020,0.005
3.924,0.055,0.010
3.926,0.015,0.010
3.928,-0.010,0.015
3.930,0.020,0.020
3.932,0.025,0.025
3.934,0.010,0.035
3.936,0.050,0.040
3.938,0.060,0.045
3.940,0.055,0.045
3.942,0.080,0.050
3.944,0.020,0.050
3.946,0.075,0.045
3.948,0.035,0.040
3.950,0.000,0.035
3.952,0.005,0.025
3.954,0.005,0.015
3.956,-0.025,0.000
3.958,-0.065,-0.010
3.960,0.000,-0.015
3.962,0.020,-0.020
3.964,-0.025,-0.025
3.966,-0.030,-0.020
3.968,-0.040,-0.020
3.970,0.000,-0.020
3.972,0.005,-0.020
3.974,-0.030,-0.020
3.976,-0.015,-0.020
3.978,-0.020,-0.020
3.980,-0.010,-0.025
3.982,-0.020,-0.025
3.984,-0.090,-0.025
3.986,-0.035,-0.025
3.988,0.030,-0.030
3.990,0.000,-0.030
3.992,-0.060,-0.035
3.994,-0.075,-0.045
3.996,-0.075,-0.050
3.998,-0.055,-0.060
4.000,-0.060,-0.065
4.002,-0.055,-0.065
4.004,-0.060,-0.055
4.006,-0.045,-0.050
4.008,-0.055,-0.040
4.010,-0.035,-0.030
4.012,-0.030,-0.025
4.014,-0.035,-0.025
4.016,-0.055,-0.035
4.018,-0.035,-0.045
4.020,-0.035,-0.050
4.022,-0.070,-0.045
4.024,-0.115,-0.025
4.026,0.015,0.015
4.028,0.105,0.075
4.030,0.205,0.150
4.032,0.245,0.235
4.034,0.340,0.310
4.036,0.420,0.370
4.038,0.515,0.395
4.040,0.440,0.390
4.042,0.330,0.345
4.044,0.275,0.265
4.046,0.150,0.170
4.048,-0.050,0.070
4.050,-0.115,-0.025
4.052,-0.165,-0.100
4.054,-0.165,-0.150
4.056,-0.120,-0.170
4.058,-0.060,-0.170
4.060,-0.080,-0.155
4.062,-0.115,-0.130
4.064,-0.110,-0.105
4.066,-0.110,-0.085
4.068,-0.130,-0.070
4.070,-0.075,-0.065
4.072,-0.055,-0.060
4.074,-0.055,-0.060
4.076,-0.055,-0.055
4.078,-0.020,-0.050
4.080,-0.025,-0.040
4.082,-0.045,-0.030
4.084,0.010,-0.025
4.086,-0.020,-0.020
4.088,-0.070,-0.020
4.090,-0.030,-0.025
4.092,0.015,-0.030
4.094,-0.030,-0.035
4.096,0.005,-0.040
4.098,-0.005,-0.045
4.100,-0.070,-0.045
4.102,-0.085,-0.045
4.104,-0.015,-0.045
4.106,-0.025,-0.045
4.108,-0.045,-0.045
4.110,-0.025,-0.045
4.112,-0.075,-0.040
4.114,-0.040,-0.040
4.116,0.010,-0.030
4.118,-0.005,-0.025
4.120,0.060,-0.010
4.122,0.015,0.000
4.124,-0.015,0.005
4.126,-0.050,0.010
4.128,-0.030,0.010
4.130,0.020,0.005
4.132,0.040,-0.005
4.134,-0.010,-0.010
4.136,-0.015,-0.020
4.138,0.035,-0.020
4.140,0.025,-0.020
4.142,0.010,-0.015
4.144,0.015,-0.010
4.146,-0.010,0.000
4.148,-0.030,0.005
4.150,0.020,0.005
4.152,-0.020,0.005
4.154,-0.005,0.005
4.156,0.020,0.005
4.158,0.025,0.005
4.160,0.025,0.005
4.162,0.020,0.005
4.164,0.055,0.010
4.166,0.040,0.015
4.168,0.030,0.020
4.170,0.045,0.020
4.172,0.005,0.020
4.174,-0.010,0.020
4.176,0.050,0.015
4.178,0.010,0.020
4.180,0.015,0.025
4.182,0.060,0.030
4.184,0.120,0.040
4.186,0.095,0.050
4.188,0.100,0.060
4.190,0.055,0.065
4.192,0.015,0.065
4.194,0.040,0.065
4.196,0.115,0.060
4.198,0.050,0.055
4.200,0.075,0.055
4.202,0.065,0.055
4.204,0.110,0.055
4.206,0.075,0.065
4.208,0.120,0.075
4.210,0.110,0.085
4.212,0.125,0.095
4.214,0.110,0.105
4.216,0.075,0.110
4.218,0.100,0.110
4.220,0.125,0.110
4.222,0.145,0.110
4.224,0.170,0.110
4.226,0.140,0.110
4.228,0.115,0.115
4.230,0.120,0.120
4.232,0.095,0.130
4.234,0.150,0.135
4.236,0.180,0.140
4.238,0.180,0.145
4.240,0.135,0.145
4.242,0.130,0.145
4.244,0.170,0.140
4.246,0.155,0.140
4.248,0.170,0.135
4.250,0.185,0.135
4.252,0.135,0.135
4.254,0.140,0.135
4.256,0.165,0.135
4.258,0.135,0.135
4.260,0.170,0.140
4.262,0.165,0.140
4.264,0.165,0.145
4.266,0.185,0.150
4.268,0.205,0.155
4.270,0.175,0.160
4.272,0.180,0.165
4.274,0.160,0.170
4.276,0.175,0.170
4.278,0.170,0.165
4.280,0.225,0.155
4.282,0.155,0.150
4.284,0.180,0.140
4.286,0.115,0.130
4.288,0.130,0.120
4.290,0.125,0.115
4.292,0.115,0.110
4.294,0.120,0.110
4.296,0.115,0.110
4.298,0.110,0.105
4.300,0.120,0.100
4.302,0.115,0.095
4.304,0.100,0.085
4.306,0.055,0.075
4.308,0.065,0.060
4.310,0.090,0.050
4.312,0.110,0.045
4.314,0.070,0.040
4.316,0.090,0.035
4.318,0.050,0.030
4.320,0.030,0.025
4.322,0.040,0.015
4.324,-0.030,0.005
4.326,-0.050,-0.010
4.328,0.015,-0.020
4.330,0.050,-0.035
4.332,-0.015,-0.040
4.334,-0.005,-0.045
4.336,-0.005,-0.045
4.338,-0.005,-0.040
4.340,-0.035,-0.035
4.342,0.010,-0.030
4.344,0.025,-0.030
4.346,-0.060,-0.030
4.348,-0.060,-0.035
4.350,-0.060,-0.045
4.352,-0.050,-0.055
4.354,-0.055,-0.065
4.356,-0.080,-0.070
4.358,-0.065,-0.075
4.360,-0.025,-0.080
4.362,-0.015,-0.080
4.364,-0.015,-0.075
4.366,-0.040,-0.070
4.368,-0.060,-0.060
4.370,-0.035,-0.055
4.372,-0.060,-0.050
4.374,-0.065,-0.040
4.376,-0.020,-0.035
4.378,-0.010,-0.030
4.380,-0.020,-0.030
4.382,-0.030,-0.025
4.384,0.050,-0.025
4.386,-0.005,-0.025
4.388,-0.025,-0.025
4.390,0.025,-0.030
4.392,-0.040,-0.030
4.394,-0.050,-0.035
4.396,-0.020,-0.040
4.398,-0.045,-0.045
4.400,-0.045,-0.045
4.402,-0.065,-0.050
4.404,0.000,-0.050
4.406,0.000,-0.045
4.408,0.025,-0.045
4.410,-0.050,-0.045
4.412,-0.040,-0.045
4.414,0.000,-0.045
4.416,-0.025,-0.050
4.418,-0.050,-0.050
4.420,-0.020,-0.055
4.422,-0.060,-0.060
4.424,-0.050,-0.060
4.426,-0.020,-0.060
4.428,0.010,-0.055
4.430,0.000,-0.050
4.432,-0.065,-0.050
4.434,0.005,-0.045
4.436,0.005,-0.045
4.438,-0.050,-0.045
4.440,-0.040,-0.050
4.442,-0.005,-0.055
4.444,-0.055,-0.060
4.446,-0.055,-0.065
4.448,-0.035,-0.070
4.450,-0.050,-0.070
4.452,-0.020,-0.065
4.454,0.000,-0.060
4.456,-0.045,-0.055
4.458,-0.070,-0.050
4.460,-0.005,-0.045
4.462,0.005,-0.045
4.464,-0.035,-0.050
4.466,-0.080,-0.055
4.468,-0.015,-0.065
4.470,0.000,-0.075
4.472,-0.080,-0.080
4.474,-0.040,-0.080
4.476,-0.035,-0.075
4.478,-0.005,-0.070
4.480,-0.045,-0.060
4.482,-0.035,-0.050
4.484,-0.060,-0.040
4.486,0.010,-0.035
4.488,0.010,-0.040
4.490,-0.060,-0.045
4.492,-0.030,-0.055
4.494,-0.040,-0.065
4.496,-0.055,-0.075
4.498,-0.055,-0.080
4.500,-0.060,-0.080
4.502,-0.040,-0.075
4.504,-0.050,-0.065
4.506,-0.025,-0.055
4.508,0.010,-0.050
4.510,0.015,-0.045
4.512,-0.030,-0.045
4.514,-0.085,-0.045
4.516,-0.100,-0.055
4.518,-0.050,-0.065
4.520,-0.040,-0.075
4.522,0.000,-0.085
4.524,-0.055,-0.090
4.526,-0.030,-0.090
4.528,-0.065,-0.085
4.530,-0.090,-0.080
4.532,-0.075,-0.075
4.534,-0.025,-0.065
4.536,-0.015,-0.065
4.538,-0.030,-0.060
4.540,-0.040,-0.065
4.542,-0.020,-0.065
4.544,-0.055,-0.070
4.546,-0.055,-0.075
4.548,-0.080,-0.085
4.550,-0.050,-0.090
4.552,-0.035,-0.095
4.554,-0.020,-0.095
4.556,-0.085,-0.100
4.558,-0.065,-0.100
4.560,-0.065,-0.100
4.562,-0.065,-0.100
4.564,-0.045,-0.095
4.566,-0.015,-0.085
4.568,-0.005,-0.075
4.570,-0.065,-0.065
4.572,-0.055,-0.055
4.574,0.005,-0.045
4.576,0.000,-0.040
4.578,-0.020,-0.035
4.580,-0.055,-0.040
4.582,-0.090,-0.045
4.584,-0.005,-0.055
4.586,-0.025,-0.060
4.588,-0.045,-0.065
4.590,-0.040,-0.070
4.592,-0.050,-0.070
4.594,-0.030,-0.065
4.596,-0.045,-0.060
4.598,-0.075,-0.055
4.600,-0.025,-0.050
4.602,-0.020,-0.055
4.604,-0.040,-0.060
4.606,0.010,-0.065
4.608,-0.065,-0.075
4.610,-0.090,-0.085
4.612,-0.050,-0.090
4.614,-0.050,-0.095
4.616,-0.045,-0.090
4.618,-0.035,-0.085
4.620,0.010,-0.075
4.622,-0.050,-0.060
4.624,-0.035,-0.050
4.626,0.040,-0.035
4.628,0.035,-0.025
4.630,-0.015,-0.020
4.632,-0.055,-0.020
4.634,0.005,-0.020
4.636,0.010,-0.020
4.638,0.005,-0.020
4.640,0.010,-0.020
4.642,0.015,-0.020
4.644,0.015,-0.020
4.646,-0.020,-0.015
4.648,0.010,-0.010
4.650,-0.005,-0.005
4.652,0.050,0.005
4.654,0.065,0.015
4.656,0.055,0.030
4.658,0.095,0.040
4.660,0.125,0.045
4.662,0.130,0.050
4.664,0.095,0.050
4.666,0.075,0.040
4.668,-0.005,0.030
4.670,-0.030,0.010
4.672,0.015,-0.010
4.674,0.035,-0.025
4.676,0.015,-0.045
4.678,-0.035,-0.055
4.680,-0.020,-0.065
4.682,-0.005,-0.065
4.684,-0.055,-0.065
4.686,-0.015,-0.060
4.688,-0.010,-0.055
4.690,-0.035,-0.050
4.692,-0.020,-0.045
4.694,-0.030,-0.045
4.696,-0.045,-0.050
4.698,-0.020,-0.055
4.700,-0.010,-0.060
4.702,-0.070,-0.065
4.704,-0.030,-0.070
4.706,-0.040,-0.075
4.708,-0.025,-0.075
4.710,-0.055,-0.075
4.712,-0.075,-0.075
4.714,-0.060,-0.070
4.716,-0.055,-0.070
4.718,-0.055,-0.070
4.720,-0.030,-0.075
4.722,-0.065,-0.080
4.724,-0.025,-0.085
4.726,-0.045,-0.085
4.728,-0.050,-0.090
4.730,-0.040,-0.085
4.732,-0.050,-0.080
4.734,-0.030,-0.075
4.736,-0.060,-0.065
4.738,-0.040,-0.060
4.740,-0.005,-0.055
4.742,-0.010,-0.060
4.744,-0.050,-0.065
4.746,-0.100,-0.075
4.748,-0.070,-0.085
4.750,-0.070,-0.090
4.752,-0.030,-0.080
4.754,-0.020,-0.050
4.756,-0.035,0.000
4.758,0.075,0.065
4.760,0.195,0.145
4.762,0.295,0.230
4.764,0.380,0.305
4.766,0.455,0.355
4.768,0.480,0.380
4.770,0.430,0.365
4.772,0.350,0.310
4.774,0.310,0.225
4.776,0.105,0.115
4.778,-0.105,0.000
4.780,-0.190,-0.105
4.782,-0.250,-0.190
4.784,-0.235,-0.240
4.786,-0.155,-0.265
4.788,-0.200,-0.255
4.790,-0.145,-0.225
4.792,-0.110,-0.180
4.794,-0.075,-0.135
4.796,-0.080,-0.095
4.798,-0.100,-0.070
4.800,-0.020,-0.060
4.802,-0.055,-0.060
4.804,-0.075,-0.070
4.806,-0.035,-0.080
4.808,-0.040,-0.095
4.810,-0.075,-0.100
4.812,-0.065,-0.100
4.814,-0.060,-0.095
4.816,-0.015,-0.090
4.818,0.000,-0.080
4.820,-0.015,-0.075
4.822,-0.095,-0.075
4.824,-0.085,-0.070
4.826,-0.065,-0.070
4.828,-0.105,-0.075
4.830,0.005,-0.075
4.832,0.020,-0.075
4.834,-0.020,-0.070
4.836,-0.015,-0.070
4.838,0.000,-0.065
4.840,0.015,-0.065
4.842,-0.065,-0.060
4.844,-0.070,-0.060
4.846,-0.050,-0.055
4.848,-0.010,-0.055
4.850,-0.055,-0.050
4.852,0.035,-0.050
4.854,-0.010,-0.045
4.856,0.055,-0.045
4.858,-0.025,-0.045
4.860,-0.040,-0.045
4.862,-0.040,-0.040
4.864,0.020,-0.040
4.866,0.010,-0.035
4.868,-0.030,-0.030
4.870,-0.065,-0.025
4.872,0.025,-0.025
4.874,0.020,-0.020
4.876,-0.025,-0.020
4.878,-0.020,-0.020
4.880,0.040,-0.025
4.882,-0.010,-0.025
4.884,-0.015,-0.025
4.886,-0.010,-0.025
4.888,-0.020,-0.020
4.890,0.045,-0.010
4.892,0.065,0.000
4.894,0.070,0.015
4.896,0.040,0.025
4.898,0.135,0.035
4.900,0.075,0.040
4.902,-0.020,0.045
4.904,0.035,0.045
4.906,0.045,0.040
4.908,0.045,0.035
4.910,0.085,0.030
4.912,0.050,0.025
4.914,0.080,0.020
4.916,0.070,0.020
4.918,0.050,0.020
4.920,0.035,0.025
4.922,0.055,0.030
4.924,0.080,0.035
4.926,0.035,0.045
4.928,0.030,0.050
4.930,0.120,0.055
4.932,0.140,0.065
4.934,0.080,0.070
4.936,0.115,0.075
4.938,0.155,0.080
4.940,0.160,0.090
4.942,0.100,0.095
4.944,0.080,0.105
4.946,0.110,0.110
4.948,0.155,0.120
4.950,0.145,0.125
4.952,0.140,0.125
4.954,0.215,0.130
4.956,0.135,0.125
4.958,0.110,0.125
4.960,0.160,0.120
4.962,0.165,0.115
4.964,0.140,0.115
4.966,0.150,0.115
4.968,0.115,0.115
4.970,0.150,0.120
4.972,0.155,0.125
4.974,0.185,0.130
4.976,0.170,0.140
4.978,0.195,0.150
4.980,0.205,0.155
4.982,0.175,0.165
4.984,0.200,0.170
4.986,0.195,0.170
4.988,0.165,0.170
4.990,0.215,0.165
4.992,0.230,0.165
4.994,0.180,0.160
4.996,0.150,0.155
4.998,0.175,0.155
5.000,0.190,0.155
5.002,0.170,0.160
5.004,0.185,0.165
5.006,0.230,0.165
5.008,0.215,0.170
5.010,0.170,0.170
5.012,0.170,0.170
5.014,0.200,0.160
5.016,0.180,0.150
5.018,0.190,0.140
5.020,0.135,0.125
5.022,0.135,0.115
5.024,0.145,0.105
5.026,0.120,0.100
5.028,0.120,0.100
5.030,0.140,0.100
5.032,0.155,0.100
5.034,0.185,0.100
5.036,0.100,0.095
5.038,0.120,0.090
5.040,0.085,0.080
5.042,0.030,0.065
5.044,0.040,0.045
5.046,0.045,0.030
5.048,0.020,0.015
5.050,0.035,0.000
5.052,0.060,-0.005
5.054,0.045,-0.010
5.056,-0.025,-0.010
5.058,0.015,-0.010
5.060,0.010,-0.010
5.062,0.025,-0.010
5.064,-0.005,-0.015
5.066,0.000,-0.020
5.068,0.010,-0.020
5.070,0.025,-0.025
5.072,0.045,-0.030
5.074,0.005,-0.030
5.076,-0.010,-0.030
5.078,0.000,-0.030
5.080,-0.065,-0.030
5.082,-0.030,-0.030
5.084,0.040,-0.030
5.086,-0.015,-0.030
5.088,-0.045,-0.035
5.090,-0.020,-0.040
5.092,-0.025,-0.045
5.094,-0.005,-0.050
5.096,-0.065,-0.050
5.098,-0.015,-0.055
5.100,-0.035,-0.055
5.102,-0.015,-0.055
5.104,-0.045,-0.055
5.106,-0.090,-0.055
5.108,-0.060,-0.060
5.110,-0.025,-0.065
5.112,-0.035,-0.070
5.114,-0.075,-0.070
5.116,-0.015,-0.070
5.118,-0.005,-0.065
5.120,-0.060,-0.060
5.122,-0.050,-0.050
5.124,-0.025,-0.040
5.126,-0.025,-0.030
5.128,-0.035,-0.025
5.130,0.030,-0.025
5.132,-0.035,-0.025
5.134,0.010,-0.030
5.136,-0.030,-0.040
5.138,-0.045,-0.050
5.140,-0.070,-0.060
5.142,-0.055,-0.065
5.144,-0.050,-0.070
5.146,-0.035,-0.070
5.148,-0.055,-0.065
5.150,-0.025,-0.060
5.152,0.005,-0.055
5.154,0.005,-0.050
5.156,-0.045,-0.045
5.158,-0.035,-0.040
5.160,-0.065,-0.035
5.162,-0.015,-0.035
5.164,-0.035,-0.035
5.166,-0.075,-0.035
5.168,-0.030,-0.030
5.170,0.035,-0.030
5.172,0.010,-0.030
5.174,0.005,-0.030
5.176,0.010,-0.030
5.178,-0.005,-0.030
5.180,-0.040,-0.030
5.182,-0.030,-0.035
5.184,-0.065,-0.040
5.186,-0.080,-0.045
5.188,-0.050,-0.045
5.190,-0.035,-0.050
5.192,-0.025,-0.055
5.194,-0.025,-0.055
5.196,-0.025,-0.055
5.198,-0.060,-0.055
5.200,-0.050,-0.050
5.202,-0.075,-0.050
5.204,-0.035,-0.055
5.206,-0.065,-0.055
5.208,-0.030,-0.060
5.210,-0.005,-0.060
5.212,-0.040,-0.060
5.214,-0.030,-0.060
5.216,-0.025,-0.055
5.218,-0.080,-0.050
5.220,-0.050,-0.045
5.222,-0.005,-0.040
5.224,-0.020,-0.040
5.226,-0.060,-0.040
5.228,-0.080,-0.040
5.230,-0.030,-0.045
5.232,-0.065,-0.055
5.234,-0.035,-0.060
5.236,-0.015,-0.065
5.238,-0.030,-0.070
5.240,-0.065,-0.070
5.242,-0.075,-0.070
5.244,-0.120,-0.065
5.246,-0.095,-0.065
5.248,-0.025,-0.060
5.250,0.010,-0.060
5.252,-0.030,-0.065
5.254,-0.090,-0.065
5.256,-0.075,-0.070
5.258,-0.055,-0.070
5.260,-0.030,-0.070
5.262,-0.035,-0.065
5.264,-0.035,-0.060
5.266,-0.010,-0.055
5.268,-0.045,-0.050
5.270,-0.050,-0.045
5.272,-0.030,-0.045
5.274,-0.055,-0.050
5.276,-0.085,-0.060
5.278,-0.090,-0.070
5.280,-0.050,-0.075
5.282,-0.030,-0.085
5.284,-0.080,-0.085
5.286,-0.060,-0.085
5.288,-0.065,-0.075
5.290,-0.025,-0.065
5.292,-0.035,-0.055
5.294,-0.025,-0.040
5.296,-0.040,-0.030
5.298,-0.065,-0.030
5.300,-0.035,-0.030
5.302,-0.050,-0.035
5.304,-0.095,-0.045
5.306,-0.045,-0.055
5.308,0.000,-0.065
5.310,-0.015,-0.075
5.312,-0.100,-0.080
5.314,-0.105,-0.080
5.316,-0.060,-0.075
5.318,-0.060,-0.070
5.320,-0.065,-0.070
5.322,-0.070,-0.070
5.324,-0.080,-0.070
5.326,-0.080,-0.070
5.328,-0.060,-0.075
5.330,-0.020,-0.075
5.332,-0.100,-0.075
5.334,-0.085,-0.075
5.336,-0.030,-0.065
5.338,-0.060,-0.060
5.340,-0.050,-0.050
5.342,-0.030,-0.045
5.344,-0.065,-0.045
5.346,-0.085,-0.045
5.348,-0.065,-0.050
5.350,-0.035,-0.055
5.352,-0.060,-0.055
5.354,-0.035,-0.055
5.356,-0.010,-0.045
5.358,-0.035,-0.035
5.360,0.000,-0.020
5.362,-0.005,-0.010
5.364,-0.035,0.000
5.366,-0.045,0.005
5.368,-0.045,0.005
5.370,-0.005,0.000
5.372,0.000,-0.010
5.374,-0.040,-0.015
5.376,-0.025,-0.020
5.378,-0.055,-0.015
5.380,0.010,-0.010
5.382,-0.005,0.000
5.384,0.005,0.010
5.386,0.020,0.020
5.388,0.020,0.030
5.390,0.040,0.030
5.392,0.020,0.030
5.394,0.030,0.030
5.396,0.055,0.025
5.398,0.010,0.030
5.400,0.030,0.030
5.402,0.035,0.035
5.404,0.050,0.040
5.406,0.045,0.045
5.408,0.030,0.040
5.410,0.000,0.030
5.412,-0.050,0.010
5.414,-0.075,-0.015
5.416,-0.090,-0.040
5.418,-0.065,-0.065
5.420,-0.085,-0.085
5.422,-0.110,-0.100
5.424,-0.090,-0.100
5.426,-0.085,-0.095
5.428,-0.050,-0.080
5.430,-0.040,-0.065
5.432,-0.080,-0.055
5.434,-0.070,-0.045
5.436,-0.090,-0.045
5.438,-0.095,-0.045
5.440,-0.075,-0.055
5.442,-0.065,-0.060
5.444,-0.090,-0.065
5.446,-0.065,-0.070
5.448,-0.095,-0.070
5.450,-0.060,-0.070
5.452,-0.060,-0.065
5.454,-0.035,-0.060
5.456,-0.015,-0.060
5.458,-0.080,-0.060
5.460,-0.125,-0.060
5.462,-0.095,-0.060
5.464,-0.075,-0.060
5.466,-0.090,-0.060
5.468,-0.090,-0.060
5.470,-0.085,-0.060
5.472,-0.115,-0.065
5.474,-0.090,-0.070
5.476,-0.090,-0.070
5.478,-0.060,-0.065
5.480,-0.070,-0.050
5.482,-0.010,-0.015
5.484,0.035,0.040
5.486,0.065,0.110
5.488,0.190,0.195
5.490,0.245,0.280
5.492,0.365,0.360
5.494,0.485,0.420
5.496,0.545,0.445
5.498,0.450,0.435
5.500,0.400,0.380
5.502,0.285,0.295
5.504,0.100,0.190
5.506,-0.055,0.075
5.508,-0.160,-0.030
5.510,-0.190,-0.115
5.512,-0.210,-0.175
5.514,-0.185,-0.200
5.516,-0.140,-0.200
5.518,-0.185,-0.180
5.520,-0.140,-0.150
5.522,-0.130,-0.120
5.524,-0.135,-0.090
5.526,-0.100,-0.070
5.528,-0.080,-0.060
5.530,-0.095,-0.060
5.532,-0.110,-0.065
5.534,-0.075,-0.065
5.536,-0.030,-0.070
5.538,-0.020,-0.070
5.540,-0.100,-0.070
5.542,-0.190,-0.070
5.544,-0.130,-0.065
5.546,-0.045,-0.065
5.548,-0.025,-0.060
5.550,-0.105,-0.060
5.552,-0.045,-0.055
5.554,-0.045,-0.050
5.556,-0.120,-0.045
5.558,-0.050,-0.040
5.560,-0.065,-0.035
5.562,-0.055,-0.030
5.564,-0.080,-0.030
5.566,-0.050,-0.030
5.568,-0.070,-0.035
5.570,-0.040,-0.035
5.572,-0.055,-0.035
5.574,-0.095,-0.035
5.576,-0.060,-0.025
5.578,-0.035,-0.020
5.580,-0.040,-0.010
5.582,-0.055,-0.005
5.584,-0.045,0.000
5.586,0.000,0.000
5.588,0.025,0.000
5.590,0.060,0.000
5.592,-0.065,-0.005
5.594,-0.065,-0.010
5.596,-0.035,-0.015
5.598,-0.025,-0.015
5.600,-0.050,-0.010
5.602,-0.075,-0.010
5.604,-0.050,-0.005
5.606,-0.030,0.000
5.608,-0.030,0.000
5.610,-0.005,0.005
5.612,-0.025,0.010
5.614,-0.005,0.010
5.616,0.030,0.015
5.618,0.055,0.020
5.620,-0.055,0.025
5.622,-0.015,0.030
5.624,-0.030,0.035
5.626,-0.035,0.040
5.628,-0.035,0.045
5.630,0.005,0.050
5.632,0.035,0.055
5.634,0.030,0.055
5.636,0.020,0.060
5.638,0.050,0.060
5.640,0.060,0.065
5.642,0.025,0.065
5.644,0.020,0.065
5.646,0.020,0.070
5.648,0.060,0.070
5.650,0.105,0.080
5.652,0.035,0.085
5.654,0.015,0.095
5.656,0.025,0.100
5.658,0.115,0.110
5.660,0.095,0.115
5.662,0.065,0.120
5.664,0.045,0.120
5.666,0.040,0.120
5.668,0.040,0.120
5.670,0.060,0.115
5.672,0.085,0.115
5.674,0.105,0.115
5.676,0.130,0.120
5.678,0.115,0.125
5.680,0.080,0.135
5.682,0.085,0.145
5.684,0.080,0.155
5.686,0.130,0.160
5.688,0.125,0.165
5.690,0.105,0.165
5.692,0.080,0.165
5.694,0.145,0.165
5.696,0.130,0.160
5.698,0.125,0.160
5.700,0.095,0.160
5.702,0.095,0.160
5.704,0.100,0.160
5.706,0.125,0.160
5.708,0.135,0.170
5.710,0.180,0.175
5.712,0.160,0.185
5.714,0.170,0.195
5.716,0.120,0.205
5.718,0.135,0.215
5.720,0.160,0.225
5.722,0.170,0.230
5.724,0.185,0.230
5.726,0.290,0.225
5.728,0.220,0.215
5.730,0.115,0.205
5.732,0.080,0.190
5.734,0.100,0.175
5.736,0.100,0.165
5.738,0.115,0.160
5.740,0.175,0.160
5.742,0.125,0.165
5.744,0.145,0.170
5.746,0.130,0.180
5.748,0.155,0.190
5.750,0.130,0.190
5.752,0.115,0.185
5.754,0.110,0.175
5.756,0.075,0.160
5.758,0.045,0.145
5.760,0.095,0.125
5.762,0.055,0.105
5.764,0.040,0.090
5.766,0.050,0.085
5.768,0.035,0.080
5.770,0.025,0.075
5.772,0.050,0.075
5.774,0.010,0.075
5.776,0.005,0.070
5.778,0.010,0.065
5.780,-0.040,0.050
5.782,-0.075,0.040
5.784,-0.015,0.025
5.786,0.010,0.015
5.788,-0.040,0.005
5.790,-0.070,0.000
5.792,-0.045,-0.005
5.794,-0.075,-0.005
5.796,-0.080,-0.010
5.798,-0.050,-0.010
5.800,-0.065,-0.010
5.802,-0.100,-0.015
5.804,-0.090,-0.015
5.806,-0.080,-0.020
5.808,-0.090,-0.025
5.810,-0.065,-0.025
5.812,-0.090,-0.025
5.814,-0.085,-0.020
5.816,-0.085,-0.015
5.818,-0.055,-0.010
5.820,-0.060,-0.005
5.822,-0.080,0.000
5.824,-0.060,0.000
5.826,-0.045,0.000
5.828,-0.030,0.000
5.830,-0.065,-0.005
5.832,-0.075,-0.010
5.834,-0.095,-0.010
5.836,-0.115,-0.015
5.838,-0.100,-0.020
5.840,-0.080,-0.020
5.842,-0.080,-0.020
5.844,-0.095,-0.020
5.846,-0.100,-0.020
5.848,-0.075,-0.015
5.850,-0.020,-0.015
5.852,-0.045,-0.015
5.854,-0.110,-0.015
5.856,-0.100,-0.015
5.858,-0.100,-0.015
5.860,-0.090,-0.010
5.862,-0.095,-0.005
5.864,-0.045,-0.005
5.866,-0.055,0.000
5.868,-0.090,0.005
5.870,-0.025,0.010
5.872,-0.045,0.015
5.874,-0.080,0.010
5.876,-0.085,0.010
5.878,-0.085,0.000
5.880,-0.040,-0.010
5.882,-0.080,-0.015
5.884,-0.120,-0.025
5.886,-0.105,-0.030
5.888,-0.110,-0.035
5.890,-0.115,-0.035
5.892,-0.055,-0.035
5.894,-0.070,-0.030
5.896,-0.100,-0.025
5.898,-0.110,-0.020
5.900,-0.140,-0.020
5.902,-0.160,-0.025
5.904,-0.070,-0.025
5.906,-0.095,-0.030
5.908,-0.080,-0.030
5.910,-0.085,-0.030
5.912,-0.075,-0.030
5.914,-0.075,-0.025
5.916,-0.090,-0.020
5.918,-0.070,-0.015
5.920,-0.075,-0.010
5.922,-0.125,-0.010
5.924,-0.135,-0.010
5.926,-0.100,-0.015
5.928,-0.040,-0.020
5.930,-0.085,-0.025
5.932,-0.100,-0.030
5.934,-0.080,-0.025
5.936,-0.130,-0.020
5.938,-0.110,-0.015
5.940,-0.045,-0.005
5.942,-0.075,0.000
5.944,-0.100,0.005
5.946,-0.110,0.005
5.948,-0.065,-0.005
5.950,-0.090,-0.015
5.952,-0.100,-0.030
5.954,-0.140,-0.040
5.956,-0.125,-0.045
5.958,-0.110,-0.045
5.960,-0.135,-0.040
5.962,-0.145,-0.035
5.964,-0.065,-0.020
5.966,-0.060,-0.015
5.968,-0.060,-0.005
5.970,-0.065,-0.005
5.972,-0.120,-0.010
5.974,-0.095,-0.020
5.976,-0.135,-0.035
5.978,-0.130,-0.050
5.980,-0.170,-0.060
5.982,-0.190,-0.070
5.984,-0.135,-0.070
5.986,-0.145,-0.070
5.988,-0.120,-0.070
5.990,-0.140,-0.065
5.992,-0.155,-0.055
5.994,-0.150,-0.050
5.996,-0.125,-0.045
5.998,-0.085,-0.040
6.000,-0.120,-0.030
6.002,-0.130,-0.030
6.004,-0.075,-0.025
6.006,-0.115,-0.025
6.008,-0.130,-0.025
6.010,-0.120,-0.025
6.012,-0.135,-0.030
6.014,-0.150,-0.040
6.016,-0.140,-0.045
6.018,-0.150,-0.055
6.020,-0.135,-0.065
6.022,-0.160,-0.070
6.024,-0.170,-0.080
6.026,-0.200,-0.085
6.028,-0.185,-0.085
6.030,-0.145,-0.085
6.032,-0.145,-0.085
6.034,-0.195,-0.075
6.036,-0.200,-0.065
6.038,-0.135,-0.055
6.040,-0.150,-0.040
6.042,-0.090,-0.025
6.044,-0.090,-0.015
6.046,-0.120,-0.005
6.048,-0.085,-0.005
6.050,-0.080,-0.005
6.052,-0.115,-0.015
6.054,-0.145,-0.025
6.056,-0.150,-0.035
6.058,-0.130,-0.045
6.060,-0.205,-0.055
6.062,-0.140,-0.055
6.064,-0.085,-0.050
6.066,-0.110,-0.040
6.068,-0.070,-0.030
6.070,-0.070,-0.015
6.072,-0.095,0.000
6.074,-0.145,0.005
6.076,-0.120,0.015
6.078,-0.085,0.015
6.080,-0.050,0.020
6.082,-0.045,0.020
6.084,-0.030,0.020
6.086,-0.050,0.015
6.088,-0.060,0.020
6.090,-0.055,0.020
6.092,-0.065,0.020
6.094,-0.075,0.025
6.096,-0.055,0.030
6.098,-0.025,0.035
6.100,-0.050,0.040
6.102,-0.045,0.045
6.104,-0.050,0.050
6.106,-0.070,0.050
6.108,-0.045,0.045
6.110,-0.065,0.040
6.112,-0.095,0.030
6.114,-0.070,0.010
6.116,-0.110,-0.005
6.118,-0.145,-0.025
6.120,-0.095,-0.040
6.122,-0.170,-0.050
6.124,-0.150,-0.055
6.126,-0.110,-0.050
6.128,-0.110,-0.045
6.130,-0.130,-0.035
6.132,-0.120,-0.030
6.134,-0.160,-0.025
6.136,-0.155,-0.030
6.138,-0.110,-0.035
6.140,-0.110,-0.045
6.142,-0.180,-0.060
6.144,-0.155,-0.070
6.146,-0.145,-0.075
6.148,-0.190,-0.080
6.150,-0.160,-0.075
6.152,-0.195,-0.070
6.154,-0.175,-0.060
6.156,-0.145,-0.055
6.158,-0.145,-0.055
6.160,-0.165,-0.055
6.162,-0.155,-0.060
6.164,-0.155,-0.065
6.166,-0.145,-0.070
6.168,-0.195,-0.070
6.170,-0.145,-0.070
6.172,-0.225,-0.070
6.174,-0.140,-0.070
6.176,-0.185,-0.075
6.178,-0.190,-0.075
6.180,-0.210,-0.080
6.182,-0.145,-0.075
6.184,-0.135,-0.060
6.186,-0.145,-0.030
6.188,-0.100,0.015
6.190,-0.015,0.085
6.192,0.065,0.170
6.194,0.200,0.260
6.196,0.230,0.345
6.198,0.355,0.415
6.200,0.420,0.460
6.202,0.455,0.465
6.204,0.415,0.430
6.206,0.280,0.360
6.208,0.155,0.260
6.210,-0.020,0.150
6.212,-0.245,0.040
6.214,-0.250,-0.055
6.216,-0.270,-0.130
6.218,-0.265,-0.180
6.220,-0.320,-0.200
6.222,-0.245,-0.200
6.224,-0.225,-0.180
6.226,-0.225,-0.160
6.228,-0.235,-0.135
6.230,-0.195,-0.110
6.232,-0.205,-0.095
6.234,-0.175,-0.085
6.236,-0.175,-0.080
6.238,-0.200,-0.075
6.240,-0.180,-0.070
6.242,-0.155,-0.070
6.244,-0.170,-0.065
6.246,-0.150,-0.060
6.248,-0.115,-0.055
6.250,-0.150,-0.050
6.252,-0.125,-0.050
6.254,-0.180,-0.045
6.256,-0.175,-0.040
6.258,-0.170,-0.040
6.260,-0.185,-0.035
6.262,-0.095,-0.035
6.264,-0.120,-0.030
6.266,-0.125,-0.030
6.268,-0.145,-0.030
6.270,-0.135,-0.030
6.272,-0.175,-0.035
6.274,-0.170,-0.035
6.276,-0.125,-0.035
6.278,-0.135,-0.030
6.280,-0.150,-0.025
6.282,-0.115,-0.025
6.284,-0.070,-0.020
6.286,-0.115,-0.020
6.288,-0.155,-0.020
6.290,-0.155,-0.020
6.292,-0.165,-0.020
6.294,-0.120,-0.020
6.296,-0.160,-0.020
6.298,-0.115,-0.015
6.300,-0.080,-0.010
6.302,-0.025,0.000
6.304,-0.100,0.005
6.306,-0.090,0.010
6.308,-0.070,0.015
6.310,-0.125,0.015
6.312,-0.150,0.010
6.314,-0.140,0.005
6.316,-0.125,0.000
6.318,-0.140,-0.005
6.320,-0.135,-0.005
6.322,-0.130,0.000
6.324,-0.100,0.000
6.326,-0.015,0.010
6.328,-0.045,0.015
6.330,-0.130,0.020
6.332,-0.145,0.025
6.334,-0.075,0.025
6.336,-0.090,0.030
6.338,-0.110,0.030
6.340,-0.080,0.035
6.342,-0.055,0.040
6.344,-0.040,0.045
6.346,-0.055,0.050
6.348,-0.075,0.055
6.350,-0.050,0.060
6.352,-0.065,0.060
6.354,-0.065,0.060
6.356,-0.045,0.060
6.358,-0.055,0.060
6.360,-0.045,0.065
6.362,-0.020,0.070
6.364,-0.055,0.075
6.366,-0.020,0.085
6.368,-0.035,0.095
6.370,0.000,0.100
6.372,0.015,0.110
6.374,0.015,0.115
6.376,-0.010,0.115
6.378,-0.065,0.115
6.380,-0.010,0.115
6.382,0.030,0.115
6.384,0.065,0.110
6.386,0.015,0.115
6.388,0.025,0.115
6.390,0.030,0.120
6.392,-0.030,0.130
6.394,0.000,0.135
6.396,0.065,0.145
6.398,0.020,0.150
6.400,0.065,0.155
6.402,0.050,0.160
6.404,0.000,0.165
6.406,0.035,0.170
6.408,0.095,0.170
6.410,0.085,0.175
6.412,0.065,0.180
6.414,0.085,0.185
6.416,0.060,0.190
6.418,0.035,0.190
6.420,0.015,0.190
6.422,0.070,0.190
6.424,0.090,0.190
6.426,0.070,0.185
6.428,0.065,0.185
6.430,0.040,0.180
6.432,0.075,0.180
6.434,0.075,0.175
6.436,0.035,0.175
6.438,0.035,0.175
6.440,0.075,0.175
6.442,0.075,0.175
6.444,0.075,0.175
6.446,0.040,0.180
6.448,0.055,0.180
6.450,0.045,0.180
6.452,0.030,0.180
6.454,0.030,0.180
6.456,0.030,0.175
6.458,0.065,0.165
6.460,0.085,0.160
6.462,0.025,0.150
6.464,0.005,0.135
6.466,0.010,0.125
6.468,0.025,0.110
6.470,-0.030,0.100
6.472,-0.045,0.090
6.474,-0.060,0.080
6.476,-0.065,0.065
6.478,-0.080,0.055
6.480,-0.070,0.050
6.482,-0.090,0.040
6.484,-0.115,0.035
6.486,-0.105,0.030
6.488,-0.085,0.025
6.490,-0.080,0.025
6.492,-0.100,0.020
6.494,-0.140,0.015
6.496,-0.085,0.010
6.498,-0.110,0.005
6.500,-0.090,-0.005
6.502,-0.145,-0.015
6.504,-0.170,-0.025
6.506,-0.155,-0.030
6.508,-0.165,-0.030
6.510,-0.145,-0.030
6.512,-0.105,-0.025
6.514,-0.110,-0.020
6.516,-0.140,-0.015
6.518,-0.140,-0.010
6.520,-0.105,-0.010
6.522,-0.150,-0.010
6.524,-0.125,-0.010
6.526,-0.120,-0.010
6.528,-0.120,-0.010
6.530,-0.175,-0.015
6.532,-0.135,-0.015
6.534,-0.120,-0.015
6.536,-0.125,-0.015
6.538,-0.130,-0.015
6.540,-0.150,-0.015
6.542,-0.110,-0.020
6.544,-0.175,-0.025
6.546,-0.125,-0.030
6.548,-0.145,-0.040
6.550,-0.220,-0.045
6.552,-0.185,-0.050
6.554,-0.135,-0.055
6.556,-0.150,-0.055
6.558,-0.180,-0.055
6.560,-0.155,-0.050
6.562,-0.140,-0.040
6.564,-0.165,-0.030
6.566,-0.135,-0.015
6.568,-0.085,-0.005
6.570,-0.120,0.000
6.572,-0.140,0.000
6.574,-0.080,0.000
6.576,-0.115,-0.010
6.578,-0.200,-0.025
6.580,-0.160,-0.040
6.582,-0.165,-0.055
6.584,-0.205,-0.065
6.586,-0.215,-0.070
6.588,-0.180,-0.065
6.590,-0.200,-0.060
6.592,-0.120,-0.045
6.594,-0.120,-0.030
6.596,-0.135,-0.015
6.598,-0.165,-0.005
6.600,-0.110,0.000
6.602,-0.165,0.000
6.604,-0.155,-0.010
6.606,-0.105,-0.020
6.608,-0.065,-0.035
6.610,-0.155,-0.040
6.612,-0.170,-0.045
6.614,-0.195,-0.050
6.616,-0.165,-0.045
6.618,-0.175,-0.040
6.620,-0.175,-0.040
6.622,-0.170,-0.040
6.624,-0.175,-0.045
6.626,-0.175,-0.055
6.628,-0.180,-0.070
6.630,-0.240,-0.080
6.632,-0.205,-0.090
6.634,-0.175,-0.095
6.636,-0.210,-0.095
6.638,-0.205,-0.090
6.640,-0.160,-0.080
6.642,-0.120,-0.070
6.644,-0.185,-0.065
6.646,-0.185,-0.060
6.648,-0.160,-0.060
6.650,-0.200,-0.065
6.652,-0.185,-0.070
6.654,-0.205,-0.080
6.656,-0.200,-0.080
6.658,-0.150,-0.080
6.660,-0.170,-0.075
6.662,-0.160,-0.065
6.664,-0.190,-0.055
6.666,-0.145,-0.050
6.668,-0.155,-0.050
6.670,-0.205,-0.050
6.672,-0.235,-0.060
6.674,-0.190,-0.070
6.676,-0.195,-0.085
6.678,-0.170,-0.090
6.680,-0.215,-0.095
6.682,-0.185,-0.090
6.684,-0.150,-0.080
6.686,-0.120,-0.070
6.688,-0.135,-0.060
6.690,-0.175,-0.055
6.692,-0.215,-0.050
6.694,-0.210,-0.055
6.696,-0.225,-0.065
6.698,-0.210,-0.080
6.700,-0.225,-0.090
6.702,-0.195,-0.100
6.704,-0.160,-0.100
6.706,-0.160,-0.095
6.708,-0.215,-0.090
6.710,-0.160,-0.075
6.712,-0.170,-0.065
6.714,-0.145,-0.055
6.716,-0.205,-0.050
6.718,-0.225,-0.050
6.720,-0.175,-0.055
6.722,-0.160,-0.065
6.724,-0.175,-0.080
6.726,-0.145,-0.090
6.728,-0.230,-0.095
6.730,-0.210,-0.100
6.732,-0.195,-0.100
6.734,-0.190,-0.095
6.736,-0.195,-0.090
6.738,-0.190,-0.085
6.740,-0.205,-0.085
6.742,-0.190,-0.085
6.744,-0.220,-0.085
6.746,-0.190,-0.090
6.748,-0.205,-0.090
6.750,-0.230,-0.095
6.752,-0.195,-0.095
6.754,-0.190,-0.090
6.756,-0.185,-0.085
6.758,-0.195,-0.080
6.760,-0.160,-0.070
6.762,-0.150,-0.065
6.764,-0.165,-0.055
6.766,-0.150,-0.050
6.768,-0.185,-0.045
6.770,-0.140,-0.045
6.772,-0.130,-0.040
6.774,-0.105,-0.035
6.776,-0.095,-0.030
6.778,-0.115,-0.025
6.780,-0.160,-0.020
6.782,-0.135,-0.015
6.784,-0.170,-0.010
6.786,-0.100,-0.005
6.788,-0.110,0.000
6.790,-0.115,0.005
6.792,-0.085,0.005
6.794,-0.110,0.010
6.796,-0.110,0.015
6.798,-0.060,0.025
6.800,-0.040,0.030
6.802,-0.025,0.035
6.804,-0.035,0.035
6.806,-0.090,0.035
6.808,-0.150,0.025
6.810,-0.150,0.005
6.812,-0.140,-0.015
6.814,-0.130,-0.040
6.816,-0.190,-0.065
6.818,-0.205,-0.085
6.820,-0.190,-0.095
6.822,-0.180,-0.100
6.824,-0.215,-0.100
6.826,-0.215,-0.095
6.828,-0.230,-0.090
6.830,-0.145,-0.080
6.832,-0.190,-0.080
6.834,-0.235,-0.080
6.836,-0.215,-0.085
6.838,-0.145,-0.095
6.840,-0.195,-0.105
6.842,-0.180,-0.115
6.844,-0.170,-0.120
6.846,-0.230,-0.120
6.848,-0.235,-0.115
6.850,-0.205,-0.105
6.852,-0.225,-0.100
6.854,-0.225,-0.095
6.856,-0.210,-0.095
6.858,-0.165,-0.095
6.860,-0.160,-0.100
6.862,-0.130,-0.100
6.864,-0.125,-0.100
6.866,-0.230,-0.100
6.868,-0.235,-0.100
6.870,-0.215,-0.095
6.872,-0.215,-0.095
6.874,-0.230,-0.095
6.876,-0.225,-0.105
6.878,-0.175,-0.110
6.880,-0.205,-0.105
6.882,-0.215,-0.095
6.884,-0.150,-0.060
6.886,-0.090,0.000
6.888,-0.010,0.080
6.890,0.055,0.180
6.892,0.190,0.285
6.894,0.310,0.380
6.896,0.370,0.450
6.898,0.505,0.485
6.900,0.480,0.470
6.902,0.345,0.410
6.904,0.275,0.310
6.906,0.015,0.185
6.908,-0.225,0.055
6.910,-0.265,-0.070
6.912,-0.300,-0.165
6.914,-0.400,-0.230
6.916,-0.335,-0.255
6.918,-0.235,-0.250
6.920,-0.265,-0.225
6.922,-0.270,-0.185
6.924,-0.230,-0.150
6.926,-0.235,-0.120
6.928,-0.210,-0.100
6.930,-0.195,-0.095
6.932,-0.190,-0.100
6.934,-0.215,-0.105
6.936,-0.215,-0.105
6.938,-0.215,-0.105
6.940,-0.165,-0.100
6.942,-0.165,-0.085
6.944,-0.145,-0.075
6.946,-0.130,-0.070
6.948,-0.175,-0.065
6.950,-0.225,-0.070
6.952,-0.180,-0.080
6.954,-0.170,-0.090
6.956,-0.190,-0.100
6.958,-0.190,-0.105
6.960,-0.185,-0.105
6.962,-0.155,-0.095
6.964,-0.140,-0.085
6.966,-0.150,-0.070
6.968,-0.155,-0.060
6.970,-0.135,-0.055
6.972,-0.175,-0.055
6.974,-0.200,-0.060
6.976,-0.155,-0.070
6.978,-0.210,-0.085
6.980,-0.180,-0.090
6.982,-0.145,-0.095
6.984,-0.160,-0.095
6.986,-0.195,-0.085
6.988,-0.180,-0.075
6.990,-0.115,-0.060
6.992,-0.135,-0.045
6.994,-0.130,-0.030
6.996,-0.130,-0.025
6.998,-0.110,-0.020
7.000,-0.155,-0.020
7.002,-0.160,-0.020
7.004,-0.055,-0.025
7.006,-0.090,-0.030
7.008,-0.085,-0.035
7.010,-0.085,-0.040
7.012,-0.170,-0.040
7.014,-0.225,-0.040
7.016,-0.125,-0.040
7.018,-0.095,-0.040
7.020,-0.135,-0.040
7.022,-0.165,-0.040
7.024,-0.100,-0.035
7.026,-0.105,-0.030
7.028,-0.095,-0.025
7.030,-0.120,-0.020
7.032,-0.140,-0.015
7.034,-0.115,-0.015
7.036,-0.085,-0.015
7.038,-0.105,-0.015
7.040,-0.080,-0.015
7.042,-0.060,-0.020
7.044,-0.110,-0.020
7.046,-0.115,-0.020
7.048,-0.090,-0.020
7.050,-0.095,-0.015
7.052,-0.065,-0.010
7.054,-0.120,-0.005
7.056,-0.075,0.005
7.058,-0.055,0.015
7.060,-0.065,0.020
7.062,-0.055,0.025
7.064,-0.045,0.030
7.066,-0.040,0.030
7.068,-0.070,0.025
7.070,-0.085,0.025
7.072,-0.080,0.020
7.074,-0.045,0.015
7.076,-0.055,0.010
7.078,-0.045,0.015
7.080,-0.035,0.020
7.082,-0.025,0.030
7.084,-0.025,0.045
7.086,-0.065,0.070
7.088,-0.010,0.090
7.090,0.060,0.115
7.092,0.040,0.135
7.094,0.065,0.145
7.096,0.070,0.150
7.098,0.140,0.150
7.100,0.065,0.140
7.102,-0.030,0.125
7.104,0.010,0.110
7.106,0.035,0.100
7.108,0.030,0.090
7.110,-0.020,0.085
7.112,-0.015,0.085
7.114,0.020,0.085
7.116,0.065,0.090
7.118,0.010,0.095
7.120,0.035,0.100
7.122,0.025,0.105
7.124,-0.025,0.105
7.126,-0.005,0.105
7.128,0.040,0.105
7.130,0.030,0.100
7.132,0.000,0.100
7.134,0.020,0.105
7.136,0.045,0.105
7.138,0.055,0.105
7.140,0.065,0.105
7.142,0.015,0.105
7.144,-0.010,0.100
7.146,-0.025,0.090
7.148,0.005,0.085
7.150,-0.005,0.070
7.152,-0.050,0.060
7.154,-0.020,0.050
7.156,-0.025,0.045
7.158,-0.010,0.040
7.160,0.000,0.035
7.162,-0.010,0.035
7.164,-0.090,0.040
7.166,-0.105,0.040
7.168,-0.025,0.040
7.170,-0.025,0.035
7.172,-0.085,0.020
7.174,-0.045,0.005
7.176,-0.055,-0.015
7.178,-0.145,-0.035
7.180,-0.135,-0.050
7.182,-0.160,-0.065
7.184,-0.175,-0.070
7.186,-0.160,-0.070
7.188,-0.100,-0.060
7.190,-0.135,-0.055
7.192,-0.155,-0.045
7.194,-0.100,-0.040
7.196,-0.095,-0.045
7.198,-0.155,-0.050
7.200,-0.140,-0.070
7.202,-0.155,-0.090
7.204,-0.230,-0.110
7.206,-0.215,-0.125
7.208,-0.185,-0.135
7.210,-0.215,-0.140
7.212,-0.200,-0.135
7.214,-0.190,-0.125
7.216,-0.145,-0.115
7.218,-0.165,-0.100
7.220,-0.160,-0.085
7.222,-0.155,-0.075
7.224,-0.170,-0.070
7.226,-0.135,-0.070
7.228,-0.150,-0.070
7.230,-0.125,-0.070
7.232,-0.155,-0.070
7.234,-0.165,-0.070
7.236,-0.140,-0.075
7.238,-0.160,-0.075
7.240,-0.170,-0.080
7.242,-0.145,-0.085
7.244,-0.155,-0.090
7.246,-0.235,-0.100
7.248,-0.195,-0.105
7.250,-0.115,-0.110
7.252,-0.205,-0.110
7.254,-0.175,-0.110
7.256,-0.120,-0.105
7.258,-0.150,-0.100
7.260,-0.190,-0.095
7.262,-0.200,-0.090
7.264,-0.220,-0.090
7.266,-0.165,-0.095
7.268,-0.175,-0.100
7.270,-0.150,-0.105
7.272,-0.185,-0.110
7.274,-0.125,-0.115
7.276,-0.180,-0.110
7.278,-0.200,-0.105
7.280,-0.145,-0.100
7.282,-0.170,-0.090
7.284,-0.210,-0.085
7.286,-0.170,-0.080
7.288,-0.155,-0.080
7.290,-0.145,-0.085
7.292,-0.180,-0.090
7.294,-0.225,-0.100
7.296,-0.130,-0.110
7.298,-0.200,-0.115
7.300,-0.185,-0.120
7.302,-0.140,-0.125
7.304,-0.160,-0.125
7.306,-0.240,-0.125
7.308,-0.215,-0.125
7.310,-0.210,-0.125
7.312,-0.225,-0.130
7.314,-0.185,-0.135
7.316,-0.215,-0.135
7.318,-0.160,-0.135
7.320,-0.185,-0.135
7.322,-0.190,-0.130
7.324,-0.190,-0.125
7.326,-0.205,-0.115
7.328,-0.190,-0.105
7.330,-0.210,-0.100
7.332,-0.135,-0.100
7.334,-0.145,-0.100
7.336,-0.190,-0.100
7.338,-0.190,-0.105
7.340,-0.165,-0.110
7.342,-0.150,-0.115
7.344,-0.190,-0.120
7.346,-0.160,-0.115
7.348,-0.150,-0.115
7.350,-0.190,-0.105
7.352,-0.205,-0.100
7.354,-0.125,-0.090
7.356,-0.150,-0.080
7.358,-0.190,-0.075
7.360,-0.155,-0.070
7.362,-0.110,-0.070
7.364,-0.115,-0.070
7.366,-0.125,-0.070
7.368,-0.155,-0.075
7.370,-0.165,-0.080
7.372,-0.165,-0.085
7.374,-0.100,-0.085
7.376,-0.175,-0.090
7.378,-0.200,-0.095
7.380,-0.150,-0.100
7.382,-0.155,-0.100
7.384,-0.200,-0.105
7.386,-0.180,-0.105
7.388,-0.185,-0.105
7.390,-0.210,-0.105
7.392,-0.175,-0.100
7.394,-0.135,-0.095
7.396,-0.150,-0.090
7.398,-0.095,-0.085
7.400,-0.145,-0.075
7.402,-0.170,-0.070
7.404,-0.145,-0.065
7.406,-0.130,-0.065
7.408,-0.110,-0.070
7.410,-0.160,-0.070
7.412,-0.165,-0.075
7.414,-0.120,-0.080
7.416,-0.110,-0.080
7.418,-0.145,-0.080
7.420,-0.175,-0.075
7.422,-0.130,-0.065
7.424,-0.120,-0.055
7.426,-0.120,-0.050
7.428,-0.135,-0.045
7.430,-0.145,-0.040
7.432,-0.115,-0.040
7.434,-0.070,-0.045
7.436,-0.075,-0.055
7.438,-0.145,-0.060
7.440,-0.185,-0.065
7.442,-0.125,-0.070
7.444,-0.130,-0.070
7.446,-0.135,-0.065
7.448,-0.125,-0.060
7.450,-0.135,-0.050
7.452,-0.135,-0.040
7.454,-0.140,-0.035
7.456,-0.090,-0.025
7.458,-0.055,-0.020
7.460,-0.005,-0.015
7.462,-0.065,-0.010
7.464,-0.105,-0.010
7.466,-0.080,-0.010
7.468,-0.075,-0.005
7.470,-0.090,0.000
7.472,-0.120,0.010
7.474,-0.030,0.020
7.476,-0.010,0.030
7.478,-0.015,0.045
7.480,-0.020,0.060
7.482,0.050,0.070
7.484,0.020,0.075
7.486,-0.030,0.080
7.488,-0.065,0.075
7.490,-0.025,0.070
7.492,0.035,0.060
7.494,0.025,0.045
7.496,-0.050,0.035
7.498,-0.025,0.020
7.500,-0.075,0.005
7.502,-0.060,-0.010
7.504,-0.105,-0.025
7.506,-0.140,-0.035
7.508,-0.115,-0.050
7.510,-0.205,-0.060
7.512,-0.130,-0.070
7.514,-0.100,-0.075
7.516,-0.120,-0.075
7.518,-0.180,-0.075
7.520,-0.185,-0.070
7.522,-0.110,-0.065
7.524,-0.060,-0.055
7.526,-0.095,-0.055
7.528,-0.125,-0.055
7.530,-0.215,-0.055
7.532,-0.135,-0.060
7.534,-0.105,-0.070
7.536,-0.135,-0.075
7.538,-0.175,-0.080
7.540,-0.135,-0.085
7.542,-0.155,-0.085
7.544,-0.180,-0.085
7.546,-0.150,-0.085
7.548,-0.165,-0.085
7.550,-0.155,-0.085
7.552,-0.110,-0.080
7.554,-0.135,-0.080
7.556,-0.170,-0.080
7.558,-0.145,-0.080
7.560,-0.160,-0.085
7.562,-0.190,-0.090
7.564,-0.175,-0.095
7.566,-0.190,-0.105
7.568,-0.180,-0.115
7.570,-0.190,-0.120
7.572,-0.175,-0.110
7.574,-0.130,-0.080
7.576,-0.120,-0.025
7.578,-0.040,0.055
7.580,0.105,0.155
7.582,0.210,0.270
7.584,0.315,0.385
7.586,0.455,0.485
7.588,0.560,0.560
7.590,0.605,0.590
7.592,0.575,0.575
7.594,0.475,0.515
7.596,0.365,0.415
7.598,0.195,0.295
7.600,0.015,0.160
7.602,-0.145,0.040
7.604,-0.200,-0.065
7.606,-0.275,-0.135
7.608,-0.270,-0.175
7.610,-0.255,-0.185
7.612,-0.170,-0.170
7.614,-0.170,-0.140
7.616,-0.170,-0.105
7.618,-0.150,-0.075
7.620,-0.160,-0.055
7.622,-0.150,-0.040
7.624,-0.100,-0.035
7.626,-0.040,-0.040
7.628,-0.015,-0.045
7.630,-0.135,-0.050
7.632,-0.165,-0.055
7.634,-0.160,-0.055
7.636,-0.130,-0.055
7.638,-0.135,-0.050
7.640,-0.085,-0.045
7.642,-0.120,-0.040
7.644,-0.095,-0.035
7.646,-0.075,-0.030
7.648,-0.085,-0.025
7.650,-0.130,-0.025
7.652,-0.095,-0.025
7.654,-0.110,-0.020
7.656,-0.080,-0.020
7.658,-0.060,-0.015
7.660,-0.095,-0.010
7.662,-0.110,0.000
7.664,-0.050,0.005
7.666,-0.030,0.015
7.668,-0.040,0.020
7.670,-0.090,0.025
7.672,-0.030,0.030
7.674,0.005,0.030
7.676,-0.070,0.025
7.678,-0.055,0.025
7.680,-0.060,0.025
7.682,-0.070,0.020
7.684,-0.040,0.025
7.686,-0.030,0.025
7.688,-0.060,0.030
7.690,-0.010,0.035
7.692,-0.035,0.035
7.694,-0.085,0.035
7.696,-0.020,0.035
7.698,0.000,0.030
7.700,-0.080,0.025
7.702,-0.095,0.020
7.704,-0.050,0.020
7.706,-0.065,0.020
7.708,-0.045,0.030
7.710,-0.020,0.040
7.712,0.035,0.055
7.714,0.015,0.065
7.716,0.020,0.075
7.718,-0.020,0.080
7.720,-0.005,0.080
7.722,-0.030,0.075
7.724,-0.010,0.070
7.726,-0.015,0.060
7.728,-0.035,0.055
7.730,-0.025,0.050
7.732,-0.010,0.050
7.734,-0.015,0.055
7.736,0.020,0.065
7.738,-0.005,0.075
7.740,0.010,0.090
7.742,0.055,0.105
7.744,0.060,0.120
7.746,0.025,0.135
7.748,0.020,0.145
7.750,0.090,0.155
7.752,0.115,0.165
7.754,0.120,0.165
7.756,0.105,0.170
7.758,0.075,0.165
7.760,0.030,0.165
7.762,0.040,0.160
7.764,0.055,0.155
7.766,0.060,0.155
7.768,0.090,0.155
7.770,0.100,0.160
7.772,0.100,0.170
7.774,0.080,0.185
7.776,0.110,0.195
7.778,0.165,0.210
7.780,0.145,0.225
7.782,0.135,0.235
7.784,0.100,0.240
7.786,0.160,0.240
7.788,0.165,0.240
7.790,0.140,0.235
7.792,0.140,0.235
7.794,0.175,0.235
7.796,0.190,0.235
7.798,0.175,0.240
7.800,0.155,0.245
7.802,0.130,0.250
7.804,0.155,0.250
7.806,0.140,0.250
7.808,0.125,0.245
7.810,0.135,0.240
7.812,0.195,0.235
7.814,0.150,0.230
7.816,0.150,0.225
7.818,0.155,0.225
7.820,0.165,0.225
7.822,0.135,0.230
7.824,0.150,0.240
7.826,0.190,0.245
7.828,0.190,0.250
7.830,0.200,0.250
7.832,0.185,0.250
7.834,0.140,0.245
7.836,0.160,0.240
7.838,0.160,0.235
7.840,0.125,0.230
7.842,0.130,0.225
7.844,0.135,0.220
7.846,0.160,0.215
7.848,0.135,0.210
7.850,0.145,0.200
7.852,0.105,0.185
7.854,0.055,0.170
7.856,0.055,0.155
7.858,0.065,0.140
7.860,0.010,0.125
7.862,0.050,0.115
7.864,0.045,0.110
7.866,0.050,0.105
7.868,0.015,0.105
7.870,-0.010,0.110
7.872,0.030,0.110
7.874,-0.010,0.110
7.876,-0.010,0.105
7.878,-0.020,0.095
7.880,-0.025,0.090
7.882,-0.010,0.080
7.884,0.005,0.070
7.886,-0.005,0.065
7.888,-0.045,0.060
7.890,-0.015,0.060
7.892,0.020,0.060
7.894,-0.040,0.055
7.896,-0.055,0.050
7.898,-0.040,0.045
7.900,-0.090,0.035
7.902,-0.090,0.025
7.904,-0.055,0.010
7.906,-0.120,0.005
7.908,-0.090,0.000
7.910,-0.040,-0.005
7.912,-0.010,0.000
7.914,-0.060,0.005
7.916,-0.080,0.010
7.918,-0.065,0.010
7.920,-0.125,0.015
7.922,-0.115,0.015
7.924,-0.065,0.015
7.926,-0.035,0.015
7.928,-0.040,0.015
7.930,-0.055,0.020
7.932,-0.080,0.025
7.934,-0.065,0.030
7.936,-0.055,0.035
7.938,-0.075,0.035
7.940,-0.105,0.035
7.942,-0.025,0.035
7.944,-0.035,0.025
7.946,-0.090,0.020
7.948,-0.095,0.010
7.950,-0.090,0.005
7.952,-0.105,0.000
7.954,-0.090,0.000
7.956,-0.095,0.000
7.958,-0.065,0.005
7.960,-0.075,0.010
7.962,-0.060,0.015
7.964,-0.045,0.015
7.966,-0.100,0.015
7.968,-0.065,0.015
7.970,-0.090,0.010
7.972,-0.070,0.010
7.974,-0.090,0.010
7.976,-0.105,0.010
7.978,-0.125,0.010
7.980,-0.105,0.010
7.982,-0.050,0.015
7.984,-0.040,0.015
7.986,-0.085,0.015
7.988,-0.100,0.015
7.990,-0.040,0.015
7.992,-0.105,0.010
7.994,-0.110,0.005
7.996,-0.085,0.000
7.998,-0.030,-0.005
8.000,-0.085,-0.005
8.002,-0.140,-0.010
8.004,-0.105,-0.010
8.006,-0.125,-0.015
8.008,-0.145,-0.015
8.010,-0.075,-0.015
8.012,-0.135,-0.020
8.014,-0.140,-0.020
8.016,-0.120,-0.020
8.018,-0.120,-0.025
8.020,-0.130,-0.025
8.022,-0.090,-0.025
8.024,-0.070,-0.020
8.026,-0.140,-0.020
8.028,-0.095,-0.015
8.030,-0.110,-0.010
8.032,-0.110,-0.005
8.034,-0.100,0.005
8.036,-0.035,0.015
8.038,-0.070,0.020
8.040,-0.090,0.025
8.042,-0.050,0.030
8.044,-0.060,0.025
8.046,-0.115,0.020
8.048,-0.125,0.015
8.050,-0.130,0.005
8.052,-0.115,-0.005
8.054,-0.120,-0.010
8.056,-0.060,-0.010
8.058,-0.070,-0.005
8.060,-0.050,0.005
8.062,-0.050,0.015
8.064,-0.090,0.030
8.066,-0.140,0.035
8.068,-0.040,0.040
8.070,-0.030,0.040
8.072,-0.080,0.035
8.074,-0.095,0.020
8.076,-0.110,0.010
8.078,-0.115,0.000
8.080,-0.110,-0.005
8.082,-0.115,-0.005
8.084,-0.060,0.000
8.086,-0.080,0.005
8.088,-0.120,0.010
8.090,-0.080,0.015
8.092,-0.075,0.015
8.094,-0.055,0.015
8.096,-0.055,0.005
8.098,-0.110,0.000
8.100,-0.115,-0.005
8.102,-0.120,-0.010
8.104,-0.140,-0.010
8.106,-0.130,-0.005
8.108,-0.050,0.000
8.110,-0.050,0.005
8.112,-0.085,0.010
8.114,-0.150,0.010
8.116,-0.110,0.010
8.118,-0.115,0.010
8.120,-0.085,0.010
8.122,-0.045,0.015
8.124,-0.085,0.020
8.126,-0.105,0.030
8.128,-0.020,0.040
8.130,0.000,0.055
8.132,-0.040,0.065
8.134,-0.085,0.075
8.136,-0.040,0.080
8.138,-0.020,0.085
8.140,-0.015,0.085
8.142,-0.020,0.080
8.144,0.010,0.080
8.146,0.015,0.085
8.148,0.020,0.090
8.150,-0.015,0.095
8.152,-0.010,0.100
8.154,0.010,0.105
8.156,0.040,0.110
8.158,0.005,0.110
8.160,-0.020,0.110
8.162,-0.010,0.105
8.164,-0.005,0.100
8.166,-0.050,0.095
8.168,0.000,0.090
8.170,0.055,0.085
8.172,-0.035,0.080
8.174,-0.040,0.070
8.176,-0.055,0.060
8.178,-0.090,0.045
8.180,-0.120,0.030
8.182,-0.160,0.010
8.184,-0.135,-0.010
8.186,-0.105,-0.030
8.188,-0.145,-0.045
8.190,-0.150,-0.055
8.192,-0.170,-0.060
8.194,-0.170,-0.060
8.196,-0.190,-0.060
8.198,-0.170,-0.060
8.200,-0.160,-0.055
8.202,-0.145,-0.055
8.204,-0.130,-0.050
8.206,-0.130,-0.050
8.208,-0.130,-0.050
8.210,-0.195,-0.050
8.212,-0.185,-0.050
8.214,-0.170,-0.060
8.216,-0.165,-0.065
8.218,-0.195,-0.075
8.220,-0.165,-0.080
8.222,-0.200,-0.085
8.224,-0.180,-0.090
8.226,-0.195,-0.085
8.228,-0.175,-0.080
8.230,-0.190,-0.070
8.232,-0.210,-0.065
8.234,-0.170,-0.065
8.236,-0.165,-0.075
8.238,-0.210,-0.085
8.240,-0.225,-0.100
8.242,-0.195,-0.110
8.244,-0.245,-0.110
8.246,-0.195,-0.085
8.248,-0.135,-0.030
8.250,-0.060,0.055
8.252,0.055,0.170
8.254,0.175,0.295
8.256,0.355,0.425
8.258,0.445,0.535
8.260,0.630,0.610
8.262,0.610,0.640
8.264,0.530,0.610
8.266,0.440,0.530
8.268,0.300,0.410
8.270,0.060,0.265
8.272,-0.110,0.115
8.274,-0.165,-0.030
8.276,-0.240,-0.140
8.278,-0.360,-0.220
8.280,-0.380,-0.265
8.282,-0.390,-0.280
8.284,-0.440,-0.270
8.286,-0.370,-0.250
8.288,-0.310,-0.225
8.290,-0.300,-0.200
8.292,-0.275,-0.185
8.294,-0.255,-0.170
8.296,-0.250,-0.165
8.298,-0.220,-0.155
8.300,-0.250,-0.145
8.302,-0.265,-0.135
8.304,-0.225,-0.120
8.306,-0.200,-0.105
8.308,-0.210,-0.095
8.310,-0.230,-0.090
8.312,-0.205,-0.085
8.314,-0.160,-0.085
8.316,-0.175,-0.085
8.318,-0.215,-0.085
8.320,-0.175,-0.080
8.322,-0.225,-0.075
8.324,-0.195,-0.070
8.326,-0.205,-0.065
8.328,-0.145,-0.065
8.330,-0.150,-0.070
8.332,-0.205,-0.080
8.334,-0.195,-0.090
8.336,-0.225,-0.100
8.338,-0.220,-0.105
8.340,-0.210,-0.110
8.342,-0.225,-0.105
8.344,-0.245,-0.095
8.346,-0.190,-0.085
8.348,-0.145,-0.070
8.350,-0.170,-0.055
8.352,-0.145,-0.045
8.354,-0.150,-0.040
8.356,-0.150,-0.040
8.358,-0.190,-0.045
8.360,-0.220,-0.050
8.362,-0.200,-0.050
8.364,-0.150,-0.055
8.366,-0.135,-0.055
8.368,-0.140,-0.050
8.370,-0.160,-0.045
8.372,-0.155,-0.040
8.374,-0.140,-0.030
8.376,-0.115,-0.025
8.378,-0.145,-0.020
8.380,-0.100,-0.015
8.382,-0.130,-0.010
8.384,-0.160,-0.010
8.386,-0.115,-0.010
8.388,-0.130,-0.005
8.390,-0.165,-0.005
8.392,-0.135,-0.005
8.394,-0.115,-0.005
8.396,-0.095,0.000
8.398,-0.030,0.005
8.400,-0.080,0.010
8.402,-0.150,0.015
8.404,-0.075,0.020
8.406,-0.080,0.030
8.408,-0.120,0.030
8.410,-0.110,0.030
8.412,-0.090,0.030
8.414,-0.095,0.025
8.416,-0.095,0.020
8.418,-0.080,0.015
8.420,-0.100,0.010
8.422,-0.110,0.010
8.424,-0.115,0.015
8.426,-0.100,0.025
8.428,-0.060,0.035
8.430,-0.065,0.045
8.432,-0.085,0.055
8.434,-0.030,0.060
8.436,-0.020,0.070
8.438,-0.025,0.075
8.440,-0.020,0.080
8.442,-0.015,0.090
8.444,-0.055,0.100
8.446,-0.020,0.110
8.448,0.025,0.120
8.450,0.015,0.130
8.452,0.055,0.135
8.454,0.130,0.140
8.456,-0.005,0.135
8.458,-0.055,0.130
8.460,0.005,0.120
8.462,-0.040,0.110
8.464,-0.045,0.105
8.466,-0.015,0.100
8.468,0.005,0.095
8.470,0.020,0.100
8.472,0.035,0.110
8.474,0.020,0.125
8.476,0.040,0.135
8.478,-0.005,0.150
8.480,0.010,0.160
8.482,0.055,0.165
8.484,0.045,0.165
8.486,0.055,0.160
8.488,0.070,0.150
8.490,0.015,0.145
8.492,0.035,0.135
8.494,0.045,0.130
8.496,-0.015,0.130
8.498,0.015,0.130
8.500,0.005,0.130
8.502,0.015,0.135
8.504,0.010,0.140
8.506,0.040,0.140
8.508,0.020,0.140
8.510,0.030,0.140
8.512,0.060,0.135
8.514,0.050,0.130
8.516,-0.025,0.120
8.518,-0.010,0.110
8.520,-0.035,0.100
8.522,-0.020,0.090
8.524,-0.045,0.080
8.526,-0.085,0.070
8.528,-0.090,0.060
8.530,-0.065,0.050
8.532,-0.060,0.045
8.534,-0.060,0.035
8.536,-0.035,0.030
8.538,-0.115,0.030
8.540,-0.110,0.030
8.542,-0.070,0.025
8.544,-0.070,0.020
8.546,-0.115,0.015
8.548,-0.155,0.005
8.550,-0.140,-0.010
8.552,-0.115,-0.025
8.554,-0.155,-0.045
8.556,-0.125,-0.060
8.558,-0.195,-0.075
8.560,-0.230,-0.080
8.562,-0.195,-0.080
8.564,-0.180,-0.075
8.566,-0.175,-0.070
8.568,-0.180,-0.055
8.570,-0.185,-0.045
8.572,-0.150,-0.035
8.574,-0.145,-0.030
8.576,-0.150,-0.035
8.578,-0.120,-0.040
8.580,-0.150,-0.045
8.582,-0.215,-0.055
8.584,-0.235,-0.060
8.586,-0.180,-0.065
8.588,-0.150,-0.070
8.590,-0.175,-0.070
8.592,-0.180,-0.070
8.594,-0.150,-0.070
8.596,-0.190,-0.070
8.598,-0.220,-0.070
8.600,-0.190,-0.070
8.602,-0.175,-0.070
8.604,-0.220,-0.075
8.606,-0.185,-0.075
8.608,-0.125,-0.075
8.610,-0.145,-0.070
8.612,-0.150,-0.070
8.614,-0.190,-0.070
8.616,-0.230,-0.070
8.618,-0.220,-0.070
8.620,-0.205,-0.075
8.622,-0.200,-0.075
8.624,-0.165,-0.080
8.626,-0.165,-0.080
8.628,-0.195,-0.075
8.630,-0.160,-0.070
8.632,-0.150,-0.065
8.634,-0.165,-0.060
8.636,-0.195,-0.055
8.638,-0.185,-0.055
8.640,-0.220,-0.055
8.642,-0.205,-0.060
8.644,-0.170,-0.070
8.646,-0.170,-0.085
8.648,-0.215,-0.095
8.650,-0.190,-0.105
8.652,-0.180,-0.110
8.654,-0.215,-0.115
8.656,-0.235,-0.110
8.658,-0.220,-0.105
8.660,-0.220,-0.100
8.662,-0.185,-0.090
8.664,-0.180,-0.085
8.666,-0.200,-0.085
8.668,-0.185,-0.085
8.670,-0.185,-0.090
8.672,-0.195,-0.095
8.674,-0.240,-0.100
8.676,-0.255,-0.105
8.678,-0.255,-0.105
8.680,-0.185,-0.105
8.682,-0.195,-0.105
8.684,-0.190,-0.095
8.686,-0.220,-0.090
8.688,-0.255,-0.085
8.690,-0.195,-0.080
8.692,-0.135,-0.075
8.694,-0.200,-0.075
8.696,-0.210,-0.080
8.698,-0.170,-0.085
8.700,-0.195,-0.090
8.702,-0.235,-0.095
8.704,-0.225,-0.100
8.706,-0.180,-0.105
8.708,-0.220,-0.105
8.710,-0.210,-0.110
8.712,-0.230,-0.110
8.714,-0.215,-0.115
8.716,-0.180,-0.120
8.718,-0.245,-0.125
8.720,-0.235,-0.130
8.722,-0.235,-0.135
8.724,-0.225,-0.135
8.726,-0.215,-0.135
8.728,-0.210,-0.130
8.730,-0.210,-0.120
8.732,-0.155,-0.115
8.734,-0.220,-0.105
8.736,-0.255,-0.100
8.738,-0.240,-0.095
8.740,-0.250,-0.095
8.742,-0.215,-0.100
8.744,-0.200,-0.105
8.746,-0.215,-0.110
8.748,-0.185,-0.110
8.750,-0.165,-0.110
8.752,-0.160,-0.110
8.754,-0.215,-0.105
8.756,-0.210,-0.095
8.758,-0.205,-0.090
8.760,-0.235,-0.090
8.762,-0.255,-0.090
8.764,-0.205,-0.090
8.766,-0.160,-0.095
8.768,-0.200,-0.100
8.770,-0.205,-0.100
8.772,-0.145,-0.095
8.774,-0.195,-0.090
8.776,-0.190,-0.080
8.778,-0.215,-0.070
8.780,-0.235,-0.060
8.782,-0.180,-0.055
8.784,-0.160,-0.055
8.786,-0.175,-0.055
8.788,-0.105,-0.060
8.790,-0.155,-0.060
8.792,-0.180,-0.065
8.794,-0.205,-0.060
8.796,-0.185,-0.055
8.798,-0.140,-0.050
8.800,-0.120,-0.040
8.802,-0.120,-0.030
8.804,-0.150,-0.020
8.806,-0.105,-0.010
8.808,-0.120,-0.005
8.810,-0.095,-0.005
8.812,-0.115,-0.010
8.814,-0.140,-0.010
8.816,-0.115,-0.020
8.818,-0.100,-0.025
8.820,-0.160,-0.035
8.822,-0.180,-0.045
8.824,-0.145,-0.055
8.826,-0.135,-0.065
8.828,-0.170,-0.075
8.830,-0.215,-0.085
8.832,-0.195,-0.095
8.834,-0.215,-0.100
8.836,-0.220,-0.100
8.838,-0.220,-0.100
8.840,-0.230,-0.100
8.842,-0.200,-0.100
8.844,-0.205,-0.100
8.846,-0.200,-0.100
8.848,-0.185,-0.100
8.850,-0.175,-0.095
8.852,-0.175,-0.095
8.854,-0.215,-0.095
8.856,-0.275,-0.090
8.858,-0.185,-0.090
8.860,-0.205,-0.090
8.862,-0.190,-0.090
8.864,-0.185,-0.095
8.866,-0.220,-0.100
8.868,-0.250,-0.110
8.870,-0.190,-0.120
8.872,-0.175,-0.125
8.874,-0.275,-0.125
8.876,-0.170,-0.120
8.878,-0.210,-0.110
8.880,-0.225,-0.100
8.882,-0.225,-0.090
8.884,-0.150,-0.080
8.886,-0.155,-0.075
8.888,-0.190,-0.075
8.890,-0.170,-0.080
8.892,-0.155,-0.085
8.894,-0.140,-0.085
8.896,-0.190,-0.070
8.898,-0.185,-0.040
8.900,-0.200,0.010
8.902,-0.005,0.075
8.904,0.120,0.150
8.906,0.120,0.230
8.908,0.195,0.300
8.910,0.315,0.350
8.912,0.360,0.370
8.914,0.265,0.350
8.916,0.230,0.300
8.918,0.175,0.215
8.920,-0.010,0.110
8.922,-0.235,-0.005
8.924,-0.330,-0.120
8.926,-0.375,-0.220
8.928,-0.440,-0.300
8.930,-0.475,-0.345
8.932,-0.405,-0.365
8.934,-0.390,-0.355
8.936,-0.395,-0.325
8.938,-0.330,-0.285
8.940,-0.360,-0.240
8.942,-0.310,-0.200
8.944,-0.240,-0.165
8.946,-0.275,-0.145
8.948,-0.285,-0.135
8.950,-0.240,-0.130
8.952,-0.210,-0.125
8.954,-0.215,-0.125
8.956,-0.240,-0.120
8.958,-0.200,-0.115
8.960,-0.205,-0.105
8.962,-0.170,-0.095
8.964,-0.165,-0.085
8.966,-0.155,-0.075
8.968,-0.165,-0.075
8.970,-0.190,-0.075
8.972,-0.195,-0.080
8.974,-0.190,-0.085
8.976,-0.180,-0.085
8.978,-0.165,-0.090
8.980,-0.210,-0.085
8.982,-0.170,-0.080
8.984,-0.100,-0.075
8.986,-0.150,-0.070
8.988,-0.205,-0.065
8.990,-0.165,-0.060
8.992,-0.155,-0.065
8.994,-0.160,-0.065
8.996,-0.215,-0.075
8.998,-0.200,-0.080
9.000,-0.155,-0.085
9.002,-0.135,-0.085
9.004,-0.140,-0.085
9.006,-0.130,-0.080
9.008,-0.190,-0.080
9.010,-0.185,-0.075
9.012,-0.195,-0.070
9.014,-0.180,-0.065
9.016,-0.135,-0.065
9.018,-0.155,-0.060
9.020,-0.165,-0.055
9.022,-0.120,-0.055
9.024,-0.100,-0.050
9.026,-0.110,-0.045
9.028,-0.135,-0.040
9.030,-0.135,-0.035
9.032,-0.160,-0.030
9.034,-0.180,-0.030
9.036,-0.115,-0.030
9.038,-0.145,-0.025
9.040,-0.150,-0.025
9.042,-0.085,-0.020
9.044,-0.080,-0.015
9.046,-0.095,-0.010
9.048,-0.115,-0.005
9.050,-0.115,0.000
9.052,-0.120,0.000
9.054,-0.125,0.000
9.056,-0.110,0.000
9.058,-0.120,-0.005
9.060,-0.085,-0.005
9.062,-0.020,-0.005
9.064,-0.065,0.000
9.066,-0.075,0.005
9.068,-0.080,0.010
9.070,-0.060,0.020
9.072,-0.055,0.025
9.074,-0.080,0.030
9.076,-0.055,0.035
9.078,-0.105,0.035
9.080,-0.105,0.035
9.082,-0.040,0.035
9.084,-0.030,0.040
9.086,-0.040,0.045
9.088,-0.035,0.050
9.090,-0.065,0.060
9.092,-0.050,0.070
9.094,0.035,0.085
9.096,0.015,0.095
9.098,0.000,0.100
9.100,0.005,0.105
9.102,0.005,0.105
9.104,0.015,0.105
9.106,0.030,0.105
9.108,0.060,0.105
9.110,0.010,0.105
9.112,-0.010,0.105
9.114,0.025,0.100
9.116,0.000,0.100
9.118,-0.010,0.100
9.120,0.000,0.100
9.122,0.000,0.095
9.124,0.000,0.100
9.126,0.025,0.105
9.128,0.040,0.110
9.130,0.035,0.120
9.132,0.005,0.130
9.134,0.085,0.140
9.136,0.030,0.150
9.138,0.030,0.155
9.140,0.100,0.155
9.142,0.080,0.150
9.144,0.045,0.145
9.146,0.015,0.135
9.148,0.035,0.130
9.150,0.030,0.125
9.152,0.020,0.120
9.154,0.030,0.120
9.156,-0.005,0.120
9.158,0.035,0.120
9.160,0.035,0.115
9.162,0.020,0.115
9.164,0.000,0.105
9.166,0.000,0.100
9.168,-0.005,0.090
9.170,-0.015,0.080
9.172,-0.015,0.075
9.174,-0.035,0.070
9.176,-0.050,0.065
9.178,-0.055,0.065
9.180,-0.075,0.060
9.182,-0.025,0.055
9.184,-0.030,0.045
9.186,0.000,0.030
9.188,-0.065,0.015
9.190,-0.140,-0.005
9.192,-0.115,-0.020
9.194,-0.115,-0.035
9.196,-0.100,-0.045
9.198,-0.155,-0.050
9.200,-0.125,-0.050
9.202,-0.120,-0.045
9.204,-0.100,-0.040
9.206,-0.105,-0.035
9.208,-0.125,-0.030
9.210,-0.190,-0.030
9.212,-0.145,-0.035
9.214,-0.120,-0.040
9.216,-0.115,-0.045
9.218,-0.115,-0.045
9.220,-0.160,-0.045
9.222,-0.160,-0.045
9.224,-0.140,-0.040
9.226,-0.035,-0.040
9.228,-0.065,-0.035
9.230,-0.170,-0.040
9.232,-0.200,-0.045
9.234,-0.155,-0.055
9.236,-0.140,-0.065
9.238,-0.200,-0.070
9.240,-0.150,-0.075
9.242,-0.105,-0.075
9.244,-0.140,-0.070
9.246,-0.135,-0.060
9.248,-0.090,-0.050
9.250,-0.125,-0.035
9.252,-0.125,-0.025
9.254,-0.110,-0.020
9.256,-0.130,-0.020
9.258,-0.175,-0.025
9.260,-0.115,-0.040
9.262,-0.125,-0.050
9.264,-0.140,-0.060
9.266,-0.110,-0.070
9.268,-0.160,-0.070
9.270,-0.165,-0.065
9.272,-0.140,-0.060
9.274,-0.130,-0.045
9.276,-0.080,-0.035
9.278,-0.110,-0.025
9.280,-0.110,-0.015
9.282,-0.070,-0.010
9.284,-0.095,-0.010
9.286,-0.075,-0.015
9.288,-0.070,-0.025
9.290,-0.140,-0.030
9.292,-0.140,-0.040
9.294,-0.130,-0.045
9.296,-0.140,-0.045
9.298,-0.135,-0.045
9.300,-0.070,-0.040
9.302,-0.070,-0.035
9.304,-0.105,-0.030
9.306,-0.155,-0.025
9.308,-0.145,-0.020
9.310,-0.115,-0.020
9.312,-0.060,-0.015
9.314,-0.060,-0.015
9.316,-0.135,-0.015
9.318,-0.120,-0.020
9.320,-0.070,-0.020
9.322,-0.085,-0.015
9.324,-0.090,-0.015
9.326,-0.105,-0.015
9.328,-0.100,-0.020
9.330,-0.095,-0.020
9.332,-0.130,-0.025
9.334,-0.135,-0.030
9.336,-0.125,-0.035
9.338,-0.110,-0.035
9.340,-0.070,-0.035
9.342,-0.090,-0.030
9.344,-0.080,-0.025
9.346,-0.100,-0.020
9.348,-0.105,-0.010
9.350,-0.130,-0.005
9.352,-0.105,0.000
9.354,-0.095,0.000
9.356,-0.105,0.000
9.358,-0.090,-0.005
9.360,-0.075,-0.015
9.362,-0.105,-0.020
9.364,-0.110,-0.030
9.366,-0.100,-0.030
9.368,-0.100,-0.035
9.370,-0.150,-0.030
9.372,-0.095,-0.025
9.374,-0.060,-0.020
9.376,-0.115,-0.015
9.378,-0.130,-0.005
9.380,-0.070,0.000
9.382,-0.085,0.000
9.384,-0.065,0.000
9.386,-0.090,-0.005
9.388,-0.115,-0.010
9.390,-0.130,-0.015
9.392,-0.095,-0.020
9.394,-0.120,-0.025
9.396,-0.130,-0.025
9.398,-0.100,-0.020
9.400,-0.090,-0.015
9.402,-0.095,-0.010
9.404,-0.080,0.000
9.406,-0.080,0.005
9.408,-0.085,0.010
9.410,-0.080,0.010
9.412,-0.090,0.005
9.414,-0.100,0.000
9.416,-0.090,-0.005
9.418,-0.075,-0.015
9.420,-0.075,-0.020
9.422,-0.090,-0.020
9.424,-0.100,-0.020
9.426,-0.105,-0.010
9.428,-0.060,0.000
9.430,-0.090,0.010
9.432,-0.055,0.020
9.434,-0.015,0.030
9.436,-0.040,0.035
9.438,-0.060,0.035
9.440,-0.055,0.030
9.442,-0.040,0.025
9.444,-0.075,0.025
9.446,-0.045,0.025
9.448,-0.030,0.025
9.450,-0.035,0.035
9.452,-0.020,0.045
9.454,-0.010,0.060
9.456,-0.030,0.070
9.458,0.005,0.080
9.460,0.050,0.090
9.462,0.015,0.090
9.464,-0.020,0.085
9.466,-0.015,0.080
9.468,-0.015,0.070
9.470,-0.045,0.060
9.472,0.010,0.050
9.474,-0.065,0.040
9.476,-0.090,0.035
9.478,-0.025,0.025
9.480,-0.040,0.020
9.482,-0.090,0.010
9.484,-0.085,0.000
9.486,-0.070,-0.015
9.488,-0.100,-0.025
9.490,-0.125,-0.035
9.492,-0.125,-0.045
9.494,-0.115,-0.045
9.496,-0.110,-0.045
9.498,-0.100,-0.040
9.500,-0.070,-0.035
9.502,-0.090,-0.025
9.504,-0.080,-0.020
9.506,-0.110,-0.015
9.508,-0.130,-0.010
9.510,-0.145,-0.015
9.512,-0.115,-0.015
9.514,-0.110,-0.020
9.516,-0.120,-0.030
9.518,-0.120,-0.035
9.520,-0.100,-0.045
9.522,-0.080,-0.050
9.524,-0.120,-0.050
9.526,-0.085,-0.050
9.528,-0.085,-0.050
9.530,-0.145,-0.045
9.532,-0.140,-0.040
9.534,-0.165,-0.035
9.536,-0.170,-0.030
9.538,-0.100,-0.035
9.540,-0.095,-0.040
9.542,-0.125,-0.045
9.544,-0.155,-0.055
9.546,-0.120,-0.055
9.548,-0.055,-0.045
9.550,-0.090,-0.015
9.552,-0.070,0.030
9.554,-0.040,0.090
9.556,0.050,0.170
9.558,0.205,0.255
9.560,0.320,0.330
9.562,0.390,0.390
9.564,0.435,0.420
9.566,0.415,0.415
9.568,0.360,0.365
9.570,0.220,0.285
9.572,0.065,0.180
9.574,-0.145,0.065
9.576,-0.265,-0.050
9.578,-0.295,-0.150
9.580,-0.305,-0.220
9.582,-0.330,-0.260
9.584,-0.310,-0.265
9.586,-0.235,-0.245
9.588,-0.265,-0.210
9.590,-0.255,-0.170
9.592,-0.230,-0.130
9.594,-0.160,-0.100
9.596,-0.175,-0.085
9.598,-0.200,-0.075
9.600,-0.220,-0.080
9.602,-0.150,-0.090
9.604,-0.150,-0.095
9.606,-0.125,-0.100
9.608,-0.170,-0.100
9.610,-0.160,-0.095
9.612,-0.110,-0.080
9.614,-0.120,-0.070
9.616,-0.130,-0.055
9.618,-0.110,-0.045
9.620,-0.115,-0.040
9.622,-0.100,-0.035
9.624,-0.080,-0.030
9.626,-0.065,-0.025
9.628,-0.105,-0.025
9.630,-0.065,-0.020
9.632,-0.065,-0.020
9.634,-0.115,-0.015
9.636,-0.100,-0.010
9.638,-0.105,-0.005
9.640,-0.105,-0.005
9.642,-0.120,-0.005
9.644,-0.125,-0.010
9.646,-0.060,-0.015
9.648,-0.075,-0.020
9.650,-0.090,-0.025
9.652,-0.090,-0.030
9.654,-0.130,-0.035
9.656,-0.105,-0.035
9.658,-0.075,-0.030
9.660,-0.110,-0.020
9.662,-0.100,-0.010
9.664,-0.045,0.005
9.666,-0.045,0.015
9.668,-0.085,0.025
9.670,-0.035,0.035
9.672,-0.035,0.040
9.674,-0.060,0.035
9.676,-0.075,0.030
9.678,-0.035,0.025
9.680,-0.070,0.015
9.682,-0.050,0.010
9.684,-0.070,0.005
9.686,-0.055,0.005
9.688,-0.065,0.010
9.690,-0.035,0.015
9.692,-0.035,0.025
9.694,-0.065,0.035
9.696,-0.040,0.045
9.698,-0.005,0.055
9.700,-0.015,0.065
9.702,0.045,0.070
9.704,0.015,0.075
9.706,-0.035,0.075
9.708,-0.025,0.070
9.710,-0.030,0.070
9.712,-0.035,0.065
9.714,-0.010,0.065
9.716,0.000,0.060
9.718,0.020,0.060
9.720,-0.030,0.060
9.722,-0.030,0.065
9.724,0.020,0.070
9.726,0.030,0.080
9.728,-0.005,0.090
9.730,0.000,0.095
9.732,0.045,0.105
9.734,0.075,0.110
9.736,0.100,0.115
9.738,0.050,0.115
9.740,0.055,0.115
9.742,0.045,0.115
9.744,0.040,0.110
9.746,0.050,0.110
9.748,0.015,0.115
9.750,0.065,0.120
9.752,0.035,0.130
9.754,0.055,0.135
9.756,0.090,0.145
9.758,0.120,0.150
9.760,0.095,0.155
9.762,0.075,0.160
9.764,0.080,0.160
9.766,0.090,0.160
9.768,0.095,0.160
9.770,0.105,0.160
9.772,0.120,0.165
9.774,0.070,0.170
9.776,0.130,0.175
9.778,0.170,0.180
9.780,0.100,0.185
9.782,0.095,0.190
9.784,0.105,0.190
9.786,0.085,0.190
9.788,0.080,0.190
9.790,0.135,0.190
9.792,0.150,0.185
9.794,0.150,0.185
9.796,0.155,0.190
9.798,0.075,0.190
9.800,0.115,0.195
9.802,0.100,0.195
9.804,0.115,0.195
9.806,0.115,0.195
9.808,0.090,0.190
9.810,0.090,0.180
9.812,0.120,0.175
9.814,0.080,0.165
9.816,0.065,0.155
9.818,0.060,0.150
9.820,0.085,0.140
9.822,0.055,0.135
9.824,0.065,0.130
9.826,0.055,0.125
9.828,0.030,0.120
9.830,0.010,0.115
9.832,0.030,0.105
9.834,-0.010,0.095
9.836,0.030,0.085
9.838,0.030,0.075
9.840,-0.010,0.065
9.842,-0.015,0.055
9.844,-0.050,0.045
9.846,-0.035,0.035
9.848,-0.035,0.025
9.850,-0.055,0.025
9.852,-0.020,0.020
9.854,-0.075,0.020
9.856,-0.080,0.020
9.858,-0.065,0.020
9.860,-0.065,0.020
9.862,-0.085,0.015
9.864,-0.085,0.010
9.866,-0.090,0.005
9.868,-0.070,-0.005
9.870,-0.070,-0.010
9.872,-0.100,-0.015
9.874,-0.140,-0.015
9.876,-0.060,-0.010
9.878,-0.050,-0.005
9.880,-0.055,0.000
9.882,-0.065,0.010
9.884,-0.100,0.015
9.886,-0.085,0.015
9.888,-0.085,0.010
9.890,-0.100,0.000
9.892,-0.085,-0.010
9.894,-0.105,-0.020
9.896,-0.090,-0.030
9.898,-0.110,-0.035
9.900,-0.125,-0.035
9.902,-0.090,-0.030
9.904,-0.105,-0.025
9.906,-0.135,-0.015
9.908,-0.075,-0.005
9.910,-0.055,0.000
9.912,-0.070,0.000
9.914,-0.045,0.000
9.916,-0.020,-0.005
9.918,-0.075,-0.010
9.920,-0.085,-0.015
9.922,-0.110,-0.015
9.924,-0.100,-0.015
9.926,-0.080,-0.015
9.928,-0.100,-0.015
9.930,-0.115,-0.015
9.932,-0.115,-0.015
9.934,-0.120,-0.020
9.936,-0.080,-0.020
9.938,-0.045,-0.025
9.940,-0.105,-0.030
9.942,-0.120,-0.030
9.944,-0.070,-0.025
9.946,-0.080,-0.025
9.948,-0.105,-0.020
9.950,-0.080,-0.010
9.952,-0.105,-0.010
9.954,-0.095,-0.005
9.956,-0.080,-0.005
9.958,-0.075,-0.005
9.960,-0.105,-0.010
9.962,-0.065,-0.010
9.964,-0.080,-0.015
9.966,-0.115,-0.020
9.968,-0.120,-0.020
9.970,-0.110,-0.025
9.972,-0.120,-0.025
9.974,-0.125,-0.025
9.976,-0.075,-0.030
9.978,-0.085,-0.030
9.980,-0.115,-0.030
9.982,-0.095,-0.030
9.984,-0.065,-0.030
9.986,-0.110,-0.030
9.988,-0.115,-0.025
9.990,-0.120,-0.025
9.992,-0.075,-0.020
9.994,-0.085,-0.020
9.996,-0.085,-0.025
9.998,-0.105,-0.030
