'Elapsed time','ECG I','ECG I filtered'
'seconds','mV','mV'
0.000,0.535,-0.040
0.002,0.255,-0.050
0.004,0.435,-0.050
0.006,0.470,-0.045
0.008,0.510,-0.040
0.010,0.610,-0.025
0.012,0.640,-0.015
0.014,0.765,-0.005
0.016,0.765,-0.005
0.018,0.610,-0.010
0.020,0.445,-0.015
0.022,0.320,-0.025
0.024,0.445,-0.035
0.026,0.490,-0.035
0.028,0.515,-0.030
0.030,0.610,-0.025
0.032,0.615,-0.015
0.034,0.765,-0.005
0.036,0.750,0.000
0.038,0.630,0.000
0.040,0.490,0.000
0.042,0.360,-0.005
0.044,0.430,-0.010
0.046,0.465,-0.010
0.048,0.560,-0.010
0.050,0.600,-0.010
0.052,0.625,-0.005
0.054,0.780,-0.005
0.056,0.745,-0.010
0.058,0.570,-0.015
0.060,0.445,-0.025
0.062,0.290,-0.030
0.064,0.455,-0.035
0.066,0.460,-0.030
0.068,0.550,-0.025
0.070,0.615,-0.010
0.072,0.630,0.000
0.074,0.775,0.005
0.076,0.725,0.005
0.078,0.635,-0.010
0.080,0.425,-0.025
0.082,0.275,-0.045
0.084,0.430,-0.060
0.086,0.410,-0.070
0.088,0.445,-0.065
0.090,0.595,-0.055
0.092,0.635,-0.035
0.094,0.785,-0.020
0.096,0.705,-0.005
0.098,0.605,0.000
0.100,0.465,-0.005
0.102,0.285,-0.015
0.104,0.470,-0.035
0.106,0.420,-0.055
0.108,0.540,-0.070
0.110,0.520,-0.075
0.112,0.575,-0.070
0.114,0.780,-0.055
0.116,0.710,-0.035
0.118,0.580,-0.020
0.120,0.405,-0.010
0.122,0.325,-0.005
0.124,0.450,-0.005
0.126,0.465,-0.015
0.128,0.530,-0.030
0.130,0.600,-0.040
0.132,0.570,-0.050
0.134,0.775,-0.055
0.136,0.660,-0.055
0.138,0.570,-0.055
0.140,0.370,-0.050
0.142,0.350,-0.045
0.144,0.475,-0.045
0.146,0.430,-0.045
0.148,0.485,-0.045
0.150,0.550,-0.045
0.152,0.605,-0.050
0.154,0.770,-0.050
0.156,0.670,-0.050
0.158,0.560,-0.050
0.160,0.345,-0.050
0.162,0.350,-0.050
0.164,0.470,-0.045
0.166,0.440,-0.040
0.168,0.480,-0.040
0.170,0.565,-0.035
0.172,0.580,-0.035
0.174,0.790,-0.030
0.176,0.700,-0.030
0.178,0.570,-0.035
0.180,0.360,-0.035
0.182,0.350,-0.040
0.184,0.425,-0.045
0.186,0.450,-0.050
0.188,0.545,-0.050
0.190,0.580,-0.050
0.192,0.660,-0.050
0.194,0.750,-0.045
0.196,0.650,-0.040
0.198,0.580,-0.035
0.200,0.335,-0.035
0.202,0.325,-0.035
0.204,0.475,-0.035
0.206,0.470,-0.035
0.208,0.555,-0.035
0.210,0.595,-0.030
0.212,0.680,-0.025
0.214,0.775,-0.015
0.216,0.645,-0.010
0.218,0.560,-0.005
0.220,0.310,0.000
0.222,0.435,-0.005
0.224,0.510,-0.015
0.226,0.525,-0.025
0.228,0.500,-0.035
0.230,0.600,-0.045
0.232,0.715,-0.055
0.234,0.725,-0.055
0.236,0.565,-0.050
0.238,0.515,-0.040
0.240,0.320,-0.035
0.242,0.435,-0.030
0.244,0.440,-0.030
0.246,0.455,-0.030
0.248,0.500,-0.040
0.250,0.610,-0.045
0.252,0.700,-0.055
0.254,0.745,-0.060
0.256,0.575,-0.055
0.258,0.530,-0.050
0.260,0.320,-0.040
0.262,0.395,-0.025
0.264,0.475,-0.020
0.266,0.500,-0.015
0.268,0.555,-0.015
0.270,0.570,-0.020
0.272,0.690,-0.035
0.274,0.730,-0.045
0.276,0.595,-0.055
0.278,0.480,-0.065
0.280,0.280,-0.065
0.282,0.405,-0.065
0.284,0.400,-0.055
0.286,0.485,-0.045
0.288,0.550,-0.035
0.290,0.585,-0.025
0.292,0.735,-0.020
0.294,0.705,-0.020
0.296,0.600,-0.025
0.298,0.490,-0.030
0.300,0.250,-0.035
0.302,0.425,-0.040
0.304,0.455,-0.040
0.306,0.470,-0.035
0.308,0.610,-0.030
0.310,0.595,-0.020
0.312,0.775,-0.010
0.314,0.785,0.005
0.316,0.625,0.015
0.318,0.475,0.025
0.320,0.315,0.035
0.322,0.490,0.040
0.324,0.505,0.040
0.326,0.550,0.040
0.328,0.655,0.035
0.330,0.655,0.035
0.332,0.795,0.035
0.334,0.765,0.040
0.336,0.670,0.050
0.338,0.495,0.060
0.340,0.365,0.070
0.342,0.535,0.080
0.344,0.555,0.090
0.346,0.600,0.090
0.348,0.705,0.090
0.350,0.710,0.085
0.352,0.835,0.080
0.354,0.835,0.075
0.356,0.685,0.070
0.358,0.515,0.070
0.360,0.380,0.070
0.362,0.530,0.075
0.364,0.550,0.075
0.366,0.605,0.075
0.368,0.645,0.070
0.370,0.670,0.065
0.372,0.830,0.060
0.374,0.775,0.055
0.376,0.655,0.050
0.378,0.495,0.050
0.380,0.330,0.055
0.382,0.500,0.055
0.384,0.520,0.055
0.386,0.590,0.050
0.388,0.615,0.040
0.390,0.625,0.030
0.392,0.770,0.020
0.394,0.755,0.005
0.396,0.625,0.000
0.398,0.410,0.000
0.400,0.250,0.000
0.402,0.445,0.005
0.404,0.470,0.010
0.406,0.550,0.010
0.408,0.595,0.010
0.410,0.605,0.000
0.412,0.770,-0.010
0.414,0.675,-0.020
0.416,0.515,-0.025
0.418,0.445,-0.030
0.420,0.365,-0.030
0.422,0.470,-0.025
0.424,0.410,-0.020
0.426,0.470,-0.015
0.428,0.550,-0.015
0.430,0.550,-0.020
0.432,0.725,-0.030
0.434,0.650,-0.040
0.436,0.530,-0.055
0.438,0.360,-0.065
0.440,0.300,-0.070
0.442,0.420,-0.075
0.444,0.380,-0.075
0.446,0.460,-0.080
0.448,0.495,-0.085
0.450,0.470,-0.100
0.452,0.640,-0.115
0.454,0.520,-0.135
0.456,0.410,-0.150
0.458,0.165,-0.160
0.460,0.240,-0.150
0.462,0.350,-0.120
0.464,0.365,-0.065
0.466,0.530,0.015
0.468,0.745,0.120
0.470,0.845,0.245
0.472,1.125,0.380
0.474,1.210,0.520
0.476,1.270,0.655
0.478,1.160,0.765
0.480,1.330,0.850
0.482,1.410,0.905
0.484,1.370,0.915
0.486,1.375,0.890
0.488,1.425,0.830
0.490,1.370,0.740
0.492,1.350,0.630
0.494,1.155,0.505
0.496,0.915,0.385
0.498,0.625,0.275
0.500,0.585,0.175
0.502,0.515,0.095
0.504,0.405,0.030
0.506,0.520,-0.020
0.508,0.505,-0.065
0.510,0.555,-0.095
0.512,0.655,-0.125
0.514,0.445,-0.145
0.516,0.425,-0.165
0.518,0.135,-0.175
0.520,0.210,-0.180
0.522,0.265,-0.175
0.524,0.315,-0.170
0.526,0.380,-0.155
0.528,0.450,-0.140
0.530,0.555,-0.125
0.532,0.665,-0.110
0.534,0.485,-0.100
0.536,0.445,-0.095
0.538,0.185,-0.090
0.540,0.310,-0.085
0.542,0.390,-0.085
0.544,0.390,-0.080
0.546,0.490,-0.080
0.548,0.500,-0.075
0.550,0.595,-0.070
0.552,0.650,-0.065
0.554,0.535,-0.060
0.556,0.425,-0.055
0.558,0.230,-0.055
0.560,0.355,-0.050
0.562,0.405,-0.050
0.564,0.430,-0.050
0.566,0.490,-0.050
0.568,0.505,-0.050
0.570,0.605,-0.050
0.572,0.650,-0.050
0.574,0.545,-0.050
0.576,0.425,-0.050
0.578,0.205,-0.045
0.580,0.390,-0.040
0.582,0.440,-0.030
0.584,0.455,-0.025
0.586,0.540,-0.015
0.588,0.530,-0.015
0.590,0.690,-0.010
0.592,0.660,-0.015
0.594,0.530,-0.020
0.596,0.395,-0.025
0.598,0.215,-0.035
0.600,0.390,-0.040
0.602,0.440,-0.045
0.604,0.415,-0.040
0.606,0.535,-0.035
0.608,0.530,-0.025
0.610,0.685,-0.015
0.612,0.710,0.000
0.614,0.590,0.010
0.616,0.415,0.015
0.618,0.195,0.020
0.620,0.445,0.020
0.622,0.505,0.015
0.624,0.450,0.010
0.626,0.615,0.005
0.628,0.600,0.005
0.630,0.700,0.005
0.632,0.670,0.015
0.634,0.575,0.020
0.636,0.435,0.025
0.638,0.240,0.030
0.640,0.430,0.035
0.642,0.450,0.030
0.644,0.460,0.025
0.646,0.555,0.020
0.648,0.610,0.015
0.650,0.720,0.015
0.652,0.665,0.020
0.654,0.580,0.025
0.656,0.440,0.040
0.658,0.300,0.055
0.660,0.485,0.070
0.662,0.485,0.085
0.664,0.510,0.090
0.666,0.635,0.090
0.668,0.665,0.090
0.670,0.815,0.090
0.672,0.775,0.090
0.674,0.615,0.095
0.676,0.505,0.105
0.678,0.350,0.115
0.680,0.525,0.125
0.682,0.510,0.135
0.684,0.605,0.140
0.686,0.705,0.140
0.688,0.685,0.145
0.690,0.845,0.145
0.692,0.785,0.150
0.694,0.695,0.160
0.696,0.580,0.175
0.698,0.435,0.190
0.700,0.600,0.205
0.702,0.595,0.220
0.704,0.675,0.230
0.706,0.730,0.230
0.708,0.755,0.225
0.710,0.965,0.220
0.712,0.830,0.215
0.714,0.810,0.215
0.716,0.525,0.220
0.718,0.505,0.230
0.720,0.690,0.245
0.722,0.660,0.265
0.724,0.700,0.280
0.726,0.775,0.290
0.728,0.785,0.295
0.730,0.995,0.290
0.732,0.930,0.275
0.734,0.810,0.260
0.736,0.535,0.250
0.738,0.555,0.235
0.740,0.640,0.230
0.742,0.615,0.230
0.744,0.685,0.230
0.746,0.790,0.225
0.748,0.760,0.225
0.750,0.890,0.215
0.752,0.785,0.200
0.754,0.705,0.180
0.756,0.480,0.160
0.758,0.420,0.140
0.760,0.495,0.120
0.762,0.485,0.105
0.764,0.510,0.090
0.766,0.635,0.080
0.768,0.670,0.075
0.770,0.740,0.065
0.772,0.630,0.060
0.774,0.565,0.050
0.776,0.315,0.045
0.778,0.350,0.035
0.780,0.420,0.025
0.782,0.425,0.015
0.784,0.420,0.005
0.786,0.515,0.000
0.788,0.565,-0.005
0.790,0.650,-0.010
0.792,0.545,-0.015
0.794,0.460,-0.015
0.796,0.230,-0.015
0.798,0.330,-0.015
0.800,0.325,-0.015
0.802,0.340,-0.015
0.804,0.400,-0.015
0.806,0.545,-0.025
0.808,0.575,-0.035
0.810,0.575,-0.050
0.812,0.440,-0.065
0.814,0.410,-0.075
0.816,0.135,-0.085
0.818,0.275,-0.095
0.820,0.280,-0.100
0.822,0.300,-0.100
0.824,0.325,-0.100
0.826,0.405,-0.095
0.828,0.525,-0.095
0.830,0.570,-0.095
0.832,0.450,-0.095
0.834,0.360,-0.095
0.836,0.085,-0.100
0.838,0.200,-0.100
0.840,0.300,-0.105
0.842,0.285,-0.105
0.844,0.355,-0.105
0.846,0.345,-0.105
0.848,0.495,-0.105
0.850,0.540,-0.100
0.852,0.450,-0.095
0.854,0.360,-0.090
0.856,0.120,-0.085
0.858,0.235,-0.080
0.860,0.270,-0.075
0.862,0.310,-0.080
0.864,0.360,-0.085
0.866,0.430,-0.095
0.868,0.505,-0.110
0.870,0.480,-0.120
0.872,0.335,-0.130
0.874,0.210,-0.135
0.876,0.080,-0.140
0.878,0.200,-0.135
0.880,0.255,-0.130
0.882,0.275,-0.120
0.884,0.375,-0.115
0.886,0.405,-0.110
0.888,0.505,-0.110
0.890,0.500,-0.110
0.892,0.370,-0.110
0.894,0.285,-0.115
0.896,0.065,-0.115
0.898,0.215,-0.110
0.900,0.260,-0.100
0.902,0.310,-0.090
0.904,0.410,-0.080
0.906,0.410,-0.070
0.908,0.590,-0.065
0.910,0.505,-0.055
0.912,0.380,-0.050
0.914,0.275,-0.050
0.916,0.145,-0.050
0.918,0.270,-0.045
0.920,0.290,-0.045
0.922,0.345,-0.040
0.924,0.435,-0.040
0.926,0.455,-0.040
0.928,0.565,-0.035
0.930,0.540,-0.040
0.932,0.430,-0.040
0.934,0.240,-0.040
0.936,0.100,-0.045
0.938,0.305,-0.045
0.940,0.300,-0.050
0.942,0.310,-0.055
0.944,0.420,-0.055
0.946,0.505,-0.055
0.948,0.575,-0.055
0.950,0.500,-0.050
0.952,0.420,-0.045
0.954,0.265,-0.040
0.956,0.130,-0.030
0.958,0.300,-0.020
0.960,0.310,-0.015
0.962,0.355,-0.010
0.964,0.420,-0.010
0.966,0.420,-0.015
0.968,0.615,-0.020
0.970,0.555,-0.025
0.972,0.445,-0.025
0.974,0.290,-0.025
0.976,0.140,-0.025
0.978,0.260,-0.015
0.980,0.310,-0.010
0.982,0.430,0.000
0.984,0.435,0.010
0.986,0.505,0.010
0.988,0.645,0.010
0.990,0.565,0.010
0.992,0.425,0.005
0.994,0.265,0.000
0.996,0.185,-0.005
0.998,0.305,-0.005
1.000,0.285,-0.005
1.002,0.405,-0.005
1.004,0.475,-0.005
1.006,0.430,0.000
1.008,0.620,0.000
1.010,0.550,0.000
1.012,0.465,0.000
1.014,0.250,0.000
1.016,0.185,0.000
1.018,0.325,0.000
1.020,0.300,0.000
1.022,0.400,0.005
1.024,0.465,0.015
1.026,0.465,0.020
1.028,0.635,0.025
1.030,0.540,0.030
1.032,0.445,0.035
1.034,0.265,0.035
1.036,0.255,0.035
1.038,0.350,0.030
1.040,0.330,0.030
1.042,0.375,0.030
1.044,0.475,0.030
1.046,0.525,0.030
1.048,0.665,0.035
1.050,0.540,0.040
1.052,0.475,0.040
1.054,0.235,0.045
1.056,0.230,0.045
1.058,0.355,0.040
1.060,0.370,0.040
1.062,0.390,0.035
1.064,0.490,0.035
1.066,0.535,0.040
1.068,0.590,0.045
1.070,0.580,0.050
1.072,0.455,0.055
1.074,0.275,0.060
1.076,0.270,0.060
1.078,0.320,0.060
1.080,0.380,0.055
1.082,0.430,0.045
1.084,0.445,0.035
1.086,0.490,0.025
1.088,0.590,0.020
1.090,0.525,0.020
1.092,0.450,0.025
1.094,0.195,0.030
1.096,0.270,0.040
1.098,0.345,0.055
1.100,0.370,0.060
1.102,0.425,0.065
1.104,0.505,0.065
1.106,0.535,0.065
1.108,0.610,0.060
1.110,0.520,0.055
1.112,0.445,0.050
1.114,0.180,0.050
1.116,0.285,0.055
1.118,0.345,0.065
1.120,0.375,0.075
1.122,0.445,0.085
1.124,0.505,0.090
1.126,0.635,0.100
1.128,0.640,0.105
1.130,0.565,0.105
1.132,0.465,0.105
1.134,0.200,0.110
1.136,0.340,0.110
1.138,0.415,0.110
1.140,0.425,0.110
1.142,0.510,0.110
1.144,0.560,0.110
1.146,0.630,0.105
1.148,0.635,0.100
1.150,0.520,0.090
1.152,0.370,0.085
1.154,0.175,0.080
1.156,0.330,0.075
1.158,0.350,0.070
1.160,0.370,0.070
1.162,0.490,0.070
1.164,0.500,0.065
1.166,0.595,0.065
1.168,0.580,0.055
1.170,0.425,0.050
1.172,0.310,0.040
1.174,0.115,0.025
1.176,0.245,0.015
1.178,0.280,0.005
1.180,0.295,-0.005
1.182,0.355,-0.010
1.184,0.385,-0.015
1.186,0.520,-0.020
1.188,0.500,-0.020
1.190,0.375,-0.025
1.192,0.240,-0.025
1.194,0.050,-0.030
1.196,0.190,-0.030
1.198,0.215,-0.035
1.200,0.260,-0.035
1.202,0.350,-0.035
1.204,0.335,-0.030
1.206,0.525,-0.025
1.208,0.505,-0.015
1.210,0.375,-0.005
1.212,0.260,0.005
1.214,0.080,0.010
1.216,0.265,0.020
1.218,0.280,0.020
1.220,0.290,0.020
1.222,0.375,0.020
1.224,0.405,0.015
1.226,0.555,0.005
1.228,0.530,0.000
1.230,0.370,-0.005
1.232,0.195,-0.010
1.234,0.030,-0.020
1.236,0.275,-0.030
1.238,0.195,-0.040
1.240,0.195,-0.055
1.242,0.270,-0.070
1.244,0.315,-0.085
1.246,0.420,-0.090
1.248,0.450,-0.085
1.250,0.310,-0.065
1.252,0.160,-0.025
1.254,0.120,0.040
1.256,0.380,0.125
1.258,0.460,0.235
1.260,0.625,0.355
1.262,0.885,0.480
1.264,1.080,0.605
1.266,1.310,0.725
1.268,1.355,0.820
1.270,1.370,0.890
1.272,1.140,0.925
1.274,0.975,0.925
1.276,1.150,0.895
1.278,1.070,0.825
1.280,0.985,0.735
1.282,0.980,0.625
1.284,0.925,0.505
1.286,0.935,0.385
1.288,0.725,0.270
1.290,0.490,0.175
1.292,0.225,0.090
1.294,0.075,0.025
1.296,0.185,-0.030
1.298,0.130,-0.070
1.300,0.220,-0.100
1.302,0.240,-0.125
1.304,0.250,-0.140
1.306,0.325,-0.155
1.308,0.280,-0.160
1.310,0.180,-0.155
1.312,0.010,-0.150
1.314,0.010,-0.135
1.316,0.150,-0.120
1.318,0.120,-0.105
1.320,0.165,-0.090
1.322,0.260,-0.085
1.324,0.285,-0.080
1.326,0.430,-0.080
1.328,0.350,-0.085
1.330,0.270,-0.085
1.332,0.085,-0.080
1.334,0.055,-0.075
1.336,0.165,-0.065
1.338,0.210,-0.055
1.340,0.245,-0.045
1.342,0.310,-0.040
1.344,0.340,-0.040
1.346,0.465,-0.050
1.348,0.310,-0.060
1.350,0.295,-0.070
1.352,0.065,-0.080
1.354,0.075,-0.085
1.356,0.135,-0.085
1.358,0.190,-0.075
1.360,0.225,-0.065
1.362,0.330,-0.050
1.364,0.405,-0.040
1.366,0.495,-0.030
1.368,0.335,-0.025
1.370,0.245,-0.020
1.372,0.070,-0.025
1.374,0.155,-0.030
1.376,0.185,-0.035
1.378,0.205,-0.040
1.380,0.235,-0.045
1.382,0.310,-0.045
1.384,0.395,-0.045
1.386,0.465,-0.040
1.388,0.380,-0.040
1.390,0.315,-0.035
1.392,0.015,-0.035
1.394,0.120,-0.035
1.396,0.180,-0.040
1.398,0.140,-0.040
1.400,0.195,-0.045
1.402,0.350,-0.050
1.404,0.430,-0.050
1.406,0.480,-0.050
1.408,0.350,-0.050
1.410,0.270,-0.050
1.412,-0.005,-0.045
1.414,0.110,-0.040
1.416,0.110,-0.035
1.418,0.225,-0.030
1.420,0.290,-0.025
1.422,0.350,-0.025
1.424,0.445,-0.025
1.426,0.460,-0.025
1.428,0.325,-0.025
1.430,0.265,-0.020
1.432,0.010,-0.020
1.434,0.165,-0.015
1.436,0.200,-0.010
1.438,0.225,-0.010
1.440,0.260,-0.010
1.442,0.345,-0.005
1.444,0.480,-0.005
1.446,0.510,-0.005
1.448,0.355,-0.005
1.450,0.200,0.000
1.452,0.015,0.000
1.454,0.175,0.005
1.456,0.250,0.010
1.458,0.185,0.020
1.460,0.365,0.020
1.462,0.410,0.025
1.464,0.500,0.030
1.466,0.530,0.035
1.468,0.335,0.040
1.470,0.275,0.050
1.472,0.130,0.060
1.474,0.265,0.075
1.476,0.250,0.085
1.478,0.330,0.095
1.480,0.400,0.105
1.482,0.430,0.110
1.484,0.585,0.115
1.486,0.570,0.120
1.488,0.435,0.120
1.490,0.330,0.125
1.492,0.155,0.130
1.494,0.320,0.135
1.496,0.330,0.145
1.498,0.400,0.150
1.500,0.440,0.160
1.502,0.465,0.165
1.504,0.655,0.170
1.506,0.615,0.175
1.508,0.500,0.180
1.510,0.365,0.180
1.512,0.210,0.185
1.514,0.355,0.185
1.516,0.355,0.185
1.518,0.390,0.180
1.520,0.465,0.175
1.522,0.445,0.165
1.524,0.645,0.155
1.526,0.620,0.145
1.528,0.425,0.135
1.530,0.285,0.130
1.532,0.195,0.125
1.534,0.330,0.120
1.536,0.280,0.115
1.538,0.290,0.110
1.540,0.340,0.100
1.542,0.440,0.085
1.544,0.580,0.070
1.546,0.530,0.050
1.548,0.355,0.035
1.550,0.150,0.020
1.552,-0.015,0.010
1.554,0.140,0.000
1.556,0.175,0.000
1.558,0.225,-0.005
1.560,0.300,-0.005
1.562,0.375,-0.005
1.564,0.465,-0.010
1.566,0.380,-0.020
1.568,0.240,-0.030
1.570,0.065,-0.040
1.572,-0.040,-0.050
1.574,0.125,-0.055
1.576,0.110,-0.065
1.578,0.205,-0.070
1.580,0.235,-0.075
1.582,0.200,-0.080
1.584,0.415,-0.080
1.586,0.305,-0.085
1.588,0.205,-0.090
1.590,-0.005,-0.095
1.592,-0.050,-0.105
1.594,0.060,-0.110
1.596,0.050,-0.115
1.598,0.095,-0.125
1.600,0.215,-0.125
1.602,0.200,-0.130
1.604,0.335,-0.125
1.606,0.260,-0.120
1.608,0.190,-0.115
1.610,-0.020,-0.110
1.612,-0.025,-0.105
1.614,0.095,-0.100
1.616,0.065,-0.100
1.618,0.070,-0.100
1.620,0.215,-0.105
1.622,0.265,-0.110
1.624,0.360,-0.115
1.626,0.230,-0.115
1.628,0.165,-0.120
1.630,-0.045,-0.120
1.632,0.005,-0.120
1.634,0.075,-0.115
1.636,0.030,-0.110
1.638,0.090,-0.110
1.640,0.185,-0.105
1.642,0.265,-0.105
1.644,0.365,-0.100
1.646,0.300,-0.100
1.648,0.180,-0.100
1.650,-0.050,-0.095
1.652,-0.035,-0.095
1.654,0.060,-0.090
1.656,0.120,-0.090
1.658,0.145,-0.090
1.660,0.195,-0.090
1.662,0.235,-0.090
1.664,0.355,-0.090
1.666,0.245,-0.095
1.668,0.215,-0.095
1.670,-0.050,-0.095
1.672,-0.005,-0.095
1.674,0.060,-0.100
1.676,0.110,-0.105
1.678,0.090,-0.110
1.680,0.170,-0.115
1.682,0.275,-0.120
1.684,0.275,-0.120
1.686,0.220,-0.115
1.688,0.165,-0.110
1.690,-0.060,-0.100
1.692,0.020,-0.085
1.694,0.085,-0.075
1.696,0.090,-0.070
1.698,0.150,-0.075
1.700,0.220,-0.080
1.702,0.275,-0.090
1.704,0.345,-0.105
1.706,0.210,-0.115
1.708,0.135,-0.125
1.710,-0.115,-0.125
1.712,0.000,-0.125
1.714,0.045,-0.115
1.716,0.055,-0.105
1.718,0.125,-0.095
1.720,0.195,-0.090
1.722,0.345,-0.085
1.724,0.340,-0.085
1.726,0.205,-0.090
1.728,0.080,-0.095
1.730,-0.155,-0.095
1.732,0.035,-0.095
1.734,0.075,-0.095
1.736,0.105,-0.090
1.738,0.185,-0.090
1.740,0.185,-0.090
1.742,0.315,-0.090
1.744,0.310,-0.100
1.746,0.205,-0.105
1.748,0.045,-0.115
1.750,-0.170,-0.120
1.752,0.000,-0.125
1.754,0.020,-0.125
1.756,0.065,-0.120
1.758,0.175,-0.115
1.760,0.205,-0.105
1.762,0.350,-0.095
1.764,0.335,-0.090
1.766,0.175,-0.085
1.768,0.030,-0.090
1.770,-0.145,-0.090
1.772,0.040,-0.095
1.774,0.015,-0.100
1.776,0.070,-0.105
1.778,0.190,-0.110
1.780,0.175,-0.115
1.782,0.310,-0.115
1.784,0.320,-0.115
1.786,0.170,-0.110
1.788,0.025,-0.105
1.790,-0.155,-0.105
1.792,0.010,-0.100
1.794,0.040,-0.100
1.796,0.070,-0.100
1.798,0.150,-0.100
1.800,0.185,-0.100
1.802,0.330,-0.105
1.804,0.315,-0.105
1.806,0.150,-0.110
1.808,-0.025,-0.110
1.810,-0.165,-0.110
1.812,0.005,-0.115
1.814,0.030,-0.120
1.816,0.030,-0.125
1.818,0.090,-0.130
1.820,0.180,-0.135
1.822,0.285,-0.135
1.824,0.285,-0.140
1.826,0.150,-0.140
1.828,-0.050,-0.135
1.830,-0.160,-0.130
1.832,0.010,-0.125
1.834,-0.045,-0.120
1.836,0.070,-0.120
1.838,0.135,-0.120
1.840,0.130,-0.125
1.842,0.325,-0.135
1.844,0.250,-0.140
1.846,0.185,-0.145
1.848,-0.060,-0.150
1.850,-0.215,-0.150
1.852,-0.050,-0.150
1.854,-0.050,-0.150
1.856,0.040,-0.150
1.858,0.115,-0.145
1.860,0.135,-0.145
1.862,0.305,-0.145
1.864,0.235,-0.145
1.866,0.105,-0.145
1.868,-0.070,-0.145
1.870,-0.165,-0.150
1.872,-0.020,-0.150
1.874,-0.025,-0.155
1.876,-0.015,-0.160
1.878,0.105,-0.160
1.880,0.145,-0.160
1.882,0.275,-0.160
1.884,0.195,-0.155
1.886,0.135,-0.150
1.888,-0.025,-0.140
1.890,-0.190,-0.140
1.892,-0.060,-0.135
1.894,-0.060,-0.140
1.896,0.070,-0.145
1.898,0.115,-0.150
1.900,0.215,-0.160
1.902,0.290,-0.165
1.904,0.165,-0.170
1.906,0.075,-0.170
1.908,-0.110,-0.165
1.910,-0.155,-0.155
1.912,-0.045,-0.150
1.914,-0.035,-0.150
1.916,0.010,-0.150
1.918,0.100,-0.155
1.920,0.130,-0.160
1.922,0.290,-0.165
1.924,0.135,-0.165
1.926,0.040,-0.160
1.928,-0.120,-0.150
1.930,-0.060,-0.140
1.932,-0.010,-0.130
1.934,-0.005,-0.120
1.936,0.060,-0.115
1.938,0.160,-0.120
1.940,0.185,-0.130
1.942,0.275,-0.140
1.944,0.135,-0.155
1.946,0.105,-0.160
1.948,-0.170,-0.165
1.950,-0.110,-0.160
1.952,0.000,-0.155
1.954,-0.015,-0.145
1.956,-0.020,-0.135
1.958,0.155,-0.125
1.960,0.250,-0.120
1.962,0.305,-0.115
1.964,0.185,-0.115
1.966,0.090,-0.115
1.968,-0.135,-0.110
1.970,-0.030,-0.110
1.972,0.020,-0.105
1.974,0.070,-0.095
1.976,0.065,-0.090
1.978,0.145,-0.090
1.980,0.220,-0.085
1.982,0.335,-0.085
1.984,0.210,-0.085
1.986,0.160,-0.080
1.988,-0.090,-0.070
1.990,-0.010,-0.060
1.992,0.080,-0.050
1.994,0.070,-0.040
1.996,0.190,-0.030
1.998,0.285,-0.025
2.000,0.360,-0.015
2.002,0.425,-0.010
2.004,0.260,-0.005
2.006,0.185,0.000
2.008,-0.060,0.010
2.010,0.085,0.015
2.012,0.185,0.020
2.014,0.150,0.015
2.016,0.220,0.010
2.018,0.205,0.000
2.020,0.355,-0.015
2.022,0.335,-0.030
2.024,0.245,-0.040
2.026,0.070,-0.050
2.028,-0.110,-0.050
2.030,0.060,-0.045
2.032,0.080,-0.040
2.034,0.125,-0.035
2.036,0.195,-0.030
2.038,0.225,-0.035
2.040,0.305,-0.045
2.042,0.285,-0.060
2.044,0.170,-0.075
2.046,0.030,-0.095
2.048,-0.165,-0.110
2.050,-0.035,-0.120
2.052,0.000,-0.125
2.054,0.025,-0.130
2.056,0.170,-0.125
2.058,0.140,-0.125
2.060,0.240,-0.120
2.062,0.245,-0.120
2.064,0.110,-0.120
2.066,-0.025,-0.120
2.068,-0.150,-0.120
2.070,-0.030,-0.120
2.072,-0.030,-0.120
2.074,0.010,-0.120
2.076,0.115,-0.125
2.078,0.140,-0.125
2.080,0.275,-0.125
2.082,0.285,-0.125
2.084,0.150,-0.125
2.086,-0.060,-0.125
2.088,-0.200,-0.125
2.090,-0.055,-0.125
2.092,-0.020,-0.125
2.094,0.015,-0.130
2.096,0.115,-0.135
2.098,0.110,-0.150
2.100,0.285,-0.165
2.102,0.145,-0.180
2.104,0.000,-0.195
2.106,-0.160,-0.210
2.108,-0.275,-0.210
2.110,-0.090,-0.205
2.112,-0.065,-0.180
2.114,-0.025,-0.145
2.116,0.145,-0.085
2.118,0.235,0.000
2.120,0.470,0.100
2.122,0.600,0.220
2.124,0.645,0.355
2.126,0.595,0.495
2.128,0.620,0.630
2.130,0.900,0.750
2.132,0.965,0.850
2.134,1.190,0.915
2.136,1.210,0.945
2.138,1.210,0.935
2.140,1.275,0.890
2.142,1.135,0.810
2.144,0.940,0.705
2.146,0.690,0.590
2.148,0.415,0.465
2.150,0.465,0.345
2.152,0.330,0.230
2.154,0.265,0.130
2.156,0.210,0.045
2.158,0.180,-0.025
2.160,0.290,-0.080
2.162,0.230,-0.115
2.164,0.120,-0.140
2.166,-0.120,-0.155
2.168,-0.185,-0.155
2.170,-0.070,-0.155
2.172,-0.045,-0.155
2.174,-0.010,-0.150
2.176,0.130,-0.150
2.178,0.165,-0.150
2.180,0.235,-0.150
2.182,0.105,-0.150
2.184,0.070,-0.145
2.186,-0.090,-0.140
2.188,-0.065,-0.130
2.190,0.020,-0.115
2.192,0.005,-0.105
2.194,0.050,-0.095
2.196,0.090,-0.090
2.198,0.110,-0.090
2.200,0.305,-0.100
2.202,0.235,-0.110
2.204,0.120,-0.120
2.206,-0.115,-0.130
2.208,-0.180,-0.135
2.210,-0.005,-0.130
2.212,0.000,-0.130
2.214,0.025,-0.120
2.216,0.125,-0.115
2.218,0.160,-0.110
2.220,0.285,-0.110
2.222,0.175,-0.115
2.224,0.090,-0.125
2.226,-0.135,-0.130
2.228,-0.065,-0.135
2.230,-0.050,-0.140
2.232,-0.015,-0.135
2.234,0.060,-0.125
2.236,0.130,-0.115
2.238,0.145,-0.105
2.240,0.265,-0.095
2.242,0.200,-0.090
2.244,0.120,-0.085
2.246,-0.060,-0.090
2.248,-0.025,-0.090
2.250,-0.005,-0.095
2.252,0.020,-0.095
2.254,0.060,-0.095
2.256,0.155,-0.095
2.258,0.255,-0.090
2.260,0.300,-0.085
2.262,0.215,-0.080
2.264,0.165,-0.075
2.266,-0.100,-0.075
2.268,-0.030,-0.080
2.270,0.025,-0.080
2.272,0.020,-0.080
2.274,0.115,-0.080
2.276,0.205,-0.070
2.278,0.280,-0.065
2.280,0.375,-0.050
2.282,0.255,-0.040
2.284,0.140,-0.025
2.286,-0.060,-0.020
2.288,0.010,-0.015
2.290,0.065,-0.020
2.292,0.075,-0.025
2.294,0.170,-0.030
2.296,0.235,-0.040
2.298,0.325,-0.045
2.300,0.340,-0.045
2.302,0.230,-0.040
2.304,0.190,-0.030
2.306,-0.110,-0.015
2.308,0.060,-0.005
2.310,0.120,0.010
2.312,0.145,0.020
2.314,0.270,0.030
2.316,0.300,0.035
2.318,0.410,0.040
2.320,0.430,0.040
2.322,0.290,0.045
2.324,0.180,0.050
2.326,-0.015,0.055
2.328,0.155,0.065
2.330,0.180,0.080
2.332,0.215,0.090
2.334,0.345,0.100
2.336,0.380,0.115
2.338,0.515,0.125
2.340,0.520,0.130
2.342,0.405,0.140
2.344,0.260,0.145
2.346,0.060,0.150
2.348,0.195,0.155
2.350,0.270,0.160
2.352,0.330,0.165
2.354,0.460,0.165
2.356,0.435,0.175
2.358,0.555,0.180
2.360,0.520,0.190
2.362,0.470,0.200
2.364,0.315,0.210
2.366,0.140,0.215
2.368,0.305,0.225
2.370,0.360,0.225
2.372,0.380,0.225
2.374,0.445,0.225
2.376,0.495,0.225
2.378,0.595,0.225
2.380,0.590,0.220
2.382,0.470,0.225
2.384,0.330,0.225
2.386,0.170,0.225
2.388,0.315,0.220
2.390,0.280,0.215
2.392,0.380,0.205
2.394,0.440,0.195
2.396,0.430,0.180
2.398,0.580,0.170
2.400,0.475,0.165
2.402,0.440,0.165
2.404,0.265,0.165
2.406,0.125,0.165
2.408,0.265,0.165
2.410,0.240,0.160
2.412,0.335,0.150
2.414,0.345,0.140
2.416,0.355,0.130
2.418,0.525,0.120
2.420,0.485,0.110
2.422,0.385,0.105
2.424,0.180,0.105
2.426,0.015,0.110
2.428,0.195,0.110
2.430,0.180,0.105
2.432,0.240,0.095
2.434,0.320,0.085
2.436,0.335,0.070
2.438,0.475,0.055
2.440,0.410,0.045
2.442,0.280,0.035
2.444,0.095,0.035
2.446,0.005,0.040
2.448,0.180,0.045
2.450,0.095,0.050
2.452,0.190,0.055
2.454,0.290,0.050
2.456,0.315,0.040
2.458,0.475,0.030
2.460,0.340,0.025
2.462,0.300,0.020
2.464,0.080,0.020
2.466,0.025,0.025
2.468,0.160,0.040
2.470,0.185,0.050
2.472,0.195,0.065
2.474,0.290,0.070
2.476,0.355,0.070
2.478,0.510,0.065
2.480,0.340,0.060
2.482,0.245,0.050
2.484,0.105,0.045
2.486,0.090,0.045
2.488,0.180,0.045
2.490,0.140,0.050
2.492,0.260,0.055
2.494,0.310,0.055
2.496,0.300,0.055
2.498,0.460,0.055
2.500,0.360,0.050
2.502,0.310,0.045
2.504,0.070,0.040
2.506,0.075,0.045
2.508,0.175,0.050
2.510,0.230,0.060
2.512,0.270,0.065
2.514,0.315,0.075
2.516,0.330,0.075
2.518,0.440,0.070
2.520,0.335,0.065
2.522,0.320,0.050
2.524,0.065,0.040
2.526,0.120,0.035
2.528,0.175,0.035
2.530,0.195,0.045
2.532,0.255,0.055
2.534,0.345,0.070
2.536,0.370,0.080
2.538,0.460,0.085
2.540,0.360,0.090
2.542,0.335,0.080
2.544,0.080,0.075
2.546,0.140,0.060
2.548,0.210,0.050
2.550,0.195,0.045
2.552,0.255,0.045
2.554,0.335,0.050
2.556,0.405,0.060
2.558,0.475,0.070
2.560,0.315,0.080
2.562,0.345,0.085
2.564,0.060,0.085
2.566,0.175,0.085
2.568,0.205,0.080
2.570,0.230,0.075
2.572,0.305,0.075
2.574,0.385,0.075
2.576,0.445,0.075
2.578,0.470,0.080
2.580,0.365,0.085
2.582,0.305,0.085
2.584,0.050,0.090
2.586,0.185,0.085
2.588,0.210,0.080
2.590,0.220,0.075
2.592,0.310,0.070
2.594,0.350,0.070
2.596,0.425,0.070
2.598,0.485,0.075
2.600,0.390,0.080
2.602,0.255,0.090
2.604,0.030,0.095
2.606,0.180,0.100
2.608,0.220,0.100
2.610,0.240,0.095
2.612,0.335,0.090
2.614,0.385,0.080
2.616,0.460,0.070
2.618,0.500,0.065
2.620,0.310,0.065
2.622,0.205,0.065
2.624,-0.030,0.065
2.626,0.200,0.070
2.628,0.190,0.070
2.630,0.220,0.070
2.632,0.305,0.065
2.634,0.310,0.055
2.636,0.470,0.040
2.638,0.410,0.030
2.640,0.245,0.025
2.642,0.175,0.020
2.644,0.030,0.025
2.646,0.145,0.030
2.648,0.190,0.040
2.650,0.250,0.050
2.652,0.345,0.055
2.654,0.295,0.055
2.656,0.440,0.050
2.658,0.395,0.040
2.660,0.290,0.030
2.662,0.160,0.020
2.664,-0.025,0.015
2.666,0.135,0.015
2.668,0.175,0.020
2.670,0.200,0.030
2.672,0.285,0.040
2.674,0.335,0.045
2.676,0.465,0.045
2.678,0.435,0.045
2.680,0.300,0.040
2.682,0.110,0.030
2.684,-0.035,0.020
2.686,0.140,0.015
2.688,0.160,0.005
2.690,0.180,0.005
2.692,0.245,0.005
2.694,0.285,0.010
2.696,0.460,0.015
2.698,0.405,0.020
2.700,0.285,0.025
2.702,0.130,0.025
2.704,-0.055,0.020
2.706,0.140,0.015
2.708,0.140,0.010
2.710,0.200,0.005
2.712,0.285,0.000
2.714,0.310,0.000
2.716,0.405,0.000
2.718,0.395,0.000
2.720,0.275,0.005
2.722,0.110,0.005
2.724,-0.040,0.010
2.726,0.160,0.010
2.728,0.135,0.010
2.730,0.190,0.005
2.732,0.315,0.000
2.734,0.300,-0.005
2.736,0.410,-0.010
2.738,0.390,-0.010
2.740,0.300,-0.010
2.742,0.080,-0.010
2.744,-0.030,-0.005
2.746,0.115,0.000
2.748,0.170,0.005
2.750,0.190,0.010
2.752,0.290,0.010
2.754,0.290,0.010
2.756,0.475,0.005
2.758,0.365,0.005
2.760,0.275,0.005
2.762,0.105,0.005
2.764,0.020,0.005
2.766,0.155,0.005
2.768,0.165,0.010
2.770,0.195,0.005
2.772,0.270,0.005
2.774,0.290,0.000
2.776,0.440,-0.005
2.778,0.350,-0.010
2.780,0.250,-0.015
2.782,0.060,-0.015
2.784,0.015,-0.015
2.786,0.185,-0.010
2.788,0.180,-0.010
2.790,0.205,-0.005
2.792,0.225,-0.005
2.794,0.265,-0.005
2.796,0.425,-0.010
2.798,0.330,-0.015
2.800,0.260,-0.020
2.802,0.080,-0.020
2.804,0.050,-0.020
2.806,0.150,-0.020
2.808,0.160,-0.015
2.810,0.185,-0.010
2.812,0.245,-0.005
2.814,0.350,-0.005
2.816,0.450,0.000
2.818,0.345,0.000
2.820,0.260,0.000
2.822,0.035,0.000
2.824,0.100,0.005
2.826,0.200,0.010
2.828,0.185,0.015
2.830,0.270,0.025
2.832,0.330,0.030
2.834,0.385,0.040
2.836,0.515,0.050
2.838,0.410,0.060
2.840,0.310,0.065
2.842,0.105,0.070
2.844,0.160,0.075
2.846,0.240,0.080
2.848,0.270,0.085
2.850,0.330,0.090
2.852,0.425,0.090
2.854,0.525,0.095
2.856,0.550,0.095
2.858,0.425,0.095
2.860,0.385,0.100
2.862,0.100,0.095
2.864,0.215,0.095
2.866,0.250,0.095
2.868,0.265,0.090
2.870,0.390,0.085
2.872,0.385,0.080
2.874,0.490,0.075
2.876,0.480,0.065
2.878,0.370,0.060
2.880,0.275,0.055
2.882,0.035,0.045
2.884,0.175,0.040
2.886,0.225,0.035
2.888,0.260,0.025
2.890,0.260,0.015
2.892,0.310,0.010
2.894,0.425,0.000
2.896,0.445,-0.005
2.898,0.325,-0.010
2.900,0.185,-0.010
2.902,-0.015,-0.015
2.904,0.135,-0.015
2.906,0.150,-0.020
2.908,0.150,-0.025
2.910,0.240,-0.030
2.912,0.240,-0.035
2.914,0.405,-0.045
2.916,0.395,-0.050
2.918,0.260,-0.055
2.920,0.120,-0.055
2.922,-0.015,-0.055
2.924,0.110,-0.050
2.926,0.160,-0.050
2.928,0.150,-0.045
2.930,0.205,-0.045
2.932,0.240,-0.050
2.934,0.415,-0.055
2.936,0.405,-0.060
2.938,0.255,-0.065
2.940,0.080,-0.075
2.942,-0.095,-0.080
2.944,0.080,-0.090
2.946,0.110,-0.100
2.948,0.095,-0.110
2.950,0.160,-0.125
2.952,0.180,-0.140
2.954,0.295,-0.160
2.956,0.250,-0.175
2.958,0.115,-0.190
2.960,-0.025,-0.195
2.962,-0.235,-0.190
2.964,0.020,-0.165
2.966,0.105,-0.120
2.968,0.110,-0.055
2.970,0.355,0.035
2.972,0.460,0.145
2.974,0.725,0.275
2.976,0.905,0.415
2.978,0.945,0.560
2.980,0.940,0.695
2.982,0.900,0.815
2.984,1.160,0.910
2.986,1.165,0.970
2.988,1.200,0.990
2.990,1.280,0.970
2.992,1.250,0.910
2.994,1.245,0.815
2.996,1.115,0.695
2.998,0.910,0.560
3.000,0.675,0.425
3.002,0.355,0.295
3.004,0.325,0.185
3.006,0.220,0.090
3.008,0.180,0.015
3.010,0.200,-0.040
3.012,0.280,-0.075
3.014,0.430,-0.105
3.016,0.330,-0.125
3.018,0.195,-0.135
3.020,-0.005,-0.145
3.022,-0.150,-0.155
3.024,0.025,-0.160
3.026,0.000,-0.160
3.028,0.115,-0.155
3.030,0.210,-0.150
3.032,0.165,-0.140
3.034,0.360,-0.125
3.036,0.315,-0.115
3.038,0.215,-0.110
3.040,0.055,-0.105
3.042,-0.040,-0.105
3.044,0.075,-0.105
3.046,0.070,-0.110
3.048,0.120,-0.120
3.050,0.195,-0.125
3.052,0.190,-0.125
3.054,0.410,-0.125
3.056,0.315,-0.125
3.058,0.190,-0.120
3.060,-0.055,-0.115
3.062,0.035,-0.110
3.064,0.155,-0.105
3.066,0.080,-0.105
3.068,0.170,-0.105
3.070,0.265,-0.105
3.072,0.215,-0.105
3.074,0.355,-0.105
3.076,0.315,-0.105
3.078,0.225,-0.100
3.080,-0.010,-0.095
3.082,-0.010,-0.090
3.084,0.185,-0.085
3.086,0.200,-0.085
3.088,0.155,-0.085
3.090,0.245,-0.090
3.092,0.295,-0.090
3.094,0.405,-0.095
3.096,0.285,-0.095
3.098,0.220,-0.090
3.100,0.055,-0.090
3.102,-0.010,-0.090
3.104,0.155,-0.090
3.106,0.100,-0.095
3.108,0.160,-0.100
3.110,0.260,-0.110
3.112,0.335,-0.115
3.114,0.420,-0.115
3.116,0.270,-0.115
3.118,0.220,-0.105
3.120,-0.025,-0.100
3.122,0.095,-0.090
3.124,0.140,-0.080
3.126,0.120,-0.075
3.128,0.165,-0.070
3.130,0.300,-0.075
3.132,0.360,-0.075
3.134,0.445,-0.075
3.136,0.340,-0.070
3.138,0.255,-0.065
3.140,0.035,-0.055
3.142,0.115,-0.040
3.144,0.180,-0.030
3.146,0.190,-0.025
3.148,0.245,-0.025
3.150,0.365,-0.030
3.152,0.455,-0.035
3.154,0.485,-0.045
3.156,0.260,-0.050
3.158,0.235,-0.050
3.160,0.055,-0.040
3.162,0.140,-0.025
3.164,0.240,-0.010
3.166,0.240,0.000
3.168,0.315,0.010
3.170,0.370,0.010
3.172,0.450,0.000
3.174,0.500,-0.010
3.176,0.335,-0.020
3.178,0.295,-0.030
3.180,0.030,-0.025
3.182,0.175,-0.015
3.184,0.280,0.000
3.186,0.325,0.025
3.188,0.330,0.050
3.190,0.430,0.070
3.192,0.570,0.090
3.194,0.580,0.095
3.196,0.460,0.100
3.198,0.360,0.100
3.200,0.135,0.100
3.202,0.310,0.100
3.204,0.350,0.105
3.206,0.415,0.110
3.208,0.530,0.125
3.210,0.485,0.135
3.212,0.630,0.150
3.214,0.655,0.160
3.216,0.565,0.170
3.218,0.385,0.170
3.220,0.190,0.175
3.222,0.385,0.175
3.224,0.430,0.180
3.226,0.450,0.180
3.228,0.540,0.185
3.230,0.565,0.190
3.232,0.685,0.190
3.234,0.675,0.195
3.236,0.595,0.195
3.238,0.425,0.190
3.240,0.240,0.185
3.242,0.375,0.180
3.244,0.400,0.170
3.246,0.385,0.160
3.248,0.520,0.155
3.250,0.530,0.145
3.252,0.665,0.140
3.254,0.645,0.135
3.256,0.510,0.130
3.258,0.335,0.120
3.260,0.135,0.110
3.262,0.275,0.095
3.264,0.325,0.080
3.266,0.365,0.065
3.268,0.410,0.045
3.270,0.415,0.030
3.272,0.530,0.020
3.274,0.505,0.010
3.276,0.395,0.005
3.278,0.205,0.005
3.280,0.055,0.000
3.282,0.210,0.000
3.284,0.225,-0.005
3.286,0.235,-0.010
3.288,0.305,-0.015
3.290,0.380,-0.020
3.292,0.505,-0.025
3.294,0.450,-0.030
3.296,0.350,-0.030
3.298,0.175,-0.030
3.300,0.030,-0.025
3.302,0.205,-0.025
3.304,0.210,-0.025
3.306,0.200,-0.025
3.308,0.305,-0.025
3.310,0.365,-0.030
3.312,0.500,-0.035
3.314,0.460,-0.040
3.316,0.345,-0.045
3.318,0.135,-0.050
3.320,0.025,-0.060
3.322,0.150,-0.065
3.324,0.125,-0.070
3.326,0.235,-0.080
3.328,0.210,-0.085
3.330,0.360,-0.090
3.332,0.490,-0.090
3.334,0.430,-0.085
3.336,0.325,-0.080
3.338,0.130,-0.070
3.340,0.025,-0.060
3.342,0.165,-0.050
3.344,0.145,-0.045
3.346,0.205,-0.045
3.348,0.305,-0.050
3.350,0.355,-0.050
3.352,0.520,-0.055
3.354,0.405,-0.055
3.356,0.355,-0.055
3.358,0.170,-0.050
3.360,0.020,-0.050
3.362,0.155,-0.045
3.364,0.170,-0.045
3.366,0.260,-0.050
3.368,0.320,-0.060
3.370,0.315,-0.065
3.372,0.480,-0.075
3.374,0.380,-0.080
3.376,0.310,-0.080
3.378,0.085,-0.075
3.380,0.130,-0.065
3.382,0.190,-0.060
3.384,0.130,-0.055
3.386,0.260,-0.055
3.388,0.315,-0.055
3.390,0.340,-0.065
3.392,0.455,-0.070
3.394,0.370,-0.075
3.396,0.270,-0.075
3.398,0.090,-0.070
3.400,0.120,-0.065
3.402,0.190,-0.060
3.404,0.185,-0.055
3.406,0.235,-0.050
3.408,0.260,-0.055
3.410,0.395,-0.065
3.412,0.475,-0.075
3.414,0.375,-0.090
3.416,0.310,-0.095
3.418,0.060,-0.100
3.420,0.085,-0.100
3.422,0.060,-0.095
3.424,0.190,-0.090
3.426,0.255,-0.085
3.428,0.275,-0.085
3.430,0.385,-0.085
3.432,0.450,-0.085
3.434,0.320,-0.090
3.436,0.285,-0.090
3.438,0.050,-0.085
3.440,0.135,-0.080
3.442,0.190,-0.070
3.444,0.170,-0.065
3.446,0.230,-0.065
3.448,0.315,-0.070
3.450,0.425,-0.080
3.452,0.440,-0.090
3.454,0.255,-0.105
3.456,0.220,-0.115
3.458,-0.010,-0.120
3.460,0.120,-0.120
3.462,0.155,-0.110
3.464,0.160,-0.100
3.466,0.235,-0.090
3.468,0.310,-0.085
3.470,0.410,-0.085
3.472,0.395,-0.090
3.474,0.270,-0.100
3.476,0.180,-0.115
3.478,-0.015,-0.125
3.480,0.075,-0.130
3.482,0.160,-0.125
3.484,0.155,-0.115
3.486,0.250,-0.105
3.488,0.300,-0.090
3.490,0.440,-0.080
3.492,0.420,-0.075
3.494,0.310,-0.080
3.496,0.140,-0.090
3.498,-0.050,-0.100
3.500,0.140,-0.115
3.502,0.130,-0.125
3.504,0.135,-0.130
3.506,0.225,-0.130
3.508,0.255,-0.125
3.510,0.440,-0.115
3.512,0.385,-0.100
3.514,0.290,-0.090
3.516,0.160,-0.085
3.518,-0.005,-0.080
3.520,0.130,-0.085
3.522,0.130,-0.095
3.524,0.165,-0.105
3.526,0.265,-0.115
3.528,0.285,-0.120
3.530,0.400,-0.125
3.532,0.375,-0.125
3.534,0.215,-0.120
3.536,0.110,-0.115
3.538,-0.050,-0.105
3.540,0.140,-0.100
3.542,0.170,-0.095
3.544,0.245,-0.095
3.546,0.235,-0.100
3.548,0.230,-0.105
3.550,0.405,-0.115
3.552,0.385,-0.120
3.554,0.250,-0.125
3.556,0.080,-0.125
3.558,-0.015,-0.125
3.560,0.110,-0.125
3.562,0.110,-0.120
3.564,0.165,-0.115
3.566,0.225,-0.115
3.568,0.250,-0.115
3.570,0.435,-0.115
3.572,0.360,-0.120
3.574,0.270,-0.120
3.576,0.095,-0.125
3.578,0.000,-0.125
3.580,0.070,-0.130
3.582,0.085,-0.130
3.584,0.130,-0.130
3.586,0.225,-0.130
3.588,0.270,-0.130
3.590,0.395,-0.130
3.592,0.400,-0.125
3.594,0.305,-0.125
3.596,0.095,-0.125
3.598,-0.055,-0.120
3.600,0.100,-0.120
3.602,0.090,-0.125
3.604,0.150,-0.130
3.606,0.225,-0.140
3.608,0.225,-0.145
3.610,0.385,-0.150
3.612,0.330,-0.155
3.614,0.215,-0.150
3.616,0.070,-0.145
3.618,-0.030,-0.135
3.620,0.110,-0.125
3.622,0.135,-0.115
3.624,0.195,-0.105
3.626,0.275,-0.100
3.628,0.285,-0.100
3.630,0.400,-0.100
3.632,0.380,-0.105
3.634,0.265,-0.110
3.636,0.100,-0.115
3.638,-0.040,-0.115
3.640,0.120,-0.115
3.642,0.115,-0.115
3.644,0.205,-0.115
3.646,0.280,-0.115
3.648,0.295,-0.115
3.650,0.405,-0.115
3.652,0.345,-0.115
3.654,0.235,-0.110
3.656,0.075,-0.110
3.658,0.055,-0.105
3.660,0.120,-0.095
3.662,0.150,-0.090
3.664,0.255,-0.085
3.666,0.305,-0.080
3.668,0.320,-0.070
3.670,0.510,-0.065
3.672,0.360,-0.060
3.674,0.325,-0.050
3.676,0.120,-0.040
3.678,0.115,-0.030
3.680,0.250,-0.015
3.682,0.260,-0.010
3.684,0.285,0.000
3.686,0.395,0.000
3.688,0.430,0.000
3.690,0.535,0.000
3.692,0.420,-0.005
3.694,0.390,-0.005
3.696,0.135,-0.005
3.698,0.140,0.000
3.700,0.255,0.010
3.702,0.300,0.025
3.704,0.415,0.040
3.706,0.465,0.060
3.708,0.540,0.075
3.710,0.625,0.090
3.712,0.490,0.100
3.714,0.470,0.105
3.716,0.220,0.110
3.718,0.305,0.105
3.720,0.345,0.100
3.722,0.370,0.095
3.724,0.390,0.090
3.726,0.475,0.080
3.728,0.570,0.075
3.730,0.635,0.070
3.732,0.475,0.070
3.734,0.420,0.070
3.736,0.150,0.075
3.738,0.275,0.075
3.740,0.320,0.080
3.742,0.320,0.075
3.744,0.425,0.070
3.746,0.470,0.060
3.748,0.560,0.045
3.750,0.570,0.035
3.752,0.400,0.020
3.754,0.360,0.010
3.756,0.085,0.005
3.758,0.210,0.005
3.760,0.220,0.005
3.762,0.255,0.005
3.764,0.355,0.005
3.766,0.435,0.000
3.768,0.470,-0.010
3.770,0.510,-0.020
3.772,0.320,-0.030
3.774,0.285,-0.040
3.776,0.020,-0.045
3.778,0.145,-0.045
3.780,0.255,-0.045
3.782,0.245,-0.040
3.784,0.315,-0.035
3.786,0.325,-0.030
3.788,0.445,-0.030
3.790,0.430,-0.030
3.792,0.355,-0.035
3.794,0.220,-0.040
3.796,0.030,-0.040
3.798,0.210,-0.045
3.800,0.200,-0.045
3.802,0.210,-0.045
3.804,0.315,-0.045
3.806,0.375,-0.050
3.808,0.435,-0.055
3.810,0.400,-0.065
3.812,0.310,-0.080
3.814,0.140,-0.100
3.816,-0.065,-0.115
3.818,0.090,-0.135
3.820,0.080,-0.145
3.822,0.100,-0.150
3.824,0.220,-0.140
3.826,0.280,-0.115
3.828,0.460,-0.070
3.830,0.475,0.000
3.832,0.450,0.095
3.834,0.450,0.210
3.836,0.440,0.345
3.838,0.775,0.490
3.840,0.915,0.635
3.842,1.090,0.770
3.844,1.315,0.885
3.846,1.440,0.970
3.848,1.540,1.015
3.850,1.505,1.025
3.852,1.420,0.990
3.854,1.150,0.920
3.856,0.885,0.825
3.858,0.935,0.705
3.860,0.815,0.580
3.862,0.775,0.450
3.864,0.725,0.330
3.866,0.540,0.225
3.868,0.585,0.135
3.870,0.485,0.065
3.872,0.390,0.010
3.874,0.180,-0.035
3.876,0.020,-0.070
3.878,0.115,-0.100
3.880,0.105,-0.120
3.882,0.130,-0.140
3.884,0.245,-0.155
3.886,0.175,-0.165
3.888,0.360,-0.170
3.890,0.350,-0.165
3.892,0.220,-0.150
3.894,0.095,-0.135
3.896,-0.080,-0.115
3.898,0.120,-0.100
3.900,0.180,-0.085
3.902,0.225,-0.080
3.904,0.240,-0.075
3.906,0.320,-0.080
3.908,0.445,-0.090
3.910,0.375,-0.095
3.912,0.330,-0.100
3.914,0.080,-0.100
3.916,0.000,-0.095
3.918,0.160,-0.085
3.920,0.140,-0.075
3.922,0.180,-0.070
3.924,0.355,-0.065
3.926,0.335,-0.065
3.928,0.430,-0.065
3.930,0.395,-0.070
3.932,0.295,-0.075
3.934,0.100,-0.080
3.936,0.045,-0.080
3.938,0.160,-0.075
3.940,0.155,-0.070
3.942,0.210,-0.070
3.944,0.265,-0.070
3.946,0.305,-0.070
3.948,0.475,-0.075
3.950,0.375,-0.080
3.952,0.265,-0.090
3.954,0.055,-0.090
3.956,0.045,-0.090
3.958,0.160,-0.085
3.960,0.170,-0.075
3.962,0.230,-0.065
3.964,0.310,-0.055
3.966,0.330,-0.050
3.968,0.505,-0.050
3.970,0.385,-0.050
3.972,0.305,-0.050
3.974,0.080,-0.055
3.976,0.090,-0.060
3.978,0.170,-0.060
3.980,0.175,-0.060
3.982,0.265,-0.060
3.984,0.325,-0.055
3.986,0.325,-0.055
3.988,0.505,-0.050
3.990,0.365,-0.050
3.992,0.310,-0.050
3.994,0.080,-0.045
3.996,0.110,-0.040
3.998,0.195,-0.035
4.000,0.225,-0.025
4.002,0.270,-0.015
4.004,0.390,-0.005
4.006,0.495,0.000
4.008,0.570,0.005
4.010,0.400,0.010
4.012,0.315,0.010
4.014,0.085,0.010
4.016,0.180,0.010
4.018,0.230,0.015
4.020,0.285,0.015
4.022,0.355,0.020
4.024,0.390,0.025
4.026,0.470,0.030
4.028,0.560,0.030
4.030,0.435,0.030
4.032,0.345,0.035
4.034,0.120,0.035
4.036,0.200,0.035
4.038,0.270,0.035
4.040,0.315,0.040
4.042,0.350,0.045
4.044,0.455,0.055
4.046,0.525,0.060
4.048,0.590,0.070
4.050,0.480,0.080
4.052,0.435,0.090
4.054,0.205,0.100
4.056,0.300,0.110
4.058,0.380,0.120
4.060,0.325,0.130
4.062,0.460,0.140
4.064,0.530,0.145
4.066,0.665,0.150
4.068,0.640,0.150
4.070,0.535,0.155
4.072,0.425,0.155
4.074,0.200,0.155
4.076,0.360,0.155
4.078,0.410,0.160
4.080,0.415,0.160
4.082,0.520,0.165
4.084,0.565,0.170
4.086,0.685,0.175
4.088,0.690,0.180
4.090,0.565,0.190
4.092,0.475,0.195
4.094,0.260,0.200
4.096,0.400,0.205
4.098,0.440,0.205
4.100,0.480,0.205
4.102,0.565,0.200
4.104,0.560,0.200
4.106,0.660,0.195
4.108,0.700,0.190
4.110,0.585,0.190
4.112,0.425,0.185
4.114,0.240,0.180
4.116,0.390,0.175
4.118,0.370,0.165
4.120,0.400,0.155
4.122,0.515,0.140
4.124,0.505,0.130
4.126,0.650,0.115
4.128,0.580,0.110
4.130,0.475,0.100
4.132,0.305,0.095
4.134,0.090,0.090
4.136,0.320,0.085
4.138,0.315,0.080
4.140,0.330,0.075
4.142,0.445,0.065
4.144,0.460,0.055
4.146,0.555,0.040
4.148,0.515,0.035
4.150,0.340,0.025
4.152,0.270,0.020
4.154,0.100,0.010
4.156,0.220,0.005
4.158,0.225,-0.005
4.160,0.260,-0.015
4.162,0.285,-0.030
4.164,0.295,-0.040
4.166,0.445,-0.050
4.168,0.435,-0.055
4.170,0.330,-0.055
4.172,0.175,-0.045
4.174,0.040,-0.035
4.176,0.185,-0.025
4.178,0.220,-0.015
4.180,0.270,-0.010
4.182,0.345,-0.010
4.184,0.335,-0.015
4.186,0.505,-0.025
4.188,0.470,-0.030
4.190,0.330,-0.040
4.192,0.110,-0.040
4.194,0.060,-0.035
4.196,0.205,-0.025
4.198,0.210,-0.015
4.200,0.270,-0.005
4.202,0.350,0.000
4.204,0.370,0.000
4.206,0.530,-0.005
4.208,0.450,-0.015
4.210,0.310,-0.025
4.212,0.130,-0.035
4.214,0.040,-0.040
4.216,0.190,-0.035
4.218,0.245,-0.030
4.220,0.285,-0.020
4.222,0.365,-0.010
4.224,0.340,-0.005
4.226,0.500,-0.005
4.228,0.435,-0.005
4.230,0.345,-0.010
4.232,0.165,-0.015
4.234,0.135,-0.025
4.236,0.185,-0.025
4.238,0.205,-0.025
4.240,0.310,-0.020
4.242,0.350,-0.015
4.244,0.350,-0.010
4.246,0.530,-0.010
4.248,0.445,-0.010
4.250,0.320,-0.015
4.252,0.085,-0.020
4.254,0.130,-0.025
4.256,0.205,-0.030
4.258,0.245,-0.030
4.260,0.275,-0.025
4.262,0.370,-0.015
4.264,0.370,-0.005
4.266,0.550,0.005
4.268,0.445,0.015
4.270,0.340,0.020
4.272,0.130,0.020
4.274,0.220,0.015
4.276,0.245,0.015
4.278,0.225,0.010
4.280,0.320,0.005
4.282,0.385,0.000
4.284,0.385,-0.005
4.286,0.515,-0.010
4.288,0.390,-0.015
4.290,0.370,-0.020
4.292,0.095,-0.025
4.294,0.125,-0.035
4.296,0.190,-0.045
4.298,0.240,-0.050
4.300,0.270,-0.055
4.302,0.340,-0.055
4.304,0.390,-0.050
4.306,0.445,-0.045
4.308,0.355,-0.035
4.310,0.385,-0.030
4.312,0.080,-0.020
4.314,0.165,-0.015
4.316,0.250,-0.010
4.318,0.245,-0.010
4.320,0.300,-0.015
4.322,0.385,-0.020
4.324,0.440,-0.025
4.326,0.510,-0.030
4.328,0.370,-0.030
4.330,0.310,-0.035
4.332,0.070,-0.035
4.334,0.180,-0.035
4.336,0.205,-0.035
4.338,0.260,-0.030
4.340,0.325,-0.030
4.342,0.325,-0.030
4.344,0.435,-0.030
4.346,0.490,-0.030
4.348,0.350,-0.030
4.350,0.270,-0.025
4.352,0.090,-0.015
4.354,0.195,-0.010
4.356,0.255,-0.005
4.358,0.290,0.000
4.360,0.385,0.000
4.362,0.400,0.000
4.364,0.480,-0.010
4.366,0.435,-0.015
4.368,0.360,-0.025
4.370,0.285,-0.030
4.372,0.055,-0.035
4.374,0.185,-0.040
4.376,0.230,-0.035
4.378,0.245,-0.035
4.380,0.310,-0.030
4.382,0.365,-0.025
4.384,0.500,-0.025
4.386,0.475,-0.030
4.388,0.285,-0.035
4.390,0.225,-0.040
4.392,0.035,-0.050
4.394,0.220,-0.050
4.396,0.270,-0.050
4.398,0.255,-0.045
4.400,0.305,-0.040
4.402,0.350,-0.035
4.404,0.495,-0.030
4.406,0.475,-0.030
4.408,0.380,-0.030
4.410,0.210,-0.030
4.412,0.035,-0.035
4.414,0.175,-0.040
4.416,0.275,-0.040
4.418,0.245,-0.040
4.420,0.365,-0.040
4.422,0.345,-0.035
4.424,0.545,-0.025
4.426,0.510,-0.020
4.428,0.355,-0.015
4.430,0.210,-0.015
4.432,0.030,-0.015
4.434,0.210,-0.015
4.436,0.240,-0.020
4.438,0.270,-0.025
4.440,0.355,-0.025
4.442,0.380,-0.030
4.444,0.515,-0.030
4.446,0.505,-0.030
4.448,0.365,-0.030
4.450,0.175,-0.025
4.452,0.055,-0.025
4.454,0.250,-0.025
4.456,0.195,-0.030
4.458,0.270,-0.035
4.460,0.320,-0.040
4.462,0.365,-0.045
4.464,0.485,-0.055
4.466,0.430,-0.065
4.468,0.325,-0.075
4.470,0.135,-0.080
4.472,0.010,-0.080
4.474,0.175,-0.080
4.476,0.160,-0.080
4.478,0.265,-0.075
4.480,0.340,-0.065
4.482,0.350,-0.055
4.484,0.485,-0.050
4.486,0.440,-0.040
4.488,0.360,-0.035
4.490,0.210,-0.035
4.492,0.055,-0.035
4.494,0.225,-0.040
4.496,0.180,-0.045
4.498,0.265,-0.050
4.500,0.365,-0.060
4.502,0.340,-0.065
4.504,0.450,-0.065
4.506,0.505,-0.060
4.508,0.310,-0.055
4.510,0.205,-0.050
4.512,0.085,-0.040
4.514,0.215,-0.035
4.516,0.215,-0.035
4.518,0.250,-0.040
4.520,0.330,-0.045
4.522,0.355,-0.055
4.524,0.515,-0.065
4.526,0.430,-0.070
4.528,0.360,-0.070
4.530,0.135,-0.065
4.532,0.110,-0.060
4.534,0.190,-0.050
4.536,0.260,-0.035
4.538,0.325,-0.030
4.540,0.385,-0.020
4.542,0.395,-0.020
4.544,0.545,-0.020
4.546,0.420,-0.020
4.548,0.420,-0.015
4.550,0.205,-0.010
4.552,0.195,0.000
4.554,0.305,0.015
4.556,0.345,0.030
4.558,0.410,0.045
4.560,0.485,0.060
4.562,0.505,0.065
4.564,0.635,0.065
4.566,0.515,0.065
4.568,0.435,0.055
4.570,0.200,0.045
4.572,0.245,0.040
4.574,0.350,0.030
4.576,0.335,0.025
4.578,0.375,0.020
4.580,0.400,0.015
4.582,0.515,0.010
4.584,0.595,0.005
4.586,0.435,0.005
4.588,0.410,0.000
4.590,0.175,0.000
4.592,0.215,0.000
4.594,0.305,0.005
4.596,0.335,0.010
4.598,0.395,0.015
4.600,0.430,0.015
4.602,0.485,0.010
4.604,0.560,0.000
4.606,0.430,-0.015
4.608,0.350,-0.030
4.610,0.110,-0.050
4.612,0.205,-0.060
4.614,0.225,-0.070
4.616,0.280,-0.075
4.618,0.305,-0.075
4.620,0.395,-0.070
4.622,0.460,-0.065
4.624,0.475,-0.060
4.626,0.420,-0.055
4.628,0.345,-0.055
4.630,0.065,-0.060
4.632,0.200,-0.065
4.634,0.275,-0.070
4.636,0.240,-0.075
4.638,0.315,-0.080
4.640,0.390,-0.080
4.642,0.480,-0.080
4.644,0.500,-0.075
4.646,0.395,-0.070
4.648,0.265,-0.070
4.650,0.050,-0.070
4.652,0.200,-0.075
4.654,0.215,-0.085
4.656,0.245,-0.095
4.658,0.275,-0.110
4.660,0.290,-0.125
4.662,0.460,-0.135
4.664,0.470,-0.150
4.666,0.305,-0.155
4.668,0.150,-0.165
4.670,-0.035,-0.175
4.672,0.090,-0.180
4.674,0.040,-0.185
4.676,0.090,-0.185
4.678,0.290,-0.170
4.680,0.340,-0.145
4.682,0.470,-0.095
4.684,0.560,-0.020
4.686,0.530,0.080
4.688,0.570,0.205
4.690,0.470,0.345
4.692,0.810,0.495
4.694,0.975,0.635
4.696,1.155,0.760
4.698,1.370,0.860
4.700,1.455,0.920
4.702,1.545,0.940
4.704,1.475,0.920
4.706,1.310,0.860
4.708,1.105,0.775
4.710,0.820,0.670
4.712,0.855,0.550
4.714,0.765,0.430
4.716,0.675,0.310
4.718,0.610,0.195
4.720,0.515,0.100
4.722,0.570,0.015
4.724,0.485,-0.050
4.726,0.350,-0.100
4.728,0.145,-0.130
4.730,0.015,-0.150
4.732,0.160,-0.165
4.734,0.130,-0.170
4.736,0.175,-0.170
4.738,0.240,-0.170
4.740,0.285,-0.170
4.742,0.480,-0.165
4.744,0.380,-0.155
4.746,0.330,-0.145
4.748,0.185,-0.130
4.750,0.070,-0.110
4.752,0.235,-0.095
4.754,0.230,-0.080
4.756,0.285,-0.070
4.758,0.400,-0.070
4.760,0.380,-0.075
4.762,0.540,-0.085
4.764,0.500,-0.095
4.766,0.360,-0.105
4.768,0.160,-0.110
4.770,0.075,-0.110
4.772,0.250,-0.105
4.774,0.235,-0.100
4.776,0.255,-0.090
4.778,0.380,-0.080
4.780,0.420,-0.080
4.782,0.545,-0.080
4.784,0.490,-0.085
4.786,0.355,-0.090
4.788,0.195,-0.095
4.790,0.110,-0.095
4.792,0.275,-0.090
4.794,0.225,-0.085
4.796,0.290,-0.075
4.798,0.425,-0.065
4.800,0.415,-0.055
4.802,0.590,-0.050
4.804,0.550,-0.045
4.806,0.445,-0.045
4.808,0.215,-0.045
4.810,0.130,-0.045
4.812,0.315,-0.045
4.814,0.310,-0.045
4.816,0.340,-0.045
4.818,0.450,-0.045
4.820,0.470,-0.040
4.822,0.610,-0.040
4.824,0.505,-0.035
4.826,0.425,-0.035
4.828,0.230,-0.030
4.830,0.195,-0.030
4.832,0.345,-0.030
4.834,0.315,-0.035
4.836,0.355,-0.035
4.838,0.465,-0.040
4.840,0.475,-0.040
4.842,0.615,-0.040
4.844,0.520,-0.035
4.846,0.455,-0.030
4.848,0.245,-0.025
4.850,0.230,-0.015
4.852,0.370,-0.010
4.854,0.345,-0.010
4.856,0.390,-0.010
4.858,0.445,-0.015
4.860,0.515,-0.025
4.862,0.645,-0.030
4.864,0.525,-0.030
4.866,0.470,-0.025
4.868,0.255,-0.015
4.870,0.255,0.000
4.872,0.385,0.015
4.874,0.395,0.035
4.876,0.440,0.050
4.878,0.635,0.060
4.880,0.570,0.065
4.882,0.700,0.060
4.884,0.625,0.060
4.886,0.500,0.055
4.888,0.315,0.050
4.890,0.320,0.055
4.892,0.425,0.060
4.894,0.455,0.070
4.896,0.535,0.080
4.898,0.630,0.090
4.900,0.710,0.100
4.902,0.815,0.105
4.904,0.645,0.115
4.906,0.560,0.120
4.908,0.325,0.125
4.910,0.460,0.135
4.912,0.525,0.140
4.914,0.550,0.145
4.916,0.555,0.145
4.918,0.690,0.145
4.920,0.750,0.145
4.922,0.780,0.140
4.924,0.675,0.140
4.926,0.615,0.140
4.928,0.375,0.145
4.930,0.490,0.155
4.932,0.565,0.165
4.934,0.565,0.175
4.936,0.650,0.190
4.938,0.730,0.195
4.940,0.815,0.200
4.942,0.840,0.200
4.944,0.745,0.200
4.946,0.660,0.200
4.948,0.395,0.200
4.950,0.570,0.200
4.952,0.565,0.205
4.954,0.595,0.210
4.956,0.745,0.210
4.958,0.730,0.215
4.960,0.895,0.215
4.962,0.805,0.205
4.964,0.710,0.195
4.966,0.600,0.180
4.968,0.385,0.165
4.970,0.510,0.145
4.972,0.525,0.130
4.974,0.510,0.115
4.976,0.660,0.100
4.978,0.650,0.090
4.980,0.710,0.080
4.982,0.735,0.070
4.984,0.585,0.060
4.986,0.445,0.050
4.988,0.240,0.040
4.990,0.395,0.030
4.992,0.425,0.020
4.994,0.430,0.010
4.996,0.485,0.005
4.998,0.565,0.000
5.000,0.675,-0.005
5.002,0.630,-0.005
5.004,0.510,-0.005
5.006,0.355,-0.010
5.008,0.210,-0.015
5.010,0.365,-0.020
5.012,0.350,-0.035
5.014,0.375,-0.050
5.016,0.470,-0.065
5.018,0.455,-0.075
5.020,0.575,-0.085
5.022,0.565,-0.090
5.024,0.505,-0.085
5.026,0.350,-0.075
5.028,0.180,-0.065
5.030,0.325,-0.055
5.032,0.300,-0.050
5.034,0.425,-0.045
5.036,0.470,-0.050
5.038,0.465,-0.055
5.040,0.630,-0.065
5.042,0.585,-0.070
5.044,0.495,-0.075
5.046,0.285,-0.075
5.048,0.195,-0.070
5.050,0.360,-0.060
5.052,0.350,-0.050
5.054,0.425,-0.045
5.056,0.510,-0.040
5.058,0.495,-0.040
5.060,0.645,-0.045
5.062,0.575,-0.055
5.064,0.480,-0.065
5.066,0.320,-0.070
5.068,0.160,-0.075
5.070,0.325,-0.080
5.072,0.325,-0.080
5.074,0.370,-0.080
5.076,0.460,-0.080
5.078,0.435,-0.085
5.080,0.615,-0.085
5.082,0.590,-0.085
5.084,0.470,-0.090
5.086,0.280,-0.090
5.088,0.185,-0.090
5.090,0.305,-0.085
5.092,0.300,-0.085
5.094,0.385,-0.085
5.096,0.465,-0.085
5.098,0.450,-0.090
5.100,0.620,-0.095
5.102,0.570,-0.095
5.104,0.445,-0.100
5.106,0.275,-0.100
5.108,0.225,-0.095
5.110,0.340,-0.090
5.112,0.330,-0.080
5.114,0.420,-0.075
5.116,0.485,-0.070
5.118,0.495,-0.070
5.120,0.645,-0.070
5.122,0.575,-0.070
5.124,0.465,-0.075
5.126,0.300,-0.080
5.128,0.260,-0.080
5.130,0.325,-0.080
5.132,0.330,-0.080
5.134,0.410,-0.080
5.136,0.525,-0.075
5.138,0.525,-0.075
5.140,0.650,-0.070
5.142,0.570,-0.070
5.144,0.485,-0.065
5.146,0.285,-0.060
5.148,0.265,-0.060
5.150,0.365,-0.055
5.152,0.400,-0.055
5.154,0.445,-0.055
5.156,0.500,-0.060
5.158,0.535,-0.065
5.160,0.665,-0.070
5.162,0.560,-0.080
5.164,0.490,-0.085
5.166,0.245,-0.085
5.168,0.295,-0.085
5.170,0.340,-0.085
5.172,0.370,-0.080
5.174,0.435,-0.080
5.176,0.480,-0.075
5.178,0.585,-0.075
5.180,0.655,-0.080
5.182,0.535,-0.080
5.184,0.465,-0.085
5.186,0.225,-0.085
5.188,0.290,-0.090
5.190,0.395,-0.085
5.192,0.365,-0.085
5.194,0.430,-0.085
5.196,0.540,-0.080
5.198,0.585,-0.080
5.200,0.640,-0.080
5.202,0.460,-0.085
5.204,0.505,-0.085
5.206,0.280,-0.085
5.208,0.320,-0.085
5.210,0.360,-0.085
5.212,0.400,-0.085
5.214,0.445,-0.085
5.216,0.515,-0.080
5.218,0.620,-0.080
5.220,0.660,-0.080
5.222,0.520,-0.085
5.224,0.425,-0.085
5.226,0.210,-0.085
5.228,0.380,-0.085
5.230,0.385,-0.080
5.232,0.400,-0.080
5.234,0.475,-0.080
5.236,0.575,-0.080
5.238,0.605,-0.085
5.240,0.610,-0.090
5.242,0.565,-0.095
5.244,0.445,-0.095
5.246,0.195,-0.095
5.248,0.330,-0.095
5.250,0.385,-0.090
5.252,0.400,-0.080
5.254,0.470,-0.075
5.256,0.515,-0.070
5.258,0.660,-0.065
5.260,0.640,-0.065
5.262,0.575,-0.065
5.264,0.430,-0.070
5.266,0.215,-0.075
5.268,0.365,-0.075
5.270,0.420,-0.080
5.272,0.425,-0.080
5.274,0.520,-0.080
5.276,0.520,-0.075
5.278,0.675,-0.070
5.280,0.685,-0.065
5.282,0.560,-0.060
5.284,0.470,-0.055
5.286,0.255,-0.055
5.288,0.410,-0.050
5.290,0.405,-0.050
5.292,0.430,-0.050
5.294,0.505,-0.050
5.296,0.510,-0.055
5.298,0.740,-0.055
5.300,0.685,-0.055
5.302,0.550,-0.055
5.304,0.400,-0.050
5.306,0.275,-0.045
5.308,0.435,-0.040
5.310,0.445,-0.035
5.312,0.490,-0.030
5.314,0.545,-0.030
5.316,0.545,-0.030
5.318,0.720,-0.040
5.320,0.700,-0.045
5.322,0.550,-0.055
5.324,0.410,-0.060
5.326,0.255,-0.060
5.328,0.455,-0.060
5.330,0.435,-0.055
5.332,0.465,-0.050
5.334,0.525,-0.045
5.336,0.505,-0.045
5.338,0.715,-0.050
5.340,0.710,-0.055
5.342,0.560,-0.060
5.344,0.410,-0.065
5.346,0.280,-0.065
5.348,0.425,-0.065
5.350,0.460,-0.065
5.352,0.450,-0.060
5.354,0.570,-0.050
5.356,0.570,-0.045
5.358,0.740,-0.040
5.360,0.700,-0.035
5.362,0.600,-0.030
5.364,0.425,-0.030
5.366,0.290,-0.030
5.368,0.440,-0.030
5.370,0.450,-0.030
5.372,0.550,-0.025
5.374,0.595,-0.025
5.376,0.640,-0.025
5.378,0.780,-0.020
5.380,0.695,-0.020
5.382,0.580,-0.020
5.384,0.410,-0.020
5.386,0.340,-0.015
5.388,0.525,-0.015
5.390,0.465,-0.015
5.392,0.540,-0.010
5.394,0.615,-0.010
5.396,0.630,-0.010
5.398,0.775,-0.010
5.400,0.670,-0.005
5.402,0.685,0.000
5.404,0.485,0.005
5.406,0.360,0.015
5.408,0.515,0.025
5.410,0.540,0.040
5.412,0.590,0.050
5.414,0.695,0.055
5.416,0.745,0.060
5.418,0.860,0.065
5.420,0.795,0.060
5.422,0.695,0.060
5.424,0.480,0.060
5.426,0.450,0.060
5.428,0.570,0.060
5.430,0.560,0.065
5.432,0.660,0.070
5.434,0.750,0.075
5.436,0.735,0.075
5.438,0.870,0.075
5.440,0.780,0.075
5.442,0.695,0.070
5.444,0.475,0.060
5.446,0.470,0.055
5.448,0.540,0.050
5.450,0.565,0.040
5.452,0.600,0.035
5.454,0.775,0.025
5.456,0.730,0.015
5.458,0.765,0.005
5.460,0.650,-0.010
5.462,0.625,-0.020
5.464,0.390,-0.030
5.466,0.400,-0.040
5.468,0.485,-0.050
5.470,0.480,-0.050
5.472,0.525,-0.050
5.474,0.615,-0.045
5.476,0.640,-0.040
5.478,0.795,-0.035
5.480,0.710,-0.030
5.482,0.550,-0.030
5.484,0.280,-0.030
5.486,0.460,-0.035
5.488,0.465,-0.035
5.490,0.500,-0.040
5.492,0.565,-0.045
5.494,0.650,-0.045
5.496,0.695,-0.040
5.498,0.735,-0.035
5.500,0.650,-0.030
5.502,0.555,-0.025
5.504,0.360,-0.025
5.506,0.485,-0.025
5.508,0.535,-0.025
5.510,0.485,-0.035
5.512,0.585,-0.045
5.514,0.650,-0.060
5.516,0.700,-0.075
5.518,0.710,-0.090
5.520,0.555,-0.100
5.522,0.515,-0.115
5.524,0.265,-0.120
5.526,0.370,-0.120
5.528,0.395,-0.115
5.530,0.445,-0.100
5.532,0.510,-0.070
5.534,0.575,-0.020
5.536,0.815,0.055
5.538,0.975,0.150
5.540,0.980,0.265
5.542,1.005,0.405
5.544,0.960,0.550
5.546,1.245,0.695
5.548,1.435,0.825
5.550,1.560,0.930
5.552,1.700,0.995
5.554,1.705,1.020
5.556,1.780,1.000
5.558,1.780,0.935
5.560,1.510,0.840
5.562,1.220,0.725
5.564,1.015,0.595
5.566,1.045,0.470
5.568,0.900,0.355
5.570,0.765,0.250
5.572,0.750,0.160
5.574,0.705,0.090
5.576,0.825,0.035
5.578,0.770,-0.015
5.580,0.600,-0.050
5.582,0.515,-0.080
5.584,0.235,-0.100
5.586,0.410,-0.115
5.588,0.430,-0.120
5.590,0.435,-0.125
5.592,0.530,-0.120
5.594,0.565,-0.115
5.596,0.730,-0.105
5.598,0.680,-0.095
5.600,0.615,-0.090
5.602,0.420,-0.085
5.604,0.270,-0.080
5.606,0.455,-0.075
5.608,0.480,-0.075
5.610,0.510,-0.075
5.612,0.545,-0.075
5.614,0.645,-0.070
5.616,0.800,-0.070
5.618,0.740,-0.065
5.620,0.615,-0.065
5.622,0.445,-0.060
5.624,0.280,-0.050
5.626,0.490,-0.045
5.628,0.505,-0.040
5.630,0.550,-0.040
5.632,0.615,-0.040
5.634,0.665,-0.040
5.636,0.770,-0.045
5.638,0.755,-0.050
5.640,0.630,-0.060
5.642,0.450,-0.065
5.644,0.295,-0.070
5.646,0.520,-0.070
5.648,0.415,-0.070
5.650,0.550,-0.070
5.652,0.580,-0.070
5.654,0.625,-0.065
5.656,0.785,-0.060
5.658,0.755,-0.060
5.660,0.665,-0.055
5.662,0.445,-0.050
5.664,0.370,-0.045
5.666,0.480,-0.040
5.668,0.495,-0.035
5.670,0.555,-0.035
5.672,0.650,-0.035
5.674,0.655,-0.040
5.676,0.810,-0.045
5.678,0.780,-0.055
5.680,0.650,-0.060
5.682,0.350,-0.065
5.684,0.320,-0.065
5.686,0.530,-0.065
5.688,0.510,-0.055
5.690,0.595,-0.045
5.692,0.685,-0.035
5.694,0.675,-0.025
5.696,0.860,-0.015
5.698,0.720,-0.015
5.700,0.635,-0.015
5.702,0.430,-0.020
5.704,0.440,-0.025
5.706,0.560,-0.035
5.708,0.530,-0.035
5.710,0.610,-0.035
5.712,0.695,-0.035
5.714,0.665,-0.030
5.716,0.820,-0.025
5.718,0.715,-0.015
5.720,0.680,-0.010
5.722,0.500,-0.005
5.724,0.485,0.000
5.726,0.585,0.005
5.728,0.600,0.015
5.730,0.635,0.020
5.732,0.740,0.025
5.734,0.745,0.030
5.736,0.865,0.035
5.738,0.800,0.035
5.740,0.730,0.040
5.742,0.500,0.040
5.744,0.580,0.040
5.746,0.625,0.045
5.748,0.630,0.050
5.750,0.670,0.055
5.752,0.755,0.060
5.754,0.825,0.065
5.756,0.930,0.075
5.758,0.855,0.080
5.760,0.800,0.085
5.762,0.540,0.085
5.764,0.595,0.090
5.766,0.680,0.095
5.768,0.730,0.105
5.770,0.705,0.115
5.772,0.845,0.125
5.774,0.965,0.140
5.776,1.035,0.150
5.778,0.895,0.165
5.780,0.860,0.175
5.782,0.650,0.185
5.784,0.695,0.190
5.786,0.775,0.190
5.788,0.775,0.185
5.790,0.805,0.175
5.792,0.870,0.170
5.794,0.955,0.165
5.796,1.020,0.160
5.798,0.915,0.160
5.800,0.845,0.170
5.802,0.555,0.175
5.804,0.745,0.185
5.806,0.760,0.195
5.808,0.815,0.195
5.810,0.855,0.195
5.812,0.900,0.190
5.814,1.000,0.180
5.816,1.035,0.170
5.818,0.880,0.160
5.820,0.815,0.145
5.822,0.575,0.140
5.824,0.725,0.130
5.826,0.710,0.125
5.828,0.680,0.120
5.830,0.750,0.110
5.832,0.795,0.105
5.834,0.945,0.090
5.836,0.955,0.075
5.838,0.760,0.065
5.840,0.690,0.050
5.842,0.455,0.040
5.844,0.595,0.030
5.846,0.590,0.025
5.848,0.585,0.020
5.850,0.725,0.015
5.852,0.740,0.010
5.854,0.890,0.000
5.856,0.830,-0.010
5.858,0.680,-0.020
5.860,0.565,-0.025
5.862,0.370,-0.035
5.864,0.545,-0.035
5.866,0.565,-0.035
5.868,0.585,-0.030
5.870,0.670,-0.025
5.872,0.695,-0.025
5.874,0.845,-0.025
5.876,0.795,-0.030
5.878,0.675,-0.035
5.880,0.535,-0.045
5.882,0.355,-0.055
5.884,0.520,-0.065
5.886,0.510,-0.070
5.888,0.540,-0.070
5.890,0.645,-0.070
5.892,0.665,-0.070
5.894,0.845,-0.065
5.896,0.810,-0.065
5.898,0.575,-0.065
5.900,0.530,-0.065
5.902,0.385,-0.065
5.904,0.515,-0.070
5.906,0.510,-0.075
5.908,0.530,-0.080
5.910,0.615,-0.085
5.912,0.700,-0.085
5.914,0.785,-0.085
5.916,0.755,-0.080
5.918,0.640,-0.075
5.920,0.475,-0.065
5.922,0.360,-0.060
5.924,0.555,-0.055
5.926,0.540,-0.050
5.928,0.585,-0.050
5.930,0.640,-0.050
5.932,0.665,-0.050
5.934,0.835,-0.055
5.936,0.800,-0.055
5.938,0.730,-0.055
5.940,0.460,-0.050
5.942,0.330,-0.050
5.944,0.555,-0.050
5.946,0.575,-0.050
5.948,0.575,-0.050
5.950,0.685,-0.055
5.952,0.725,-0.055
5.954,0.815,-0.055
5.956,0.810,-0.050
5.958,0.700,-0.045
5.960,0.535,-0.035
5.962,0.420,-0.025
5.964,0.540,-0.015
5.966,0.560,-0.010
5.968,0.620,-0.015
5.970,0.705,-0.025
5.972,0.715,-0.040
5.974,0.820,-0.055
5.976,0.785,-0.065
5.978,0.665,-0.075
5.980,0.490,-0.075
5.982,0.420,-0.075
5.984,0.500,-0.065
5.986,0.560,-0.055
5.988,0.620,-0.045
5.990,0.680,-0.035
5.992,0.715,-0.035
5.994,0.850,-0.040
5.996,0.770,-0.045
5.998,0.680,-0.050
6.000,0.495,-0.055
6.002,0.435,-0.055
6.004,0.550,-0.055
6.006,0.615,-0.050
6.008,0.630,-0.050
6.010,0.645,-0.050
6.012,0.675,-0.055
6.014,0.835,-0.060
6.016,0.755,-0.065
6.018,0.685,-0.075
6.020,0.460,-0.075
6.022,0.425,-0.075
6.024,0.555,-0.070
6.026,0.580,-0.065
6.028,0.585,-0.060
6.030,0.670,-0.055
6.032,0.715,-0.055
6.034,0.840,-0.060
6.036,0.740,-0.065
6.038,0.685,-0.070
6.040,0.455,-0.075
6.042,0.450,-0.070
6.044,0.550,-0.065
6.046,0.610,-0.055
6.048,0.640,-0.045
6.050,0.680,-0.040
6.052,0.765,-0.040
6.054,0.870,-0.045
6.056,0.750,-0.050
6.058,0.635,-0.065
6.060,0.395,-0.075
6.062,0.440,-0.085
6.064,0.555,-0.090
6.066,0.550,-0.085
6.068,0.610,-0.080
6.070,0.655,-0.070
6.072,0.770,-0.065
6.074,0.810,-0.060
6.076,0.715,-0.060
6.078,0.675,-0.065
6.080,0.430,-0.065
6.082,0.535,-0.070
6.084,0.545,-0.070
6.086,0.610,-0.070
6.088,0.625,-0.060
6.090,0.720,-0.055
6.092,0.755,-0.045
6.094,0.855,-0.035
6.096,0.775,-0.030
6.098,0.685,-0.030
6.100,0.430,-0.030
6.102,0.490,-0.035
6.104,0.570,-0.045
6.106,0.620,-0.050
6.108,0.715,-0.055
6.110,0.705,-0.055
6.112,0.800,-0.050
6.114,0.840,-0.050
6.116,0.715,-0.040
6.118,0.620,-0.035
6.120,0.390,-0.030
6.122,0.555,-0.030
6.124,0.625,-0.030
6.126,0.635,-0.030
6.128,0.745,-0.030
6.130,0.740,-0.030
6.132,0.820,-0.030
6.134,0.875,-0.025
6.136,0.740,-0.020
6.138,0.625,-0.010
6.140,0.410,-0.005
6.142,0.620,-0.005
6.144,0.630,0.000
6.146,0.595,-0.005
6.148,0.685,-0.010
6.150,0.765,-0.015
6.152,0.875,-0.025
6.154,0.890,-0.030
6.156,0.755,-0.030
6.158,0.595,-0.030
6.160,0.405,-0.030
6.162,0.570,-0.025
6.164,0.585,-0.020
6.166,0.635,-0.020
6.168,0.745,-0.020
6.170,0.745,-0.020
6.172,0.930,-0.020
6.174,0.875,-0.025
6.176,0.670,-0.025
6.178,0.575,-0.020
6.180,0.465,-0.015
6.182,0.610,-0.010
6.184,0.640,0.000
6.186,0.695,0.005
6.188,0.720,0.010
6.190,0.740,0.005
6.192,0.940,0.000
6.194,0.860,-0.005
6.196,0.720,-0.015
6.198,0.575,-0.025
6.200,0.410,-0.025
6.202,0.585,-0.025
6.204,0.575,-0.025
6.206,0.660,-0.015
6.208,0.735,-0.005
6.210,0.745,0.005
6.212,0.950,0.010
6.214,0.890,0.020
6.216,0.760,0.025
6.218,0.605,0.030
6.220,0.490,0.035
6.222,0.675,0.040
6.224,0.690,0.045
6.226,0.700,0.050
6.228,0.770,0.050
6.230,0.805,0.050
6.232,0.970,0.055
6.234,0.955,0.055
6.236,0.825,0.055
6.238,0.645,0.055
6.240,0.560,0.055
6.242,0.710,0.055
6.244,0.700,0.055
6.246,0.680,0.055
6.248,0.740,0.050
6.250,0.765,0.045
6.252,0.990,0.040
6.254,0.885,0.035
6.256,0.795,0.025
6.258,0.625,0.020
6.260,0.500,0.010
6.262,0.630,0.005
6.264,0.615,0.000
6.266,0.685,-0.005
6.268,0.740,-0.010
6.270,0.705,-0.015
6.272,0.905,-0.025
6.274,0.845,-0.030
6.276,0.705,-0.040
6.278,0.500,-0.045
6.280,0.470,-0.045
6.282,0.620,-0.050
6.284,0.585,-0.050
6.286,0.610,-0.055
6.288,0.695,-0.060
6.290,0.690,-0.065
6.292,0.855,-0.070
6.294,0.765,-0.075
6.296,0.705,-0.080
6.298,0.465,-0.080
6.300,0.455,-0.080
6.302,0.575,-0.075
6.304,0.615,-0.070
6.306,0.625,-0.060
6.308,0.670,-0.060
6.310,0.745,-0.060
6.312,0.800,-0.065
6.314,0.740,-0.080
6.316,0.725,-0.095
6.318,0.470,-0.110
6.320,0.465,-0.125
6.322,0.455,-0.135
6.324,0.490,-0.140
6.326,0.550,-0.145
6.328,0.600,-0.145
6.330,0.690,-0.145
6.332,0.780,-0.150
6.334,0.615,-0.160
6.336,0.545,-0.170
6.338,0.360,-0.185
6.340,0.385,-0.200
6.342,0.365,-0.210
6.344,0.445,-0.205
6.346,0.500,-0.180
6.348,0.610,-0.135
6.350,0.740,-0.070
6.352,0.965,0.025
6.354,0.950,0.135
6.356,0.985,0.265
6.358,0.940,0.405
6.360,1.195,0.540
6.362,1.345,0.665
6.364,1.435,0.775
6.366,1.610,0.855
6.368,1.710,0.900
6.370,1.785,0.905
6.372,1.865,0.880
6.374,1.645,0.820
6.376,1.460,0.730
6.378,1.070,0.620
6.380,1.050,0.500
6.382,1.050,0.375
6.384,0.885,0.255
6.386,0.785,0.150
6.388,0.750,0.055
6.390,0.790,-0.015
6.392,0.825,-0.070
6.394,0.700,-0.105
6.396,0.620,-0.130
6.398,0.300,-0.145
6.400,0.420,-0.150
6.402,0.490,-0.155
6.404,0.465,-0.160
6.406,0.560,-0.160
6.408,0.610,-0.160
6.410,0.745,-0.160
6.412,0.765,-0.155
6.414,0.635,-0.145
6.416,0.530,-0.130
6.418,0.310,-0.115
6.420,0.495,-0.105
6.422,0.480,-0.095
6.424,0.600,-0.085
6.426,0.700,-0.080
6.428,0.685,-0.080
6.430,0.810,-0.085
6.432,0.815,-0.085
6.434,0.680,-0.085
6.436,0.560,-0.085
6.438,0.355,-0.080
6.440,0.505,-0.080
6.442,0.580,-0.075
6.444,0.610,-0.075
6.446,0.660,-0.075
6.448,0.660,-0.075
6.450,0.805,-0.075
6.452,0.825,-0.075
6.454,0.690,-0.075
6.456,0.585,-0.070
6.458,0.390,-0.065
6.460,0.565,-0.060
6.462,0.550,-0.055
6.464,0.575,-0.055
6.466,0.640,-0.060
6.468,0.685,-0.070
6.470,0.795,-0.080
6.472,0.805,-0.085
6.474,0.685,-0.090
6.476,0.570,-0.090
6.478,0.365,-0.085
6.480,0.505,-0.075
6.482,0.580,-0.065
6.484,0.570,-0.060
6.486,0.675,-0.055
6.488,0.695,-0.060
6.490,0.850,-0.065
6.492,0.860,-0.070
6.494,0.690,-0.075
6.496,0.525,-0.075
6.498,0.365,-0.075
6.500,0.540,-0.070
6.502,0.565,-0.065
6.504,0.580,-0.060
6.506,0.675,-0.055
6.508,0.695,-0.055
6.510,0.875,-0.055
6.512,0.800,-0.055
6.514,0.740,-0.055
6.516,0.600,-0.055
6.518,0.340,-0.050
6.520,0.600,-0.045
6.522,0.525,-0.040
6.524,0.615,-0.030
6.526,0.750,-0.020
6.528,0.805,-0.015
6.530,0.950,-0.010
6.532,0.855,-0.005
6.534,0.735,0.000
6.536,0.545,0.000
6.538,0.410,0.005
6.540,0.615,0.005
6.542,0.610,0.005
6.544,0.680,0.000
6.546,0.760,-0.005
6.548,0.690,-0.010
6.550,0.915,-0.010
6.552,0.915,-0.010
6.554,0.800,0.000
6.556,0.565,0.015
6.558,0.500,0.035
6.560,0.660,0.050
6.562,0.660,0.070
6.564,0.710,0.080
6.566,0.810,0.090
6.568,0.865,0.085
6.570,1.020,0.085
6.572,0.935,0.080
6.574,0.830,0.075
6.576,0.600,0.080
6.578,0.585,0.090
6.580,0.745,0.105
6.582,0.760,0.120
6.584,0.830,0.140
6.586,0.875,0.150
6.588,0.885,0.160
6.590,1.065,0.160
6.592,1.010,0.155
6.594,0.875,0.150
6.596,0.665,0.150
6.598,0.675,0.150
6.600,0.800,0.155
6.602,0.790,0.170
6.604,0.840,0.180
6.606,0.945,0.195
6.608,0.985,0.210
6.610,1.140,0.220
6.612,1.025,0.225
6.614,0.920,0.225
6.616,0.730,0.220
6.618,0.775,0.215
6.620,0.870,0.210
6.622,0.830,0.200
6.624,0.860,0.190
6.626,0.870,0.180
6.628,0.905,0.170
6.630,1.060,0.155
6.632,0.925,0.145
6.634,0.865,0.135
6.636,0.640,0.130
6.638,0.710,0.120
6.640,0.725,0.115
6.642,0.715,0.110
6.644,0.800,0.105
6.646,0.855,0.090
6.648,0.895,0.075
6.650,0.920,0.060
6.652,0.775,0.045
6.654,0.735,0.025
6.656,0.510,0.015
6.658,0.605,0.010
6.660,0.630,0.005
6.662,0.685,0.010
6.664,0.720,0.010
6.666,0.775,0.010
6.668,0.820,0.010
6.670,0.860,0.005
6.672,0.765,-0.005
6.674,0.725,-0.010
6.676,0.440,-0.020
6.678,0.535,-0.025
6.680,0.580,-0.025
6.682,0.610,-0.025
6.684,0.710,-0.015
6.686,0.720,-0.010
6.688,0.880,0.000
6.690,0.875,0.000
6.692,0.730,0.000
6.694,0.635,-0.005
6.696,0.415,-0.015
6.698,0.550,-0.025
6.700,0.605,-0.035
6.702,0.620,-0.045
6.704,0.645,-0.050
6.706,0.710,-0.050
6.708,0.750,-0.050
6.710,0.850,-0.045
6.712,0.715,-0.045
6.714,0.610,-0.040
6.716,0.385,-0.035
6.718,0.535,-0.035
6.720,0.605,-0.030
6.722,0.620,-0.030
6.724,0.635,-0.025
6.726,0.685,-0.025
6.728,0.855,-0.020
6.730,0.815,-0.020
6.732,0.715,-0.025
6.734,0.590,-0.030
6.736,0.410,-0.035
6.738,0.535,-0.040
6.740,0.575,-0.050
6.742,0.565,-0.055
6.744,0.670,-0.065
6.746,0.665,-0.065
6.748,0.815,-0.070
6.750,0.795,-0.065
6.752,0.660,-0.060
6.754,0.585,-0.055
6.756,0.390,-0.045
6.758,0.510,-0.035
6.760,0.575,-0.030
6.762,0.645,-0.025
6.764,0.680,-0.030
6.766,0.705,-0.030
6.768,0.785,-0.035
6.770,0.815,-0.040
6.772,0.695,-0.045
6.774,0.525,-0.050
6.776,0.405,-0.045
6.778,0.530,-0.045
6.780,0.575,-0.040
6.782,0.575,-0.035
6.784,0.645,-0.030
6.786,0.750,-0.030
6.788,0.870,-0.030
6.790,0.835,-0.035
6.792,0.655,-0.040
6.794,0.445,-0.045
6.796,0.390,-0.045
6.798,0.580,-0.045
6.800,0.560,-0.040
6.802,0.595,-0.035
6.804,0.690,-0.030
6.806,0.695,-0.025
6.808,0.860,-0.020
6.810,0.830,-0.015
6.812,0.670,-0.020
6.814,0.495,-0.020
6.816,0.395,-0.020
6.818,0.580,-0.025
6.820,0.560,-0.025
6.822,0.560,-0.025
6.824,0.655,-0.020
6.826,0.720,-0.020
6.828,0.910,-0.015
6.830,0.795,-0.015
6.832,0.665,-0.010
6.834,0.510,-0.010
6.836,0.445,-0.005
6.838,0.595,-0.005
6.840,0.590,-0.005
6.842,0.615,-0.005
6.844,0.690,-0.005
6.846,0.675,-0.005
6.848,0.835,-0.005
6.850,0.800,-0.010
6.852,0.775,-0.010
6.854,0.505,-0.015
6.856,0.410,-0.020
6.858,0.545,-0.025
6.860,0.530,-0.030
6.862,0.580,-0.035
6.864,0.670,-0.035
6.866,0.675,-0.035
6.868,0.870,-0.030
6.870,0.780,-0.025
6.872,0.665,-0.020
6.874,0.475,-0.010
6.876,0.390,-0.010
6.878,0.580,-0.010
6.880,0.595,-0.010
6.882,0.580,-0.020
6.884,0.665,-0.025
6.886,0.685,-0.035
6.888,0.830,-0.045
6.890,0.705,-0.050
6.892,0.635,-0.050
6.894,0.490,-0.045
6.896,0.460,-0.040
6.898,0.540,-0.030
6.900,0.570,-0.020
6.902,0.570,-0.020
6.904,0.670,-0.015
6.906,0.730,-0.020
6.908,0.825,-0.025
6.910,0.735,-0.030
6.912,0.635,-0.035
6.914,0.415,-0.035
6.916,0.455,-0.030
6.918,0.600,-0.025
6.920,0.545,-0.020
6.922,0.610,-0.015
6.924,0.640,-0.015
6.926,0.685,-0.020
6.928,0.825,-0.025
6.930,0.710,-0.030
6.932,0.640,-0.040
6.934,0.370,-0.045
6.936,0.475,-0.045
6.938,0.535,-0.045
6.940,0.565,-0.035
6.942,0.565,-0.025
6.944,0.680,-0.015
6.946,0.845,-0.005
6.948,0.800,0.005
6.950,0.690,0.005
6.952,0.620,0.005
6.954,0.405,0.000
6.956,0.510,-0.005
6.958,0.590,-0.010
6.960,0.615,-0.020
6.962,0.595,-0.025
6.964,0.670,-0.030
6.966,0.765,-0.030
6.968,0.780,-0.030
6.970,0.670,-0.030
6.972,0.630,-0.025
6.974,0.395,-0.025
6.976,0.510,-0.020
6.978,0.545,-0.015
6.980,0.570,-0.015
6.982,0.570,-0.010
6.984,0.705,-0.010
6.986,0.805,-0.010
6.988,0.830,-0.015
6.990,0.695,-0.015
6.992,0.620,-0.015
6.994,0.370,-0.015
6.996,0.490,-0.015
6.998,0.560,-0.010
7.000,0.555,-0.005
7.002,0.675,0.000
7.004,0.670,0.000
7.006,0.805,0.000
7.008,0.805,0.000
7.010,0.655,0.000
7.012,0.540,0.000
7.014,0.380,0.000
7.016,0.545,0.005
7.018,0.580,0.010
7.020,0.630,0.020
7.022,0.740,0.025
7.024,0.675,0.035
7.026,0.830,0.040
7.028,0.805,0.045
7.030,0.695,0.050
7.032,0.575,0.050
7.034,0.455,0.050
7.036,0.575,0.050
7.038,0.605,0.050
7.040,0.600,0.050
7.042,0.715,0.050
7.044,0.715,0.055
7.046,0.880,0.055
7.048,0.850,0.055
7.050,0.740,0.055
7.052,0.545,0.050
7.054,0.420,0.045
7.056,0.520,0.035
7.058,0.560,0.025
7.060,0.585,0.015
7.062,0.620,0.010
7.064,0.660,0.005
7.066,0.845,0.000
7.068,0.790,0.000
7.070,0.660,0.000
7.072,0.495,0.000
7.074,0.365,0.000
7.076,0.480,-0.005
7.078,0.515,-0.010
7.080,0.525,-0.015
7.082,0.625,-0.025
7.084,0.640,-0.035
7.086,0.770,-0.040
7.088,0.730,-0.050
7.090,0.595,-0.055
7.092,0.465,-0.060
7.094,0.280,-0.065
7.096,0.400,-0.070
7.098,0.415,-0.075
7.100,0.475,-0.075
7.102,0.570,-0.080
7.104,0.585,-0.085
7.106,0.740,-0.090
7.108,0.675,-0.095
7.110,0.540,-0.100
7.112,0.375,-0.105
7.114,0.220,-0.105
7.116,0.345,-0.105
7.118,0.475,-0.100
7.120,0.495,-0.100
7.122,0.565,-0.095
7.124,0.570,-0.095
7.126,0.705,-0.095
7.128,0.645,-0.095
7.130,0.520,-0.100
7.132,0.315,-0.110
7.134,0.230,-0.120
7.136,0.385,-0.135
7.138,0.370,-0.150
7.140,0.425,-0.165
7.142,0.455,-0.185
7.144,0.430,-0.200
7.146,0.585,-0.210
7.148,0.515,-0.220
7.150,0.365,-0.225
7.152,0.210,-0.225
7.154,0.150,-0.215
7.156,0.340,-0.190
7.158,0.355,-0.150
7.160,0.465,-0.090
7.162,0.650,-0.005
7.164,0.745,0.105
7.166,1.055,0.230
7.168,1.120,0.370
7.170,1.190,0.505
7.172,1.105,0.635
7.174,1.195,0.740
7.176,1.360,0.815
7.178,1.385,0.850
7.180,1.410,0.845
7.182,1.435,0.800
7.184,1.380,0.720
7.186,1.390,0.620
7.188,1.200,0.505
7.190,1.035,0.390
7.192,0.695,0.275
7.194,0.555,0.170
7.196,0.465,0.075
7.198,0.455,-0.005
7.200,0.470,-0.075
7.202,0.470,-0.130
7.204,0.495,-0.175
7.206,0.620,-0.210
7.208,0.425,-0.235
7.210,0.330,-0.250
7.212,0.135,-0.260
7.214,0.130,-0.260
7.216,0.270,-0.255
7.218,0.220,-0.250
7.220,0.290,-0.245
7.222,0.425,-0.235
7.224,0.505,-0.225
7.226,0.605,-0.215
7.228,0.470,-0.200
7.230,0.415,-0.185
7.232,0.190,-0.165
7.234,0.270,-0.150
7.236,0.350,-0.135
7.238,0.375,-0.120
7.240,0.470,-0.115
7.242,0.540,-0.110
7.244,0.605,-0.110
7.246,0.630,-0.110
7.248,0.525,-0.115
7.250,0.480,-0.115
7.252,0.230,-0.110
7.254,0.340,-0.105
7.256,0.415,-0.100
7.258,0.430,-0.090
7.260,0.475,-0.090
7.262,0.500,-0.085
7.264,0.610,-0.085
7.266,0.630,-0.080
7.268,0.545,-0.080
7.270,0.455,-0.075
7.272,0.265,-0.070
7.274,0.415,-0.065
7.276,0.490,-0.060
7.278,0.440,-0.055
7.280,0.485,-0.055
7.282,0.560,-0.055
7.284,0.705,-0.060
7.286,0.655,-0.070
7.288,0.520,-0.075
7.290,0.475,-0.075
7.292,0.240,-0.075
7.294,0.380,-0.070
7.296,0.425,-0.060
7.298,0.465,-0.050
7.300,0.540,-0.040
7.302,0.585,-0.030
7.304,0.700,-0.030
7.306,0.710,-0.030
7.308,0.570,-0.035
7.310,0.430,-0.040
7.312,0.265,-0.045
7.314,0.420,-0.045
7.316,0.415,-0.050
7.318,0.460,-0.045
7.320,0.545,-0.045
7.322,0.580,-0.045
7.324,0.690,-0.040
7.326,0.705,-0.040
7.328,0.540,-0.040
7.330,0.440,-0.035
7.332,0.240,-0.035
7.334,0.470,-0.030
7.336,0.495,-0.025
7.338,0.435,-0.020
7.340,0.550,-0.015
7.342,0.655,-0.010
7.344,0.770,0.000
7.346,0.710,0.005
7.348,0.620,0.015
7.350,0.460,0.025
7.352,0.270,0.030
7.354,0.490,0.040
7.356,0.515,0.045
7.358,0.530,0.050
7.360,0.625,0.050
7.362,0.655,0.050
7.364,0.785,0.055
7.366,0.755,0.060
7.368,0.675,0.065
7.370,0.525,0.075
7.372,0.380,0.090
7.374,0.540,0.105
7.376,0.570,0.120
7.378,0.650,0.130
7.380,0.695,0.140
7.382,0.750,0.145
7.384,0.885,0.150
7.386,0.855,0.145
7.388,0.715,0.145
7.390,0.620,0.145
7.392,0.475,0.145
7.394,0.550,0.155
7.396,0.615,0.165
7.398,0.680,0.180
7.400,0.790,0.195
7.402,0.830,0.215
7.404,0.990,0.230
7.406,0.930,0.245
7.408,0.825,0.260
7.410,0.670,0.270
7.412,0.535,0.270
7.414,0.685,0.270
7.416,0.720,0.270
7.418,0.820,0.270
7.420,0.800,0.265
7.422,0.860,0.265
7.424,1.010,0.270
7.426,0.960,0.275
7.428,0.850,0.280
7.430,0.670,0.285
7.432,0.565,0.285
7.434,0.725,0.285
7.436,0.700,0.275
7.438,0.755,0.265
7.440,0.830,0.245
7.442,0.815,0.230
7.444,0.975,0.215
7.446,0.870,0.200
7.448,0.740,0.190
7.450,0.510,0.180
7.452,0.540,0.170
7.454,0.615,0.165
7.456,0.575,0.150
7.458,0.610,0.140
7.460,0.690,0.120
7.462,0.685,0.105
7.464,0.840,0.090
7.466,0.740,0.075
7.468,0.590,0.065
7.470,0.415,0.060
7.472,0.365,0.055
7.474,0.510,0.055
7.476,0.535,0.055
7.478,0.535,0.050
7.480,0.595,0.040
7.482,0.635,0.030
7.484,0.735,0.020
7.486,0.595,0.010
7.488,0.560,0.000
7.490,0.350,-0.005
7.492,0.410,0.000
7.494,0.475,0.005
7.496,0.440,0.015
7.498,0.495,0.025
7.500,0.615,0.030
7.502,0.595,0.030
7.504,0.755,0.030
7.506,0.650,0.025
7.508,0.585,0.015
7.510,0.290,0.010
7.512,0.375,0.005
7.514,0.450,0.005
7.516,0.465,0.010
7.518,0.510,0.015
7.520,0.620,0.020
7.522,0.600,0.020
7.524,0.700,0.020
7.526,0.655,0.020
7.528,0.565,0.015
7.530,0.280,0.010
7.532,0.370,0.010
7.534,0.445,0.005
7.536,0.455,0.005
7.538,0.505,0.000
7.540,0.555,0.000
7.542,0.645,0.000
7.544,0.695,0.000
7.546,0.615,0.000
7.548,0.525,0.000
7.550,0.215,0.000
7.552,0.405,0.005
7.554,0.435,0.010
7.556,0.460,0.015
7.558,0.530,0.025
7.560,0.640,0.030
7.562,0.710,0.030
7.564,0.740,0.035
7.566,0.630,0.030
7.568,0.485,0.030
7.570,0.230,0.020
7.572,0.430,0.015
7.574,0.450,0.010
7.576,0.435,0.005
7.578,0.555,0.000
7.580,0.535,-0.005
7.582,0.690,-0.010
7.584,0.695,-0.010
7.586,0.555,-0.010
7.588,0.455,-0.010
7.590,0.240,-0.005
7.592,0.425,0.000
7.594,0.435,0.005
7.596,0.435,0.010
7.598,0.560,0.015
7.600,0.565,0.020
7.602,0.685,0.020
7.604,0.670,0.020
7.606,0.595,0.020
7.608,0.480,0.020
7.610,0.285,0.020
7.612,0.370,0.020
7.614,0.430,0.020
7.616,0.460,0.020
7.618,0.555,0.020
7.620,0.575,0.020
7.622,0.675,0.025
7.624,0.750,0.025
7.626,0.605,0.025
7.628,0.430,0.025
7.630,0.245,0.025
7.632,0.395,0.025
7.634,0.455,0.030
7.636,0.465,0.035
7.638,0.560,0.040
7.640,0.640,0.050
7.642,0.735,0.050
7.644,0.700,0.055
7.646,0.590,0.055
7.648,0.430,0.050
7.650,0.295,0.040
7.652,0.400,0.030
7.654,0.450,0.020
7.656,0.445,0.015
7.658,0.585,0.010
7.660,0.615,0.010
7.662,0.720,0.010
7.664,0.685,0.015
7.666,0.555,0.020
7.668,0.370,0.025
7.670,0.170,0.025
7.672,0.420,0.020
7.674,0.420,0.010
7.676,0.465,0.005
7.678,0.595,-0.005
7.680,0.560,-0.010
7.682,0.665,-0.015
7.684,0.620,-0.015
7.686,0.520,-0.010
7.688,0.380,-0.005
7.690,0.240,0.000
7.692,0.360,-0.005
7.694,0.390,-0.005
7.696,0.400,-0.015
7.698,0.470,-0.025
7.700,0.525,-0.030
7.702,0.665,-0.035
7.704,0.660,-0.035
7.706,0.560,-0.030
7.708,0.320,-0.020
7.710,0.200,-0.010
7.712,0.345,0.000
7.714,0.375,0.005
7.716,0.430,0.000
7.718,0.510,-0.015
7.720,0.530,-0.030
7.722,0.650,-0.050
7.724,0.585,-0.070
7.726,0.455,-0.090
7.728,0.240,-0.100
7.730,0.150,-0.100
7.732,0.265,-0.100
7.734,0.265,-0.100
7.736,0.370,-0.095
7.738,0.460,-0.100
7.740,0.405,-0.105
7.742,0.625,-0.115
7.744,0.480,-0.125
7.746,0.385,-0.140
7.748,0.170,-0.150
7.750,0.145,-0.155
7.752,0.160,-0.160
7.754,0.250,-0.160
7.756,0.300,-0.160
7.758,0.375,-0.155
7.760,0.440,-0.155
7.762,0.525,-0.150
7.764,0.435,-0.150
7.766,0.385,-0.145
7.768,0.135,-0.145
7.770,0.160,-0.145
7.772,0.250,-0.145
7.774,0.270,-0.145
7.776,0.345,-0.145
7.778,0.295,-0.150
7.780,0.425,-0.155
7.782,0.530,-0.155
7.784,0.425,-0.155
7.786,0.410,-0.150
7.788,0.130,-0.140
7.790,0.190,-0.130
7.792,0.285,-0.115
7.794,0.315,-0.110
7.796,0.310,-0.105
7.798,0.365,-0.110
7.800,0.490,-0.120
7.802,0.495,-0.130
7.804,0.405,-0.140
7.806,0.405,-0.145
7.808,0.110,-0.145
7.810,0.230,-0.135
7.812,0.275,-0.115
7.814,0.330,-0.095
7.816,0.380,-0.070
7.818,0.510,-0.045
7.820,0.545,-0.025
7.822,0.615,-0.020
7.824,0.545,-0.015
7.826,0.445,-0.020
7.828,0.210,-0.030
7.830,0.310,-0.040
7.832,0.350,-0.045
7.834,0.405,-0.050
7.836,0.395,-0.055
7.838,0.505,-0.055
7.840,0.585,-0.055
7.842,0.590,-0.055
7.844,0.480,-0.050
7.846,0.415,-0.050
7.848,0.155,-0.045
7.850,0.315,-0.040
7.852,0.355,-0.035
7.854,0.380,-0.035
7.856,0.445,-0.035
7.858,0.470,-0.040
7.860,0.580,-0.045
7.862,0.595,-0.055
7.864,0.450,-0.070
7.866,0.350,-0.080
7.868,0.135,-0.090
7.870,0.245,-0.100
7.872,0.285,-0.100
7.874,0.300,-0.100
7.876,0.355,-0.100
7.878,0.395,-0.105
7.880,0.560,-0.110
7.882,0.510,-0.120
7.884,0.360,-0.130
7.886,0.225,-0.145
7.888,0.050,-0.160
7.890,0.195,-0.165
7.892,0.240,-0.170
7.894,0.245,-0.165
7.896,0.355,-0.160
7.898,0.360,-0.155
7.900,0.500,-0.145
7.902,0.460,-0.145
7.904,0.335,-0.145
7.906,0.240,-0.150
7.908,-0.015,-0.160
7.910,0.200,-0.170
7.912,0.205,-0.175
7.914,0.210,-0.175
7.916,0.365,-0.175
7.918,0.350,-0.170
7.920,0.475,-0.170
7.922,0.490,-0.165
7.924,0.375,-0.165
7.926,0.190,-0.170
7.928,-0.065,-0.180
7.930,0.135,-0.195
7.932,0.205,-0.210
7.934,0.190,-0.230
7.936,0.260,-0.245
7.938,0.240,-0.255
7.940,0.395,-0.260
7.942,0.385,-0.260
7.944,0.240,-0.250
7.946,0.070,-0.230
7.948,-0.065,-0.195
7.950,0.175,-0.145
7.952,0.325,-0.070
7.954,0.485,0.025
7.956,0.635,0.140
7.958,0.810,0.270
7.960,1.110,0.405
7.962,1.200,0.535
7.964,1.195,0.650
7.966,1.145,0.740
7.968,0.995,0.800
7.970,1.180,0.815
7.972,1.170,0.800
7.974,1.155,0.745
7.976,1.160,0.665
7.978,1.095,0.570
7.980,1.140,0.460
7.982,0.960,0.350
7.984,0.735,0.250
7.986,0.480,0.155
7.988,0.200,0.070
7.990,0.295,-0.005
7.992,0.295,-0.065
7.994,0.285,-0.110
7.996,0.320,-0.150
7.998,0.330,-0.175
8.000,0.445,-0.190
8.002,0.370,-0.195
8.004,0.275,-0.195
8.006,0.155,-0.190
8.008,0.035,-0.180
8.010,0.130,-0.170
8.012,0.205,-0.160
8.014,0.270,-0.155
8.016,0.400,-0.150
8.018,0.375,-0.145
8.020,0.505,-0.140
8.022,0.445,-0.130
8.024,0.355,-0.120
8.026,0.200,-0.105
8.028,0.165,-0.090
8.030,0.260,-0.080
8.032,0.310,-0.070
8.034,0.335,-0.065
8.036,0.390,-0.065
8.038,0.435,-0.075
8.040,0.545,-0.085
8.042,0.485,-0.095
8.044,0.350,-0.105
8.046,0.205,-0.110
8.048,0.135,-0.110
8.050,0.225,-0.110
8.052,0.285,-0.105
8.054,0.270,-0.095
8.056,0.455,-0.090
8.058,0.485,-0.080
8.060,0.610,-0.070
8.062,0.435,-0.060
8.064,0.410,-0.055
8.066,0.180,-0.050
8.068,0.200,-0.050
8.070,0.315,-0.050
8.072,0.345,-0.050
8.074,0.390,-0.050
8.076,0.425,-0.050
8.078,0.475,-0.045
8.080,0.600,-0.045
8.082,0.480,-0.040
8.084,0.440,-0.035
8.086,0.225,-0.030
8.088,0.260,-0.025
8.090,0.330,-0.025
8.092,0.360,-0.020
8.094,0.350,-0.020
8.096,0.495,-0.020
8.098,0.555,-0.020
8.100,0.640,-0.010
8.102,0.525,-0.005
8.104,0.425,0.010
8.106,0.185,0.020
8.108,0.345,0.030
8.110,0.375,0.035
8.112,0.395,0.035
8.114,0.465,0.030
8.116,0.510,0.020
8.118,0.580,0.015
8.120,0.635,0.010
8.122,0.500,0.010
8.124,0.480,0.015
8.126,0.230,0.025
8.128,0.340,0.040
8.130,0.400,0.055
8.132,0.420,0.065
8.134,0.495,0.070
8.136,0.585,0.070
8.138,0.635,0.065
8.140,0.670,0.060
8.142,0.535,0.055
8.144,0.480,0.050
8.146,0.240,0.050
8.148,0.400,0.055
8.150,0.380,0.065
8.152,0.445,0.070
8.154,0.545,0.080
8.156,0.550,0.080
8.158,0.670,0.085
8.160,0.710,0.085
8.162,0.575,0.085
8.164,0.510,0.090
8.166,0.275,0.100
8.168,0.410,0.110
8.170,0.510,0.125
8.172,0.495,0.135
8.174,0.590,0.150
8.176,0.640,0.155
8.178,0.720,0.160
8.180,0.730,0.155
8.182,0.665,0.155
8.184,0.555,0.155
8.186,0.285,0.155
8.188,0.430,0.155
8.190,0.515,0.165
8.192,0.625,0.175
8.194,0.650,0.185
8.196,0.620,0.190
8.198,0.795,0.195
8.200,0.775,0.200
8.202,0.695,0.200
8.204,0.530,0.200
8.206,0.330,0.195
8.208,0.495,0.200
8.210,0.505,0.200
8.212,0.565,0.200
8.214,0.660,0.200
8.216,0.690,0.195
8.218,0.810,0.190
8.220,0.745,0.180
8.222,0.625,0.170
8.224,0.480,0.160
8.226,0.320,0.150
8.228,0.440,0.145
8.230,0.490,0.135
8.232,0.485,0.130
8.234,0.560,0.120
8.236,0.585,0.115
8.238,0.730,0.100
8.240,0.735,0.090
8.242,0.510,0.075
8.244,0.420,0.065
8.246,0.235,0.055
8.248,0.340,0.050
8.250,0.390,0.050
8.252,0.405,0.050
8.254,0.460,0.050
8.256,0.520,0.050
8.258,0.705,0.045
8.260,0.595,0.040
8.262,0.450,0.025
8.264,0.380,0.015
8.266,0.150,0.005
8.268,0.340,0.000
8.270,0.315,-0.005
8.272,0.345,0.000
8.274,0.450,0.000
8.276,0.465,0.000
8.278,0.615,0.000
8.280,0.560,-0.005
8.282,0.455,-0.015
8.284,0.235,-0.025
8.286,0.165,-0.035
8.288,0.230,-0.050
8.290,0.280,-0.055
8.292,0.320,-0.055
8.294,0.405,-0.055
8.296,0.350,-0.055
8.298,0.610,-0.050
8.300,0.535,-0.050
8.302,0.340,-0.055
8.304,0.180,-0.065
8.306,0.075,-0.075
8.308,0.215,-0.090
8.310,0.245,-0.100
8.312,0.275,-0.110
8.314,0.365,-0.110
8.316,0.345,-0.110
8.318,0.495,-0.105
8.320,0.440,-0.100
8.322,0.345,-0.095
8.324,0.140,-0.090
8.326,0.110,-0.090
8.328,0.240,-0.090
8.330,0.220,-0.095
8.332,0.275,-0.100
8.334,0.320,-0.105
8.336,0.405,-0.105
8.338,0.535,-0.105
8.340,0.400,-0.100
8.342,0.305,-0.100
8.344,0.135,-0.095
8.346,0.140,-0.095
8.348,0.220,-0.100
8.350,0.180,-0.105
8.352,0.265,-0.105
8.354,0.325,-0.110
8.356,0.390,-0.110
8.358,0.550,-0.105
8.360,0.415,-0.100
8.362,0.280,-0.095
8.364,0.130,-0.090
8.366,0.115,-0.090
8.368,0.225,-0.090
8.370,0.235,-0.090
8.372,0.265,-0.095
8.374,0.350,-0.105
8.376,0.370,-0.110
8.378,0.490,-0.115
8.380,0.345,-0.120
8.382,0.320,-0.115
8.384,0.100,-0.110
8.386,0.130,-0.105
8.388,0.210,-0.095
8.390,0.255,-0.090
8.392,0.280,-0.085
8.394,0.385,-0.085
8.396,0.455,-0.090
8.398,0.485,-0.090
8.400,0.395,-0.095
8.402,0.330,-0.100
8.404,0.065,-0.100
8.406,0.110,-0.100
8.408,0.230,-0.095
8.410,0.255,-0.090
8.412,0.305,-0.085
8.414,0.330,-0.085
8.416,0.440,-0.080
8.418,0.490,-0.080
8.420,0.375,-0.080
8.422,0.305,-0.075
8.424,0.075,-0.075
8.426,0.215,-0.070
8.428,0.290,-0.065
8.430,0.245,-0.060
8.432,0.340,-0.055
8.434,0.350,-0.050
8.436,0.530,-0.050
8.438,0.510,-0.050
8.440,0.385,-0.050
8.442,0.290,-0.050
8.444,0.060,-0.050
8.446,0.210,-0.050
8.448,0.220,-0.050
8.450,0.255,-0.055
8.452,0.410,-0.055
8.454,0.400,-0.055
8.456,0.510,-0.055
8.458,0.530,-0.055
8.460,0.380,-0.050
8.462,0.295,-0.040
8.464,0.095,-0.035
8.466,0.235,-0.025
8.468,0.290,-0.020
8.470,0.315,-0.020
8.472,0.400,-0.020
8.474,0.375,-0.030
8.476,0.510,-0.035
8.478,0.515,-0.045
8.480,0.390,-0.050
8.482,0.265,-0.050
8.484,0.085,-0.045
8.486,0.190,-0.035
8.488,0.300,-0.025
8.490,0.320,-0.010
8.492,0.415,0.000
8.494,0.445,0.010
8.496,0.600,0.010
8.498,0.595,0.010
8.500,0.430,0.005
8.502,0.260,-0.005
8.504,0.085,-0.010
8.506,0.255,-0.010
8.508,0.295,-0.005
8.510,0.325,0.000
8.512,0.400,0.005
8.514,0.445,0.010
8.516,0.595,0.015
8.518,0.515,0.015
8.520,0.425,0.015
8.522,0.290,0.015
8.524,0.120,0.010
8.526,0.270,0.005
8.528,0.330,0.000
8.530,0.300,0.000
8.532,0.430,0.000
8.534,0.440,0.000
8.536,0.575,0.000
8.538,0.535,0.000
8.540,0.450,0.000
8.542,0.220,-0.005
8.544,0.055,-0.010
8.546,0.275,-0.015
8.548,0.240,-0.025
8.550,0.260,-0.030
8.552,0.395,-0.040
8.554,0.385,-0.050
8.556,0.560,-0.050
8.558,0.540,-0.055
8.560,0.335,-0.050
8.562,0.155,-0.050
8.564,0.055,-0.040
8.566,0.240,-0.035
8.568,0.225,-0.030
8.570,0.295,-0.030
8.572,0.380,-0.030
8.574,0.380,-0.030
8.576,0.555,-0.030
8.578,0.470,-0.035
8.580,0.370,-0.035
8.582,0.160,-0.035
8.584,0.045,-0.040
8.586,0.240,-0.040
8.588,0.220,-0.040
8.590,0.295,-0.045
8.592,0.410,-0.045
8.594,0.360,-0.040
8.596,0.500,-0.040
8.598,0.510,-0.030
8.600,0.375,-0.020
8.602,0.170,-0.010
8.604,0.195,0.000
8.606,0.285,0.005
8.608,0.240,0.005
8.610,0.320,0.000
8.612,0.385,-0.005
8.614,0.360,-0.015
8.616,0.515,-0.020
8.618,0.470,-0.025
8.620,0.370,-0.025
8.622,0.185,-0.015
8.624,0.140,-0.005
8.626,0.310,0.005
8.628,0.305,0.015
8.630,0.340,0.020
8.632,0.355,0.020
8.634,0.440,0.015
8.636,0.535,0.010
8.638,0.495,0.000
8.640,0.415,-0.005
8.642,0.145,-0.005
8.644,0.215,-0.005
8.646,0.285,0.000
8.648,0.220,0.010
8.650,0.290,0.015
8.652,0.420,0.020
8.654,0.465,0.020
8.656,0.595,0.015
8.658,0.470,0.010
8.660,0.365,0.005
8.662,0.130,-0.005
8.664,0.180,-0.015
8.666,0.230,-0.025
8.668,0.300,-0.035
8.670,0.250,-0.045
8.672,0.315,-0.055
8.674,0.400,-0.065
8.676,0.480,-0.075
8.678,0.335,-0.085
8.680,0.270,-0.090
8.682,0.055,-0.085
8.684,0.135,-0.080
8.686,0.180,-0.075
8.688,0.195,-0.065
8.690,0.295,-0.055
8.692,0.345,-0.045
8.694,0.425,-0.040
8.696,0.515,-0.040
8.698,0.375,-0.040
8.700,0.280,-0.045
8.702,0.050,-0.050
8.704,0.130,-0.060
8.706,0.215,-0.065
8.708,0.200,-0.070
8.710,0.290,-0.070
8.712,0.320,-0.070
8.714,0.390,-0.070
8.716,0.455,-0.070
8.718,0.345,-0.075
8.720,0.225,-0.075
8.722,0.020,-0.085
8.724,0.115,-0.095
8.726,0.140,-0.110
8.728,0.110,-0.135
8.730,0.275,-0.155
8.732,0.165,-0.175
8.734,0.270,-0.190
8.736,0.335,-0.195
8.738,0.205,-0.185
8.740,0.160,-0.155
8.742,-0.020,-0.115
8.744,0.140,-0.050
8.746,0.210,0.035
8.748,0.365,0.130
8.750,0.655,0.240
8.752,0.785,0.360
8.754,1.005,0.480
8.756,1.155,0.595
8.758,1.135,0.700
8.760,1.115,0.780
8.762,0.975,0.830
8.764,1.070,0.850
8.766,1.060,0.830
8.768,0.995,0.770
8.770,1.005,0.680
8.772,0.930,0.570
8.774,0.950,0.445
8.776,0.815,0.315
8.778,0.600,0.195
8.780,0.340,0.090
8.782,0.030,0.005
8.784,0.080,-0.060
8.786,0.115,-0.110
8.788,0.135,-0.150
8.790,0.175,-0.180
8.792,0.135,-0.205
8.794,0.275,-0.225
8.796,0.235,-0.240
8.798,0.090,-0.255
8.800,-0.075,-0.260
8.802,-0.190,-0.260
8.804,-0.025,-0.255
8.806,-0.010,-0.240
8.808,0.080,-0.225
8.810,0.095,-0.205
8.812,0.145,-0.185
8.814,0.380,-0.170
8.816,0.325,-0.155
8.818,0.225,-0.145
8.820,0.075,-0.135
8.822,-0.095,-0.130
8.824,0.080,-0.130
8.826,0.075,-0.130
8.828,0.130,-0.125
8.830,0.200,-0.125
8.832,0.260,-0.125
8.834,0.395,-0.125
8.836,0.345,-0.125
8.838,0.230,-0.120
8.840,0.055,-0.120
8.842,-0.090,-0.115
8.844,0.095,-0.115
8.846,0.140,-0.120
8.848,0.245,-0.120
8.850,0.225,-0.125
8.852,0.190,-0.125
8.854,0.380,-0.125
8.856,0.345,-0.125
8.858,0.245,-0.115
8.860,0.065,-0.105
8.862,-0.070,-0.095
8.864,0.150,-0.080
8.866,0.125,-0.070
8.868,0.210,-0.055
8.870,0.275,-0.050
8.872,0.290,-0.045
8.874,0.480,-0.045
8.876,0.445,-0.045
8.878,0.290,-0.050
8.880,0.100,-0.050
8.882,0.045,-0.050
8.884,0.150,-0.050
8.886,0.200,-0.045
8.888,0.225,-0.040
8.890,0.300,-0.035
8.892,0.325,-0.030
8.894,0.480,-0.020
8.896,0.405,-0.015
8.898,0.295,-0.015
8.900,0.115,-0.010
8.902,0.120,-0.010
8.904,0.245,-0.010
8.906,0.185,-0.005
8.908,0.285,-0.005
8.910,0.410,0.000
8.912,0.365,0.010
8.914,0.520,0.015
8.916,0.425,0.025
8.918,0.355,0.030
8.920,0.185,0.035
8.922,0.095,0.035
8.924,0.250,0.035
8.926,0.235,0.030
8.928,0.275,0.020
8.930,0.350,0.015
8.932,0.355,0.010
8.934,0.510,0.015
8.936,0.430,0.020
8.938,0.360,0.030
8.940,0.195,0.045
8.942,0.210,0.060
8.944,0.260,0.075
8.946,0.340,0.085
8.948,0.355,0.090
8.950,0.400,0.085
8.952,0.430,0.080
8.954,0.555,0.075
8.956,0.465,0.065
8.958,0.385,0.065
8.960,0.155,0.065
8.962,0.220,0.070
8.964,0.305,0.085
8.966,0.370,0.100
8.968,0.400,0.115
8.970,0.475,0.130
8.972,0.515,0.140
8.974,0.645,0.145
8.976,0.530,0.145
8.978,0.475,0.140
8.980,0.205,0.135
8.982,0.280,0.135
8.984,0.315,0.140
8.986,0.400,0.145
8.988,0.430,0.160
8.990,0.545,0.180
8.992,0.590,0.195
8.994,0.760,0.215
8.996,0.620,0.235
8.998,0.525,0.250
9.000,0.300,0.255
9.002,0.390,0.260
9.004,0.485,0.260
9.006,0.470,0.255
9.008,0.510,0.250
9.010,0.570,0.240
9.012,0.680,0.230
9.014,0.660,0.225
9.016,0.565,0.215
9.018,0.450,0.205
9.020,0.200,0.200
9.022,0.360,0.195
9.024,0.395,0.185
9.026,0.420,0.180
9.028,0.470,0.175
9.030,0.485,0.170
9.032,0.625,0.160
9.034,0.580,0.155
9.036,0.475,0.145
9.038,0.315,0.135
9.040,0.110,0.125
9.042,0.315,0.110
9.044,0.285,0.100
9.046,0.290,0.090
9.048,0.435,0.075
9.050,0.435,0.065
9.052,0.490,0.055
9.054,0.480,0.045
9.056,0.370,0.030
9.058,0.225,0.020
9.060,0.010,0.005
9.062,0.125,-0.005
9.064,0.150,-0.010
9.066,0.175,-0.020
9.068,0.285,-0.020
9.070,0.370,-0.015
9.072,0.500,-0.015
9.074,0.440,-0.005
9.076,0.305,0.000
9.078,0.140,0.000
9.080,-0.075,0.000
9.082,0.185,0.000
9.084,0.175,-0.010
9.086,0.210,-0.015
9.088,0.285,-0.025
9.090,0.325,-0.030
9.092,0.435,-0.030
9.094,0.405,-0.030
9.096,0.265,-0.025
9.098,0.105,-0.015
9.100,-0.035,-0.010
9.102,0.185,-0.010
9.104,0.170,-0.010
9.106,0.205,-0.015
9.108,0.265,-0.025
9.110,0.325,-0.035
9.112,0.410,-0.040
9.114,0.375,-0.045
9.116,0.250,-0.050
9.118,0.105,-0.045
9.120,-0.115,-0.040
9.122,0.130,-0.035
9.124,0.175,-0.035
9.126,0.225,-0.030
9.128,0.250,-0.035
9.130,0.275,-0.040
9.132,0.405,-0.045
9.134,0.360,-0.055
9.136,0.240,-0.060
9.138,0.090,-0.060
9.140,-0.080,-0.060
9.142,0.090,-0.055
9.144,0.110,-0.045
9.146,0.195,-0.035
9.148,0.285,-0.025
9.150,0.310,-0.015
9.152,0.485,-0.005
9.154,0.385,0.000
9.156,0.280,0.000
9.158,0.130,0.000
9.160,0.030,-0.005
9.162,0.155,-0.010
9.164,0.130,-0.015
9.166,0.180,-0.015
9.168,0.265,-0.015
9.170,0.315,-0.010
9.172,0.475,0.005
9.174,0.430,0.015
9.176,0.335,0.030
9.178,0.155,0.045
9.180,0.060,0.055
9.182,0.210,0.055
9.184,0.210,0.050
9.186,0.240,0.040
9.188,0.335,0.025
9.190,0.380,0.015
9.192,0.470,0.000
9.194,0.355,0.000
9.196,0.285,0.000
9.198,0.110,0.010
9.200,0.085,0.020
9.202,0.220,0.035
9.204,0.250,0.045
9.206,0.270,0.055
9.208,0.370,0.055
9.210,0.335,0.055
9.212,0.485,0.055
9.214,0.455,0.055
9.216,0.340,0.060
9.218,0.125,0.070
9.220,0.180,0.080
9.222,0.320,0.090
9.224,0.245,0.100
9.226,0.290,0.105
9.228,0.360,0.100
9.230,0.420,0.095
9.232,0.545,0.080
9.234,0.445,0.070
9.236,0.300,0.060
9.238,0.130,0.055
9.240,0.170,0.055
9.242,0.215,0.055
9.244,0.235,0.060
9.246,0.290,0.065
9.248,0.335,0.065
9.250,0.355,0.065
9.252,0.485,0.060
9.254,0.410,0.055
9.256,0.370,0.055
9.258,0.130,0.055
9.260,0.175,0.060
9.262,0.235,0.065
9.264,0.280,0.075
9.266,0.325,0.085
9.268,0.380,0.090
9.270,0.445,0.090
9.272,0.440,0.080
9.274,0.375,0.070
9.276,0.330,0.060
9.278,0.095,0.045
9.280,0.200,0.040
9.282,0.250,0.035
9.284,0.225,0.040
9.286,0.285,0.045
9.288,0.340,0.055
9.290,0.455,0.065
9.292,0.545,0.075
9.294,0.395,0.080
9.296,0.265,0.085
9.298,0.090,0.085
9.300,0.225,0.080
9.302,0.245,0.080
9.304,0.270,0.080
9.306,0.350,0.075
9.308,0.370,0.075
9.310,0.490,0.070
9.312,0.490,0.065
9.314,0.365,0.060
9.316,0.245,0.050
9.318,0.025,0.045
9.320,0.160,0.040
9.322,0.190,0.035
9.324,0.200,0.040
9.326,0.330,0.045
9.328,0.390,0.055
9.330,0.515,0.065
9.332,0.475,0.075
9.334,0.320,0.080
9.336,0.280,0.085
9.338,0.100,0.090
9.340,0.215,0.090
9.342,0.235,0.090
9.344,0.255,0.090
9.346,0.385,0.090
9.348,0.380,0.095
9.350,0.535,0.100
9.352,0.540,0.105
9.354,0.455,0.110
9.356,0.245,0.110
9.358,0.085,0.110
9.360,0.215,0.105
9.362,0.275,0.100
9.364,0.250,0.095
9.366,0.350,0.085
9.368,0.375,0.075
9.370,0.510,0.070
9.372,0.500,0.070
9.374,0.365,0.070
9.376,0.265,0.075
9.378,0.080,0.080
9.380,0.200,0.085
9.382,0.230,0.085
9.384,0.310,0.085
9.386,0.320,0.085
9.388,0.335,0.085
9.390,0.490,0.080
9.392,0.535,0.080
9.394,0.385,0.085
9.396,0.250,0.090
9.398,0.060,0.100
9.400,0.260,0.115
9.402,0.300,0.125
9.404,0.310,0.140
9.406,0.395,0.150
9.408,0.420,0.155
9.410,0.600,0.160
9.412,0.560,0.160
9.414,0.415,0.160
9.416,0.310,0.165
9.418,0.155,0.170
9.420,0.305,0.175
9.422,0.345,0.185
9.424,0.390,0.190
9.426,0.455,0.190
9.428,0.490,0.185
9.430,0.605,0.175
9.432,0.525,0.155
9.434,0.400,0.135
9.436,0.235,0.115
9.438,0.050,0.095
9.440,0.230,0.085
9.442,0.190,0.080
9.444,0.305,0.080
9.446,0.365,0.080
9.448,0.395,0.085
9.450,0.545,0.090
9.452,0.480,0.085
9.454,0.300,0.075
9.456,0.105,0.060
9.458,0.010,0.040
9.460,0.215,0.015
9.462,0.105,-0.005
9.464,0.160,-0.020
9.466,0.265,-0.030
9.468,0.295,-0.035
9.470,0.420,-0.035
9.472,0.325,-0.040
9.474,0.245,-0.040
9.476,0.035,-0.045
9.478,-0.035,-0.060
9.480,0.070,-0.070
9.482,0.075,-0.085
9.484,0.040,-0.095
9.486,0.145,-0.105
9.488,0.245,-0.105
9.490,0.425,-0.100
9.492,0.295,-0.090
9.494,0.200,-0.075
9.496,-0.010,-0.060
9.498,-0.015,-0.050
9.500,0.045,-0.045
9.502,0.060,-0.050
9.504,0.170,-0.055
9.506,0.265,-0.065
9.508,0.245,-0.080
9.510,0.380,-0.090
9.512,0.240,-0.100
9.514,0.155,-0.105
9.516,-0.080,-0.110
9.518,-0.105,-0.120
9.520,0.030,-0.130
9.522,0.030,-0.145
9.524,0.045,-0.160
9.526,0.075,-0.180
9.528,0.135,-0.200
9.530,0.230,-0.210
9.532,0.105,-0.200
9.534,0.090,-0.175
9.536,-0.130,-0.125
9.538,-0.020,-0.050
9.540,0.170,0.045
9.542,0.320,0.160
9.544,0.525,0.290
9.546,0.765,0.425
9.548,0.955,0.555
9.550,1.125,0.680
9.552,1.145,0.785
9.554,1.180,0.870
9.556,0.985,0.925
9.558,1.075,0.955
9.560,1.065,0.945
9.562,1.085,0.905
9.564,1.040,0.830
9.566,0.980,0.725
9.568,0.950,0.605
9.570,0.925,0.470
9.572,0.675,0.335
9.574,0.405,0.210
9.576,0.030,0.105
9.578,0.040,0.025
9.580,0.100,-0.035
9.582,0.105,-0.070
9.584,0.115,-0.095
9.586,0.215,-0.105
9.588,0.310,-0.110
9.590,0.305,-0.115
9.592,0.160,-0.120
9.594,0.020,-0.130
9.596,-0.225,-0.140
9.598,-0.045,-0.150
9.600,-0.005,-0.160
9.602,0.000,-0.160
9.604,0.130,-0.160
9.606,0.185,-0.155
9.608,0.260,-0.155
9.610,0.275,-0.150
9.612,0.125,-0.150
9.614,-0.005,-0.150
9.616,-0.230,-0.155
9.618,-0.075,-0.160
9.620,-0.045,-0.165
9.622,-0.005,-0.165
9.624,0.095,-0.165
9.626,0.130,-0.165
9.628,0.250,-0.160
9.630,0.290,-0.160
9.632,0.150,-0.160
9.634,-0.040,-0.160
9.636,-0.180,-0.160
9.638,-0.065,-0.165
9.640,-0.075,-0.165
9.642,-0.045,-0.165
9.644,0.105,-0.165
9.646,0.180,-0.165
9.648,0.235,-0.165
9.650,0.225,-0.165
9.652,0.125,-0.170
9.654,-0.040,-0.175
9.656,-0.225,-0.180
9.658,-0.045,-0.185
9.660,-0.020,-0.190
9.662,-0.060,-0.195
9.664,0.055,-0.195
9.666,0.090,-0.195
9.668,0.265,-0.190
9.670,0.220,-0.185
9.672,0.110,-0.180
9.674,-0.075,-0.175
9.676,-0.245,-0.180
9.678,-0.075,-0.185
9.680,-0.015,-0.195
9.682,-0.005,-0.205
9.684,-0.015,-0.210
9.686,0.120,-0.220
9.688,0.250,-0.220
9.690,0.180,-0.215
9.692,0.055,-0.210
9.694,-0.050,-0.200
9.696,-0.250,-0.190
9.698,-0.085,-0.185
9.700,-0.060,-0.180
9.702,-0.035,-0.180
9.704,0.060,-0.185
9.706,0.105,-0.190
9.708,0.280,-0.190
9.710,0.260,-0.190
9.712,0.100,-0.190
9.714,-0.090,-0.185
9.716,-0.190,-0.185
9.718,-0.095,-0.180
9.720,-0.080,-0.175
9.722,0.050,-0.175
9.724,0.090,-0.175
9.726,0.130,-0.175
9.728,0.265,-0.170
9.730,0.260,-0.170
9.732,0.120,-0.165
9.734,-0.060,-0.155
9.736,-0.220,-0.150
9.738,-0.025,-0.145
9.740,-0.040,-0.145
9.742,0.025,-0.150
9.744,0.105,-0.155
9.746,0.125,-0.165
9.748,0.295,-0.170
9.750,0.195,-0.175
9.752,0.125,-0.170
9.754,-0.080,-0.155
9.756,-0.095,-0.135
9.758,0.020,-0.115
9.760,0.055,-0.090
9.762,0.160,-0.070
9.764,0.240,-0.055
9.766,0.220,-0.045
9.768,0.385,-0.045
9.770,0.290,-0.045
9.772,0.235,-0.045
9.774,0.055,-0.045
9.776,0.010,-0.045
9.778,0.130,-0.040
9.780,0.065,-0.035
9.782,0.170,-0.030
9.784,0.250,-0.025
9.786,0.265,-0.020
9.788,0.440,-0.015
9.790,0.300,-0.015
9.792,0.275,-0.015
9.794,0.030,-0.010
9.796,0.075,-0.010
9.798,0.155,-0.010
9.800,0.140,-0.010
9.802,0.165,-0.015
9.804,0.260,-0.020
9.806,0.310,-0.025
9.808,0.365,-0.035
9.810,0.250,-0.040
9.812,0.225,-0.045
9.814,0.035,-0.040
9.816,0.060,-0.040
9.818,0.145,-0.030
9.820,0.125,-0.025
9.822,0.200,-0.020
9.824,0.235,-0.020
9.826,0.290,-0.025
9.828,0.400,-0.040
9.830,0.270,-0.055
9.832,0.190,-0.075
9.834,-0.065,-0.095
9.836,-0.065,-0.115
9.838,0.000,-0.125
9.840,0.070,-0.135
9.842,0.085,-0.135
9.844,0.175,-0.140
9.846,0.200,-0.145
9.848,0.250,-0.150
9.850,0.155,-0.155
9.852,0.075,-0.165
9.854,-0.205,-0.170
9.856,-0.115,-0.175
9.858,-0.040,-0.175
9.860,0.050,-0.165
9.862,0.100,-0.155
9.864,0.145,-0.140
9.866,0.275,-0.120
9.868,0.305,-0.105
9.870,0.220,-0.095
9.872,0.145,-0.090
9.874,-0.145,-0.095
9.876,-0.005,-0.105
9.878,0.005,-0.120
9.880,0.040,-0.135
9.882,0.080,-0.150
9.884,0.165,-0.160
9.886,0.230,-0.160
9.888,0.185,-0.155
9.890,0.185,-0.145
9.892,0.120,-0.125
9.894,-0.120,-0.105
9.896,0.045,-0.080
9.898,0.110,-0.065
9.900,0.115,-0.050
9.902,0.175,-0.040
9.904,0.245,-0.040
9.906,0.355,-0.045
9.908,0.340,-0.055
9.910,0.245,-0.065
9.912,0.120,-0.070
9.914,-0.140,-0.080
9.916,0.000,-0.080
9.918,0.100,-0.075
9.920,0.115,-0.070
9.922,0.185,-0.065
9.924,0.255,-0.060
9.926,0.325,-0.055
9.928,0.295,-0.055
9.930,0.205,-0.060
9.932,0.105,-0.065
9.934,-0.140,-0.070
9.936,0.070,-0.075
9.938,0.085,-0.080
9.940,0.105,-0.085
9.942,0.215,-0.085
9.944,0.200,-0.080
9.946,0.290,-0.075
9.948,0.335,-0.070
9.950,0.210,-0.065
9.952,0.125,-0.055
9.954,-0.055,-0.045
9.956,0.110,-0.035
9.958,0.140,-0.030
9.960,0.165,-0.020
9.962,0.260,-0.015
9.964,0.290,-0.005
9.966,0.400,0.000
9.968,0.360,0.000
9.970,0.255,0.005
9.972,0.130,0.005
9.974,-0.015,0.005
9.976,0.135,0.000
9.978,0.155,0.000
9.980,0.165,-0.005
9.982,0.235,-0.005
9.984,0.340,0.000
9.986,0.450,0.005
9.988,0.370,0.010
9.990,0.300,0.020
9.992,0.150,0.025
9.994,-0.005,0.025
9.996,0.180,0.025
9.998,0.215,0.020
