'Elapsed time','ECG I','ECG I filtered'
'seconds','mV','mV'
0.000,0.000,0.020
0.002,-0.030,0.020
0.004,-0.025,0.020
0.006,-0.025,0.020
0.008,0.065,0.015
0.010,0.010,0.005
0.012,-0.075,-0.005
0.014,-0.075,-0.015
0.016,-0.010,-0.025
0.018,-0.040,-0.035
0.020,-0.025,-0.040
0.022,0.000,-0.040
0.024,-0.065,-0.040
0.026,-0.115,-0.040
0.028,-0.105,-0.040
0.030,-0.055,-0.040
0.032,-0.065,-0.045
0.034,-0.055,-0.050
0.036,-0.010,-0.050
0.038,-0.045,-0.055
0.040,-0.045,-0.050
0.042,-0.040,-0.040
0.044,-0.040,-0.025
0.046,-0.035,-0.005
0.048,-0.005,0.020
0.050,0.065,0.040
0.052,0.055,0.055
0.054,0.025,0.060
0.056,-0.015,0.055
0.058,0.025,0.040
0.060,0.045,0.020
0.062,-0.015,-0.005
0.064,-0.085,-0.020
0.066,-0.015,-0.035
0.068,-0.045,-0.045
0.070,-0.145,-0.045
0.072,-0.120,-0.035
0.074,0.050,-0.030
0.076,-0.010,-0.020
0.078,-0.075,-0.015
0.080,-0.015,-0.010
0.082,-0.040,-0.010
0.084,-0.090,-0.010
0.086,-0.005,-0.010
0.088,0.020,-0.005
0.090,-0.045,0.000
0.092,0.000,0.010
0.094,0.070,0.025
0.096,0.015,0.030
0.098,0.045,0.035
0.100,-0.010,0.030
0.102,0.005,0.020
0.104,-0.050,0.000
0.106,-0.085,-0.020
0.108,-0.090,-0.040
0.110,-0.050,-0.055
0.112,-0.065,-0.065
0.114,-0.055,-0.065
0.116,-0.085,-0.055
0.118,-0.080,-0.040
0.120,-0.015,-0.025
0.122,-0.020,-0.015
0.124,-0.015,-0.005
0.126,0.040,0.000
0.128,-0.015,0.000
0.130,-0.065,-0.005
0.132,-0.080,-0.015
0.134,-0.070,-0.020
0.136,-0.085,-0.020
0.138,-0.005,-0.020
0.140,0.060,-0.015
0.142,0.005,-0.010
0.144,-0.085,-0.010
0.146,-0.030,-0.010
0.148,0.015,-0.020
0.150,0.050,-0.030
0.152,-0.120,-0.040
0.154,-0.165,-0.055
0.156,-0.110,-0.060
0.158,-0.040,-0.060
0.160,-0.095,-0.055
0.162,-0.060,-0.040
0.164,0.065,-0.020
0.166,0.055,-0.005
0.168,0.050,0.010
0.170,-0.045,0.015
0.172,-0.020,0.010
0.174,-0.050,-0.005
0.176,-0.115,-0.025
0.178,-0.100,-0.050
0.180,-0.085,-0.075
0.182,-0.120,-0.090
0.184,-0.090,-0.095
0.186,-0.050,-0.090
0.188,-0.035,-0.075
0.190,-0.015,-0.055
0.192,-0.065,-0.030
0.194,-0.015,-0.010
0.196,-0.065,0.000
0.198,-0.060,0.005
0.200,-0.060,0.005
0.202,0.025,0.000
0.204,0.005,-0.010
0.206,-0.055,-0.020
0.208,-0.085,-0.025
0.210,0.010,-0.030
0.212,0.010,-0.030
0.214,-0.005,-0.025
0.216,-0.065,-0.015
0.218,-0.075,-0.015
0.220,-0.025,-0.010
0.222,0.030,-0.015
0.224,-0.040,-0.020
0.226,-0.080,-0.025
0.228,-0.025,-0.035
0.230,0.010,-0.040
0.232,-0.070,-0.050
0.234,-0.125,-0.055
0.236,-0.070,-0.055
0.238,-0.135,-0.055
0.240,-0.100,-0.055
0.242,-0.010,-0.055
0.244,0.030,-0.050
0.246,-0.040,-0.045
0.248,-0.085,-0.035
0.250,-0.025,-0.030
0.252,-0.100,-0.020
0.254,-0.090,-0.010
0.256,0.035,0.000
0.258,0.025,0.005
0.260,-0.030,0.005
0.262,-0.040,0.005
0.264,0.000,0.000
0.266,-0.020,-0.010
0.268,-0.065,-0.020
0.270,-0.025,-0.035
0.272,-0.095,-0.050
0.274,-0.075,-0.065
0.276,-0.015,-0.075
0.278,-0.110,-0.080
0.280,-0.170,-0.080
0.282,-0.115,-0.080
0.284,-0.080,-0.075
0.286,-0.010,-0.065
0.288,-0.075,-0.050
0.290,0.010,-0.040
0.292,-0.050,-0.025
0.294,-0.100,-0.010
0.296,-0.030,0.000
0.298,-0.010,0.010
0.300,0.025,0.015
0.302,0.040,0.015
0.304,0.005,0.010
0.306,-0.015,0.005
0.308,-0.070,-0.010
0.310,-0.035,-0.020
0.312,-0.030,-0.035
0.314,-0.110,-0.050
0.316,-0.080,-0.055
0.318,-0.040,-0.055
0.320,-0.015,-0.045
0.322,0.005,-0.035
0.324,0.040,-0.015
0.326,0.050,0.005
0.328,-0.035,0.020
0.330,-0.095,0.025
0.332,-0.070,0.025
0.334,0.025,0.020
0.336,0.075,0.015
0.338,0.025,0.005
0.340,-0.030,0.000
0.342,0.015,-0.005
0.344,0.020,0.000
0.346,0.020,0.010
0.348,0.015,0.020
0.350,-0.025,0.025
0.352,-0.020,0.025
0.354,0.010,0.020
0.356,0.010,0.005
0.358,0.015,-0.020
0.360,-0.125,-0.040
0.362,-0.095,-0.060
0.364,-0.095,-0.075
0.366,-0.105,-0.085
0.368,-0.055,-0.080
0.370,-0.045,-0.075
0.372,-0.035,-0.060
0.374,-0.080,-0.050
0.376,-0.055,-0.040
0.378,-0.080,-0.035
0.380,-0.035,-0.030
0.382,-0.015,-0.025
0.384,-0.060,-0.025
0.386,-0.085,-0.025
0.388,0.000,-0.020
0.390,-0.020,-0.020
0.392,-0.055,-0.020
0.394,-0.045,-0.020
0.396,-0.070,-0.025
0.398,0.000,-0.030
0.400,-0.055,-0.040
0.402,-0.080,-0.045
0.404,-0.060,-0.050
0.406,-0.095,-0.055
0.408,-0.050,-0.055
0.410,-0.080,-0.060
0.412,-0.075,-0.065
0.414,-0.090,-0.080
0.416,-0.115,-0.100
0.418,-0.160,-0.130
0.420,-0.195,-0.160
0.422,-0.265,-0.190
0.424,-0.245,-0.210
0.426,-0.215,-0.220
0.428,-0.255,-0.210
0.430,-0.145,-0.185
0.432,-0.120,-0.145
0.434,-0.100,-0.085
0.436,-0.020,-0.015
0.438,0.045,0.060
0.440,0.120,0.145
0.442,0.225,0.230
0.444,0.360,0.315
0.446,0.425,0.400
0.448,0.410,0.480
0.450,0.590,0.545
0.452,0.640,0.595
0.454,0.560,0.615
0.456,0.630,0.610
0.458,0.580,0.565
0.460,0.535,0.490
0.462,0.400,0.380
0.464,0.225,0.255
0.466,0.045,0.125
0.468,-0.110,0.000
0.470,-0.220,-0.105
0.472,-0.270,-0.180
0.474,-0.210,-0.225
0.476,-0.195,-0.235
0.478,-0.175,-0.220
0.480,-0.125,-0.185
0.482,-0.165,-0.145
0.484,-0.185,-0.100
0.486,-0.055,-0.070
0.488,-0.040,-0.045
0.490,-0.080,-0.040
0.492,-0.075,-0.045
0.494,-0.065,-0.055
0.496,-0.040,-0.075
0.498,-0.140,-0.090
0.500,-0.055,-0.100
0.502,-0.030,-0.105
0.504,-0.100,-0.100
0.506,-0.200,-0.095
0.508,-0.260,-0.080
0.510,-0.115,-0.065
0.512,0.035,-0.050
0.514,-0.065,-0.035
0.516,0.080,-0.020
0.518,0.005,-0.015
0.520,-0.035,-0.010
0.522,-0.050,-0.010
0.524,-0.075,-0.015
0.526,-0.095,-0.025
0.528,0.005,-0.035
0.530,-0.085,-0.040
0.532,-0.150,-0.050
0.534,-0.070,-0.060
0.536,0.000,-0.065
0.538,-0.020,-0.065
0.540,-0.055,-0.065
0.542,-0.080,-0.065
0.544,-0.105,-0.065
0.546,-0.095,-0.065
0.548,-0.060,-0.060
0.550,-0.090,-0.060
0.552,-0.110,-0.055
0.554,-0.030,-0.045
0.556,-0.055,-0.030
0.558,-0.065,-0.015
0.560,0.025,0.000
0.562,0.030,0.020
0.564,0.000,0.040
0.566,0.010,0.055
0.568,0.010,0.070
0.570,0.090,0.070
0.572,0.090,0.065
0.574,0.060,0.055
0.576,0.085,0.040
0.578,-0.050,0.020
0.580,-0.080,0.005
0.582,-0.020,-0.010
0.584,-0.045,-0.015
0.586,-0.020,-0.015
0.588,-0.035,-0.010
0.590,0.040,-0.005
0.592,-0.055,0.000
0.594,0.005,0.005
0.596,0.085,0.005
0.598,-0.035,0.005
0.600,-0.055,0.000
0.602,-0.040,-0.005
0.604,-0.030,-0.005
0.606,0.015,0.000
0.608,0.065,0.010
0.610,0.000,0.020
0.612,0.015,0.040
0.614,0.045,0.055
0.616,0.130,0.075
0.618,0.135,0.090
0.620,0.065,0.100
0.622,0.075,0.105
0.624,0.080,0.110
0.626,0.050,0.105
0.628,0.120,0.105
0.630,0.095,0.100
0.632,0.085,0.100
0.634,0.110,0.105
0.636,0.125,0.110
0.638,0.130,0.120
0.640,0.105,0.130
0.642,0.055,0.140
0.644,0.140,0.155
0.646,0.185,0.170
0.648,0.185,0.190
0.650,0.220,0.205
0.652,0.240,0.225
0.654,0.275,0.240
0.656,0.210,0.250
0.658,0.160,0.260
0.660,0.310,0.260
0.662,0.265,0.265
0.664,0.275,0.260
0.666,0.210,0.255
0.668,0.120,0.255
0.670,0.245,0.255
0.672,0.290,0.255
0.674,0.290,0.265
0.676,0.330,0.275
0.678,0.345,0.285
0.680,0.270,0.290
0.682,0.195,0.295
0.684,0.190,0.295
0.686,0.285,0.290
0.688,0.300,0.275
0.690,0.285,0.265
0.692,0.235,0.245
0.694,0.210,0.235
0.696,0.135,0.225
0.698,0.150,0.220
0.700,0.265,0.215
0.702,0.235,0.215
0.704,0.220,0.210
0.706,0.155,0.205
0.708,0.180,0.195
0.710,0.125,0.180
0.712,0.165,0.160
0.714,0.150,0.135
0.716,0.065,0.110
0.718,0.050,0.085
0.720,0.055,0.065
0.722,0.035,0.050
0.724,0.040,0.040
0.726,0.000,0.030
0.728,0.010,0.030
0.730,0.010,0.025
0.732,0.055,0.020
0.734,-0.015,0.015
0.736,-0.045,0.010
0.738,-0.025,0.000
0.740,0.015,-0.010
0.742,0.015,-0.020
0.744,-0.080,-0.030
0.746,-0.060,-0.040
0.748,-0.070,-0.045
0.750,-0.090,-0.055
0.752,-0.115,-0.055
0.754,-0.030,-0.060
0.756,-0.160,-0.060
0.758,-0.065,-0.060
0.760,0.030,-0.060
0.762,-0.055,-0.065
0.764,-0.085,-0.065
0.766,-0.060,-0.065
0.768,-0.110,-0.070
0.770,-0.190,-0.075
0.772,-0.140,-0.075
0.774,-0.030,-0.080
0.776,-0.060,-0.075
0.778,-0.125,-0.075
0.780,-0.025,-0.065
0.782,0.000,-0.060
0.784,-0.085,-0.050
0.786,-0.035,-0.045
0.788,-0.105,-0.040
0.790,-0.070,-0.040
0.792,-0.080,-0.040
0.794,-0.085,-0.050
0.796,-0.055,-0.060
0.798,-0.070,-0.070
0.800,-0.080,-0.080
0.802,-0.105,-0.085
0.804,-0.130,-0.090
0.806,-0.155,-0.085
0.808,-0.170,-0.075
0.810,-0.085,-0.065
0.812,-0.030,-0.055
0.814,0.035,-0.040
0.816,0.010,-0.025
0.818,-0.065,-0.020
0.820,-0.015,-0.015
0.822,0.000,-0.010
0.824,-0.030,-0.015
0.826,-0.055,-0.025
0.828,-0.045,-0.035
0.830,-0.080,-0.045
0.832,-0.110,-0.060
0.834,-0.070,-0.070
0.836,-0.020,-0.080
0.838,-0.070,-0.085
0.840,-0.145,-0.085
0.842,-0.180,-0.075
0.844,-0.070,-0.065
0.846,-0.020,-0.050
0.848,-0.010,-0.035
0.850,-0.050,-0.025
0.852,-0.055,-0.015
0.854,0.020,-0.010
0.856,-0.050,-0.015
0.858,-0.080,-0.025
0.860,0.005,-0.035
0.862,-0.020,-0.055
0.864,-0.150,-0.065
0.866,-0.185,-0.075
0.868,-0.130,-0.080
0.870,-0.025,-0.075
0.872,-0.030,-0.065
0.874,-0.005,-0.050
0.876,-0.070,-0.035
0.878,-0.105,-0.020
0.880,-0.040,-0.010
0.882,0.040,-0.005
0.884,0.015,-0.005
0.886,-0.055,-0.015
0.888,-0.085,-0.025
0.890,-0.045,-0.035
0.892,-0.100,-0.040
0.894,-0.115,-0.050
0.896,0.020,-0.050
0.898,0.000,-0.050
0.900,-0.075,-0.050
0.902,-0.100,-0.050
0.904,-0.075,-0.055
0.906,-0.085,-0.060
0.908,-0.035,-0.065
0.910,-0.080,-0.075
0.912,-0.135,-0.080
0.914,-0.110,-0.080
0.916,-0.080,-0.075
0.918,-0.080,-0.070
0.920,0.035,-0.055
0.922,-0.020,-0.040
0.924,-0.080,-0.030
0.926,-0.040,-0.020
0.928,-0.035,-0.015
0.930,-0.085,-0.015
0.932,-0.040,-0.015
0.934,0.045,-0.015
0.936,-0.010,-0.015
0.938,0.010,-0.015
0.940,-0.010,-0.010
0.942,-0.055,-0.010
0.944,-0.005,-0.005
0.946,-0.100,-0.005
0.948,-0.025,-0.015
0.950,-0.045,-0.025
0.952,-0.040,-0.040
0.954,-0.105,-0.060
0.956,-0.070,-0.080
0.958,-0.090,-0.095
0.960,-0.090,-0.100
0.962,-0.105,-0.100
0.964,-0.115,-0.095
0.966,-0.015,-0.080
0.968,-0.110,-0.060
0.970,-0.065,-0.045
0.972,-0.015,-0.030
0.974,-0.045,-0.020
0.976,-0.065,-0.020
0.978,-0.010,-0.020
0.980,-0.050,-0.030
0.982,-0.055,-0.040
0.984,-0.080,-0.050
0.986,-0.065,-0.060
0.988,-0.105,-0.060
0.990,-0.105,-0.060
0.992,-0.060,-0.055
0.994,-0.050,-0.050
0.996,-0.050,-0.045
0.998,-0.010,-0.045
1.000,-0.080,-0.050
1.002,-0.130,-0.055
1.004,-0.075,-0.070
1.006,-0.090,-0.080
1.008,-0.110,-0.090
1.010,-0.120,-0.095
1.012,-0.085,-0.090
1.014,-0.110,-0.085
1.016,-0.195,-0.070
1.018,-0.125,-0.060
1.020,0.100,-0.050
1.022,0.060,-0.040
1.024,-0.100,-0.040
1.026,-0.120,-0.045
1.028,-0.085,-0.055
1.030,-0.125,-0.065
1.032,-0.135,-0.075
1.034,-0.065,-0.075
1.036,-0.105,-0.075
1.038,-0.070,-0.065
1.040,0.025,-0.055
1.042,0.020,-0.040
1.044,-0.070,-0.025
1.046,-0.115,-0.015
1.048,-0.005,-0.010
1.050,-0.050,-0.010
1.052,-0.110,-0.015
1.054,-0.100,-0.020
1.056,0.020,-0.025
1.058,0.010,-0.030
1.060,-0.020,-0.030
1.062,-0.045,-0.030
1.064,0.005,-0.035
1.066,-0.050,-0.035
1.068,-0.125,-0.040
1.070,-0.145,-0.050
1.072,-0.125,-0.065
1.074,-0.095,-0.075
1.076,-0.050,-0.085
1.078,-0.080,-0.095
1.080,-0.040,-0.095
1.082,-0.040,-0.090
1.084,-0.080,-0.080
1.086,-0.050,-0.070
1.088,-0.120,-0.055
1.090,-0.205,-0.045
1.092,-0.115,-0.040
1.094,-0.005,-0.040
1.096,-0.020,-0.040
1.098,-0.010,-0.050
1.100,-0.045,-0.055
1.102,-0.005,-0.065
1.104,-0.085,-0.070
1.106,-0.115,-0.070
1.108,-0.160,-0.070
1.110,-0.100,-0.065
1.112,-0.085,-0.060
1.114,-0.095,-0.055
1.116,-0.155,-0.050
1.118,0.070,-0.045
1.120,0.000,-0.045
1.122,-0.050,-0.045
1.124,-0.025,-0.050
1.126,-0.070,-0.055
1.128,-0.165,-0.060
1.130,-0.130,-0.065
1.132,-0.105,-0.075
1.134,-0.080,-0.085
1.136,-0.080,-0.095
1.138,-0.090,-0.100
1.140,-0.085,-0.095
1.142,-0.080,-0.090
1.144,-0.080,-0.075
1.146,-0.080,-0.055
1.148,0.010,-0.035
1.150,-0.010,-0.010
1.152,-0.055,0.015
1.154,0.025,0.035
1.156,0.010,0.045
1.158,0.000,0.045
1.160,0.020,0.040
1.162,-0.030,0.030
1.164,0.090,0.020
1.166,0.045,0.005
1.168,-0.045,-0.010
1.170,-0.030,-0.020
1.172,-0.025,-0.025
1.174,-0.060,-0.030
1.176,-0.110,-0.035
1.178,-0.120,-0.035
1.180,-0.015,-0.040
1.182,0.020,-0.040
1.184,0.000,-0.040
1.186,-0.070,-0.040
1.188,-0.085,-0.040
1.190,-0.100,-0.040
1.192,-0.040,-0.045
1.194,-0.055,-0.055
1.196,-0.030,-0.065
1.198,-0.060,-0.080
1.200,-0.165,-0.090
1.202,-0.115,-0.105
1.204,-0.060,-0.110
1.206,-0.165,-0.115
1.208,-0.180,-0.110
1.210,-0.105,-0.095
1.212,-0.060,-0.080
1.214,-0.070,-0.060
1.216,-0.015,-0.045
1.218,-0.025,-0.035
1.220,-0.080,-0.030
1.222,-0.050,-0.030
1.224,-0.025,-0.035
1.226,-0.065,-0.045
1.228,-0.060,-0.050
1.230,-0.055,-0.060
1.232,-0.070,-0.070
1.234,-0.125,-0.075
1.236,-0.135,-0.085
1.238,-0.030,-0.100
1.240,-0.100,-0.115
1.242,-0.200,-0.135
1.244,-0.180,-0.155
1.246,-0.175,-0.175
1.248,-0.220,-0.190
1.250,-0.200,-0.195
1.252,-0.195,-0.190
1.254,-0.210,-0.165
1.256,-0.130,-0.130
1.258,-0.075,-0.080
1.260,-0.085,-0.020
1.262,0.005,0.045
1.264,0.160,0.120
1.266,0.290,0.195
1.268,0.345,0.275
1.270,0.305,0.355
1.272,0.345,0.430
1.274,0.525,0.495
1.276,0.575,0.545
1.278,0.565,0.575
1.280,0.615,0.570
1.282,0.550,0.535
1.284,0.520,0.465
1.286,0.390,0.365
1.288,0.230,0.250
1.290,0.080,0.120
1.292,-0.155,-0.005
1.294,-0.250,-0.115
1.296,-0.215,-0.195
1.298,-0.240,-0.245
1.300,-0.245,-0.260
1.302,-0.190,-0.250
1.304,-0.195,-0.215
1.306,-0.215,-0.170
1.308,-0.200,-0.130
1.310,-0.095,-0.090
1.312,-0.005,-0.065
1.314,-0.040,-0.050
1.316,-0.085,-0.050
1.318,-0.085,-0.055
1.320,-0.065,-0.070
1.322,0.005,-0.080
1.324,-0.085,-0.090
1.326,-0.095,-0.095
1.328,-0.165,-0.090
1.330,-0.080,-0.085
1.332,-0.090,-0.070
1.334,-0.145,-0.060
1.336,-0.085,-0.045
1.338,0.025,-0.035
1.340,-0.015,-0.030
1.342,-0.015,-0.030
1.344,-0.075,-0.035
1.346,-0.025,-0.040
1.348,-0.070,-0.050
1.350,-0.060,-0.060
1.352,-0.160,-0.070
1.354,-0.100,-0.080
1.356,-0.050,-0.080
1.358,-0.070,-0.080
1.360,-0.035,-0.075
1.362,-0.015,-0.065
1.364,-0.065,-0.055
1.366,-0.100,-0.050
1.368,-0.125,-0.045
1.370,-0.045,-0.040
1.372,-0.070,-0.040
1.374,0.000,-0.045
1.376,-0.020,-0.045
1.378,-0.070,-0.050
1.380,-0.050,-0.045
1.382,-0.090,-0.045
1.384,-0.040,-0.035
1.386,0.050,-0.025
1.388,-0.070,-0.010
1.390,-0.080,0.005
1.392,0.030,0.015
1.394,0.015,0.020
1.396,0.035,0.020
1.398,0.070,0.020
1.400,0.025,0.010
1.402,-0.025,0.000
1.404,-0.045,-0.010
1.406,-0.085,-0.020
1.408,-0.070,-0.030
1.410,-0.060,-0.030
1.412,-0.015,-0.035
1.414,0.010,-0.030
1.416,0.010,-0.020
1.418,0.020,-0.010
1.420,0.015,0.000
1.422,-0.095,0.010
1.424,-0.005,0.020
1.426,0.085,0.030
1.428,0.030,0.035
1.430,0.045,0.040
1.432,-0.005,0.045
1.434,-0.010,0.045
1.436,0.085,0.050
1.438,0.085,0.055
1.440,-0.010,0.060
1.442,0.080,0.070
1.444,0.065,0.080
1.446,0.065,0.095
1.448,0.140,0.110
1.450,0.105,0.120
1.452,0.115,0.130
1.454,0.170,0.135
1.456,0.170,0.140
1.458,0.170,0.140
1.460,0.115,0.140
1.462,0.115,0.140
1.464,0.100,0.145
1.466,0.080,0.150
1.468,0.045,0.155
1.470,0.195,0.160
1.472,0.205,0.170
1.474,0.190,0.180
1.476,0.205,0.195
1.478,0.240,0.205
1.480,0.235,0.220
1.482,0.240,0.230
1.484,0.200,0.240
1.486,0.130,0.250
1.488,0.220,0.260
1.490,0.360,0.265
1.492,0.265,0.270
1.494,0.250,0.275
1.496,0.245,0.280
1.498,0.300,0.290
1.500,0.315,0.300
1.502,0.355,0.310
1.504,0.365,0.320
1.506,0.355,0.330
1.508,0.295,0.335
1.510,0.270,0.330
1.512,0.250,0.325
1.514,0.300,0.310
1.516,0.340,0.295
1.518,0.295,0.275
1.520,0.220,0.255
1.522,0.245,0.235
1.524,0.250,0.220
1.526,0.225,0.205
1.528,0.220,0.195
1.530,0.110,0.185
1.532,0.080,0.170
1.534,0.145,0.150
1.536,0.165,0.130
1.538,0.040,0.105
1.540,0.090,0.085
1.542,0.080,0.065
1.544,0.045,0.050
1.546,0.035,0.045
1.548,0.050,0.045
1.550,0.070,0.045
1.552,0.050,0.050
1.554,0.060,0.050
1.556,0.030,0.050
1.558,0.025,0.040
1.560,-0.085,0.025
1.562,-0.035,0.005
1.564,-0.030,-0.010
1.566,0.030,-0.030
1.568,0.010,-0.040
1.570,0.005,-0.045
1.572,0.005,-0.045
1.574,-0.110,-0.040
1.576,-0.125,-0.035
1.578,-0.085,-0.025
1.580,0.080,-0.020
1.582,-0.010,-0.020
1.584,0.005,-0.020
1.586,-0.040,-0.025
1.588,-0.025,-0.035
1.590,-0.030,-0.045
1.592,-0.070,-0.055
1.594,-0.140,-0.060
1.596,-0.065,-0.065
1.598,-0.035,-0.065
1.600,-0.100,-0.065
1.602,-0.075,-0.060
1.604,-0.025,-0.055
1.606,-0.005,-0.050
1.608,0.005,-0.045
1.610,-0.050,-0.040
1.612,-0.060,-0.040
1.614,-0.015,-0.040
1.616,-0.010,-0.045
1.618,-0.130,-0.050
1.620,-0.085,-0.050
1.622,-0.075,-0.055
1.624,-0.080,-0.060
1.626,-0.020,-0.060
1.628,-0.055,-0.060
1.630,-0.045,-0.060
1.632,-0.135,-0.055
1.634,0.000,-0.050
1.636,0.000,-0.045
1.638,-0.045,-0.040
1.640,-0.085,-0.040
1.642,-0.135,-0.040
1.644,-0.030,-0.040
1.646,-0.100,-0.040
1.648,0.000,-0.045
1.650,0.030,-0.050
1.652,-0.060,-0.050
1.654,-0.045,-0.055
1.656,-0.010,-0.055
1.658,-0.075,-0.055
1.660,-0.075,-0.055
1.662,-0.075,-0.055
1.664,-0.085,-0.055
1.666,-0.070,-0.055
1.668,-0.080,-0.050
1.670,-0.055,-0.045
1.672,-0.045,-0.040
1.674,0.020,-0.035
1.676,0.035,-0.025
1.678,0.040,-0.020
1.680,-0.040,-0.015
1.682,-0.105,-0.010
1.684,-0.050,-0.010
1.686,-0.065,-0.015
1.688,-0.010,-0.020
1.690,-0.040,-0.025
1.692,-0.030,-0.030
1.694,-0.030,-0.035
1.696,0.010,-0.035
1.698,-0.060,-0.035
1.700,-0.020,-0.025
1.702,-0.090,-0.015
1.704,-0.020,-0.005
1.706,0.045,0.005
1.708,0.000,0.010
1.710,-0.005,0.005
1.712,0.020,0.000
1.714,0.015,-0.015
1.716,-0.120,-0.035
1.718,-0.070,-0.055
1.720,-0.080,-0.075
1.722,-0.030,-0.090
1.724,-0.120,-0.100
1.726,-0.205,-0.100
1.728,-0.135,-0.095
1.730,-0.050,-0.085
1.732,-0.015,-0.070
1.734,-0.020,-0.060
1.736,-0.015,-0.045
1.738,-0.015,-0.040
1.740,-0.020,-0.035
1.742,-0.145,-0.030
1.744,-0.055,-0.025
1.746,0.070,-0.015
1.748,-0.015,-0.010
1.750,-0.065,0.000
1.752,0.020,0.010
1.754,0.025,0.015
1.756,0.025,0.015
1.758,-0.065,0.010
1.760,0.020,0.000
1.762,-0.040,-0.010
1.764,-0.050,-0.025
1.766,-0.095,-0.040
1.768,-0.020,-0.050
1.770,-0.005,-0.050
1.772,-0.080,-0.045
1.774,-0.025,-0.035
1.776,0.005,-0.020
1.778,-0.005,-0.010
1.780,0.010,0.005
1.782,-0.020,0.005
1.784,-0.045,0.000
1.786,-0.060,-0.010
1.788,-0.065,-0.025
1.790,-0.115,-0.045
1.792,-0.025,-0.065
1.794,-0.025,-0.075
1.796,-0.105,-0.080
1.798,-0.065,-0.080
1.800,-0.060,-0.070
1.802,-0.085,-0.060
1.804,-0.135,-0.055
1.806,-0.030,-0.050
1.808,-0.030,-0.050
1.810,-0.070,-0.055
1.812,-0.045,-0.060
1.814,0.025,-0.070
1.816,-0.125,-0.070
1.818,-0.150,-0.070
1.820,-0.060,-0.060
1.822,-0.050,-0.050
1.824,0.000,-0.035
1.826,0.040,-0.020
1.828,0.000,-0.010
1.830,-0.055,-0.010
1.832,-0.025,-0.015
1.834,-0.055,-0.025
1.836,-0.075,-0.040
1.838,-0.110,-0.050
1.840,-0.055,-0.055
1.842,-0.030,-0.060
1.844,-0.070,-0.055
1.846,-0.020,-0.045
1.848,0.060,-0.035
1.850,-0.055,-0.025
1.852,-0.045,-0.025
1.854,0.025,-0.025
1.856,-0.090,-0.030
1.858,-0.090,-0.040
1.860,-0.105,-0.055
1.862,-0.035,-0.065
1.864,0.015,-0.070
1.866,-0.100,-0.075
1.868,-0.075,-0.070
1.870,-0.045,-0.065
1.872,-0.005,-0.060
1.874,-0.100,-0.050
1.876,-0.040,-0.045
1.878,-0.075,-0.040
1.880,-0.080,-0.040
1.882,-0.090,-0.045
1.884,-0.015,-0.050
1.886,0.035,-0.055
1.888,-0.095,-0.060
1.890,-0.060,-0.060
1.892,-0.050,-0.060
1.894,-0.025,-0.055
1.896,-0.065,-0.050
1.898,-0.050,-0.050
1.900,-0.040,-0.045
1.902,-0.060,-0.045
1.904,-0.120,-0.045
1.906,-0.085,-0.050
1.908,-0.025,-0.060
1.910,-0.030,-0.065
1.912,-0.090,-0.075
1.914,-0.100,-0.080
1.916,-0.015,-0.080
1.918,-0.030,-0.075
1.920,-0.155,-0.070
1.922,-0.095,-0.060
1.924,-0.040,-0.050
1.926,-0.070,-0.040
1.928,-0.030,-0.030
1.930,-0.025,-0.025
1.932,0.010,-0.020
1.934,0.055,-0.020
1.936,-0.030,-0.025
1.938,-0.080,-0.030
1.940,-0.115,-0.040
1.942,-0.105,-0.050
1.944,-0.070,-0.060
1.946,-0.065,-0.070
1.948,-0.050,-0.075
1.950,-0.010,-0.070
1.952,-0.065,-0.065
1.954,-0.145,-0.055
1.956,-0.180,-0.045
1.958,-0.020,-0.030
1.960,0.105,-0.010
1.962,-0.020,0.000
1.964,-0.065,0.015
1.966,0.050,0.025
1.968,0.040,0.030
1.970,0.010,0.035
1.972,0.045,0.035
1.974,0.045,0.040
1.976,0.035,0.040
1.978,-0.030,0.040
1.980,0.070,0.040
1.982,0.030,0.035
1.984,0.005,0.030
1.986,-0.035,0.025
1.988,0.020,0.010
1.990,-0.015,0.000
1.992,-0.040,-0.020
1.994,-0.050,-0.035
1.996,-0.035,-0.050
1.998,-0.090,-0.065
2.000,-0.105,-0.075
2.002,-0.085,-0.085
2.004,-0.140,-0.090
2.006,-0.125,-0.085
2.008,-0.040,-0.080
2.010,-0.050,-0.070
2.012,-0.080,-0.060
2.014,-0.040,-0.045
2.016,-0.005,-0.025
2.018,-0.045,-0.015
2.020,-0.060,0.000
2.022,-0.060,0.005
2.024,0.055,0.005
2.026,0.040,0.000
2.028,0.000,-0.010
2.030,0.000,-0.030
2.032,-0.100,-0.050
2.034,-0.090,-0.065
2.036,-0.120,-0.085
2.038,-0.105,-0.095
2.040,-0.165,-0.105
2.042,-0.095,-0.105
2.044,-0.050,-0.095
2.046,-0.025,-0.090
2.048,-0.100,-0.075
2.050,-0.090,-0.070
2.052,-0.015,-0.065
2.054,-0.165,-0.065
2.056,-0.055,-0.070
2.058,-0.015,-0.085
2.060,-0.145,-0.100
2.062,-0.175,-0.120
2.064,-0.160,-0.135
2.066,-0.120,-0.140
2.068,-0.135,-0.140
2.070,-0.135,-0.125
2.072,-0.145,-0.105
2.074,-0.155,-0.070
2.076,0.020,-0.025
2.078,0.060,0.025
2.080,0.075,0.085
2.082,0.205,0.155
2.084,0.250,0.225
2.086,0.285,0.305
2.088,0.385,0.380
2.090,0.480,0.455
2.092,0.505,0.515
2.094,0.560,0.550
2.096,0.620,0.565
2.098,0.600,0.545
2.100,0.540,0.490
2.102,0.370,0.410
2.104,0.195,0.300
2.106,0.170,0.180
2.108,-0.015,0.060
2.110,-0.090,-0.050
2.112,-0.230,-0.145
2.114,-0.235,-0.210
2.116,-0.270,-0.245
2.118,-0.285,-0.250
2.120,-0.325,-0.235
2.122,-0.225,-0.200
2.124,-0.115,-0.160
2.126,-0.075,-0.115
2.128,-0.080,-0.075
2.130,-0.070,-0.040
2.132,0.025,-0.020
2.134,0.005,-0.005
2.136,-0.015,-0.005
2.138,-0.010,-0.010
2.140,-0.060,-0.025
2.142,-0.120,-0.040
2.144,-0.050,-0.055
2.146,0.050,-0.070
2.148,-0.140,-0.085
2.150,-0.205,-0.095
2.152,-0.135,-0.100
2.154,-0.100,-0.100
2.156,-0.030,-0.095
2.158,-0.045,-0.085
2.160,-0.010,-0.070
2.162,-0.095,-0.055
2.164,-0.105,-0.045
2.166,-0.085,-0.030
2.168,-0.020,-0.015
2.170,-0.020,-0.010
2.172,0.050,0.000
2.174,0.025,0.005
2.176,-0.045,0.005
2.178,-0.055,0.000
2.180,-0.020,-0.005
2.182,-0.015,-0.015
2.184,0.020,-0.025
2.186,-0.065,-0.035
2.188,-0.055,-0.045
2.190,-0.095,-0.050
2.192,-0.075,-0.055
2.194,-0.060,-0.060
2.196,-0.040,-0.055
2.198,-0.010,-0.050
2.200,-0.065,-0.045
2.202,-0.100,-0.035
2.204,-0.045,-0.025
2.206,-0.035,-0.015
2.208,-0.040,0.000
2.210,0.040,0.010
2.212,0.000,0.025
2.214,-0.055,0.040
2.216,0.095,0.055
2.218,0.085,0.065
2.220,0.030,0.070
2.222,0.020,0.065
2.224,0.000,0.060
2.226,-0.015,0.045
2.228,0.010,0.030
2.230,0.010,0.010
2.232,-0.010,-0.005
2.234,-0.060,-0.015
2.236,-0.100,-0.015
2.238,0.025,-0.005
2.240,0.025,0.005
2.242,-0.010,0.025
2.244,0.035,0.050
2.246,0.040,0.070
2.248,0.035,0.095
2.250,0.105,0.110
2.252,0.110,0.115
2.254,0.065,0.120
2.256,0.125,0.115
2.258,0.120,0.110
2.260,0.065,0.100
2.262,0.000,0.090
2.264,0.045,0.080
2.266,0.085,0.075
2.268,0.075,0.070
2.270,0.090,0.075
2.272,0.050,0.080
2.274,0.005,0.090
2.276,0.105,0.105
2.278,0.115,0.120
2.280,0.110,0.135
2.282,0.120,0.150
2.284,0.135,0.160
2.286,0.185,0.175
2.288,0.225,0.185
2.290,0.275,0.200
2.292,0.185,0.215
2.294,0.210,0.225
2.296,0.195,0.240
2.298,0.180,0.250
2.300,0.255,0.255
2.302,0.290,0.260
2.304,0.240,0.260
2.306,0.235,0.260
2.308,0.270,0.260
2.310,0.210,0.260
2.312,0.235,0.260
2.314,0.240,0.270
2.316,0.270,0.280
2.318,0.315,0.290
2.320,0.300,0.305
2.322,0.330,0.310
2.324,0.295,0.315
2.326,0.220,0.305
2.328,0.185,0.295
2.330,0.215,0.275
2.332,0.290,0.255
2.334,0.330,0.235
2.336,0.200,0.225
2.338,0.230,0.220
2.340,0.125,0.225
2.342,0.180,0.230
2.344,0.280,0.235
2.346,0.215,0.240
2.348,0.140,0.230
2.350,0.130,0.215
2.352,0.180,0.190
2.354,0.185,0.155
2.356,0.155,0.120
2.358,-0.025,0.090
2.360,-0.005,0.065
2.362,0.070,0.050
2.364,0.020,0.045
2.366,0.065,0.045
2.368,0.015,0.045
2.370,-0.015,0.045
2.372,-0.035,0.035
2.374,-0.015,0.025
2.376,-0.040,0.005
2.378,-0.080,-0.010
2.380,-0.060,-0.025
2.382,-0.055,-0.035
2.384,-0.035,-0.040
2.386,0.060,-0.035
2.388,-0.040,-0.030
2.390,-0.090,-0.025
2.392,-0.080,-0.020
2.394,-0.100,-0.020
2.396,-0.140,-0.025
2.398,-0.115,-0.040
2.400,-0.075,-0.055
2.402,-0.045,-0.070
2.404,-0.025,-0.085
2.406,-0.085,-0.085
2.408,-0.100,-0.080
2.410,-0.105,-0.070
2.412,-0.135,-0.050
2.414,-0.095,-0.030
2.416,-0.010,-0.010
2.418,-0.045,0.005
2.420,-0.030,0.010
2.422,-0.020,0.005
2.424,-0.045,-0.005
2.426,-0.060,-0.020
2.428,-0.075,-0.035
2.430,-0.065,-0.055
2.432,-0.130,-0.070
2.434,-0.145,-0.080
2.436,-0.155,-0.090
2.438,-0.165,-0.095
2.440,-0.120,-0.095
2.442,-0.040,-0.100
2.444,-0.130,-0.100
2.446,-0.235,-0.100
2.448,-0.085,-0.100
2.450,-0.030,-0.105
2.452,-0.155,-0.105
2.454,-0.205,-0.100
2.456,-0.170,-0.095
2.458,-0.120,-0.085
2.460,-0.105,-0.070
2.462,-0.040,-0.060
2.464,-0.060,-0.045
2.466,-0.120,-0.035
2.468,-0.025,-0.030
2.470,-0.005,-0.030
2.472,-0.090,-0.035
2.474,-0.090,-0.045
2.476,-0.135,-0.055
2.478,-0.095,-0.060
2.480,-0.060,-0.070
2.482,-0.075,-0.075
2.484,-0.150,-0.075
2.486,-0.140,-0.070
2.488,-0.045,-0.070
2.490,-0.095,-0.065
2.492,-0.120,-0.060
2.494,-0.110,-0.055
2.496,-0.090,-0.055
2.498,-0.115,-0.055
2.500,-0.045,-0.050
2.502,-0.055,-0.050
2.504,-0.090,-0.045
2.506,-0.100,-0.040
2.508,-0.055,-0.040
2.510,-0.090,-0.035
2.512,-0.105,-0.035
2.514,-0.050,-0.040
2.516,-0.090,-0.050
2.518,-0.120,-0.060
2.520,-0.170,-0.070
2.522,-0.090,-0.080
2.524,-0.080,-0.090
2.526,-0.160,-0.095
2.528,-0.115,-0.090
2.530,-0.075,-0.080
2.532,-0.070,-0.070
2.534,-0.095,-0.055
2.536,-0.135,-0.040
2.538,-0.060,-0.025
2.540,-0.145,-0.015
2.542,-0.040,-0.010
2.544,-0.020,-0.015
2.546,-0.060,-0.020
2.548,-0.025,-0.030
2.550,-0.060,-0.040
2.552,-0.110,-0.055
2.554,-0.115,-0.065
2.556,-0.170,-0.080
2.558,-0.145,-0.085
2.560,-0.130,-0.090
2.562,-0.160,-0.090
2.564,-0.010,-0.085
2.566,-0.125,-0.075
2.568,-0.150,-0.065
2.570,-0.085,-0.050
2.572,-0.085,-0.040
2.574,-0.090,-0.035
2.576,-0.120,-0.030
2.578,-0.065,-0.030
2.580,-0.075,-0.035
2.582,-0.020,-0.045
2.584,-0.100,-0.055
2.586,-0.140,-0.065
2.588,-0.130,-0.075
2.590,-0.130,-0.075
2.592,-0.080,-0.075
2.594,-0.100,-0.075
2.596,-0.120,-0.070
2.598,-0.160,-0.065
2.600,-0.165,-0.065
2.602,-0.055,-0.065
2.604,-0.100,-0.070
2.606,-0.120,-0.075
2.608,-0.175,-0.085
2.610,-0.140,-0.090
2.612,-0.125,-0.095
2.614,-0.070,-0.095
2.616,-0.100,-0.090
2.618,-0.190,-0.085
2.620,-0.225,-0.080
2.622,-0.170,-0.075
2.624,-0.045,-0.070
2.626,-0.055,-0.065
2.628,-0.110,-0.060
2.630,-0.175,-0.060
2.632,-0.145,-0.055
2.634,-0.090,-0.050
2.636,0.025,-0.045
2.638,-0.075,-0.040
2.640,-0.075,-0.040
2.642,-0.080,-0.045
2.644,-0.125,-0.050
2.646,-0.150,-0.060
2.648,-0.135,-0.075
2.650,-0.190,-0.085
2.652,-0.105,-0.095
2.654,-0.135,-0.100
2.656,-0.155,-0.100
2.658,-0.195,-0.095
2.660,-0.115,-0.080
2.662,-0.115,-0.070
2.664,-0.105,-0.055
2.666,-0.015,-0.045
2.668,-0.065,-0.035
2.670,-0.110,-0.030
2.672,-0.025,-0.035
2.674,-0.145,-0.040
2.676,-0.200,-0.045
2.678,-0.215,-0.055
2.680,-0.065,-0.065
2.682,-0.035,-0.075
2.684,-0.115,-0.080
2.686,-0.120,-0.085
2.688,-0.165,-0.090
2.690,-0.190,-0.090
2.692,-0.140,-0.090
2.694,-0.130,-0.090
2.696,-0.235,-0.090
2.698,-0.225,-0.090
2.700,-0.090,-0.085
2.702,-0.005,-0.085
2.704,-0.110,-0.080
2.706,-0.165,-0.080
2.708,-0.135,-0.075
2.710,-0.120,-0.070
2.712,-0.140,-0.065
2.714,-0.135,-0.060
2.716,-0.135,-0.055
2.718,-0.150,-0.050
2.720,-0.080,-0.045
2.722,-0.065,-0.040
2.724,-0.105,-0.040
2.726,-0.110,-0.040
2.728,-0.095,-0.045
2.730,-0.130,-0.055
2.732,-0.075,-0.060
2.734,-0.140,-0.070
2.736,-0.210,-0.075
2.738,-0.145,-0.075
2.740,-0.110,-0.075
2.742,-0.105,-0.075
2.744,-0.100,-0.070
2.746,-0.115,-0.065
2.748,-0.070,-0.060
2.750,-0.170,-0.055
2.752,-0.115,-0.055
2.754,-0.095,-0.055
2.756,-0.140,-0.055
2.758,-0.165,-0.055
2.760,-0.110,-0.055
2.762,-0.090,-0.055
2.764,-0.015,-0.045
2.766,-0.065,-0.035
2.768,-0.120,-0.020
2.770,-0.105,-0.005
2.772,-0.075,0.005
2.774,-0.050,0.015
2.776,0.015,0.015
2.778,-0.015,0.005
2.780,-0.035,-0.010
2.782,-0.100,-0.030
2.784,-0.235,-0.050
2.786,-0.160,-0.070
2.788,-0.130,-0.085
2.790,-0.145,-0.090
2.792,-0.160,-0.090
2.794,-0.115,-0.080
2.796,-0.160,-0.065
2.798,-0.145,-0.045
2.800,-0.020,-0.030
2.802,0.010,-0.015
2.804,-0.090,-0.010
2.806,-0.080,-0.015
2.808,-0.120,-0.020
2.810,-0.160,-0.035
2.812,-0.075,-0.045
2.814,-0.155,-0.060
2.816,-0.170,-0.065
2.818,-0.165,-0.070
2.820,-0.120,-0.070
2.822,-0.125,-0.060
2.824,-0.080,-0.055
2.826,-0.065,-0.045
2.828,-0.055,-0.045
2.830,-0.120,-0.040
2.832,-0.110,-0.045
2.834,-0.180,-0.050
2.836,-0.180,-0.060
2.838,-0.085,-0.065
2.840,-0.115,-0.075
2.842,-0.115,-0.075
2.844,-0.170,-0.080
2.846,-0.215,-0.080
2.848,-0.195,-0.085
2.850,-0.155,-0.095
2.852,-0.080,-0.110
2.854,-0.155,-0.130
2.856,-0.245,-0.160
2.858,-0.265,-0.185
2.860,-0.225,-0.215
2.862,-0.370,-0.235
2.864,-0.400,-0.240
2.866,-0.310,-0.235
2.868,-0.260,-0.210
2.870,-0.240,-0.165
2.872,-0.175,-0.110
2.874,-0.200,-0.045
2.876,0.010,0.030
2.878,0.120,0.110
2.880,0.135,0.195
2.882,0.215,0.280
2.884,0.335,0.365
2.886,0.420,0.440
2.888,0.430,0.510
2.890,0.510,0.570
2.892,0.590,0.605
2.894,0.580,0.610
2.896,0.530,0.585
2.898,0.540,0.520
2.900,0.370,0.430
2.902,0.265,0.310
2.904,0.065,0.180
2.906,-0.110,0.045
2.908,-0.250,-0.070
2.910,-0.365,-0.165
2.912,-0.295,-0.225
2.914,-0.270,-0.250
2.916,-0.290,-0.245
2.918,-0.235,-0.215
2.920,-0.190,-0.170
2.922,-0.200,-0.120
2.924,-0.140,-0.080
2.926,-0.135,-0.045
2.928,-0.075,-0.025
2.930,-0.145,-0.020
2.932,-0.055,-0.020
2.934,-0.095,-0.035
2.936,-0.100,-0.050
2.938,-0.150,-0.075
2.940,-0.195,-0.090
2.942,-0.250,-0.110
2.944,-0.200,-0.120
2.946,-0.090,-0.125
2.948,-0.210,-0.120
2.950,-0.360,-0.110
2.952,-0.190,-0.090
2.954,-0.040,-0.065
2.956,-0.055,-0.035
2.958,-0.055,-0.015
2.960,-0.035,0.000
2.962,-0.100,0.005
2.964,-0.100,0.000
2.966,-0.085,-0.020
2.968,-0.095,-0.040
2.970,-0.185,-0.065
2.972,-0.165,-0.090
2.974,-0.140,-0.100
2.976,-0.225,-0.100
2.978,-0.230,-0.090
2.980,-0.080,-0.070
2.982,-0.055,-0.045
2.984,-0.090,-0.020
2.986,-0.115,0.005
2.988,-0.060,0.025
2.990,-0.045,0.035
2.992,-0.070,0.035
2.994,0.000,0.030
2.996,-0.060,0.015
2.998,-0.130,0.000
3.000,-0.075,-0.020
3.002,-0.080,-0.035
3.004,-0.145,-0.045
3.006,-0.095,-0.050
3.008,-0.110,-0.050
3.010,-0.225,-0.040
3.012,-0.115,-0.030
3.014,-0.060,-0.015
3.016,-0.110,0.000
3.018,-0.120,0.010
3.020,-0.105,0.020
3.022,0.105,0.025
3.024,0.005,0.025
3.026,-0.095,0.020
3.028,-0.105,0.015
3.030,-0.145,0.005
3.032,-0.115,0.000
3.034,-0.035,0.000
3.036,-0.075,0.000
3.038,-0.080,0.000
3.040,-0.145,0.005
3.042,-0.010,0.010
3.044,-0.085,0.015
3.046,-0.060,0.015
3.048,-0.055,0.020
3.050,-0.105,0.030
3.052,-0.055,0.040
3.054,-0.015,0.055
3.056,-0.070,0.070
3.058,0.090,0.090
3.060,0.090,0.105
3.062,0.040,0.115
3.064,0.020,0.120
3.066,0.005,0.125
3.068,0.030,0.120
3.070,0.045,0.115
3.072,0.025,0.115
3.074,0.055,0.115
3.076,0.085,0.120
3.078,0.020,0.130
3.080,-0.030,0.140
3.082,0.065,0.160
3.084,0.120,0.175
3.086,0.185,0.190
3.088,0.200,0.205
3.090,0.115,0.220
3.092,0.090,0.235
3.094,0.140,0.255
3.096,0.100,0.270
3.098,0.215,0.290
3.100,0.295,0.305
3.102,0.280,0.320
3.104,0.260,0.325
3.106,0.220,0.320
3.108,0.160,0.305
3.110,0.165,0.290
3.112,0.110,0.270
3.114,0.095,0.255
3.116,0.195,0.245
3.118,0.180,0.250
3.120,0.200,0.260
3.122,0.250,0.275
3.124,0.220,0.295
3.126,0.275,0.310
3.128,0.195,0.320
3.130,0.220,0.315
3.132,0.175,0.305
3.134,0.130,0.285
3.136,0.170,0.255
3.138,0.145,0.230
3.140,0.170,0.200
3.142,0.135,0.180
3.144,0.030,0.170
3.146,0.100,0.160
3.148,0.045,0.150
3.150,0.080,0.145
3.152,-0.030,0.135
3.154,-0.020,0.120
3.156,-0.035,0.105
3.158,0.045,0.085
3.160,0.005,0.065
3.162,-0.060,0.050
3.164,-0.085,0.035
3.166,-0.010,0.025
3.168,-0.025,0.015
3.170,-0.130,0.005
3.172,-0.125,0.000
3.174,-0.160,-0.005
3.176,-0.050,-0.010
3.178,0.005,-0.015
3.180,-0.145,-0.020
3.182,-0.130,-0.025
3.184,-0.090,-0.025
3.186,-0.100,-0.025
3.188,-0.155,-0.025
3.190,-0.070,-0.020
3.192,-0.035,-0.025
3.194,-0.120,-0.025
3.196,-0.215,-0.030
3.198,-0.185,-0.035
3.200,-0.075,-0.040
3.202,-0.120,-0.045
3.204,-0.130,-0.045
3.206,-0.165,-0.040
3.208,-0.110,-0.035
3.210,-0.065,-0.035
3.212,-0.180,-0.035
3.214,-0.190,-0.040
3.216,-0.115,-0.050
3.218,-0.070,-0.065
3.220,-0.165,-0.075
3.222,-0.215,-0.090
3.224,-0.275,-0.095
3.226,-0.180,-0.100
3.228,-0.175,-0.095
3.230,-0.175,-0.090
3.232,-0.140,-0.080
3.234,-0.135,-0.065
3.236,-0.185,-0.055
3.238,-0.120,-0.050
3.240,-0.200,-0.045
3.242,-0.155,-0.045
3.244,-0.075,-0.045
3.246,-0.130,-0.050
3.248,-0.110,-0.050
3.250,-0.080,-0.050
3.252,-0.125,-0.050
3.254,-0.225,-0.055
3.256,-0.245,-0.055
3.258,-0.200,-0.060
3.260,-0.060,-0.065
3.262,-0.125,-0.070
3.264,-0.225,-0.070
3.266,-0.155,-0.070
3.268,-0.110,-0.060
3.270,-0.070,-0.045
3.272,-0.065,-0.030
3.274,-0.125,-0.015
3.276,-0.145,0.000
3.278,-0.075,0.010
3.280,-0.100,0.015
3.282,-0.110,0.010
3.284,-0.040,0.000
3.286,-0.115,-0.010
3.288,-0.150,-0.025
3.290,-0.095,-0.030
3.292,-0.065,-0.035
3.294,-0.160,-0.035
3.296,-0.105,-0.035
3.298,-0.145,-0.030
3.300,-0.140,-0.030
3.302,-0.105,-0.035
3.304,-0.100,-0.045
3.306,-0.190,-0.060
3.308,-0.215,-0.075
3.310,-0.145,-0.085
3.312,-0.130,-0.095
3.314,-0.260,-0.095
3.316,-0.235,-0.085
3.318,-0.065,-0.075
3.320,-0.105,-0.055
3.322,-0.110,-0.040
3.324,-0.100,-0.025
3.326,-0.160,-0.015
3.328,-0.075,-0.015
3.330,-0.105,-0.020
3.332,-0.155,-0.025
3.334,-0.180,-0.035
3.336,-0.270,-0.040
3.338,-0.055,-0.045
3.340,-0.030,-0.040
3.342,-0.100,-0.035
3.344,-0.140,-0.025
3.346,-0.130,-0.015
3.348,-0.075,-0.005
3.350,-0.085,0.000
3.352,-0.080,0.005
3.354,-0.115,0.000
3.356,-0.130,-0.005
3.358,-0.075,-0.015
3.360,-0.140,-0.020
3.362,-0.145,-0.030
3.364,-0.115,-0.030
3.366,-0.090,-0.035
3.368,-0.085,-0.030
3.370,-0.080,-0.030
3.372,-0.130,-0.025
3.374,-0.135,-0.025
3.376,-0.165,-0.025
3.378,-0.120,-0.030
3.380,-0.085,-0.035
3.382,-0.120,-0.040
3.384,-0.155,-0.040
3.386,-0.130,-0.045
3.388,-0.120,-0.040
3.390,-0.065,-0.035
3.392,-0.070,-0.025
3.394,-0.085,-0.020
3.396,-0.145,-0.020
3.398,-0.165,-0.025
3.400,-0.180,-0.035
3.402,-0.115,-0.050
3.404,-0.140,-0.065
3.406,-0.195,-0.080
3.408,-0.195,-0.090
3.410,-0.145,-0.090
3.412,-0.145,-0.085
3.414,-0.185,-0.075
3.416,-0.250,-0.060
3.418,-0.140,-0.045
3.420,-0.055,-0.035
3.422,-0.120,-0.035
3.424,-0.150,-0.040
3.426,-0.140,-0.055
3.428,-0.155,-0.075
3.430,-0.155,-0.095
3.432,-0.215,-0.110
3.434,-0.305,-0.115
3.436,-0.255,-0.115
3.438,-0.140,-0.100
3.440,-0.075,-0.085
3.442,-0.125,-0.060
3.444,-0.085,-0.035
3.446,-0.145,-0.010
3.448,-0.075,0.005
3.450,-0.060,0.015
3.452,-0.085,0.020
3.454,-0.100,0.015
3.456,-0.040,0.005
3.458,-0.120,-0.010
3.460,-0.155,-0.025
3.462,-0.100,-0.035
3.464,-0.130,-0.045
3.466,-0.140,-0.055
3.468,-0.145,-0.055
3.470,-0.120,-0.055
3.472,-0.100,-0.045
3.474,-0.125,-0.035
3.476,-0.090,-0.025
3.478,-0.135,-0.015
3.480,-0.125,-0.010
3.482,-0.035,-0.010
3.484,-0.105,-0.020
3.486,-0.120,-0.030
3.488,-0.135,-0.045
3.490,-0.155,-0.060
3.492,-0.235,-0.075
3.494,-0.215,-0.085
3.496,-0.210,-0.090
3.498,-0.105,-0.085
3.500,-0.085,-0.075
3.502,-0.100,-0.060
3.504,-0.150,-0.045
3.506,-0.130,-0.030
3.508,-0.105,-0.020
3.510,-0.060,-0.020
3.512,-0.130,-0.030
3.514,-0.140,-0.045
3.516,-0.165,-0.065
3.518,-0.235,-0.085
3.520,-0.195,-0.105
3.522,-0.200,-0.120
3.524,-0.165,-0.120
3.526,-0.150,-0.115
3.528,-0.145,-0.100
3.530,-0.140,-0.080
3.532,-0.160,-0.060
3.534,-0.080,-0.040
3.536,-0.120,-0.020
3.538,-0.215,-0.010
3.540,-0.100,-0.005
3.542,-0.085,-0.010
3.544,-0.075,-0.015
3.546,-0.080,-0.020
3.548,-0.125,-0.025
3.550,-0.095,-0.025
3.552,-0.070,-0.025
3.554,-0.085,-0.020
3.556,-0.095,-0.010
3.558,-0.125,-0.005
3.560,-0.065,0.000
3.562,-0.035,0.010
3.564,-0.055,0.015
3.566,-0.090,0.015
3.568,-0.065,0.020
3.570,-0.140,0.025
3.572,0.000,0.030
3.574,0.030,0.030
3.576,0.000,0.030
3.578,-0.090,0.025
3.580,-0.095,0.015
3.582,-0.045,0.000
3.584,-0.090,-0.015
3.586,-0.150,-0.030
3.588,-0.155,-0.045
3.590,-0.165,-0.055
3.592,-0.145,-0.065
3.594,-0.155,-0.070
3.596,-0.170,-0.070
3.598,-0.055,-0.065
3.600,-0.140,-0.065
3.602,-0.140,-0.060
3.604,-0.140,-0.060
3.606,-0.140,-0.060
3.608,-0.120,-0.060
3.610,-0.130,-0.065
3.612,-0.225,-0.065
3.614,-0.130,-0.065
3.616,-0.045,-0.070
3.618,-0.110,-0.070
3.620,-0.235,-0.070
3.622,-0.140,-0.075
3.624,-0.170,-0.085
3.626,-0.155,-0.095
3.628,-0.185,-0.100
3.630,-0.160,-0.110
3.632,-0.215,-0.115
3.634,-0.190,-0.110
3.636,-0.115,-0.105
3.638,-0.120,-0.090
3.640,-0.225,-0.075
3.642,-0.150,-0.060
3.644,-0.075,-0.045
3.646,-0.115,-0.045
3.648,-0.150,-0.050
3.650,-0.080,-0.060
3.652,-0.180,-0.085
3.654,-0.190,-0.115
3.656,-0.225,-0.140
3.658,-0.265,-0.165
3.660,-0.305,-0.175
3.662,-0.285,-0.175
3.664,-0.200,-0.155
3.666,-0.125,-0.115
3.668,-0.100,-0.065
3.670,-0.145,0.000
3.672,0.040,0.070
3.674,0.130,0.150
3.676,0.200,0.230
3.678,0.275,0.310
3.680,0.300,0.390
3.682,0.360,0.465
3.684,0.495,0.525
3.686,0.565,0.575
3.688,0.620,0.595
3.690,0.590,0.590
3.692,0.500,0.550
3.694,0.475,0.480
3.696,0.285,0.375
3.698,0.120,0.255
3.700,-0.010,0.125
3.702,-0.090,-0.005
3.704,-0.265,-0.110
3.706,-0.280,-0.190
3.708,-0.345,-0.240
3.710,-0.330,-0.255
3.712,-0.225,-0.245
3.714,-0.195,-0.215
3.716,-0.260,-0.180
3.718,-0.195,-0.145
3.720,-0.250,-0.125
3.722,-0.220,-0.110
3.724,-0.170,-0.110
3.726,-0.160,-0.110
3.728,-0.160,-0.115
3.730,-0.155,-0.120
3.732,-0.160,-0.110
3.734,-0.130,-0.100
3.736,-0.085,-0.085
3.738,-0.065,-0.070
3.740,-0.175,-0.055
3.742,-0.130,-0.045
3.744,-0.130,-0.045
3.746,-0.115,-0.050
3.748,-0.115,-0.055
3.750,-0.125,-0.060
3.752,-0.150,-0.065
3.754,-0.120,-0.065
3.756,-0.120,-0.060
3.758,-0.140,-0.055
3.760,-0.075,-0.045
3.762,-0.115,-0.040
3.764,-0.040,-0.035
3.766,-0.100,-0.030
3.768,-0.090,-0.030
3.770,-0.120,-0.030
3.772,-0.140,-0.030
3.774,-0.055,-0.030
3.776,-0.055,-0.025
3.778,-0.060,-0.015
3.780,-0.065,-0.010
3.782,-0.055,0.000
3.784,-0.045,0.005
3.786,-0.025,0.005
3.788,-0.045,0.000
3.790,-0.080,-0.010
3.792,-0.070,-0.025
3.794,-0.075,-0.040
3.796,-0.115,-0.050
3.798,-0.110,-0.060
3.800,-0.080,-0.060
3.802,-0.130,-0.055
3.804,-0.170,-0.045
3.806,-0.045,-0.030
3.808,0.005,-0.010
3.810,-0.100,0.005
3.812,-0.045,0.020
3.814,0.010,0.025
3.816,0.135,0.025
3.818,-0.060,0.020
3.820,-0.105,0.010
3.822,-0.055,-0.010
3.824,-0.165,-0.025
3.826,-0.110,-0.040
3.828,-0.015,-0.045
3.830,-0.080,-0.045
3.832,-0.045,-0.035
3.834,-0.085,-0.020
3.836,-0.070,0.005
3.838,-0.050,0.030
3.840,0.115,0.055
3.842,0.035,0.075
3.844,0.050,0.090
3.846,0.040,0.100
3.848,-0.020,0.095
3.850,-0.025,0.090
3.852,0.085,0.085
3.854,0.060,0.080
3.856,-0.005,0.075
3.858,0.050,0.080
3.860,0.065,0.085
3.862,0.065,0.100
3.864,0.105,0.115
3.866,0.065,0.135
3.868,0.030,0.150
3.870,0.125,0.165
3.872,0.125,0.175
3.874,0.175,0.185
3.876,0.140,0.195
3.878,0.150,0.205
3.880,0.195,0.215
3.882,0.185,0.225
3.884,0.220,0.230
3.886,0.165,0.235
3.888,0.195,0.235
3.890,0.170,0.230
3.892,0.215,0.220
3.894,0.195,0.215
3.896,0.090,0.210
3.898,0.140,0.215
3.900,0.210,0.225
3.902,0.180,0.240
3.904,0.330,0.255
3.906,0.235,0.280
3.908,0.245,0.295
3.910,0.295,0.305
3.912,0.255,0.310
3.914,0.195,0.305
3.916,0.250,0.290
3.918,0.245,0.280
3.920,0.275,0.265
3.922,0.230,0.255
3.924,0.200,0.255
3.926,0.210,0.260
3.928,0.180,0.265
3.930,0.280,0.275
3.932,0.255,0.275
3.934,0.200,0.270
3.936,0.190,0.255
3.938,0.195,0.230
3.940,0.175,0.200
3.942,0.030,0.165
3.944,0.035,0.130
3.946,0.190,0.105
3.948,0.055,0.085
3.950,0.005,0.070
3.952,0.025,0.055
3.954,-0.010,0.050
3.956,-0.045,0.035
3.958,0.020,0.025
3.960,-0.005,0.010
3.962,-0.055,0.000
3.964,-0.055,-0.015
3.966,-0.095,-0.020
3.968,-0.130,-0.020
3.970,-0.045,-0.015
3.972,-0.020,-0.010
3.974,-0.020,0.000
3.976,0.085,0.005
3.978,0.025,0.005
3.980,-0.070,0.000
3.982,-0.095,-0.015
3.984,-0.150,-0.035
3.986,-0.130,-0.050
3.988,-0.085,-0.065
3.990,-0.040,-0.075
3.992,-0.080,-0.075
3.994,-0.050,-0.075
3.996,-0.015,-0.065
3.998,-0.075,-0.060
4.000,-0.130,-0.050
4.002,-0.105,-0.050
4.004,-0.100,-0.055
4.006,-0.105,-0.060
4.008,-0.165,-0.065
4.010,-0.150,-0.070
4.012,-0.015,-0.075
4.014,-0.060,-0.070
4.016,-0.065,-0.070
4.018,0.000,-0.065
4.020,-0.070,-0.060
4.022,-0.135,-0.060
4.024,-0.135,-0.065
4.026,-0.155,-0.070
4.028,-0.095,-0.080
4.030,-0.165,-0.085
4.032,-0.165,-0.085
4.034,-0.015,-0.085
4.036,0.030,-0.080
4.038,-0.055,-0.070
4.040,-0.125,-0.065
4.042,-0.080,-0.065
4.044,-0.145,-0.065
4.046,-0.205,-0.070
4.048,-0.120,-0.085
4.050,-0.160,-0.095
4.052,-0.080,-0.100
4.054,-0.005,-0.105
4.056,-0.055,-0.100
4.058,-0.060,-0.085
4.060,-0.060,-0.070
4.062,-0.080,-0.050
4.064,-0.085,-0.040
4.066,-0.115,-0.030
4.068,-0.135,-0.035
4.070,-0.045,-0.040
4.072,-0.015,-0.050
4.074,-0.065,-0.055
4.076,-0.025,-0.060
4.078,-0.050,-0.055
4.080,-0.125,-0.050
4.082,-0.075,-0.035
4.084,0.025,-0.025
4.086,-0.040,-0.015
4.088,-0.090,-0.010
4.090,-0.065,-0.020
4.092,-0.030,-0.030
4.094,-0.020,-0.045
4.096,-0.095,-0.060
4.098,-0.070,-0.070
4.100,-0.060,-0.070
4.102,-0.030,-0.065
4.104,-0.075,-0.055
4.106,-0.090,-0.045
4.108,-0.050,-0.035
4.110,-0.045,-0.035
4.112,-0.060,-0.040
4.114,-0.010,-0.050
4.116,-0.065,-0.065
4.118,-0.140,-0.085
4.120,-0.175,-0.095
4.122,-0.110,-0.100
4.124,-0.130,-0.095
4.126,-0.085,-0.085
4.128,0.000,-0.065
4.130,-0.050,-0.045
4.132,-0.020,-0.030
4.134,0.020,-0.020
4.136,-0.015,-0.015
4.138,-0.020,-0.015
4.140,-0.055,-0.020
4.142,-0.060,-0.030
4.144,-0.095,-0.040
4.146,-0.040,-0.050
4.148,-0.020,-0.060
4.150,-0.055,-0.065
4.152,-0.070,-0.065
4.154,-0.075,-0.065
4.156,-0.045,-0.065
4.158,0.000,-0.065
4.160,-0.120,-0.065
4.162,-0.125,-0.065
4.164,-0.035,-0.065
4.166,-0.075,-0.060
4.168,-0.090,-0.055
4.170,-0.010,-0.050
4.172,-0.005,-0.045
4.174,-0.085,-0.040
4.176,-0.055,-0.040
4.178,-0.060,-0.040
4.180,-0.060,-0.045
4.182,-0.080,-0.055
4.184,-0.085,-0.065
4.186,-0.065,-0.080
4.188,-0.095,-0.090
4.190,-0.085,-0.095
4.192,-0.110,-0.100
4.194,-0.065,-0.095
4.196,-0.060,-0.090
4.198,-0.095,-0.080
4.200,-0.040,-0.070
4.202,-0.040,-0.060
4.204,-0.085,-0.060
4.206,-0.090,-0.060
4.208,-0.035,-0.060
4.210,-0.010,-0.070
4.212,-0.045,-0.075
4.214,-0.095,-0.085
4.216,-0.035,-0.085
4.218,-0.190,-0.085
4.220,-0.155,-0.080
4.222,0.000,-0.070
4.224,-0.010,-0.065
4.226,-0.075,-0.055
4.228,-0.040,-0.055
4.230,-0.045,-0.055
4.232,-0.020,-0.065
4.234,-0.085,-0.070
4.236,-0.155,-0.080
4.238,-0.075,-0.085
4.240,-0.120,-0.085
4.242,-0.030,-0.075
4.244,0.015,-0.060
4.246,-0.030,-0.045
4.248,-0.045,-0.025
4.250,-0.005,-0.015
4.252,-0.025,-0.010
4.254,-0.040,-0.015
4.256,0.005,-0.025
4.258,-0.045,-0.045
4.260,-0.045,-0.070
4.262,-0.145,-0.090
4.264,-0.075,-0.105
4.266,-0.120,-0.110
4.268,-0.055,-0.110
4.270,-0.130,-0.095
4.272,-0.090,-0.080
4.274,0.000,-0.065
4.276,0.035,-0.055
4.278,-0.030,-0.050
4.280,-0.090,-0.050
4.282,-0.115,-0.060
4.284,-0.065,-0.075
4.286,-0.030,-0.090
4.288,-0.070,-0.100
4.290,-0.125,-0.100
4.292,-0.155,-0.100
4.294,-0.080,-0.090
4.296,-0.005,-0.075
4.298,-0.055,-0.065
4.300,0.005,-0.055
4.302,0.015,-0.055
4.304,-0.060,-0.055
4.306,-0.050,-0.065
4.308,-0.075,-0.075
4.310,-0.125,-0.085
4.312,-0.145,-0.090
4.314,-0.100,-0.095
4.316,-0.030,-0.090
4.318,0.005,-0.080
4.320,-0.020,-0.070
4.322,-0.055,-0.055
4.324,-0.005,-0.040
4.326,0.020,-0.030
4.328,-0.060,-0.025
4.330,-0.025,-0.025
4.332,0.005,-0.025
4.334,-0.040,-0.035
4.336,-0.010,-0.040
4.338,-0.005,-0.050
4.340,-0.030,-0.060
4.342,-0.065,-0.065
4.344,-0.050,-0.065
4.346,-0.050,-0.060
4.348,-0.085,-0.045
4.350,0.000,-0.030
4.352,-0.020,-0.010
4.354,0.075,0.015
4.356,0.155,0.035
4.358,0.065,0.050
4.360,0.040,0.060
4.362,0.095,0.060
4.364,0.045,0.045
4.366,0.045,0.025
4.368,0.035,-0.005
4.370,-0.040,-0.035
4.372,-0.100,-0.065
4.374,-0.135,-0.085
4.376,0.000,-0.100
4.378,-0.100,-0.105
4.380,-0.180,-0.100
4.382,0.020,-0.090
4.384,0.040,-0.075
4.386,-0.105,-0.055
4.388,-0.055,-0.040
4.390,0.035,-0.030
4.392,0.025,-0.030
4.394,-0.010,-0.035
4.396,-0.050,-0.045
4.398,-0.060,-0.060
4.400,-0.040,-0.080
4.402,-0.100,-0.095
4.404,-0.105,-0.105
4.406,-0.050,-0.105
4.408,-0.090,-0.100
4.410,-0.055,-0.090
4.412,0.035,-0.075
4.414,-0.070,-0.055
4.416,-0.110,-0.040
4.418,0.010,-0.025
4.420,0.080,-0.020
4.422,0.010,-0.020
4.424,0.025,-0.030
4.426,-0.020,-0.045
4.428,-0.065,-0.060
4.430,-0.095,-0.080
4.432,-0.070,-0.100
4.434,-0.070,-0.120
4.436,-0.060,-0.135
4.438,-0.120,-0.145
4.440,-0.160,-0.160
4.442,-0.150,-0.170
4.444,-0.145,-0.175
4.446,-0.105,-0.180
4.448,-0.115,-0.175
4.450,-0.195,-0.165
4.452,-0.165,-0.145
4.454,-0.110,-0.110
4.456,-0.025,-0.060
4.458,0.115,0.000
4.460,0.130,0.075
4.462,0.160,0.155
4.464,0.380,0.250
4.466,0.310,0.340
4.468,0.415,0.425
4.470,0.610,0.505
4.472,0.635,0.560
4.474,0.625,0.595
4.476,0.685,0.595
4.478,0.605,0.570
4.480,0.545,0.510
4.482,0.400,0.420
4.484,0.365,0.310
4.486,0.240,0.185
4.488,0.115,0.065
4.490,-0.095,-0.050
4.492,-0.240,-0.140
4.494,-0.245,-0.205
4.496,-0.175,-0.235
4.498,-0.260,-0.240
4.500,-0.215,-0.220
4.502,-0.030,-0.180
4.504,-0.005,-0.140
4.506,-0.080,-0.100
4.508,-0.065,-0.070
4.510,0.000,-0.050
4.512,-0.030,-0.045
4.514,-0.055,-0.045
4.516,-0.030,-0.055
4.518,-0.075,-0.070
4.520,-0.070,-0.075
4.522,0.015,-0.080
4.524,-0.020,-0.080
4.526,-0.035,-0.080
4.528,-0.055,-0.075
4.530,-0.035,-0.070
4.532,0.015,-0.065
4.534,0.035,-0.065
4.536,-0.025,-0.060
4.538,-0.165,-0.060
4.540,-0.120,-0.060
4.542,0.085,-0.055
4.544,0.030,-0.050
4.546,0.020,-0.045
4.548,0.050,-0.040
4.550,0.025,-0.035
4.552,-0.050,-0.025
4.554,-0.025,-0.020
4.556,0.010,-0.020
4.558,0.035,-0.015
4.560,0.040,-0.010
4.562,0.030,-0.010
4.564,0.055,-0.015
4.566,0.005,-0.025
4.568,-0.020,-0.040
4.570,-0.110,-0.060
4.572,-0.055,-0.080
4.574,0.040,-0.095
4.576,-0.060,-0.105
4.578,-0.140,-0.105
4.580,-0.060,-0.095
4.582,-0.070,-0.070
4.584,-0.070,-0.045
4.586,0.095,-0.015
4.588,0.180,0.015
4.590,0.120,0.035
4.592,0.040,0.045
4.594,0.040,0.050
4.596,0.050,0.045
4.598,0.000,0.040
4.600,0.110,0.035
4.602,0.040,0.035
4.604,0.095,0.045
4.606,0.175,0.055
4.608,0.155,0.075
4.610,0.130,0.095
4.612,0.150,0.110
4.614,0.110,0.120
4.616,0.135,0.125
4.618,0.155,0.120
4.620,0.140,0.115
4.622,0.100,0.110
4.624,0.100,0.110
4.626,0.200,0.110
4.628,0.185,0.125
4.630,0.230,0.140
4.632,0.240,0.160
4.634,0.230,0.185
4.636,0.140,0.200
4.638,0.270,0.215
4.640,0.230,0.225
4.642,0.290,0.230
4.644,0.275,0.225
4.646,0.265,0.225
4.648,0.275,0.220
4.650,0.295,0.215
4.652,0.280,0.215
4.654,0.225,0.220
4.656,0.235,0.230
4.658,0.265,0.235
4.660,0.335,0.250
4.662,0.335,0.260
4.664,0.260,0.270
4.666,0.350,0.285
4.668,0.355,0.295
4.670,0.340,0.310
4.672,0.415,0.320
4.674,0.330,0.330
4.676,0.295,0.340
4.678,0.420,0.350
4.680,0.460,0.355
4.682,0.475,0.355
4.684,0.395,0.355
4.686,0.370,0.345
4.688,0.365,0.330
4.690,0.320,0.315
4.692,0.305,0.295
4.694,0.350,0.275
4.696,0.290,0.255
4.698,0.205,0.235
4.700,0.280,0.215
4.702,0.330,0.200
4.704,0.270,0.190
4.706,0.195,0.180
4.708,0.130,0.170
4.710,0.185,0.165
4.712,0.235,0.155
4.714,0.215,0.145
4.716,0.185,0.130
4.718,0.115,0.115
4.720,0.070,0.095
4.722,0.135,0.075
4.724,0.095,0.055
4.726,0.060,0.035
4.728,0.100,0.015
4.730,0.155,0.000
4.732,-0.005,-0.015
4.734,-0.020,-0.020
4.736,-0.055,-0.025
4.738,-0.070,-0.025
4.740,0.020,-0.020
4.742,0.090,-0.015
4.744,0.070,-0.015
4.746,0.155,-0.010
4.748,0.005,-0.010
4.750,-0.020,-0.015
4.752,-0.035,-0.025
4.754,0.075,-0.030
4.756,-0.005,-0.040
4.758,0.020,-0.050
4.760,-0.060,-0.055
4.762,-0.010,-0.060
4.764,0.010,-0.055
4.766,-0.020,-0.050
4.768,-0.060,-0.045
4.770,0.040,-0.035
4.772,0.005,-0.030
4.774,0.045,-0.030
4.776,0.075,-0.030
4.778,0.005,-0.030
4.780,0.015,-0.035
4.782,0.020,-0.040
4.784,-0.060,-0.045
4.786,-0.015,-0.040
4.788,0.065,-0.035
4.790,0.025,-0.025
4.792,0.055,-0.010
4.794,0.025,0.000
4.796,0.010,0.005
4.798,0.040,0.005
4.800,0.170,0.000
4.802,0.080,-0.010
4.804,-0.050,-0.020
4.806,-0.015,-0.035
4.808,0.010,-0.045
4.810,0.005,-0.055
4.812,0.000,-0.060
4.814,-0.020,-0.065
4.816,0.000,-0.065
4.818,-0.005,-0.065
4.820,0.035,-0.070
4.822,-0.055,-0.075
4.824,-0.150,-0.080
4.826,-0.030,-0.085
4.828,0.040,-0.085
4.830,-0.010,-0.085
4.832,-0.055,-0.080
4.834,-0.090,-0.070
4.836,0.005,-0.060
4.838,0.050,-0.045
4.840,0.020,-0.030
4.842,0.020,-0.015
4.844,0.010,-0.005
4.846,0.035,-0.005
4.848,0.025,-0.010
4.850,0.025,-0.015
4.852,0.090,-0.030
4.854,0.015,-0.040
4.856,0.035,-0.050
4.858,-0.075,-0.050
4.860,-0.025,-0.050
4.862,0.045,-0.040
4.864,0.075,-0.030
4.866,0.035,-0.015
4.868,0.080,0.000
4.870,0.090,0.010
4.872,0.075,0.010
4.874,0.030,0.010
4.876,-0.020,-0.005
4.878,-0.010,-0.020
4.880,0.000,-0.035
4.882,0.045,-0.055
4.884,0.015,-0.065
4.886,0.025,-0.070
4.888,-0.005,-0.065
4.890,-0.015,-0.055
4.892,-0.005,-0.040
4.894,0.055,-0.025
4.896,0.045,-0.010
4.898,0.035,0.000
4.900,0.025,0.010
4.902,0.015,0.005
4.904,0.015,0.000
4.906,0.025,-0.010
4.908,0.040,-0.025
4.910,0.025,-0.045
4.912,0.000,-0.060
4.914,-0.045,-0.075
4.916,-0.080,-0.085
4.918,-0.090,-0.090
4.920,-0.100,-0.090
4.922,-0.015,-0.085
4.924,0.030,-0.075
4.926,0.045,-0.060
4.928,0.070,-0.040
4.930,-0.050,-0.020
4.932,0.030,0.000
4.934,0.160,0.015
4.936,0.125,0.025
4.938,0.095,0.025
4.940,-0.030,0.015
4.942,-0.040,-0.005
4.944,-0.040,-0.025
4.946,0.000,-0.045
4.948,0.130,-0.060
4.950,0.050,-0.065
4.952,-0.030,-0.065
4.954,0.005,-0.060
4.956,0.045,-0.045
4.958,0.015,-0.035
4.960,-0.015,-0.025
4.962,0.015,-0.025
4.964,-0.025,-0.030
4.966,0.000,-0.040
4.968,0.075,-0.055
4.970,0.000,-0.070
4.972,-0.070,-0.080
4.974,-0.025,-0.085
4.976,-0.045,-0.080
4.978,0.015,-0.065
4.980,0.035,-0.050
4.982,0.035,-0.030
4.984,0.000,-0.020
4.986,0.030,-0.015
4.988,0.010,-0.020
4.990,0.005,-0.030
4.992,0.030,-0.055
4.994,0.060,-0.075
4.996,-0.020,-0.100
4.998,-0.030,-0.120
5.000,-0.030,-0.125
5.002,-0.155,-0.125
5.004,-0.130,-0.115
5.006,-0.105,-0.095
5.008,0.045,-0.075
5.010,0.150,-0.055
5.012,0.060,-0.035
5.014,0.050,-0.020
5.016,0.050,-0.020
5.018,0.015,-0.020
5.020,-0.010,-0.030
5.022,-0.090,-0.045
5.024,-0.015,-0.055
5.026,0.040,-0.070
5.028,-0.010,-0.075
5.030,0.045,-0.075
5.032,0.045,-0.070
5.034,-0.105,-0.065
5.036,0.010,-0.050
5.038,0.055,-0.040
5.040,0.055,-0.030
5.042,0.005,-0.025
5.044,0.055,-0.020
5.046,0.015,-0.020
5.048,0.010,-0.025
5.050,0.050,-0.035
5.052,0.020,-0.040
5.054,-0.025,-0.050
5.056,0.005,-0.055
5.058,0.035,-0.060
5.060,0.025,-0.060
5.062,-0.015,-0.060
5.064,-0.055,-0.060
5.066,-0.060,-0.060
5.068,-0.025,-0.060
5.070,-0.005,-0.055
5.072,0.045,-0.055
5.074,0.055,-0.055
5.076,-0.010,-0.055
5.078,-0.015,-0.055
5.080,0.055,-0.055
5.082,0.070,-0.060
5.084,-0.025,-0.065
5.086,-0.030,-0.075
5.088,-0.050,-0.080
5.090,-0.065,-0.090
5.092,-0.040,-0.095
5.094,-0.110,-0.095
5.096,0.010,-0.095
5.098,-0.015,-0.090
5.100,0.045,-0.085
5.102,0.045,-0.075
5.104,-0.020,-0.065
5.106,-0.020,-0.050
5.108,0.010,-0.040
5.110,-0.005,-0.030
5.112,0.045,-0.025
5.114,0.075,-0.020
5.116,0.100,-0.020
5.118,0.035,-0.015
5.120,0.035,-0.015
5.122,0.110,-0.010
5.124,0.070,-0.005
5.126,0.060,0.005
5.128,0.045,0.010
5.130,0.035,0.020
5.132,0.090,0.030
5.134,0.105,0.035
5.136,0.120,0.035
5.138,0.125,0.030
5.140,0.100,0.025
5.142,0.110,0.015
5.144,0.005,0.005
5.146,0.050,-0.010
5.148,0.070,-0.020
5.150,0.020,-0.030
5.152,-0.010,-0.035
5.154,0.010,-0.035
5.156,0.015,-0.035
5.158,0.070,-0.035
5.160,0.055,-0.035
5.162,0.055,-0.040
5.164,-0.055,-0.045
5.166,0.025,-0.050
5.168,0.035,-0.060
5.170,-0.015,-0.070
5.172,0.040,-0.080
5.174,-0.060,-0.090
5.176,-0.120,-0.095
5.178,-0.065,-0.100
5.180,0.020,-0.100
5.182,0.055,-0.095
5.184,-0.025,-0.085
5.186,-0.020,-0.075
5.188,-0.035,-0.065
5.190,0.020,-0.050
5.192,0.005,-0.035
5.194,0.055,-0.025
5.196,0.030,-0.015
5.198,0.020,-0.015
5.200,0.100,-0.015
5.202,0.050,-0.025
5.204,-0.020,-0.045
5.206,-0.035,-0.065
5.208,-0.040,-0.090
5.210,-0.060,-0.120
5.212,-0.120,-0.145
5.214,-0.100,-0.165
5.216,-0.100,-0.175
5.218,-0.145,-0.175
5.220,-0.165,-0.165
5.222,-0.065,-0.150
5.224,-0.090,-0.125
5.226,-0.010,-0.095
5.228,0.035,-0.060
5.230,0.085,-0.015
5.232,0.155,0.035
5.234,0.160,0.095
5.236,0.190,0.160
5.238,0.345,0.235
5.240,0.405,0.315
5.242,0.430,0.400
5.244,0.575,0.475
5.246,0.675,0.535
5.248,0.670,0.575
5.250,0.620,0.580
5.252,0.630,0.560
5.254,0.670,0.500
5.256,0.535,0.415
5.258,0.320,0.310
5.260,0.140,0.190
5.262,0.205,0.070
5.264,0.085,-0.040
5.266,-0.145,-0.130
5.268,-0.265,-0.200
5.270,-0.225,-0.240
5.272,-0.195,-0.250
5.274,-0.115,-0.240
5.276,-0.065,-0.215
5.278,-0.040,-0.175
5.280,-0.025,-0.135
5.282,-0.040,-0.095
5.284,-0.030,-0.060
5.286,0.045,-0.035
5.288,0.075,-0.025
5.290,0.105,-0.020
5.292,0.010,-0.030
5.294,-0.025,-0.045
5.296,0.015,-0.060
5.298,0.030,-0.080
5.300,-0.025,-0.090
5.302,-0.015,-0.095
5.304,-0.020,-0.095
5.306,-0.040,-0.090
5.308,-0.030,-0.075
5.310,0.040,-0.060
5.312,0.005,-0.045
5.314,0.065,-0.030
5.316,0.035,-0.025
5.318,0.010,-0.020
5.320,0.015,-0.020
5.322,0.130,-0.025
5.324,0.035,-0.030
5.326,0.045,-0.035
5.328,0.015,-0.040
5.330,0.040,-0.045
5.332,0.005,-0.050
5.334,0.005,-0.050
5.336,0.030,-0.055
5.338,-0.020,-0.055
5.340,-0.040,-0.055
5.342,0.085,-0.055
5.344,-0.005,-0.050
5.346,0.030,-0.045
5.348,0.060,-0.035
5.350,0.035,-0.025
5.352,0.070,-0.010
5.354,0.025,0.005
5.356,0.105,0.015
5.358,0.160,0.025
5.360,0.075,0.035
5.362,0.110,0.035
5.364,0.125,0.035
5.366,0.125,0.030
5.368,0.055,0.020
5.370,0.025,0.010
5.372,0.085,0.005
5.374,0.055,-0.005
5.376,0.020,-0.010
5.378,0.020,-0.015
5.380,0.040,-0.020
5.382,0.040,-0.020
5.384,0.035,-0.015
5.386,0.155,-0.015
5.388,0.095,-0.010
5.390,0.035,-0.005
5.392,-0.085,-0.005
5.394,0.040,0.000
5.396,0.125,0.005
5.398,0.100,0.015
5.400,0.120,0.025
5.402,0.070,0.040
5.404,0.105,0.060
5.406,0.220,0.080
5.408,0.200,0.100
5.410,0.120,0.120
5.412,0.145,0.135
5.414,0.280,0.145
5.416,0.250,0.150
5.418,0.210,0.145
5.420,0.165,0.140
5.422,0.145,0.125
5.424,0.180,0.115
5.426,0.230,0.110
5.428,0.180,0.105
5.430,0.180,0.110
5.432,0.200,0.125
5.434,0.270,0.140
5.436,0.290,0.165
5.438,0.240,0.185
5.440,0.215,0.210
5.442,0.280,0.225
5.444,0.280,0.235
5.446,0.285,0.240
5.448,0.315,0.240
5.450,0.300,0.230
5.452,0.345,0.220
5.454,0.310,0.205
5.456,0.265,0.195
5.458,0.265,0.185
5.460,0.185,0.180
5.462,0.185,0.185
5.464,0.275,0.200
5.466,0.400,0.220
5.468,0.300,0.245
5.470,0.300,0.275
5.472,0.390,0.305
5.474,0.380,0.325
5.476,0.425,0.345
5.478,0.505,0.350
5.480,0.415,0.350
5.482,0.420,0.335
5.484,0.390,0.315
5.486,0.330,0.290
5.488,0.280,0.260
5.490,0.245,0.230
5.492,0.240,0.205
5.494,0.275,0.180
5.496,0.245,0.165
5.498,0.210,0.155
5.500,0.195,0.145
5.502,0.225,0.140
5.504,0.280,0.135
5.506,0.185,0.130
5.508,0.180,0.125
5.510,0.195,0.115
5.512,0.230,0.105
5.514,0.150,0.095
5.516,0.170,0.080
5.518,0.085,0.065
5.520,0.120,0.055
5.522,0.170,0.040
5.524,0.120,0.035
5.526,0.060,0.025
5.528,0.075,0.020
5.530,0.125,0.020
5.532,0.060,0.015
5.534,0.030,0.005
5.536,0.125,-0.005
5.538,0.055,-0.020
5.540,0.020,-0.040
5.542,0.020,-0.060
5.544,-0.055,-0.080
5.546,-0.040,-0.095
5.548,-0.060,-0.100
5.550,0.005,-0.100
5.552,0.065,-0.090
5.554,0.010,-0.075
5.556,-0.030,-0.055
5.558,-0.060,-0.035
5.560,0.075,-0.020
5.562,0.045,-0.010
5.564,0.075,-0.010
5.566,0.070,-0.010
5.568,0.065,-0.020
5.570,0.035,-0.035
5.572,-0.005,-0.045
5.574,0.010,-0.060
5.576,0.080,-0.065
5.578,-0.015,-0.070
5.580,-0.100,-0.070
5.582,0.005,-0.065
5.584,0.085,-0.060
5.586,0.010,-0.060
5.588,0.040,-0.055
5.590,0.055,-0.055
5.592,0.030,-0.055
5.594,-0.010,-0.060
5.596,-0.045,-0.070
5.598,-0.015,-0.075
5.600,0.025,-0.085
5.602,-0.080,-0.095
5.604,-0.075,-0.100
5.606,0.005,-0.100
5.608,0.040,-0.090
5.610,0.045,-0.075
5.612,0.040,-0.060
5.614,0.030,-0.035
5.616,0.055,-0.010
5.618,0.130,0.010
5.620,0.080,0.020
5.622,0.065,0.025
5.624,0.050,0.020
5.626,0.030,0.005
5.628,0.065,-0.020
5.630,0.075,-0.045
5.632,0.030,-0.075
5.634,-0.010,-0.100
5.636,-0.100,-0.115
5.638,-0.095,-0.120
5.640,-0.125,-0.120
5.642,-0.040,-0.110
5.644,0.055,-0.090
5.646,0.060,-0.070
5.648,0.075,-0.055
5.650,0.000,-0.040
5.652,-0.005,-0.030
5.654,0.085,-0.030
5.656,0.095,-0.035
5.658,0.065,-0.040
5.660,-0.060,-0.050
5.662,-0.010,-0.060
5.664,0.030,-0.065
5.666,0.030,-0.070
5.668,0.025,-0.065
5.670,-0.015,-0.060
5.672,-0.110,-0.050
5.674,0.035,-0.035
5.676,0.145,-0.020
5.678,0.100,-0.010
5.680,0.080,0.000
5.682,0.055,0.005
5.684,0.065,0.005
5.686,0.095,0.000
5.688,0.070,-0.010
5.690,0.060,-0.020
5.692,0.060,-0.035
5.694,-0.015,-0.050
5.696,-0.035,-0.060
5.698,-0.045,-0.070
5.700,0.070,-0.075
5.702,0.005,-0.075
5.704,-0.040,-0.070
5.706,-0.015,-0.060
5.708,0.035,-0.050
5.710,0.115,-0.035
5.712,0.100,-0.025
5.714,0.080,-0.020
5.716,0.005,-0.020
5.718,0.030,-0.030
5.720,0.045,-0.045
5.722,0.030,-0.065
5.724,-0.025,-0.090
5.726,-0.040,-0.105
5.728,-0.140,-0.115
5.730,-0.045,-0.115
5.732,-0.140,-0.105
5.734,0.005,-0.085
5.736,0.245,-0.060
5.738,0.065,-0.035
5.740,0.040,-0.015
5.742,0.040,0.000
5.744,0.020,0.005
5.746,0.035,0.000
5.748,0.045,-0.010
5.750,0.060,-0.025
5.752,0.040,-0.040
5.754,0.055,-0.055
5.756,0.055,-0.070
5.758,-0.065,-0.075
5.760,-0.010,-0.075
5.762,0.025,-0.070
5.764,0.045,-0.065
5.766,0.065,-0.055
5.768,0.025,-0.050
5.770,0.005,-0.045
5.772,-0.030,-0.040
5.774,0.015,-0.045
5.776,0.090,-0.050
5.778,-0.005,-0.055
5.780,0.050,-0.065
5.782,0.020,-0.075
5.784,-0.005,-0.080
5.786,-0.065,-0.085
5.788,-0.035,-0.090
5.790,-0.015,-0.090
5.792,-0.030,-0.085
5.794,0.025,-0.080
5.796,0.055,-0.075
5.798,0.010,-0.070
5.800,0.030,-0.065
5.802,0.035,-0.060
5.804,0.020,-0.065
5.806,-0.010,-0.070
5.808,-0.060,-0.080
5.810,-0.045,-0.090
5.812,-0.100,-0.100
5.814,0.000,-0.105
5.816,0.010,-0.110
5.818,0.020,-0.105
5.820,-0.125,-0.095
5.822,0.055,-0.080
5.824,0.040,-0.065
5.826,-0.045,-0.050
5.828,0.070,-0.035
5.830,0.095,-0.025
5.832,0.065,-0.020
5.834,0.080,-0.020
5.836,0.035,-0.025
5.838,0.000,-0.030
5.840,0.020,-0.040
5.842,0.015,-0.050
5.844,0.035,-0.060
5.846,0.095,-0.070
5.848,0.005,-0.075
5.850,-0.055,-0.075
5.852,-0.090,-0.080
5.854,0.000,-0.080
5.856,0.035,-0.075
5.858,-0.005,-0.075
5.860,0.040,-0.070
5.862,0.030,-0.065
5.864,0.025,-0.060
5.866,0.035,-0.055
5.868,0.040,-0.055
5.870,0.025,-0.050
5.872,0.000,-0.050
5.874,0.005,-0.055
5.876,0.000,-0.060
5.878,0.020,-0.070
5.880,0.000,-0.075
5.882,-0.035,-0.085
5.884,-0.075,-0.095
5.886,0.025,-0.100
5.888,-0.030,-0.105
5.890,-0.035,-0.105
5.892,-0.040,-0.100
5.894,-0.045,-0.095
5.896,-0.050,-0.085
5.898,0.010,-0.080
5.900,0.005,-0.070
5.902,0.000,-0.070
5.904,0.020,-0.065
5.906,0.065,-0.065
5.908,-0.005,-0.065
5.910,0.005,-0.065
5.912,0.025,-0.070
5.914,0.085,-0.070
5.916,-0.005,-0.070
5.918,-0.075,-0.065
5.920,-0.005,-0.060
5.922,0.020,-0.050
5.924,0.095,-0.045
5.926,0.060,-0.035
5.928,0.075,-0.030
5.930,0.040,-0.030
5.932,-0.010,-0.030
5.934,0.045,-0.035
5.936,0.040,-0.045
5.938,0.010,-0.050
5.940,0.035,-0.055
5.942,0.070,-0.050
5.944,0.000,-0.045
5.946,0.035,-0.035
5.948,0.115,-0.020
5.950,0.105,0.000
5.952,0.085,0.015
5.954,0.050,0.020
5.956,0.095,0.020
5.958,0.100,0.015
5.960,0.045,0.000
5.962,0.050,-0.020
5.964,0.105,-0.035
5.966,0.035,-0.050
5.968,-0.060,-0.055
5.970,-0.025,-0.055
5.972,0.070,-0.055
5.974,0.040,-0.045
5.976,0.080,-0.040
5.978,0.010,-0.040
5.980,0.000,-0.045
5.982,0.010,-0.055
5.984,-0.030,-0.065
5.986,0.015,-0.080
5.988,0.050,-0.090
5.990,-0.060,-0.095
5.992,-0.005,-0.090
5.994,0.020,-0.085
5.996,0.065,-0.080
5.998,-0.030,-0.070
6.000,-0.005,-0.070
6.002,0.005,-0.070
6.004,-0.015,-0.075
6.006,-0.020,-0.080
6.008,-0.055,-0.085
6.010,-0.020,-0.085
6.012,0.030,-0.085
6.014,0.000,-0.080
6.016,0.015,-0.070
6.018,-0.010,-0.060
6.020,0.025,-0.050
6.022,0.130,-0.050
6.024,0.035,-0.050
6.026,-0.065,-0.065
6.028,0.020,-0.080
6.030,-0.085,-0.100
6.032,-0.095,-0.125
6.034,-0.135,-0.140
6.036,-0.055,-0.155
6.038,-0.065,-0.165
6.040,-0.095,-0.165
6.042,-0.060,-0.150
6.044,-0.050,-0.125
6.046,0.005,-0.090
6.048,0.060,-0.040
6.050,0.095,0.020
6.052,0.180,0.095
6.054,0.080,0.180
6.056,0.350,0.265
6.058,0.590,0.355
6.060,0.545,0.440
6.062,0.590,0.515
6.064,0.655,0.570
6.066,0.695,0.600
6.068,0.645,0.600
6.070,0.715,0.565
6.072,0.665,0.500
6.074,0.475,0.405
6.076,0.325,0.290
6.078,0.255,0.160
6.080,0.015,0.035
6.082,-0.125,-0.080
6.084,-0.200,-0.165
6.086,-0.200,-0.225
6.088,-0.165,-0.250
6.090,-0.150,-0.240
6.092,-0.035,-0.205
6.094,-0.025,-0.160
6.096,-0.085,-0.115
6.098,0.015,-0.075
6.100,0.005,-0.050
6.102,-0.015,-0.045
6.104,0.020,-0.060
6.106,-0.015,-0.080
6.108,-0.060,-0.100
6.110,-0.025,-0.110
6.112,0.025,-0.110
6.114,0.010,-0.095
6.116,-0.020,-0.075
6.118,-0.030,-0.045
6.120,0.110,-0.020
6.122,0.080,-0.005
6.124,0.050,-0.005
6.126,0.025,-0.015
6.128,-0.015,-0.040
6.130,-0.030,-0.070
6.132,-0.080,-0.090
6.134,-0.050,-0.105
6.136,0.000,-0.105
6.138,0.030,-0.095
6.140,0.120,-0.070
6.142,0.055,-0.040
6.144,0.040,-0.015
6.146,-0.005,0.000
6.148,0.040,0.010
6.150,0.035,0.005
6.152,0.020,-0.010
6.154,0.080,-0.030
6.156,0.055,-0.045
6.158,0.005,-0.055
6.160,-0.010,-0.060
6.162,-0.005,-0.055
6.164,0.050,-0.045
6.166,0.080,-0.030
6.168,0.070,-0.020
6.170,0.015,-0.010
6.172,0.070,-0.010
6.174,-0.010,-0.015
6.176,0.040,-0.020
6.178,0.045,-0.030
6.180,0.015,-0.040
6.182,0.025,-0.045
6.184,0.120,-0.040
6.186,0.030,-0.035
6.188,0.030,-0.020
6.190,0.070,-0.010
6.192,0.090,0.005
6.194,0.110,0.020
6.196,0.100,0.025
6.198,0.040,0.030
6.200,0.085,0.030
6.202,0.135,0.030
6.204,0.110,0.025
6.206,0.110,0.025
6.208,0.105,0.025
6.210,0.050,0.025
6.212,0.070,0.030
6.214,0.060,0.035
6.216,0.055,0.040
6.218,0.180,0.045
6.220,0.145,0.050
6.222,0.085,0.055
6.224,0.120,0.060
6.226,0.105,0.060
6.228,0.115,0.065
6.230,0.195,0.070
6.232,0.215,0.075
6.234,0.135,0.080
6.236,0.145,0.090
6.238,0.175,0.100
6.240,0.225,0.110
6.242,0.150,0.115
6.244,0.125,0.125
6.246,0.190,0.130
6.248,0.185,0.135
6.250,0.230,0.140
6.252,0.245,0.145
6.254,0.195,0.150
6.256,0.220,0.160
6.258,0.280,0.170
6.260,0.250,0.180
6.262,0.220,0.190
6.264,0.225,0.200
6.266,0.220,0.215
6.268,0.330,0.230
6.270,0.355,0.245
6.272,0.385,0.265
6.274,0.355,0.280
6.276,0.375,0.300
6.278,0.435,0.320
6.280,0.365,0.335
6.282,0.335,0.340
6.284,0.455,0.345
6.286,0.440,0.340
6.288,0.400,0.330
6.290,0.345,0.310
6.292,0.275,0.290
6.294,0.310,0.270
6.296,0.295,0.255
6.298,0.350,0.240
6.300,0.390,0.235
6.302,0.305,0.230
6.304,0.325,0.230
6.306,0.330,0.235
6.308,0.225,0.235
6.310,0.225,0.225
6.312,0.270,0.215
6.314,0.345,0.200
6.316,0.295,0.180
6.318,0.210,0.155
6.320,0.130,0.130
6.322,0.205,0.110
6.324,0.200,0.090
6.326,0.025,0.080
6.328,0.090,0.075
6.330,0.250,0.070
6.332,0.155,0.070
6.334,0.100,0.070
6.336,0.120,0.065
6.338,0.105,0.065
6.340,0.145,0.060
6.342,0.085,0.050
6.344,0.120,0.045
6.346,0.145,0.035
6.348,0.025,0.025
6.350,0.085,0.020
6.352,0.130,0.010
6.354,0.155,0.005
6.356,0.045,0.005
6.358,0.075,0.000
6.360,0.030,-0.005
6.362,-0.035,-0.005
6.364,0.015,-0.015
6.366,0.020,-0.020
6.368,0.055,-0.030
6.370,0.075,-0.035
6.372,0.060,-0.045
6.374,-0.035,-0.050
6.376,0.010,-0.060
6.378,-0.065,-0.060
6.380,-0.005,-0.065
6.382,0.040,-0.065
6.384,-0.005,-0.065
6.386,-0.060,-0.070
6.388,0.025,-0.070
6.390,0.005,-0.075
6.392,-0.030,-0.080
6.394,-0.085,-0.085
6.396,-0.125,-0.090
6.398,-0.050,-0.095
6.400,0.050,-0.095
6.402,-0.005,-0.090
6.404,-0.010,-0.080
6.406,-0.035,-0.070
6.408,-0.025,-0.055
6.410,-0.020,-0.040
6.412,0.050,-0.030
6.414,0.125,-0.025
6.416,0.070,-0.025
6.418,0.020,-0.030
6.420,0.015,-0.040
6.422,0.005,-0.055
6.424,-0.065,-0.070
6.426,-0.065,-0.080
6.428,-0.050,-0.085
6.430,0.015,-0.085
6.432,0.025,-0.075
6.434,-0.040,-0.065
6.436,-0.025,-0.045
6.438,0.120,-0.030
6.440,0.045,-0.020
6.442,0.045,-0.015
6.444,0.005,-0.020
6.446,-0.020,-0.030
6.448,-0.025,-0.040
6.450,-0.045,-0.050
6.452,0.030,-0.060
6.454,0.050,-0.060
6.456,-0.040,-0.055
6.458,-0.020,-0.045
6.460,0.060,-0.030
6.462,0.090,-0.015
6.464,0.100,-0.005
6.466,0.095,0.005
6.468,0.075,0.005
6.470,0.065,0.000
6.472,0.020,-0.005
6.474,-0.060,-0.015
6.476,0.030,-0.025
6.478,0.015,-0.035
6.480,0.005,-0.040
6.482,-0.020,-0.040
6.484,-0.010,-0.040
6.486,0.115,-0.035
6.488,0.110,-0.035
6.490,0.010,-0.035
6.492,0.010,-0.035
6.494,-0.035,-0.035
6.496,-0.015,-0.035
6.498,-0.040,-0.035
6.500,-0.055,-0.030
6.502,0.105,-0.030
6.504,0.075,-0.025
6.506,0.055,-0.025
6.508,0.025,-0.025
6.510,0.030,-0.020
6.512,0.030,-0.025
6.514,-0.025,-0.025
6.516,0.030,-0.025
6.518,0.060,-0.030
6.520,0.040,-0.035
6.522,0.020,-0.035
6.524,-0.010,-0.040
6.526,-0.035,-0.045
6.528,-0.025,-0.050
6.530,-0.035,-0.055
6.532,-0.060,-0.060
6.534,0.040,-0.060
6.536,0.080,-0.055
6.538,0.060,-0.050
6.540,-0.050,-0.040
6.542,-0.040,-0.030
6.544,0.040,-0.020
6.546,0.100,-0.015
6.548,0.090,-0.015
6.550,-0.015,-0.020
6.552,-0.035,-0.030
6.554,-0.040,-0.040
6.556,-0.005,-0.050
6.558,0.010,-0.055
6.560,-0.055,-0.050
6.562,0.045,-0.045
6.564,0.095,-0.030
6.566,0.045,-0.015
6.568,0.060,-0.005
6.570,0.070,0.005
6.572,0.045,0.010
6.574,0.025,0.005
6.576,0.030,0.000
6.578,0.010,-0.015
6.580,0.045,-0.030
6.582,0.050,-0.045
6.584,-0.065,-0.055
6.586,-0.005,-0.065
6.588,0.030,-0.070
6.590,-0.010,-0.070
6.592,-0.040,-0.075
6.594,-0.050,-0.080
6.596,-0.060,-0.085
6.598,-0.060,-0.090
6.600,-0.120,-0.090
6.602,-0.065,-0.090
6.604,0.030,-0.080
6.606,0.035,-0.070
6.608,0.045,-0.055
6.610,-0.060,-0.040
6.612,0.030,-0.025
6.614,0.075,-0.020
6.616,0.095,-0.015
6.618,0.055,-0.020
6.620,-0.075,-0.025
6.622,-0.035,-0.035
6.624,-0.030,-0.045
6.626,0.030,-0.050
6.628,0.025,-0.050
6.630,0.060,-0.055
6.632,0.005,-0.055
6.634,-0.035,-0.055
6.636,-0.040,-0.055
6.638,-0.015,-0.060
6.640,-0.040,-0.065
6.642,0.020,-0.070
6.644,-0.025,-0.070
6.646,-0.060,-0.060
6.648,-0.035,-0.050
6.650,0.035,-0.035
6.652,0.110,-0.015
6.654,0.145,0.000
6.656,0.040,0.005
6.658,0.015,0.010
6.660,-0.025,0.000
6.662,0.005,-0.020
6.664,0.005,-0.045
6.666,-0.060,-0.070
6.668,-0.035,-0.090
6.670,-0.065,-0.100
6.672,-0.010,-0.105
6.674,0.000,-0.095
6.676,0.010,-0.080
6.678,-0.025,-0.060
6.680,-0.005,-0.040
6.682,0.005,-0.025
6.684,0.055,-0.015
6.686,0.020,-0.015
6.688,0.020,-0.025
6.690,-0.040,-0.035
6.692,-0.015,-0.050
6.694,-0.030,-0.065
6.696,0.015,-0.075
6.698,-0.025,-0.085
6.700,-0.070,-0.085
6.702,-0.060,-0.080
6.704,0.005,-0.075
6.706,0.025,-0.070
6.708,-0.040,-0.060
6.710,-0.080,-0.055
6.712,0.020,-0.050
6.714,0.000,-0.050
6.716,0.005,-0.055
6.718,-0.020,-0.060
6.720,-0.040,-0.065
6.722,-0.090,-0.075
6.724,-0.035,-0.080
6.726,0.030,-0.080
6.728,-0.040,-0.080
6.730,-0.120,-0.075
6.732,0.030,-0.065
6.734,0.085,-0.050
6.736,-0.015,-0.035
6.738,-0.080,-0.020
6.740,0.045,-0.010
6.742,0.060,-0.005
6.744,0.055,-0.005
6.746,0.015,-0.010
6.748,0.040,-0.020
6.750,0.025,-0.030
6.752,0.000,-0.035
6.754,-0.065,-0.045
6.756,-0.010,-0.045
6.758,-0.030,-0.045
6.760,-0.040,-0.040
6.762,0.025,-0.035
6.764,0.030,-0.030
6.766,0.020,-0.025
6.768,0.035,-0.020
6.770,0.050,-0.015
6.772,0.020,-0.010
6.774,0.040,-0.005
6.776,0.090,0.000
6.778,0.025,0.010
6.780,0.055,0.015
6.782,0.035,0.020
6.784,0.065,0.020
6.786,0.065,0.020
6.788,0.070,0.015
6.790,-0.010,0.005
6.792,0.035,0.000
6.794,0.020,-0.010
6.796,0.065,-0.020
6.798,0.000,-0.025
6.800,0.015,-0.025
6.802,0.065,-0.025
6.804,0.000,-0.025
6.806,0.020,-0.025
6.808,0.020,-0.030
6.810,0.065,-0.035
6.812,-0.035,-0.045
6.814,-0.025,-0.050
6.816,0.030,-0.060
6.818,-0.050,-0.070
6.820,-0.070,-0.070
6.822,-0.030,-0.070
6.824,-0.060,-0.065
6.826,-0.085,-0.055
6.828,0.015,-0.040
6.830,0.095,-0.030
6.832,0.050,-0.020
6.834,0.015,-0.015
6.836,0.020,-0.020
6.838,0.025,-0.030
6.840,0.005,-0.050
6.842,-0.080,-0.075
6.844,-0.155,-0.095
6.846,-0.080,-0.115
6.848,-0.025,-0.125
6.850,-0.055,-0.125
6.852,-0.120,-0.115
6.854,-0.005,-0.100
6.856,-0.070,-0.080
6.858,-0.135,-0.065
6.860,0.025,-0.060
6.862,0.005,-0.060
6.864,-0.090,-0.075
6.866,-0.075,-0.100
6.868,-0.060,-0.125
6.870,-0.060,-0.150
6.872,-0.165,-0.165
6.874,-0.155,-0.170
6.876,-0.175,-0.160
6.878,-0.205,-0.130
6.880,-0.045,-0.095
6.882,0.040,-0.045
6.884,0.095,0.010
6.886,0.155,0.070
6.888,0.205,0.135
6.890,0.230,0.205
6.892,0.360,0.280
6.894,0.430,0.355
6.896,0.460,0.435
6.898,0.575,0.510
6.900,0.625,0.575
6.902,0.600,0.615
6.904,0.695,0.625
6.906,0.735,0.600
6.908,0.660,0.545
6.910,0.515,0.455
6.912,0.380,0.340
6.914,0.220,0.220
6.916,0.100,0.100
6.918,-0.120,-0.010
6.920,-0.165,-0.095
6.922,-0.170,-0.155
6.924,-0.170,-0.185
6.926,-0.165,-0.195
6.928,-0.140,-0.190
6.930,-0.080,-0.170
6.932,-0.070,-0.150
6.934,-0.035,-0.130
6.936,-0.090,-0.110
6.938,-0.100,-0.095
6.940,-0.050,-0.085
6.942,-0.075,-0.075
6.944,-0.090,-0.075
6.946,-0.025,-0.070
6.948,0.005,-0.070
6.950,-0.020,-0.070
6.952,0.000,-0.070
6.954,0.010,-0.065
6.956,-0.080,-0.055
6.958,-0.065,-0.045
6.960,0.025,-0.035
6.962,0.040,-0.020
6.964,0.040,-0.010
6.966,0.025,-0.005
6.968,0.020,0.000
6.970,-0.045,-0.005
6.972,-0.035,-0.020
6.974,0.040,-0.035
6.976,-0.030,-0.050
6.978,0.010,-0.060
6.980,-0.005,-0.070
6.982,-0.015,-0.075
6.984,-0.070,-0.070
6.986,-0.025,-0.060
6.988,-0.065,-0.045
6.990,-0.045,-0.030
6.992,0.030,-0.020
6.994,0.095,-0.010
6.996,0.115,-0.005
6.998,-0.025,-0.005
7.000,0.060,-0.005
7.002,0.000,-0.005
7.004,-0.040,-0.010
7.006,0.000,-0.010
7.008,-0.010,-0.010
7.010,0.000,-0.010
7.012,0.005,-0.010
7.014,0.065,-0.010
7.016,0.060,-0.010
7.018,0.030,-0.010
7.020,-0.005,-0.010
7.022,0.020,-0.010
7.024,0.015,-0.010
7.026,-0.070,-0.005
7.028,0.040,0.000
7.030,0.090,0.005
7.032,0.120,0.010
7.034,0.120,0.015
7.036,0.005,0.020
7.038,0.025,0.020
7.040,0.060,0.020
7.042,0.010,0.020
7.044,-0.040,0.015
7.046,0.050,0.015
7.048,0.120,0.010
7.050,0.075,0.015
7.052,0.050,0.020
7.054,0.025,0.025
7.056,0.045,0.035
7.058,0.050,0.045
7.060,0.125,0.055
7.062,0.100,0.065
7.064,0.140,0.075
7.066,0.140,0.085
7.068,0.100,0.090
7.070,0.130,0.095
7.072,0.160,0.100
7.074,0.170,0.110
7.076,0.130,0.115
7.078,0.165,0.120
7.080,0.150,0.130
7.082,0.110,0.140
7.084,0.150,0.150
7.086,0.235,0.160
7.088,0.205,0.170
7.090,0.210,0.180
7.092,0.190,0.185
7.094,0.215,0.195
7.096,0.305,0.205
7.098,0.235,0.215
7.100,0.200,0.225
7.102,0.185,0.235
7.104,0.290,0.245
7.106,0.350,0.255
7.108,0.290,0.260
7.110,0.320,0.270
7.112,0.315,0.275
7.114,0.270,0.275
7.116,0.250,0.275
7.118,0.345,0.275
7.120,0.245,0.275
7.122,0.290,0.275
7.124,0.345,0.275
7.126,0.375,0.275
7.128,0.300,0.280
7.130,0.330,0.290
7.132,0.370,0.295
7.134,0.305,0.300
7.136,0.350,0.300
7.138,0.345,0.295
7.140,0.275,0.285
7.142,0.220,0.275
7.144,0.280,0.255
7.146,0.290,0.235
7.148,0.270,0.215
7.150,0.225,0.195
7.152,0.185,0.180
7.154,0.130,0.160
7.156,0.205,0.150
7.158,0.125,0.140
7.160,0.120,0.130
7.162,0.155,0.125
7.164,0.130,0.120
7.166,0.215,0.115
7.168,0.160,0.110
7.170,0.135,0.105
7.172,0.115,0.100
7.174,0.125,0.090
7.176,0.095,0.085
7.178,0.080,0.070
7.180,0.030,0.055
7.182,0.020,0.040
7.184,0.065,0.025
7.186,0.080,0.005
7.188,0.005,-0.010
7.190,-0.005,-0.025
7.192,-0.030,-0.035
7.194,-0.050,-0.045
7.196,-0.095,-0.050
7.198,-0.030,-0.050
7.200,-0.010,-0.050
7.202,0.010,-0.040
7.204,-0.010,-0.035
7.206,-0.020,-0.025
7.208,0.080,-0.020
7.210,0.005,-0.010
7.212,-0.065,-0.010
7.214,0.030,-0.010
7.216,-0.010,-0.015
7.218,0.000,-0.025
7.220,0.045,-0.040
7.222,-0.020,-0.055
7.224,-0.050,-0.075
7.226,-0.080,-0.090
7.228,-0.060,-0.105
7.230,-0.045,-0.115
7.232,-0.155,-0.115
7.234,-0.135,-0.115
7.236,-0.095,-0.115
7.238,-0.080,-0.105
7.240,0.000,-0.095
7.242,-0.025,-0.085
7.244,-0.030,-0.075
7.246,-0.025,-0.070
7.248,-0.005,-0.060
7.250,-0.075,-0.055
7.252,-0.075,-0.050
7.254,-0.005,-0.045
7.256,0.050,-0.040
7.258,0.010,-0.040
7.260,-0.020,-0.040
7.262,-0.025,-0.040
7.264,-0.005,-0.045
7.266,0.005,-0.050
7.268,-0.025,-0.055
7.270,-0.100,-0.065
7.272,-0.030,-0.065
7.274,-0.050,-0.070
7.276,-0.080,-0.070
7.278,-0.045,-0.065
7.280,-0.050,-0.060
7.282,-0.015,-0.050
7.284,0.030,-0.045
7.286,0.055,-0.035
7.288,0.040,-0.035
7.290,-0.065,-0.030
7.292,-0.045,-0.035
7.294,0.025,-0.040
7.296,0.025,-0.045
7.298,-0.085,-0.055
7.300,-0.105,-0.065
7.302,-0.050,-0.070
7.304,0.000,-0.070
7.306,-0.015,-0.065
7.308,0.060,-0.055
7.310,-0.015,-0.045
7.312,-0.025,-0.030
7.314,0.000,-0.015
7.316,-0.040,-0.005
7.318,-0.065,0.005
7.320,0.075,0.005
7.322,0.070,0.005
7.324,0.105,-0.005
7.326,0.020,-0.015
7.328,-0.040,-0.025
7.330,-0.050,-0.035
7.332,0.005,-0.045
7.334,0.005,-0.055
7.336,-0.050,-0.065
7.338,-0.055,-0.070
7.340,-0.035,-0.075
7.342,-0.040,-0.075
7.344,-0.085,-0.080
7.346,-0.025,-0.080
7.348,-0.020,-0.080
7.350,-0.055,-0.075
7.352,-0.125,-0.065
7.354,-0.140,-0.055
7.356,0.050,-0.045
7.358,0.085,-0.030
7.360,0.015,-0.025
7.362,-0.045,-0.015
7.364,0.015,-0.015
7.366,0.070,-0.015
7.368,-0.015,-0.020
7.370,0.015,-0.025
7.372,-0.010,-0.025
7.374,-0.040,-0.030
7.376,-0.050,-0.030
7.378,0.025,-0.030
7.380,0.010,-0.025
7.382,0.000,-0.025
7.384,0.010,-0.025
7.386,0.015,-0.025
7.388,0.000,-0.025
7.390,-0.070,-0.030
7.392,-0.045,-0.035
7.394,0.025,-0.040
7.396,0.005,-0.040
7.398,-0.060,-0.040
7.400,0.010,-0.035
7.402,0.000,-0.035
7.404,-0.010,-0.030
7.406,0.015,-0.025
7.408,-0.030,-0.020
7.410,-0.005,-0.020
7.412,0.000,-0.020
7.414,0.000,-0.025
7.416,-0.005,-0.035
7.418,-0.055,-0.045
7.420,-0.090,-0.060
7.422,-0.055,-0.070
7.424,-0.065,-0.080
7.426,-0.035,-0.090
7.428,-0.070,-0.090
7.430,-0.030,-0.090
7.432,0.015,-0.080
7.434,-0.065,-0.065
7.436,-0.010,-0.045
7.438,-0.060,-0.030
7.440,-0.035,-0.015
7.442,0.025,-0.010
7.444,0.050,-0.010
7.446,0.050,-0.020
7.448,0.075,-0.035
7.450,-0.025,-0.055
7.452,-0.090,-0.080
7.454,-0.105,-0.095
7.456,-0.100,-0.105
7.458,-0.080,-0.105
7.460,-0.135,-0.100
7.462,-0.075,-0.090
7.464,0.045,-0.070
7.466,0.020,-0.055
7.468,0.000,-0.045
7.470,-0.045,-0.035
7.472,-0.050,-0.035
7.474,-0.035,-0.035
7.476,-0.010,-0.045
7.478,-0.010,-0.050
7.480,-0.050,-0.055
7.482,-0.015,-0.060
7.484,-0.025,-0.065
7.486,-0.005,-0.065
7.488,-0.005,-0.065
7.490,-0.045,-0.065
7.492,-0.115,-0.065
7.494,-0.060,-0.065
7.496,-0.045,-0.070
7.498,-0.015,-0.070
7.500,-0.040,-0.070
7.502,0.040,-0.070
7.504,-0.045,-0.065
7.506,-0.085,-0.055
7.508,-0.085,-0.050
7.510,0.040,-0.040
7.512,0.060,-0.035
7.514,-0.050,-0.030
7.516,-0.045,-0.030
7.518,-0.085,-0.030
7.520,0.040,-0.040
7.522,0.080,-0.045
7.524,-0.025,-0.055
7.526,-0.065,-0.060
7.528,-0.035,-0.070
7.530,-0.070,-0.070
7.532,-0.130,-0.070
7.534,-0.185,-0.070
7.536,0.025,-0.065
7.538,0.075,-0.060
7.540,-0.020,-0.055
7.542,0.020,-0.050
7.544,-0.015,-0.045
7.546,-0.010,-0.040
7.548,-0.045,-0.045
7.550,-0.040,-0.050
7.552,-0.065,-0.055
7.554,-0.095,-0.065
7.556,-0.060,-0.075
7.558,-0.025,-0.080
7.560,-0.060,-0.085
7.562,-0.010,-0.080
7.564,-0.045,-0.075
7.566,-0.070,-0.070
7.568,-0.085,-0.060
7.570,0.015,-0.050
7.572,0.000,-0.040
7.574,-0.050,-0.035
7.576,0.010,-0.040
7.578,-0.040,-0.040
7.580,-0.050,-0.050
7.582,-0.040,-0.055
7.584,0.015,-0.060
7.586,-0.010,-0.065
7.588,-0.010,-0.070
7.590,0.000,-0.070
7.592,-0.070,-0.065
7.594,-0.155,-0.065
7.596,-0.070,-0.060
7.598,0.005,-0.055
7.600,0.055,-0.050
7.602,0.050,-0.045
7.604,-0.055,-0.035
7.606,-0.105,-0.025
7.608,0.065,-0.015
7.610,0.035,0.000
7.612,-0.045,0.010
7.614,0.070,0.020
7.616,0.055,0.030
7.618,0.020,0.035
7.620,0.010,0.040
7.622,0.155,0.040
7.624,0.105,0.040
7.626,0.065,0.040
7.628,-0.010,0.035
7.630,0.050,0.030
7.632,0.020,0.020
7.634,0.015,0.010
7.636,0.025,0.000
7.638,-0.030,-0.015
7.640,-0.025,-0.030
7.642,0.000,-0.045
7.644,-0.015,-0.060
7.646,0.000,-0.070
7.648,-0.045,-0.075
7.650,-0.095,-0.075
7.652,-0.060,-0.075
7.654,-0.075,-0.070
7.656,-0.025,-0.065
7.658,-0.045,-0.060
7.660,-0.050,-0.060
7.662,-0.025,-0.055
7.664,-0.015,-0.055
7.666,0.000,-0.055
7.668,-0.010,-0.060
7.670,-0.070,-0.060
7.672,-0.075,-0.065
7.674,-0.025,-0.065
7.676,-0.005,-0.070
7.678,0.025,-0.075
7.680,-0.025,-0.075
7.682,-0.105,-0.075
7.684,-0.130,-0.075
7.686,-0.075,-0.075
7.688,0.000,-0.075
7.690,0.000,-0.070
7.692,-0.020,-0.070
7.694,-0.055,-0.070
7.696,0.000,-0.075
7.698,-0.115,-0.085
7.700,-0.090,-0.095
7.702,-0.040,-0.115
7.704,-0.070,-0.135
7.706,-0.205,-0.155
7.708,-0.195,-0.170
7.710,-0.065,-0.185
7.712,-0.175,-0.185
7.714,-0.075,-0.170
7.716,-0.155,-0.145
7.718,-0.140,-0.100
7.720,-0.095,-0.040
7.722,0.000,0.035
7.724,0.295,0.120
7.726,0.370,0.220
7.728,0.345,0.320
7.730,0.420,0.420
7.732,0.510,0.505
7.734,0.670,0.580
7.736,0.655,0.625
7.738,0.690,0.645
7.740,0.685,0.625
7.742,0.655,0.575
7.744,0.520,0.485
7.746,0.345,0.375
7.748,0.260,0.245
7.750,0.160,0.110
7.752,0.000,-0.015
7.754,-0.130,-0.120
7.756,-0.285,-0.200
7.758,-0.340,-0.240
7.760,-0.270,-0.250
7.762,-0.150,-0.235
7.764,-0.040,-0.200
7.766,-0.030,-0.160
7.768,-0.060,-0.120
7.770,-0.120,-0.095
7.772,-0.145,-0.085
7.774,-0.115,-0.085
7.776,0.015,-0.095
7.778,-0.035,-0.105
7.780,-0.105,-0.110
7.782,-0.125,-0.105
7.784,-0.095,-0.090
7.786,-0.045,-0.065
7.788,0.095,-0.040
7.790,0.095,-0.015
7.792,0.070,0.000
7.794,0.015,0.005
7.796,-0.040,-0.005
7.798,-0.115,-0.020
7.800,-0.080,-0.035
7.802,0.035,-0.050
7.804,0.020,-0.060
7.806,0.005,-0.055
7.808,0.055,-0.050
7.810,0.030,-0.035
7.812,-0.070,-0.025
7.814,-0.110,-0.020
7.816,-0.020,-0.025
7.818,0.055,-0.035
7.820,0.005,-0.050
7.822,-0.070,-0.070
7.824,-0.025,-0.080
7.826,0.000,-0.085
7.828,-0.055,-0.075
7.830,-0.050,-0.055
7.832,0.055,-0.025
7.834,0.070,0.000
7.836,0.045,0.020
7.838,0.035,0.030
7.840,-0.030,0.025
7.842,-0.015,0.010
7.844,0.005,-0.010
7.846,0.045,-0.035
7.848,0.015,-0.060
7.850,-0.030,-0.075
7.852,-0.085,-0.080
7.854,-0.010,-0.075
7.856,-0.025,-0.065
7.858,-0.115,-0.050
7.860,-0.060,-0.035
7.862,0.090,-0.020
7.864,0.075,-0.005
7.866,0.055,0.005
7.868,0.045,0.015
7.870,0.030,0.025
7.872,0.065,0.030
7.874,0.085,0.040
7.876,0.070,0.045
7.878,0.035,0.045
7.880,0.125,0.040
7.882,0.100,0.035
7.884,0.020,0.025
7.886,-0.005,0.015
7.888,0.025,0.005
7.890,0.040,0.000
7.892,0.045,0.000
7.894,0.075,0.005
7.896,0.075,0.020
7.898,0.025,0.035
7.900,0.110,0.050
7.902,0.145,0.065
7.904,0.155,0.075
7.906,0.105,0.080
7.908,0.065,0.085
7.910,0.130,0.085
7.912,0.115,0.090
7.914,0.000,0.100
7.916,0.125,0.110
7.918,0.260,0.120
7.920,0.255,0.135
7.922,0.185,0.150
7.924,0.145,0.160
7.926,0.160,0.170
7.928,0.235,0.175
7.930,0.215,0.175
7.932,0.160,0.180
7.934,0.230,0.190
7.936,0.230,0.205
7.938,0.195,0.220
7.940,0.325,0.240
7.942,0.360,0.265
7.944,0.350,0.285
7.946,0.320,0.300
7.948,0.295,0.310
7.950,0.350,0.315
7.952,0.320,0.310
7.954,0.295,0.300
7.956,0.275,0.285
7.958,0.335,0.270
7.960,0.340,0.260
7.962,0.275,0.255
7.964,0.280,0.255
7.966,0.335,0.255
7.968,0.340,0.260
7.970,0.340,0.270
7.972,0.320,0.275
7.974,0.275,0.280
7.976,0.255,0.275
7.978,0.295,0.270
7.980,0.300,0.260
7.982,0.280,0.245
7.984,0.275,0.225
7.986,0.285,0.210
7.988,0.305,0.190
7.990,0.195,0.175
7.992,0.150,0.160
7.994,0.105,0.145
7.996,0.040,0.130
7.998,0.215,0.115
8.000,0.175,0.095
8.002,0.150,0.080
8.004,0.085,0.065
8.006,0.075,0.050
8.008,-0.035,0.040
8.010,0.095,0.035
8.012,0.085,0.035
8.014,0.035,0.030
8.016,0.060,0.030
8.018,0.145,0.025
8.020,0.090,0.015
8.022,0.005,0.005
8.024,0.000,-0.015
8.026,0.015,-0.030
8.028,-0.075,-0.050
8.030,-0.070,-0.060
8.032,-0.020,-0.065
8.034,0.015,-0.065
8.036,0.005,-0.055
8.038,0.030,-0.045
8.040,0.050,-0.040
8.042,0.000,-0.035
8.044,-0.025,-0.035
8.046,-0.040,-0.035
8.048,0.030,-0.040
8.050,-0.015,-0.050
8.052,-0.065,-0.055
8.054,-0.075,-0.055
8.056,0.020,-0.055
8.058,0.015,-0.055
8.060,-0.020,-0.050
8.062,-0.005,-0.050
8.064,0.025,-0.055
8.066,0.020,-0.060
8.068,-0.070,-0.070
8.070,-0.120,-0.080
8.072,-0.095,-0.090
8.074,-0.010,-0.095
8.076,0.010,-0.090
8.078,-0.010,-0.085
8.080,-0.050,-0.075
8.082,-0.060,-0.065
8.084,0.020,-0.055
8.086,0.010,-0.050
8.088,-0.025,-0.050
8.090,-0.010,-0.060
8.092,-0.060,-0.070
8.094,-0.105,-0.085
8.096,-0.085,-0.100
8.098,0.020,-0.105
8.100,-0.085,-0.105
8.102,0.000,-0.100
8.104,-0.010,-0.085
8.106,-0.020,-0.070
8.108,0.055,-0.050
8.110,-0.040,-0.040
8.112,-0.015,-0.030
8.114,0.025,-0.030
8.116,-0.040,-0.035
8.118,0.010,-0.045
8.120,0.050,-0.055
8.122,0.030,-0.070
8.124,-0.040,-0.075
8.126,-0.055,-0.075
8.128,-0.095,-0.075
8.130,-0.010,-0.070
8.132,0.000,-0.060
8.134,-0.070,-0.055
8.136,0.015,-0.050
8.138,0.010,-0.050
8.140,0.010,-0.050
8.142,0.020,-0.055
8.144,0.030,-0.055
8.146,0.010,-0.060
8.148,-0.150,-0.055
8.150,-0.060,-0.050
8.152,0.050,-0.045
8.154,0.030,-0.035
8.156,0.005,-0.025
8.158,0.040,-0.015
8.160,0.170,-0.010
8.162,-0.015,-0.010
8.164,0.005,-0.015
8.166,0.055,-0.025
8.168,0.010,-0.035
8.170,0.025,-0.045
8.172,-0.020,-0.060
8.174,-0.120,-0.065
8.176,-0.120,-0.070
8.178,0.005,-0.070
8.180,0.060,-0.060
8.182,0.045,-0.050
8.184,0.000,-0.035
8.186,0.045,-0.020
8.188,0.010,-0.010
8.190,-0.035,-0.005
8.192,0.040,-0.005
8.194,0.010,-0.015
8.196,0.005,-0.030
8.198,0.030,-0.045
8.200,0.035,-0.065
8.202,-0.060,-0.075
8.204,-0.040,-0.085
8.206,-0.030,-0.090
8.208,-0.075,-0.090
8.210,-0.015,-0.085
8.212,-0.030,-0.080
8.214,-0.015,-0.075
8.216,0.030,-0.075
8.218,0.020,-0.075
8.220,-0.075,-0.075
8.222,-0.075,-0.075
8.224,-0.045,-0.070
8.226,0.025,-0.060
8.228,0.010,-0.050
8.230,0.055,-0.035
8.232,0.065,-0.015
8.234,0.050,-0.005
8.236,0.015,0.005
8.238,0.035,0.005
8.240,0.030,-0.005
8.242,0.005,-0.015
8.244,0.065,-0.035
8.246,-0.005,-0.050
8.248,-0.065,-0.065
8.250,-0.120,-0.070
8.252,0.020,-0.070
8.254,0.050,-0.065
8.256,0.010,-0.055
8.258,0.040,-0.050
8.260,0.045,-0.045
8.262,-0.025,-0.045
8.264,-0.065,-0.050
8.266,-0.040,-0.060
8.268,-0.040,-0.075
8.270,-0.050,-0.085
8.272,-0.065,-0.095
8.274,-0.055,-0.095
8.276,0.005,-0.085
8.278,0.030,-0.070
8.280,0.055,-0.055
8.282,0.035,-0.035
8.284,-0.020,-0.015
8.286,0.020,-0.010
8.288,0.045,-0.010
8.290,0.020,-0.020
8.292,-0.015,-0.035
8.294,-0.040,-0.055
8.296,-0.020,-0.075
8.298,0.010,-0.090
8.300,-0.060,-0.100
8.302,-0.085,-0.095
8.304,-0.140,-0.085
8.306,-0.015,-0.070
8.308,0.100,-0.050
8.310,0.070,-0.030
8.312,0.015,-0.020
8.314,-0.045,-0.010
8.316,0.030,-0.010
8.318,0.030,-0.015
8.320,0.040,-0.025
8.322,0.005,-0.035
8.324,-0.005,-0.045
8.326,-0.035,-0.050
8.328,-0.070,-0.055
8.330,0.005,-0.060
8.332,0.025,-0.065
8.334,0.025,-0.065
8.336,0.010,-0.065
8.338,-0.050,-0.070
8.340,0.025,-0.070
8.342,-0.080,-0.075
8.344,-0.190,-0.075
8.346,-0.025,-0.080
8.348,0.095,-0.085
8.350,0.010,-0.090
8.352,-0.020,-0.095
8.354,-0.080,-0.095
8.356,-0.075,-0.095
8.358,-0.110,-0.095
8.360,-0.050,-0.085
8.362,0.025,-0.075
8.364,0.060,-0.060
8.366,0.015,-0.045
8.368,-0.010,-0.030
8.370,0.045,-0.020
8.372,0.060,-0.015
8.374,0.045,-0.015
8.376,0.045,-0.025
8.378,-0.015,-0.035
8.380,-0.080,-0.045
8.382,-0.100,-0.055
8.384,0.015,-0.065
8.386,0.030,-0.070
8.388,-0.020,-0.065
8.390,0.035,-0.060
8.392,0.025,-0.055
8.394,-0.050,-0.045
8.396,0.020,-0.035
8.398,0.075,-0.025
8.400,0.015,-0.020
8.402,-0.015,-0.020
8.404,-0.025,-0.020
8.406,0.055,-0.030
8.408,0.040,-0.045
8.410,0.005,-0.060
8.412,0.010,-0.075
8.414,-0.095,-0.095
8.416,-0.065,-0.105
8.418,-0.010,-0.110
8.420,-0.055,-0.105
8.422,-0.035,-0.090
8.424,-0.010,-0.065
8.426,-0.010,-0.040
8.428,0.085,-0.005
8.430,0.185,0.020
8.432,0.115,0.045
8.434,0.075,0.055
8.436,0.035,0.050
8.438,-0.005,0.040
8.440,0.110,0.025
8.442,0.095,0.005
8.444,0.055,-0.010
8.446,-0.010,-0.020
8.448,0.000,-0.025
8.450,0.055,-0.020
8.452,0.050,-0.010
8.454,0.025,0.000
8.456,0.155,0.010
8.458,0.085,0.010
8.460,0.025,0.005
8.462,0.055,0.000
8.464,-0.025,-0.015
8.466,0.005,-0.030
8.468,0.020,-0.040
8.470,0.000,-0.050
8.472,0.040,-0.050
8.474,0.030,-0.050
8.476,0.040,-0.045
8.478,-0.020,-0.045
8.480,0.000,-0.040
8.482,0.005,-0.040
8.484,-0.045,-0.040
8.486,0.010,-0.045
8.488,0.030,-0.045
8.490,0.055,-0.045
8.492,0.020,-0.045
8.494,-0.010,-0.040
8.496,0.020,-0.040
8.498,-0.005,-0.045
8.500,-0.065,-0.050
8.502,0.055,-0.055
8.504,0.035,-0.060
8.506,-0.065,-0.070
8.508,-0.060,-0.075
8.510,-0.020,-0.075
8.512,-0.045,-0.075
8.514,0.010,-0.070
8.516,0.045,-0.065
8.518,0.005,-0.070
8.520,0.030,-0.080
8.522,0.025,-0.095
8.524,-0.070,-0.115
8.526,-0.205,-0.140
8.528,-0.220,-0.165
8.530,-0.040,-0.175
8.532,-0.145,-0.180
8.534,-0.125,-0.165
8.536,-0.110,-0.135
8.538,-0.005,-0.095
8.540,0.065,-0.040
8.542,0.130,0.020
8.544,0.155,0.090
8.546,0.225,0.160
8.548,0.320,0.235
8.550,0.390,0.310
8.552,0.425,0.385
8.554,0.510,0.455
8.556,0.605,0.515
8.558,0.680,0.565
8.560,0.705,0.585
8.562,0.725,0.580
8.564,0.670,0.535
8.566,0.570,0.460
8.568,0.305,0.360
8.570,0.220,0.240
8.572,0.125,0.110
8.574,0.025,-0.005
8.576,-0.170,-0.105
8.578,-0.150,-0.170
8.580,-0.150,-0.210
8.582,-0.095,-0.215
8.584,-0.090,-0.200
8.586,-0.065,-0.170
8.588,-0.095,-0.135
8.590,-0.040,-0.105
8.592,-0.035,-0.090
8.594,-0.100,-0.080
8.596,-0.020,-0.080
8.598,-0.005,-0.085
8.600,-0.020,-0.085
8.602,-0.045,-0.080
8.604,-0.065,-0.070
8.606,-0.025,-0.050
8.608,0.095,-0.030
8.610,0.055,-0.010
8.612,0.145,0.005
8.614,0.080,0.010
8.616,0.020,0.005
8.618,-0.010,-0.010
8.620,-0.065,-0.030
8.622,0.010,-0.045
8.624,-0.015,-0.060
8.626,0.070,-0.065
8.628,-0.020,-0.060
8.630,0.080,-0.050
8.632,0.030,-0.030
8.634,0.000,-0.010
8.636,0.025,0.000
8.638,0.085,0.010
8.640,0.075,0.010
8.642,0.075,0.000
8.644,0.020,-0.010
8.646,-0.025,-0.030
8.648,-0.005,-0.045
8.650,0.045,-0.055
8.652,0.035,-0.060
8.654,-0.010,-0.055
8.656,0.040,-0.050
8.658,0.070,-0.035
8.660,-0.035,-0.025
8.662,0.020,-0.015
8.664,0.095,-0.005
8.666,0.045,0.000
8.668,0.040,0.000
8.670,0.080,0.000
8.672,0.075,-0.005
8.674,0.040,-0.005
8.676,0.030,0.000
8.678,0.095,0.005
8.680,0.105,0.010
8.682,0.040,0.020
8.684,0.075,0.025
8.686,0.200,0.030
8.688,0.100,0.030
8.690,0.035,0.030
8.692,0.060,0.025
8.694,0.105,0.020
8.696,0.040,0.015
8.698,0.060,0.005
8.700,0.100,0.005
8.702,0.125,0.005
8.704,0.085,0.005
8.706,0.090,0.015
8.708,0.100,0.025
8.710,0.085,0.045
8.712,0.115,0.060
8.714,0.165,0.075
8.716,0.140,0.090
8.718,0.165,0.105
8.720,0.215,0.110
8.722,0.220,0.115
8.724,0.085,0.110
8.726,0.175,0.105
8.728,0.195,0.100
8.730,0.195,0.090
8.732,0.110,0.085
8.734,0.050,0.085
8.736,0.100,0.090
8.738,0.200,0.105
8.740,0.270,0.120
8.742,0.225,0.140
8.744,0.200,0.160
8.746,0.265,0.180
8.748,0.235,0.200
8.750,0.225,0.210
8.752,0.300,0.215
8.754,0.265,0.215
8.756,0.285,0.215
8.758,0.325,0.210
8.760,0.290,0.210
8.762,0.275,0.215
8.764,0.270,0.225
8.766,0.315,0.235
8.768,0.250,0.250
8.770,0.220,0.270
8.772,0.410,0.285
8.774,0.455,0.300
8.776,0.390,0.310
8.778,0.330,0.320
8.780,0.380,0.325
8.782,0.375,0.325
8.784,0.345,0.320
8.786,0.430,0.320
8.788,0.440,0.315
8.790,0.305,0.315
8.792,0.325,0.310
8.794,0.425,0.310
8.796,0.380,0.305
8.798,0.420,0.305
8.800,0.390,0.300
8.802,0.300,0.290
8.804,0.295,0.275
8.806,0.305,0.255
8.808,0.320,0.235
8.810,0.300,0.210
8.812,0.235,0.185
8.814,0.240,0.165
8.816,0.190,0.145
8.818,0.175,0.130
8.820,0.180,0.125
8.822,0.135,0.120
8.824,0.220,0.120
8.826,0.150,0.120
8.828,0.140,0.120
8.830,0.190,0.110
8.832,0.185,0.095
8.834,0.180,0.070
8.836,0.065,0.040
8.838,0.030,0.010
8.840,-0.005,-0.020
8.842,-0.045,-0.045
8.844,-0.060,-0.060
8.846,-0.075,-0.065
8.848,0.060,-0.065
8.850,0.105,-0.055
8.852,0.015,-0.040
8.854,-0.005,-0.030
8.856,0.050,-0.025
8.858,0.080,-0.020
8.860,0.070,-0.025
8.862,0.065,-0.035
8.864,-0.040,-0.045
8.866,-0.025,-0.055
8.868,-0.030,-0.060
8.870,-0.010,-0.065
8.872,0.045,-0.060
8.874,0.035,-0.055
8.876,0.050,-0.050
8.878,0.005,-0.045
8.880,0.005,-0.045
8.882,0.035,-0.055
8.884,-0.015,-0.065
8.886,-0.060,-0.080
8.888,-0.045,-0.095
8.890,-0.025,-0.100
8.892,-0.070,-0.105
8.894,-0.075,-0.100
8.896,-0.015,-0.090
8.898,0.055,-0.075
8.900,0.080,-0.055
8.902,0.025,-0.040
8.904,-0.010,-0.025
8.906,-0.020,-0.015
8.908,-0.010,-0.015
8.910,0.000,-0.015
8.912,0.010,-0.020
8.914,0.130,-0.025
8.916,0.060,-0.030
8.918,0.085,-0.030
8.920,0.040,-0.030
8.922,0.035,-0.035
8.924,-0.020,-0.035
8.926,-0.090,-0.040
8.928,0.000,-0.045
8.930,0.045,-0.050
8.932,0.080,-0.060
8.934,0.015,-0.065
8.936,-0.010,-0.070
8.938,-0.010,-0.070
8.940,0.040,-0.065
8.942,-0.030,-0.060
8.944,-0.055,-0.050
8.946,-0.020,-0.040
8.948,0.050,-0.030
8.950,0.060,-0.025
8.952,0.045,-0.025
8.954,-0.010,-0.025
8.956,0.065,-0.030
8.958,0.030,-0.035
8.960,0.040,-0.040
8.962,0.025,-0.045
8.964,-0.045,-0.045
8.966,-0.035,-0.045
8.968,0.050,-0.040
8.970,0.020,-0.040
8.972,0.050,-0.040
8.974,0.020,-0.040
8.976,0.055,-0.045
8.978,0.010,-0.050
8.980,0.025,-0.055
8.982,-0.020,-0.055
8.984,0.010,-0.060
8.986,-0.065,-0.060
8.988,-0.100,-0.055
8.990,0.045,-0.055
8.992,0.065,-0.050
8.994,0.055,-0.045
8.996,-0.020,-0.040
8.998,-0.035,-0.035
9.000,0.015,-0.035
9.002,0.040,-0.030
9.004,0.100,-0.030
9.006,0.050,-0.030
9.008,0.060,-0.025
9.010,-0.025,-0.025
9.012,0.030,-0.030
9.014,0.075,-0.030
9.016,0.025,-0.030
9.018,-0.020,-0.035
9.020,0.005,-0.035
9.022,0.045,-0.035
9.024,0.050,-0.035
9.026,0.025,-0.035
9.028,-0.045,-0.030
9.030,0.015,-0.030
9.032,0.110,-0.025
9.034,0.030,-0.025
9.036,0.010,-0.030
9.038,-0.015,-0.035
9.040,0.035,-0.045
9.042,-0.005,-0.050
9.044,-0.040,-0.055
9.046,-0.015,-0.055
9.048,0.035,-0.055
9.050,0.005,-0.050
9.052,0.080,-0.040
9.054,0.060,-0.030
9.056,0.005,-0.020
9.058,0.025,-0.015
9.060,0.005,-0.015
9.062,-0.010,-0.025
9.064,0.000,-0.040
9.066,0.000,-0.055
9.068,-0.035,-0.075
9.070,-0.095,-0.085
9.072,0.000,-0.095
9.074,0.040,-0.100
9.076,-0.030,-0.100
9.078,-0.035,-0.090
9.080,-0.040,-0.075
9.082,0.010,-0.060
9.084,0.080,-0.045
9.086,0.030,-0.035
9.088,0.045,-0.025
9.090,-0.025,-0.025
9.092,-0.030,-0.030
9.094,0.030,-0.040
9.096,0.020,-0.050
9.098,-0.015,-0.065
9.100,-0.005,-0.080
9.102,-0.025,-0.090
9.104,-0.100,-0.095
9.106,0.025,-0.090
9.108,-0.035,-0.080
9.110,-0.045,-0.065
9.112,-0.080,-0.045
9.114,-0.010,-0.025
9.116,0.115,-0.010
9.118,0.105,0.000
9.120,0.095,0.000
9.122,0.050,-0.010
9.124,0.045,-0.025
9.126,-0.035,-0.040
9.128,-0.055,-0.060
9.130,-0.030,-0.070
9.132,-0.010,-0.075
9.134,-0.005,-0.075
9.136,-0.025,-0.065
9.138,-0.035,-0.050
9.140,0.080,-0.035
9.142,0.035,-0.030
9.144,-0.005,-0.025
9.146,0.020,-0.030
9.148,0.015,-0.040
9.150,0.045,-0.050
9.152,-0.040,-0.065
9.154,-0.050,-0.075
9.156,-0.070,-0.080
9.158,0.010,-0.080
9.160,0.035,-0.075
9.162,-0.020,-0.070
9.164,-0.060,-0.070
9.166,0.020,-0.070
9.168,-0.020,-0.075
9.170,-0.055,-0.080
9.172,-0.075,-0.090
9.174,-0.030,-0.100
9.176,-0.100,-0.105
9.178,-0.035,-0.105
9.180,0.025,-0.100
9.182,-0.040,-0.090
9.184,0.005,-0.075
9.186,0.050,-0.065
9.188,-0.025,-0.055
9.190,-0.010,-0.045
9.192,0.010,-0.040
9.194,0.040,-0.040
9.196,-0.005,-0.040
9.198,0.075,-0.045
9.200,-0.010,-0.050
9.202,-0.025,-0.055
9.204,-0.090,-0.065
9.206,0.010,-0.075
9.208,-0.030,-0.085
9.210,-0.005,-0.090
9.212,-0.055,-0.095
9.214,-0.100,-0.100
9.216,-0.070,-0.100
9.218,-0.005,-0.090
9.220,0.055,-0.080
9.222,0.050,-0.070
9.224,0.010,-0.055
9.226,-0.005,-0.045
9.228,-0.040,-0.040
9.230,-0.015,-0.040
9.232,-0.040,-0.045
9.234,0.010,-0.050
9.236,0.010,-0.055
9.238,0.090,-0.060
9.240,0.040,-0.060
9.242,-0.090,-0.050
9.244,0.000,-0.040
9.246,0.010,-0.020
9.248,0.000,-0.005
9.250,0.145,0.015
9.252,0.110,0.025
9.254,0.040,0.030
9.256,0.075,0.025
9.258,0.090,0.020
9.260,0.060,0.005
9.262,0.025,-0.005
9.264,-0.020,-0.015
9.266,-0.045,-0.025
9.268,0.015,-0.030
9.270,0.015,-0.030
9.272,0.070,-0.030
9.274,0.120,-0.025
9.276,0.080,-0.025
9.278,0.005,-0.025
9.280,-0.035,-0.030
9.282,-0.040,-0.035
9.284,-0.020,-0.045
9.286,-0.025,-0.055
9.288,0.000,-0.065
9.290,0.055,-0.070
9.292,0.030,-0.075
9.294,-0.010,-0.075
9.296,-0.010,-0.075
9.298,-0.120,-0.070
9.300,-0.005,-0.060
9.302,0.005,-0.055
9.304,0.000,-0.050
9.306,-0.015,-0.050
9.308,-0.025,-0.055
9.310,-0.045,-0.065
9.312,0.005,-0.075
9.314,0.000,-0.085
9.316,-0.085,-0.100
9.318,-0.060,-0.105
9.320,-0.065,-0.110
9.322,-0.095,-0.105
9.324,-0.030,-0.095
9.326,-0.015,-0.085
9.328,-0.040,-0.080
9.330,0.000,-0.075
9.332,-0.025,-0.080
9.334,0.015,-0.090
9.336,-0.020,-0.110
9.338,-0.160,-0.135
9.340,-0.230,-0.165
9.342,-0.150,-0.185
9.344,-0.080,-0.195
9.346,-0.135,-0.195
9.348,-0.110,-0.180
9.350,-0.075,-0.150
9.352,-0.040,-0.100
9.354,0.015,-0.045
9.356,-0.020,0.020
9.358,0.120,0.085
9.360,0.285,0.155
9.362,0.330,0.225
9.364,0.370,0.300
9.366,0.375,0.370
9.368,0.465,0.440
9.370,0.575,0.500
9.372,0.685,0.550
9.374,0.665,0.580
9.376,0.620,0.580
9.378,0.655,0.550
9.380,0.550,0.485
9.382,0.415,0.390
9.384,0.285,0.270
9.386,0.180,0.140
9.388,0.030,0.010
9.390,-0.130,-0.100
9.392,-0.190,-0.190
9.394,-0.250,-0.250
9.396,-0.290,-0.280
9.398,-0.175,-0.280
9.400,-0.215,-0.255
9.402,-0.205,-0.220
9.404,-0.065,-0.185
9.406,-0.175,-0.145
9.408,-0.025,-0.115
9.410,-0.045,-0.095
9.412,0.045,-0.080
9.414,-0.070,-0.070
9.416,-0.100,-0.065
9.418,0.015,-0.060
9.420,-0.025,-0.055
9.422,0.030,-0.055
9.424,-0.025,-0.050
9.426,-0.040,-0.050
9.428,0.020,-0.055
9.430,0.040,-0.055
9.432,-0.010,-0.065
9.434,-0.020,-0.070
9.436,0.000,-0.075
9.438,-0.035,-0.080
9.440,-0.020,-0.085
9.442,-0.135,-0.090
9.444,-0.085,-0.090
9.446,-0.030,-0.090
9.448,0.040,-0.080
9.450,0.020,-0.070
9.452,0.020,-0.060
9.454,0.005,-0.045
9.456,0.045,-0.030
9.458,0.060,-0.015
9.460,-0.020,-0.010
9.462,-0.055,-0.005
9.464,0.090,-0.005
9.466,0.030,-0.010
9.468,-0.045,-0.015
9.470,0.075,-0.025
9.472,0.055,-0.030
9.474,0.060,-0.030
9.476,0.020,-0.025
9.478,-0.050,-0.020
9.480,-0.055,-0.015
9.482,0.125,-0.005
9.484,0.060,0.000
9.486,0.010,0.000
9.488,0.050,0.000
9.490,-0.005,-0.005
9.492,0.115,-0.005
9.494,0.025,-0.010
9.496,0.000,-0.005
9.498,-0.040,-0.005
9.500,0.070,0.005
9.502,0.145,0.010
9.504,0.015,0.020
9.506,0.070,0.020
9.508,0.090,0.020
9.510,-0.025,0.020
9.512,0.095,0.015
9.514,0.075,0.005
9.516,0.020,0.000
9.518,0.055,-0.005
9.520,0.050,-0.005
9.522,-0.025,-0.005
9.524,0.040,0.000
9.526,0.035,0.010
9.528,0.130,0.025
9.530,0.095,0.040
9.532,0.080,0.055
9.534,0.070,0.075
9.536,0.105,0.090
9.538,0.240,0.105
9.540,0.195,0.120
9.542,0.135,0.125
9.544,0.160,0.130
9.546,0.115,0.130
9.548,0.215,0.125
9.550,0.185,0.115
9.552,0.110,0.105
9.554,0.060,0.090
9.556,0.130,0.085
9.558,0.135,0.080
9.560,0.185,0.090
9.562,0.060,0.105
9.564,0.135,0.125
9.566,0.260,0.155
9.568,0.240,0.185
9.570,0.295,0.215
9.572,0.305,0.240
9.574,0.290,0.260
9.576,0.310,0.270
9.578,0.285,0.275
9.580,0.300,0.270
9.582,0.295,0.265
9.584,0.315,0.255
9.586,0.290,0.255
9.588,0.290,0.255
9.590,0.285,0.260
9.592,0.310,0.270
9.594,0.380,0.285
9.596,0.390,0.300
9.598,0.310,0.310
9.600,0.365,0.320
9.602,0.395,0.320
9.604,0.370,0.320
9.606,0.300,0.310
9.608,0.375,0.300
9.610,0.255,0.285
9.612,0.270,0.270
9.614,0.340,0.250
9.616,0.310,0.230
9.618,0.270,0.210
9.620,0.260,0.195
9.622,0.210,0.175
9.624,0.195,0.160
9.626,0.100,0.145
9.628,0.065,0.135
9.630,0.185,0.130
9.632,0.190,0.125
9.634,0.200,0.120
9.636,0.135,0.115
9.638,0.095,0.110
9.640,0.225,0.105
9.642,0.075,0.090
9.644,0.040,0.075
9.646,0.165,0.060
9.648,0.060,0.045
9.650,0.030,0.030
9.652,0.000,0.015
9.654,0.075,0.005
9.656,0.060,0.000
9.658,-0.005,0.000
9.660,0.035,-0.005
9.662,0.010,-0.010
9.664,0.040,-0.010
9.666,0.020,-0.020
9.668,0.050,-0.030
9.670,0.015,-0.040
9.672,-0.110,-0.050
9.674,-0.075,-0.060
9.676,0.030,-0.070
9.678,-0.035,-0.075
9.680,-0.035,-0.075
9.682,-0.065,-0.070
9.684,-0.060,-0.060
9.686,-0.035,-0.050
9.688,0.045,-0.040
9.690,0.045,-0.035
9.692,0.015,-0.035
9.694,0.005,-0.035
9.696,-0.060,-0.045
9.698,-0.085,-0.055
9.700,-0.010,-0.070
9.702,-0.045,-0.085
9.704,-0.095,-0.095
9.706,-0.190,-0.100
9.708,-0.030,-0.100
9.710,0.035,-0.095
9.712,-0.035,-0.085
9.714,0.005,-0.070
9.716,-0.020,-0.060
9.718,-0.045,-0.045
9.720,-0.105,-0.040
9.722,0.010,-0.035
9.724,0.010,-0.035
9.726,-0.055,-0.040
9.728,0.030,-0.045
9.730,-0.010,-0.050
9.732,-0.035,-0.050
9.734,0.005,-0.050
9.736,0.030,-0.045
9.738,0.030,-0.035
9.740,-0.040,-0.030
9.742,-0.075,-0.030
9.744,0.020,-0.030
9.746,0.045,-0.035
9.748,-0.020,-0.040
9.750,-0.025,-0.045
9.752,-0.015,-0.050
9.754,-0.030,-0.050
9.756,0.000,-0.045
9.758,-0.060,-0.040
9.760,0.025,-0.025
9.762,0.005,-0.020
9.764,-0.065,-0.010
9.766,0.085,-0.010
9.768,0.125,-0.020
9.770,-0.025,-0.035
9.772,-0.070,-0.050
9.774,-0.080,-0.070
9.776,-0.120,-0.085
9.778,-0.090,-0.095
9.780,-0.060,-0.095
9.782,0.000,-0.095
9.784,0.015,-0.090
9.786,0.000,-0.080
9.788,-0.025,-0.070
9.790,-0.085,-0.065
9.792,-0.190,-0.060
9.794,-0.100,-0.055
9.796,0.020,-0.050
9.798,0.005,-0.045
9.800,0.005,-0.040
9.802,0.065,-0.030
9.804,0.030,-0.015
9.806,0.050,0.000
9.808,0.005,0.015
9.810,0.010,0.025
9.812,0.075,0.030
9.814,0.045,0.030
9.816,0.020,0.020
9.818,0.040,0.010
9.820,0.045,0.000
9.822,0.000,-0.015
9.824,0.020,-0.030
9.826,-0.005,-0.035
9.828,-0.055,-0.045
9.830,-0.080,-0.045
9.832,-0.035,-0.045
9.834,0.000,-0.040
9.836,0.020,-0.030
9.838,0.025,-0.025
9.840,-0.055,-0.020
9.842,0.025,-0.010
9.844,0.045,-0.010
9.846,0.035,-0.010
9.848,0.010,-0.010
9.850,-0.045,-0.020
9.852,-0.010,-0.030
9.854,-0.035,-0.040
9.856,-0.080,-0.055
9.858,-0.025,-0.065
9.860,-0.015,-0.070
9.862,-0.065,-0.075
9.864,-0.035,-0.075
9.866,-0.015,-0.070
9.868,-0.090,-0.060
9.870,-0.010,-0.055
9.872,-0.005,-0.050
9.874,-0.015,-0.050
9.876,0.015,-0.045
9.878,-0.060,-0.045
9.880,-0.045,-0.045
9.882,-0.075,-0.045
9.884,0.030,-0.035
9.886,0.045,-0.030
9.888,0.000,-0.020
9.890,0.040,-0.015
9.892,0.010,-0.010
9.894,-0.010,-0.015
9.896,-0.080,-0.030
9.898,-0.085,-0.045
9.900,-0.035,-0.060
9.902,-0.030,-0.075
9.904,-0.085,-0.080
9.906,-0.055,-0.080
9.908,-0.050,-0.065
9.910,0.020,-0.045
9.912,0.040,-0.025
9.914,-0.015,-0.005
9.916,0.055,0.005
9.918,0.060,0.010
9.920,0.000,0.000
9.922,-0.070,-0.020
9.924,-0.015,-0.045
9.926,-0.030,-0.070
9.928,-0.085,-0.090
9.930,-0.080,-0.105
9.932,-0.070,-0.105
9.934,-0.100,-0.100
9.936,-0.120,-0.090
9.938,-0.045,-0.075
9.940,0.030,-0.060
9.942,-0.030,-0.050
9.944,-0.095,-0.040
9.946,-0.050,-0.030
9.948,0.040,-0.025
9.950,0.070,-0.020
9.952,0.070,-0.015
9.954,-0.035,-0.015
9.956,-0.095,-0.015
9.958,-0.025,-0.020
9.960,0.055,-0.030
9.962,-0.055,-0.045
9.964,0.000,-0.060
9.966,-0.060,-0.075
9.968,-0.125,-0.090
9.970,-0.065,-0.095
9.972,-0.055,-0.095
9.974,-0.040,-0.085
9.976,-0.085,-0.075
9.978,-0.025,-0.060
9.980,0.030,-0.045
9.982,-0.030,-0.030
9.984,-0.060,-0.025
9.986,-0.065,-0.025
9.988,0.000,-0.025
9.990,0.015,-0.025
9.992,-0.050,-0.030
9.994,-0.025,-0.025
9.996,0.025,-0.025
9.998,0.080,-0.020
