'Elapsed time','ECG I','ECG I filtered'
'seconds','mV','mV'
0.000,-0.220,-0.140
0.002,-0.175,-0.055
0.004,-0.125,0.000
0.006,0.030,0.040
0.008,0.025,0.055
0.010,0.125,0.045
0.012,0.000,0.015
0.014,-0.130,-0.015
0.016,-0.350,-0.045
0.018,-0.235,-0.065
0.020,-0.160,-0.065
0.022,-0.115,-0.055
0.024,-0.100,-0.030
0.026,0.010,-0.010
0.028,0.065,0.010
0.030,0.055,0.020
0.032,-0.025,0.015
0.034,-0.115,0.000
0.036,-0.325,-0.020
0.038,-0.235,-0.035
0.040,-0.175,-0.045
0.042,-0.150,-0.045
0.044,-0.055,-0.035
0.046,0.020,-0.020
0.048,0.110,-0.005
0.050,0.110,0.005
0.052,-0.050,0.010
0.054,-0.155,0.010
0.056,-0.355,0.000
0.058,-0.215,-0.010
0.060,-0.175,-0.020
0.062,-0.160,-0.025
0.064,-0.020,-0.025
0.066,0.000,-0.015
0.068,0.105,-0.005
0.070,0.110,0.005
0.072,-0.025,0.015
0.074,-0.120,0.020
0.076,-0.345,0.015
0.078,-0.165,0.010
0.080,-0.175,0.005
0.082,-0.185,-0.005
0.084,-0.015,-0.010
0.086,0.025,-0.015
0.088,0.105,-0.015
0.090,0.105,-0.015
0.092,-0.025,-0.015
0.094,-0.165,-0.010
0.096,-0.325,-0.010
0.098,-0.280,-0.015
0.100,-0.205,-0.015
0.102,-0.145,-0.015
0.104,0.010,-0.015
0.106,0.070,-0.015
0.108,0.075,-0.015
0.110,0.055,-0.010
0.112,-0.065,-0.010
0.114,-0.175,-0.005
0.116,-0.335,-0.005
0.118,-0.205,-0.005
0.120,-0.190,-0.010
0.122,-0.145,-0.010
0.124,-0.040,-0.010
0.126,-0.010,-0.010
0.128,0.125,-0.010
0.130,0.085,-0.010
0.132,-0.035,-0.010
0.134,-0.205,-0.010
0.136,-0.370,-0.010
0.138,-0.205,-0.015
0.140,-0.145,-0.015
0.142,-0.125,-0.020
0.144,-0.065,-0.025
0.146,-0.010,-0.030
0.148,0.105,-0.030
0.150,0.080,-0.025
0.152,-0.040,-0.020
0.154,-0.245,-0.015
0.156,-0.365,-0.010
0.158,-0.180,-0.010
0.160,-0.180,-0.010
0.162,-0.125,-0.010
0.164,-0.045,-0.010
0.166,0.000,-0.010
0.168,0.145,-0.010
0.170,0.050,-0.005
0.172,-0.045,0.000
0.174,-0.190,0.005
0.176,-0.320,0.015
0.178,-0.170,0.020
0.180,-0.135,0.025
0.182,-0.110,0.025
0.184,0.015,0.025
0.186,0.055,0.020
0.188,0.225,0.020
0.190,0.090,0.015
0.192,-0.030,0.020
0.194,-0.220,0.020
0.196,-0.305,0.025
0.198,-0.185,0.030
0.200,-0.075,0.035
0.202,0.000,0.040
0.204,0.055,0.040
0.206,0.010,0.035
0.208,0.210,0.030
0.210,0.040,0.025
0.212,0.000,0.020
0.214,-0.235,0.010
0.216,-0.260,0.005
0.218,-0.135,0.000
0.220,-0.175,-0.005
0.222,-0.085,-0.010
0.224,-0.050,-0.015
0.226,-0.040,-0.025
0.228,0.105,-0.030
0.230,-0.010,-0.040
0.232,-0.100,-0.045
0.234,-0.265,-0.045
0.236,-0.310,-0.045
0.238,-0.200,-0.040
0.240,-0.160,-0.040
0.242,-0.115,-0.035
0.244,-0.080,-0.040
0.246,-0.065,-0.040
0.248,0.100,-0.050
0.250,-0.025,-0.055
0.252,-0.085,-0.065
0.254,-0.320,-0.070
0.256,-0.300,-0.070
0.258,-0.215,-0.065
0.260,-0.200,-0.065
0.262,-0.115,-0.060
0.264,-0.015,-0.055
0.266,-0.025,-0.055
0.268,0.095,-0.060
0.270,-0.095,-0.065
0.272,-0.135,-0.070
0.274,-0.350,-0.070
0.276,-0.290,-0.075
0.278,-0.195,-0.070
0.280,-0.150,-0.065
0.282,-0.135,-0.055
0.284,-0.055,-0.050
0.286,-0.015,-0.045
0.288,0.100,-0.045
0.290,-0.035,-0.050
0.292,-0.080,-0.055
0.294,-0.350,-0.065
0.296,-0.260,-0.070
0.298,-0.205,-0.070
0.300,-0.215,-0.070
0.302,-0.135,-0.065
0.304,-0.100,-0.060
0.306,0.015,-0.060
0.308,0.110,-0.060
0.310,-0.060,-0.075
0.312,-0.175,-0.090
0.314,-0.415,-0.110
0.316,-0.330,-0.130
0.318,-0.310,-0.145
0.320,-0.285,-0.140
0.322,-0.180,-0.125
0.324,-0.100,-0.085
0.326,0.055,-0.025
0.328,0.205,0.055
0.330,0.165,0.140
0.332,0.185,0.240
0.334,0.070,0.335
0.336,0.215,0.430
0.338,0.385,0.515
0.340,0.455,0.585
0.342,0.595,0.635
0.344,0.770,0.670
0.346,0.860,0.680
0.348,0.815,0.660
0.350,0.605,0.620
0.352,0.435,0.555
0.354,0.160,0.470
0.356,0.140,0.370
0.358,0.075,0.270
0.360,-0.020,0.170
0.362,0.040,0.085
0.364,0.020,0.015
0.366,0.100,-0.030
0.368,0.090,-0.055
0.370,-0.085,-0.065
0.372,-0.195,-0.060
0.374,-0.390,-0.055
0.376,-0.230,-0.045
0.378,-0.220,-0.040
0.380,-0.180,-0.045
0.382,-0.065,-0.045
0.384,-0.055,-0.050
0.386,0.095,-0.055
0.388,0.065,-0.050
0.390,-0.075,-0.045
0.392,-0.205,-0.035
0.394,-0.385,-0.025
0.396,-0.190,-0.015
0.398,-0.170,-0.015
0.400,-0.145,-0.020
0.402,0.010,-0.035
0.404,-0.070,-0.050
0.406,0.070,-0.060
0.408,0.065,-0.070
0.410,-0.095,-0.070
0.412,-0.245,-0.065
0.414,-0.335,-0.050
0.416,-0.200,-0.035
0.418,-0.170,-0.015
0.420,-0.120,-0.005
0.422,-0.040,0.000
0.424,-0.005,0.000
0.426,0.125,-0.010
0.428,0.100,-0.015
0.430,-0.035,-0.025
0.432,-0.235,-0.030
0.434,-0.370,-0.030
0.436,-0.225,-0.030
0.438,-0.195,-0.025
0.440,-0.130,-0.025
0.442,0.000,-0.020
0.444,0.030,-0.020
0.446,0.100,-0.020
0.448,0.055,-0.020
0.450,-0.070,-0.020
0.452,-0.160,-0.020
0.454,-0.325,-0.020
0.456,-0.160,-0.020
0.458,-0.235,-0.015
0.460,-0.160,-0.015
0.462,-0.025,-0.020
0.464,0.000,-0.020
0.466,0.165,-0.020
0.468,0.090,-0.020
0.470,-0.055,-0.015
0.472,-0.200,-0.005
0.474,-0.310,0.000
0.476,-0.165,0.005
0.478,-0.180,0.010
0.480,-0.115,0.005
0.482,-0.010,0.000
0.484,-0.005,-0.010
0.486,0.145,-0.020
0.488,0.070,-0.025
0.490,-0.045,-0.025
0.492,-0.260,-0.025
0.494,-0.320,-0.015
0.496,-0.185,-0.005
0.498,-0.160,0.005
0.500,-0.070,0.015
0.502,0.005,0.015
0.504,0.000,0.015
0.506,0.170,0.015
0.508,0.090,0.010
0.510,-0.025,0.005
0.512,-0.225,0.005
0.514,-0.275,0.010
0.516,-0.130,0.020
0.518,-0.150,0.025
0.520,-0.065,0.035
0.522,0.030,0.040
0.524,0.045,0.040
0.526,0.215,0.040
0.528,0.080,0.035
0.530,-0.015,0.035
0.532,-0.260,0.030
0.534,-0.210,0.030
0.536,-0.095,0.035
0.538,-0.090,0.040
0.540,-0.045,0.040
0.542,0.010,0.045
0.544,0.070,0.050
0.546,0.235,0.055
0.548,0.095,0.060
0.550,-0.015,0.065
0.552,-0.205,0.070
0.554,-0.115,0.080
0.556,-0.055,0.090
0.558,-0.060,0.095
0.560,0.000,0.095
0.562,0.070,0.095
0.564,0.160,0.090
0.566,0.240,0.085
0.568,0.105,0.080
0.570,0.020,0.080
0.572,-0.190,0.080
0.574,-0.140,0.090
0.576,-0.055,0.100
0.578,-0.015,0.115
0.580,0.035,0.130
0.582,0.115,0.140
0.584,0.160,0.140
0.586,0.275,0.140
0.588,0.155,0.130
0.590,0.075,0.120
0.592,-0.165,0.110
0.594,-0.095,0.100
0.596,-0.075,0.100
0.598,-0.010,0.105
0.600,0.055,0.110
0.602,0.160,0.120
0.604,0.155,0.125
0.606,0.255,0.135
0.608,0.145,0.140
0.610,0.065,0.140
0.612,-0.180,0.135
0.614,-0.085,0.130
0.616,0.005,0.125
0.618,0.005,0.115
0.620,0.065,0.110
0.622,0.075,0.100
0.624,0.140,0.090
0.626,0.225,0.080
0.628,0.075,0.075
0.630,0.020,0.070
0.632,-0.215,0.065
0.634,-0.115,0.065
0.636,-0.130,0.065
0.638,-0.060,0.065
0.640,0.005,0.065
0.642,0.035,0.060
0.644,0.140,0.055
0.646,0.195,0.040
0.648,0.060,0.030
0.650,-0.055,0.020
0.652,-0.305,0.005
0.654,-0.265,0.000
0.656,-0.160,-0.005
0.658,-0.125,-0.010
0.660,-0.070,-0.010
0.662,0.020,-0.010
0.664,0.115,-0.010
0.666,0.150,-0.010
0.668,-0.010,-0.010
0.670,-0.140,-0.015
0.672,-0.360,-0.015
0.674,-0.215,-0.015
0.676,-0.165,-0.015
0.678,-0.160,-0.015
0.680,-0.040,-0.015
0.682,-0.005,-0.015
0.684,0.150,-0.020
0.686,0.105,-0.025
0.688,-0.105,-0.035
0.690,-0.150,-0.040
0.692,-0.350,-0.050
0.694,-0.290,-0.055
0.696,-0.195,-0.055
0.698,-0.160,-0.050
0.700,-0.040,-0.045
0.702,-0.020,-0.040
0.704,0.095,-0.035
0.706,0.075,-0.030
0.708,-0.025,-0.030
0.710,-0.190,-0.030
0.712,-0.370,-0.030
0.714,-0.255,-0.035
0.716,-0.185,-0.040
0.718,-0.135,-0.045
0.720,-0.065,-0.045
0.722,-0.030,-0.045
0.724,0.080,-0.040
0.726,0.045,-0.035
0.728,-0.065,-0.030
0.730,-0.225,-0.025
0.732,-0.335,-0.020
0.734,-0.190,-0.020
0.736,-0.220,-0.025
0.738,-0.105,-0.030
0.740,-0.020,-0.035
0.742,0.020,-0.045
0.744,0.055,-0.045
0.746,0.040,-0.045
0.748,-0.085,-0.045
0.750,-0.230,-0.040
0.752,-0.390,-0.035
0.754,-0.200,-0.030
0.756,-0.170,-0.025
0.758,-0.120,-0.020
0.760,-0.050,-0.020
0.762,-0.050,-0.020
0.764,0.140,-0.020
0.766,0.070,-0.020
0.768,-0.060,-0.020
0.770,-0.220,-0.020
0.772,-0.335,-0.020
0.774,-0.200,-0.020
0.776,-0.185,-0.020
0.778,-0.135,-0.020
0.780,-0.050,-0.025
0.782,-0.025,-0.025
0.784,0.110,-0.030
0.786,0.055,-0.030
0.788,-0.070,-0.025
0.790,-0.225,-0.025
0.792,-0.320,-0.020
0.794,-0.165,-0.015
0.796,-0.200,-0.015
0.798,-0.145,-0.020
0.800,-0.075,-0.025
0.802,-0.040,-0.035
0.804,0.110,-0.045
0.806,0.045,-0.050
0.808,-0.035,-0.055
0.810,-0.265,-0.060
0.812,-0.315,-0.055
0.814,-0.215,-0.050
0.816,-0.205,-0.040
0.818,-0.120,-0.035
0.820,-0.095,-0.030
0.822,-0.040,-0.030
0.824,0.135,-0.035
0.826,0.020,-0.040
0.828,-0.085,-0.045
0.830,-0.235,-0.050
0.832,-0.305,-0.050
0.834,-0.250,-0.050
0.836,-0.185,-0.050
0.838,-0.115,-0.045
0.840,-0.050,-0.040
0.842,-0.065,-0.040
0.844,0.120,-0.045
0.846,0.015,-0.050
0.848,-0.170,-0.055
0.850,-0.325,-0.060
0.852,-0.290,-0.060
0.854,-0.180,-0.060
0.856,-0.200,-0.055
0.858,-0.110,-0.050
0.860,-0.005,-0.045
0.862,0.010,-0.040
0.864,0.080,-0.040
0.866,-0.005,-0.040
0.868,-0.100,-0.045
0.870,-0.315,-0.050
0.872,-0.290,-0.055
0.874,-0.235,-0.055
0.876,-0.185,-0.055
0.878,-0.125,-0.055
0.880,-0.035,-0.050
0.882,-0.005,-0.045
0.884,0.105,-0.045
0.886,-0.015,-0.040
0.888,-0.095,-0.040
0.890,-0.320,-0.045
0.892,-0.365,-0.050
0.894,-0.190,-0.050
0.896,-0.185,-0.055
0.898,-0.130,-0.055
0.900,-0.055,-0.055
0.902,-0.010,-0.050
0.904,0.145,-0.045
0.906,-0.025,-0.040
0.908,-0.125,-0.035
0.910,-0.330,-0.030
0.912,-0.270,-0.030
0.914,-0.190,-0.030
0.916,-0.165,-0.035
0.918,-0.090,-0.035
0.920,-0.015,-0.040
0.922,0.040,-0.040
0.924,0.050,-0.040
0.926,-0.030,-0.040
0.928,-0.105,-0.035
0.930,-0.355,-0.025
0.932,-0.160,-0.020
0.934,-0.180,-0.010
0.936,-0.155,-0.005
0.938,-0.065,0.000
0.940,0.005,0.000
0.942,0.075,0.005
0.944,0.150,0.010
0.946,-0.005,0.015
0.948,-0.125,0.020
0.950,-0.235,0.025
0.952,-0.120,0.030
0.954,-0.105,0.035
0.956,-0.120,0.035
0.958,-0.015,0.035
0.960,0.005,0.035
0.962,0.130,0.030
0.964,0.155,0.025
0.966,0.040,0.020
0.968,-0.110,0.010
0.970,-0.300,0.005
0.972,-0.190,0.000
0.974,-0.180,-0.005
0.976,-0.155,-0.015
0.978,-0.040,-0.025
0.980,-0.020,-0.035
0.982,0.060,-0.045
0.984,0.040,-0.050
0.986,-0.070,-0.055
0.988,-0.205,-0.055
0.990,-0.405,-0.055
0.992,-0.235,-0.055
0.994,-0.200,-0.055
0.996,-0.215,-0.055
0.998,-0.055,-0.055
1.000,-0.005,-0.060
1.002,0.085,-0.060
1.004,0.040,-0.060
1.006,-0.110,-0.060
1.008,-0.230,-0.060
1.010,-0.410,-0.055
1.012,-0.250,-0.055
1.014,-0.210,-0.050
1.016,-0.155,-0.045
1.018,-0.070,-0.045
1.020,-0.055,-0.045
1.022,0.095,-0.045
1.024,0.065,-0.050
1.026,-0.065,-0.050
1.028,-0.290,-0.055
1.030,-0.430,-0.060
1.032,-0.245,-0.065
1.034,-0.180,-0.070
1.036,-0.165,-0.075
1.038,-0.070,-0.080
1.040,-0.105,-0.080
1.042,0.035,-0.080
1.044,0.025,-0.080
1.046,-0.125,-0.075
1.048,-0.250,-0.065
1.050,-0.400,-0.060
1.052,-0.220,-0.055
1.054,-0.215,-0.055
1.056,-0.195,-0.060
1.058,-0.075,-0.070
1.060,-0.040,-0.085
1.062,0.085,-0.100
1.064,-0.040,-0.120
1.066,-0.190,-0.130
1.068,-0.370,-0.145
1.070,-0.535,-0.145
1.072,-0.335,-0.145
1.074,-0.295,-0.135
1.076,-0.235,-0.110
1.078,-0.140,-0.075
1.080,-0.045,-0.025
1.082,0.200,0.045
1.084,0.260,0.130
1.086,0.250,0.235
1.088,0.125,0.345
1.090,0.135,0.460
1.092,0.440,0.565
1.094,0.500,0.655
1.096,0.675,0.720
1.098,0.820,0.750
1.100,0.805,0.750
1.102,0.900,0.710
1.104,0.735,0.650
1.106,0.505,0.565
1.108,0.240,0.470
1.110,0.035,0.370
1.112,0.065,0.270
1.114,-0.015,0.185
1.116,-0.025,0.110
1.118,0.040,0.050
1.120,0.000,0.005
1.122,0.135,-0.030
1.124,0.020,-0.050
1.126,-0.135,-0.060
1.128,-0.295,-0.065
1.130,-0.345,-0.060
1.132,-0.250,-0.060
1.134,-0.255,-0.055
1.136,-0.120,-0.055
1.138,-0.060,-0.055
1.140,-0.025,-0.060
1.142,0.130,-0.065
1.144,-0.030,-0.070
1.146,-0.115,-0.075
1.148,-0.335,-0.075
1.150,-0.345,-0.070
1.152,-0.265,-0.065
1.154,-0.220,-0.055
1.156,-0.125,-0.045
1.158,-0.035,-0.040
1.160,-0.050,-0.035
1.162,0.105,-0.040
1.164,0.035,-0.040
1.166,-0.110,-0.045
1.168,-0.340,-0.050
1.170,-0.315,-0.055
1.172,-0.225,-0.055
1.174,-0.190,-0.055
1.176,-0.135,-0.055
1.178,-0.085,-0.050
1.180,-0.020,-0.050
1.182,0.125,-0.045
1.184,-0.020,-0.040
1.186,-0.070,-0.040
1.188,-0.295,-0.035
1.190,-0.290,-0.030
1.192,-0.175,-0.030
1.194,-0.180,-0.030
1.196,-0.110,-0.030
1.198,-0.025,-0.035
1.200,-0.015,-0.035
1.202,0.070,-0.040
1.204,-0.035,-0.040
1.206,-0.115,-0.045
1.208,-0.315,-0.045
1.210,-0.280,-0.045
1.212,-0.185,-0.050
1.214,-0.210,-0.050
1.216,-0.125,-0.050
1.218,-0.010,-0.050
1.220,0.070,-0.050
1.222,0.110,-0.050
1.224,-0.070,-0.050
1.226,-0.140,-0.045
1.228,-0.350,-0.040
1.230,-0.250,-0.030
1.232,-0.175,-0.025
1.234,-0.165,-0.025
1.236,-0.105,-0.020
1.238,-0.050,-0.025
1.240,0.065,-0.025
1.242,0.125,-0.030
1.244,-0.045,-0.030
1.246,-0.090,-0.030
1.248,-0.320,-0.025
1.250,-0.195,-0.020
1.252,-0.185,-0.010
1.254,-0.165,-0.005
1.256,-0.070,-0.005
1.258,-0.010,0.000
1.260,0.105,-0.005
1.262,0.135,-0.005
1.264,-0.005,-0.005
1.266,-0.140,-0.005
1.268,-0.325,0.000
1.270,-0.200,0.005
1.272,-0.155,0.010
1.274,-0.105,0.015
1.276,-0.035,0.020
1.278,0.000,0.025
1.280,0.115,0.025
1.282,0.120,0.020
1.284,-0.025,0.015
1.286,-0.125,0.010
1.288,-0.310,0.010
1.290,-0.155,0.015
1.292,-0.135,0.020
1.294,-0.135,0.025
1.296,0.020,0.035
1.298,0.075,0.045
1.300,0.200,0.050
1.302,0.105,0.055
1.304,-0.010,0.060
1.306,-0.125,0.065
1.308,-0.270,0.065
1.310,-0.090,0.065
1.312,-0.040,0.065
1.314,-0.070,0.065
1.316,0.005,0.065
1.318,0.055,0.070
1.320,0.215,0.075
1.322,0.205,0.075
1.324,0.050,0.080
1.326,-0.130,0.085
1.328,-0.240,0.085
1.330,-0.115,0.090
1.332,-0.095,0.090
1.334,-0.035,0.090
1.336,0.085,0.095
1.338,0.140,0.095
1.340,0.235,0.100
1.342,0.195,0.105
1.344,0.070,0.110
1.346,-0.120,0.120
1.348,-0.255,0.120
1.350,-0.040,0.125
1.352,-0.020,0.120
1.354,-0.005,0.115
1.356,0.080,0.110
1.358,0.100,0.105
1.360,0.215,0.100
1.362,0.170,0.095
1.364,0.065,0.100
1.366,-0.095,0.105
1.368,-0.230,0.110
1.370,-0.075,0.115
1.372,-0.075,0.115
1.374,0.010,0.110
1.376,0.075,0.100
1.378,0.075,0.090
1.380,0.185,0.075
1.382,0.155,0.060
1.384,0.055,0.050
1.386,-0.180,0.045
1.388,-0.280,0.045
1.390,-0.120,0.045
1.392,-0.125,0.045
1.394,-0.085,0.045
1.396,0.010,0.045
1.398,0.030,0.035
1.400,0.160,0.025
1.402,0.090,0.015
1.404,-0.020,0.005
1.406,-0.225,0.000
1.408,-0.350,-0.005
1.410,-0.180,-0.005
1.412,-0.155,-0.005
1.414,-0.145,-0.010
1.416,-0.060,-0.015
1.418,-0.025,-0.020
1.420,0.140,-0.030
1.422,0.000,-0.045
1.424,-0.115,-0.050
1.426,-0.260,-0.055
1.428,-0.305,-0.055
1.430,-0.240,-0.050
1.432,-0.230,-0.040
1.434,-0.130,-0.030
1.436,-0.035,-0.025
1.438,-0.015,-0.020
1.440,0.160,-0.020
1.442,0.005,-0.025
1.444,-0.105,-0.035
1.446,-0.270,-0.040
1.448,-0.330,-0.045
1.450,-0.235,-0.050
1.452,-0.225,-0.050
1.454,-0.095,-0.050
1.456,-0.040,-0.050
1.458,-0.040,-0.050
1.460,0.060,-0.050
1.462,-0.020,-0.050
1.464,-0.095,-0.050
1.466,-0.315,-0.050
1.468,-0.265,-0.050
1.470,-0.225,-0.050
1.472,-0.190,-0.045
1.474,-0.160,-0.040
1.476,-0.025,-0.035
1.478,-0.030,-0.035
1.480,0.105,-0.035
1.482,-0.010,-0.040
1.484,-0.105,-0.045
1.486,-0.345,-0.055
1.488,-0.305,-0.060
1.490,-0.230,-0.065
1.492,-0.215,-0.065
1.494,-0.155,-0.065
1.496,-0.055,-0.055
1.498,0.000,-0.050
1.500,0.135,-0.040
1.502,0.000,-0.030
1.504,-0.055,-0.025
1.506,-0.330,-0.025
1.508,-0.285,-0.030
1.510,-0.200,-0.040
1.512,-0.210,-0.045
1.514,-0.115,-0.050
1.516,-0.050,-0.055
1.518,0.030,-0.060
1.520,0.080,-0.060
1.522,-0.070,-0.055
1.524,-0.130,-0.050
1.526,-0.330,-0.045
1.528,-0.245,-0.045
1.530,-0.220,-0.040
1.532,-0.195,-0.040
1.534,-0.100,-0.040
1.536,-0.030,-0.040
1.538,0.045,-0.040
1.540,0.100,-0.040
1.542,-0.035,-0.035
1.544,-0.155,-0.030
1.546,-0.375,-0.030
1.548,-0.250,-0.030
1.550,-0.155,-0.035
1.552,-0.135,-0.040
1.554,-0.180,-0.050
1.556,-0.075,-0.060
1.558,0.050,-0.070
1.560,0.075,-0.075
1.562,-0.050,-0.070
1.564,-0.140,-0.060
1.566,-0.425,-0.050
1.568,-0.235,-0.035
1.570,-0.170,-0.020
1.572,-0.155,-0.005
1.574,-0.065,0.000
1.576,-0.025,-0.005
1.578,0.080,-0.010
1.580,0.080,-0.020
1.582,-0.040,-0.035
1.584,-0.170,-0.045
1.586,-0.405,-0.050
1.588,-0.260,-0.050
1.590,-0.215,-0.045
1.592,-0.145,-0.040
1.594,-0.035,-0.025
1.596,-0.045,-0.020
1.598,0.115,-0.010
1.600,0.090,-0.010
1.602,-0.060,-0.015
1.604,-0.185,-0.025
1.606,-0.390,-0.035
1.608,-0.255,-0.045
1.610,-0.205,-0.050
1.612,-0.165,-0.055
1.614,-0.090,-0.055
1.616,0.015,-0.050
1.618,0.090,-0.040
1.620,0.030,-0.035
1.622,-0.080,-0.030
1.624,-0.240,-0.030
1.626,-0.385,-0.035
1.628,-0.225,-0.045
1.630,-0.140,-0.050
1.632,-0.240,-0.060
1.634,-0.130,-0.065
1.636,0.000,-0.065
1.638,0.110,-0.065
1.640,0.045,-0.055
1.642,-0.090,-0.045
1.644,-0.230,-0.035
1.646,-0.395,-0.025
1.648,-0.225,-0.025
1.650,-0.210,-0.035
1.652,-0.165,-0.045
1.654,-0.080,-0.055
1.656,-0.045,-0.070
1.658,0.055,-0.075
1.660,0.045,-0.080
1.662,-0.135,-0.075
1.664,-0.250,-0.065
1.666,-0.380,-0.055
1.668,-0.215,-0.040
1.670,-0.215,-0.035
1.672,-0.175,-0.030
1.674,-0.070,-0.030
1.676,-0.030,-0.030
1.678,0.120,-0.035
1.680,0.005,-0.040
1.682,-0.075,-0.040
1.684,-0.235,-0.040
1.686,-0.375,-0.040
1.688,-0.215,-0.035
1.690,-0.225,-0.040
1.692,-0.125,-0.040
1.694,-0.070,-0.040
1.696,-0.030,-0.045
1.698,0.075,-0.040
1.700,0.075,-0.035
1.702,-0.050,-0.025
1.704,-0.220,-0.015
1.706,-0.385,0.000
1.708,-0.170,0.010
1.710,-0.195,0.015
1.712,-0.105,0.015
1.714,0.030,0.010
1.716,0.055,0.000
1.718,0.160,-0.010
1.720,0.030,-0.015
1.722,-0.050,-0.020
1.724,-0.240,-0.015
1.726,-0.375,-0.010
1.728,-0.180,0.000
1.730,-0.165,0.010
1.732,-0.105,0.015
1.734,-0.030,0.020
1.736,0.000,0.015
1.738,0.205,0.015
1.740,0.085,0.005
1.742,-0.055,0.005
1.744,-0.230,0.000
1.746,-0.290,-0.005
1.748,-0.175,-0.005
1.750,-0.195,-0.005
1.752,-0.135,-0.015
1.754,-0.065,-0.020
1.756,-0.030,-0.030
1.758,0.115,-0.040
1.760,-0.015,-0.050
1.762,-0.110,-0.060
1.764,-0.325,-0.060
1.766,-0.315,-0.065
1.768,-0.210,-0.065
1.770,-0.245,-0.065
1.772,-0.175,-0.065
1.774,-0.070,-0.065
1.776,-0.055,-0.070
1.778,0.015,-0.075
1.780,-0.010,-0.075
1.782,-0.105,-0.070
1.784,-0.365,-0.060
1.786,-0.280,-0.050
1.788,-0.215,-0.040
1.790,-0.200,-0.035
1.792,-0.125,-0.030
1.794,-0.035,-0.035
1.796,-0.055,-0.050
1.798,0.035,-0.060
1.800,-0.060,-0.075
1.802,-0.140,-0.080
1.804,-0.355,-0.085
1.806,-0.295,-0.080
1.808,-0.245,-0.065
1.810,-0.185,-0.055
1.812,-0.120,-0.045
1.814,-0.065,-0.040
1.816,-0.010,-0.045
1.818,0.035,-0.055
1.820,-0.055,-0.070
1.822,-0.120,-0.085
1.824,-0.430,-0.095
1.826,-0.320,-0.105
1.828,-0.255,-0.105
1.830,-0.215,-0.100
1.832,-0.150,-0.095
1.834,-0.075,-0.090
1.836,-0.020,-0.090
1.838,0.040,-0.095
1.840,-0.115,-0.105
1.842,-0.220,-0.125
1.844,-0.450,-0.140
1.846,-0.405,-0.155
1.848,-0.345,-0.160
1.850,-0.325,-0.150
1.852,-0.195,-0.120
1.854,-0.075,-0.070
1.856,0.110,0.000
1.858,0.250,0.090
1.860,0.245,0.200
1.862,0.245,0.315
1.864,0.080,0.435
1.866,0.280,0.545
1.868,0.495,0.640
1.870,0.570,0.710
1.872,0.785,0.755
1.874,0.860,0.765
1.876,0.875,0.745
1.878,0.865,0.695
1.880,0.575,0.620
1.882,0.340,0.535
1.884,0.120,0.435
1.886,0.110,0.340
1.888,0.040,0.245
1.890,-0.035,0.165
1.892,0.035,0.100
1.894,0.060,0.045
1.896,0.140,0.010
1.898,0.090,-0.015
1.900,-0.100,-0.030
1.902,-0.220,-0.035
1.904,-0.400,-0.035
1.906,-0.240,-0.035
1.908,-0.190,-0.035
1.910,-0.135,-0.040
1.912,-0.075,-0.040
1.914,-0.055,-0.045
1.916,0.060,-0.050
1.918,0.080,-0.050
1.920,-0.095,-0.050
1.922,-0.260,-0.045
1.924,-0.375,-0.035
1.926,-0.205,-0.030
1.928,-0.200,-0.025
1.930,-0.165,-0.025
1.932,-0.105,-0.025
1.934,-0.020,-0.025
1.936,0.105,-0.030
1.938,0.045,-0.035
1.940,-0.095,-0.040
1.942,-0.230,-0.045
1.944,-0.385,-0.045
1.946,-0.230,-0.045
1.948,-0.220,-0.045
1.950,-0.130,-0.045
1.952,-0.105,-0.045
1.954,-0.055,-0.045
1.956,0.080,-0.045
1.958,0.045,-0.040
1.960,-0.055,-0.040
1.962,-0.275,-0.035
1.964,-0.385,-0.030
1.966,-0.240,-0.025
1.968,-0.205,-0.025
1.970,-0.125,-0.025
1.972,-0.040,-0.025
1.974,-0.045,-0.030
1.976,0.105,-0.030
1.978,0.025,-0.030
1.980,-0.090,-0.030
1.982,-0.245,-0.025
1.984,-0.360,-0.020
1.986,-0.210,-0.015
1.988,-0.175,-0.015
1.990,-0.125,-0.020
1.992,-0.085,-0.025
1.994,-0.020,-0.035
1.996,0.035,-0.045
1.998,0.045,-0.050
2.000,-0.065,-0.050
2.002,-0.220,-0.045
2.004,-0.375,-0.035
2.006,-0.230,-0.025
2.008,-0.230,-0.020
2.010,-0.115,-0.015
2.012,-0.035,-0.015
2.014,-0.045,-0.015
2.016,0.160,-0.025
2.018,0.065,-0.030
2.020,-0.120,-0.035
2.022,-0.270,-0.035
2.024,-0.330,-0.030
2.026,-0.210,-0.025
2.028,-0.205,-0.020
2.030,-0.110,-0.010
2.032,-0.025,-0.010
2.034,0.010,-0.005
2.036,0.150,-0.005
2.038,0.040,-0.010
2.040,-0.095,-0.005
2.042,-0.245,-0.005
2.044,-0.350,0.000
2.046,-0.170,0.010
2.048,-0.170,0.015
2.050,-0.100,0.020
2.052,-0.010,0.020
2.054,0.035,0.020
2.056,0.200,0.015
2.058,0.055,0.015
2.060,-0.035,0.010
2.062,-0.260,0.010
2.064,-0.245,0.010
2.066,-0.175,0.015
2.068,-0.155,0.020
2.070,-0.055,0.025
2.072,0.030,0.035
2.074,0.030,0.040
2.076,0.165,0.045
2.078,0.065,0.050
2.080,-0.020,0.055
2.082,-0.220,0.060
2.084,-0.175,0.070
2.086,-0.070,0.075
2.088,-0.085,0.080
2.090,-0.010,0.085
2.092,0.050,0.090
2.094,0.075,0.090
2.096,0.205,0.085
2.098,0.100,0.085
2.100,0.015,0.085
2.102,-0.215,0.090
2.104,-0.120,0.090
2.106,-0.065,0.095
2.108,-0.065,0.095
2.110,0.010,0.095
2.112,0.095,0.095
2.114,0.160,0.090
2.116,0.195,0.090
2.118,0.080,0.090
2.120,0.030,0.090
2.122,-0.190,0.100
2.124,-0.100,0.105
2.126,-0.050,0.115
2.128,0.010,0.125
2.130,0.030,0.125
2.132,0.075,0.125
2.134,0.175,0.115
2.136,0.225,0.110
2.138,0.105,0.100
2.140,0.025,0.090
2.142,-0.190,0.090
2.144,-0.135,0.095
2.146,-0.070,0.100
2.148,-0.020,0.110
2.150,0.045,0.120
2.152,0.105,0.120
2.154,0.195,0.120
2.156,0.160,0.110
2.158,0.080,0.095
2.160,-0.035,0.080
2.162,-0.265,0.065
2.164,-0.150,0.050
2.166,-0.105,0.035
2.168,-0.145,0.030
2.170,-0.010,0.030
2.172,0.040,0.030
2.174,0.140,0.030
2.176,0.145,0.035
2.178,-0.020,0.035
2.180,-0.125,0.030
2.182,-0.315,0.025
2.184,-0.185,0.020
2.186,-0.140,0.015
2.188,-0.135,0.005
2.190,-0.065,0.000
2.192,-0.015,-0.010
2.194,0.110,-0.015
2.196,0.100,-0.020
2.198,-0.075,-0.025
2.200,-0.235,-0.025
2.202,-0.370,-0.030
2.204,-0.215,-0.030
2.206,-0.230,-0.030
2.208,-0.180,-0.030
2.210,-0.055,-0.030
2.212,-0.015,-0.025
2.214,0.115,-0.025
2.216,0.050,-0.025
2.218,-0.075,-0.025
2.220,-0.235,-0.025
2.222,-0.385,-0.025
2.224,-0.235,-0.025
2.226,-0.200,-0.025
2.228,-0.160,-0.025
2.230,-0.090,-0.030
2.232,-0.005,-0.035
2.234,0.095,-0.040
2.236,0.000,-0.040
2.238,-0.105,-0.040
2.240,-0.260,-0.040
2.242,-0.355,-0.040
2.244,-0.200,-0.035
2.246,-0.185,-0.030
2.248,-0.160,-0.030
2.250,-0.030,-0.025
2.252,-0.025,-0.025
2.254,0.080,-0.025
2.256,0.000,-0.030
2.258,-0.105,-0.030
2.260,-0.245,-0.035
2.262,-0.375,-0.035
2.264,-0.185,-0.040
2.266,-0.210,-0.045
2.268,-0.200,-0.045
2.270,-0.160,-0.045
2.272,0.005,-0.045
2.274,0.120,-0.040
2.276,0.060,-0.035
2.278,-0.085,-0.030
2.280,-0.290,-0.025
2.282,-0.400,-0.025
2.284,-0.200,-0.025
2.286,-0.220,-0.030
2.288,-0.170,-0.040
2.290,-0.055,-0.050
2.292,-0.075,-0.055
2.294,0.060,-0.060
2.296,0.040,-0.060
2.298,-0.115,-0.055
2.300,-0.265,-0.045
2.302,-0.385,-0.040
2.304,-0.195,-0.030
2.306,-0.200,-0.030
2.308,-0.245,-0.030
2.310,-0.035,-0.035
2.312,-0.035,-0.040
2.314,0.115,-0.050
2.316,0.040,-0.050
2.318,-0.115,-0.045
2.320,-0.285,-0.040
2.322,-0.355,-0.030
2.324,-0.210,-0.025
2.326,-0.200,-0.020
2.328,-0.125,-0.020
2.330,-0.105,-0.025
2.332,-0.075,-0.035
2.334,0.115,-0.045
2.336,0.010,-0.055
2.338,-0.090,-0.055
2.340,-0.300,-0.050
2.342,-0.380,-0.045
2.344,-0.200,-0.030
2.346,-0.210,-0.025
2.348,-0.145,-0.020
2.350,-0.060,-0.020
2.352,-0.020,-0.025
2.354,0.110,-0.035
2.356,-0.025,-0.045
2.358,-0.115,-0.050
2.360,-0.340,-0.050
2.362,-0.325,-0.045
2.364,-0.190,-0.040
2.366,-0.200,-0.030
2.368,-0.120,-0.020
2.370,-0.065,-0.020
2.372,-0.060,-0.020
2.374,0.085,-0.030
2.376,-0.010,-0.040
2.378,-0.105,-0.050
2.380,-0.335,-0.055
2.382,-0.300,-0.060
2.384,-0.240,-0.055
2.386,-0.210,-0.050
2.388,-0.170,-0.045
2.390,-0.060,-0.040
2.392,-0.010,-0.040
2.394,0.075,-0.045
2.396,-0.050,-0.050
2.398,-0.130,-0.055
2.400,-0.350,-0.055
2.402,-0.295,-0.060
2.404,-0.255,-0.055
2.406,-0.230,-0.050
2.408,-0.115,-0.045
2.410,-0.040,-0.040
2.412,0.035,-0.040
2.414,0.085,-0.040
2.416,-0.055,-0.045
2.418,-0.105,-0.050
2.420,-0.355,-0.055
2.422,-0.360,-0.060
2.424,-0.235,-0.060
2.426,-0.180,-0.060
2.428,-0.135,-0.055
2.430,-0.035,-0.050
2.432,0.045,-0.040
2.434,0.120,-0.035
2.436,-0.045,-0.030
2.438,-0.155,-0.030
2.440,-0.400,-0.030
2.442,-0.280,-0.030
2.444,-0.230,-0.035
2.446,-0.185,-0.040
2.448,-0.115,-0.045
2.450,-0.005,-0.050
2.452,0.005,-0.055
2.454,0.070,-0.055
2.456,-0.085,-0.055
2.458,-0.175,-0.050
2.460,-0.395,-0.040
2.462,-0.265,-0.030
2.464,-0.145,-0.025
2.466,-0.185,-0.020
2.468,-0.100,-0.020
2.470,-0.040,-0.025
2.472,0.055,-0.035
2.474,0.065,-0.045
2.476,-0.070,-0.055
2.478,-0.245,-0.060
2.480,-0.400,-0.060
2.482,-0.255,-0.060
2.484,-0.230,-0.050
2.486,-0.190,-0.045
2.488,-0.115,-0.035
2.490,-0.060,-0.025
2.492,0.085,-0.020
2.494,0.070,-0.015
2.496,-0.070,-0.015
2.498,-0.185,-0.015
2.500,-0.360,-0.015
2.502,-0.220,-0.015
2.504,-0.215,-0.020
2.506,-0.180,-0.025
2.508,-0.095,-0.030
2.510,0.005,-0.035
2.512,0.115,-0.040
2.514,-0.020,-0.045
2.516,-0.080,-0.050
2.518,-0.240,-0.050
2.520,-0.365,-0.045
2.522,-0.225,-0.035
2.524,-0.220,-0.025
2.526,-0.170,-0.015
2.528,-0.025,-0.010
2.530,0.030,0.000
2.532,0.100,0.010
2.534,0.065,0.015
2.536,-0.040,0.025
2.538,-0.165,0.035
2.540,-0.310,0.040
2.542,-0.150,0.045
2.544,-0.140,0.050
2.546,-0.080,0.050
2.548,-0.010,0.050
2.550,0.020,0.050
2.552,0.165,0.045
2.554,0.115,0.045
2.556,-0.025,0.040
2.558,-0.155,0.040
2.560,-0.315,0.040
2.562,-0.150,0.040
2.564,-0.155,0.035
2.566,-0.115,0.025
2.568,-0.055,0.010
2.570,-0.035,-0.010
2.572,0.090,-0.030
2.574,0.020,-0.045
2.576,-0.120,-0.055
2.578,-0.285,-0.060
2.580,-0.380,-0.060
2.582,-0.230,-0.050
2.584,-0.225,-0.040
2.586,-0.130,-0.030
2.588,-0.045,-0.025
2.590,-0.085,-0.020
2.592,0.135,-0.020
2.594,0.005,-0.025
2.596,-0.110,-0.030
2.598,-0.285,-0.040
2.600,-0.395,-0.045
2.602,-0.220,-0.050
2.604,-0.190,-0.055
2.606,-0.210,-0.060
2.608,-0.100,-0.065
2.610,-0.120,-0.070
2.612,0.070,-0.070
2.614,0.010,-0.075
2.616,-0.130,-0.070
2.618,-0.325,-0.065
2.620,-0.400,-0.060
2.622,-0.235,-0.050
2.624,-0.225,-0.045
2.626,-0.145,-0.040
2.628,-0.085,-0.040
2.630,-0.080,-0.045
2.632,0.070,-0.050
2.634,-0.010,-0.060
2.636,-0.140,-0.070
2.638,-0.335,-0.070
2.640,-0.375,-0.070
2.642,-0.225,-0.065
2.644,-0.215,-0.060
2.646,-0.215,-0.050
2.648,-0.075,-0.045
2.650,-0.020,-0.040
2.652,0.095,-0.045
2.654,-0.020,-0.055
2.656,-0.150,-0.075
2.658,-0.370,-0.100
2.660,-0.435,-0.125
2.662,-0.290,-0.145
2.664,-0.350,-0.160
2.666,-0.315,-0.170
2.668,-0.190,-0.165
2.670,-0.165,-0.140
2.672,0.010,-0.100
2.674,-0.045,-0.045
2.676,-0.060,0.035
2.678,-0.150,0.125
2.680,0.030,0.230
2.682,0.210,0.345
2.684,0.310,0.460
2.686,0.470,0.565
2.688,0.635,0.655
2.690,0.825,0.720
2.692,0.935,0.760
2.694,0.780,0.770
2.696,0.770,0.745
2.698,0.375,0.690
2.700,0.355,0.615
2.702,0.335,0.515
2.704,0.210,0.410
2.706,0.175,0.305
2.708,0.140,0.210
2.710,0.140,0.125
2.712,0.150,0.060
2.714,-0.010,0.015
2.716,-0.060,-0.015
2.718,-0.340,-0.025
2.720,-0.265,-0.030
2.722,-0.205,-0.030
2.724,-0.185,-0.025
2.726,-0.115,-0.025
2.728,-0.020,-0.025
2.730,0.015,-0.030
2.732,0.035,-0.035
2.734,-0.060,-0.040
2.736,-0.125,-0.045
2.738,-0.360,-0.045
2.740,-0.235,-0.045
2.742,-0.255,-0.040
2.744,-0.200,-0.040
2.746,-0.140,-0.035
2.748,-0.040,-0.035
2.750,0.010,-0.035
2.752,0.085,-0.040
2.754,-0.060,-0.040
2.756,-0.190,-0.045
2.758,-0.380,-0.050
2.760,-0.290,-0.050
2.762,-0.245,-0.055
2.764,-0.195,-0.055
2.766,-0.105,-0.055
2.768,-0.045,-0.055
2.770,0.030,-0.055
2.772,0.035,-0.055
2.774,-0.095,-0.050
2.776,-0.175,-0.050
2.778,-0.395,-0.045
2.780,-0.255,-0.040
2.782,-0.170,-0.035
2.784,-0.190,-0.030
2.786,-0.085,-0.030
2.788,-0.040,-0.030
2.790,0.035,-0.035
2.792,0.055,-0.040
2.794,-0.080,-0.045
2.796,-0.195,-0.045
2.798,-0.395,-0.045
2.800,-0.265,-0.035
2.802,-0.215,-0.030
2.804,-0.170,-0.020
2.806,-0.085,-0.010
2.808,-0.020,-0.005
2.810,0.075,-0.005
2.812,0.065,0.000
2.814,-0.025,-0.005
2.816,-0.170,-0.005
2.818,-0.385,-0.005
2.820,-0.240,-0.005
2.822,-0.165,-0.005
2.824,-0.140,0.000
2.826,-0.045,0.005
2.828,-0.005,0.005
2.830,0.115,0.005
2.832,0.045,0.005
2.834,-0.060,0.000
2.836,-0.205,-0.010
2.838,-0.405,-0.015
2.840,-0.255,-0.020
2.842,-0.140,-0.020
2.844,-0.085,-0.020
2.846,-0.105,-0.020
2.848,-0.065,-0.015
2.850,0.110,-0.010
2.852,0.050,-0.005
2.854,-0.100,-0.005
2.856,-0.225,0.000
2.858,-0.370,0.000
2.860,-0.190,0.005
2.862,-0.160,0.010
2.864,-0.120,0.010
2.866,0.000,0.015
2.868,0.030,0.020
2.870,0.150,0.025
2.872,0.060,0.025
2.874,-0.050,0.030
2.876,-0.220,0.030
2.878,-0.330,0.030
2.880,-0.175,0.030
2.882,-0.160,0.030
2.884,-0.120,0.035
2.886,-0.005,0.040
2.888,0.050,0.040
2.890,0.185,0.045
2.892,0.105,0.050
2.894,-0.020,0.055
2.896,-0.205,0.055
2.898,-0.325,0.055
2.900,-0.130,0.060
2.902,-0.130,0.060
2.904,-0.065,0.065
2.906,0.010,0.065
2.908,0.040,0.070
2.910,0.220,0.075
2.912,0.145,0.085
2.914,0.025,0.085
2.916,-0.170,0.090
2.918,-0.215,0.090
2.920,-0.120,0.090
2.922,-0.090,0.090
2.924,-0.060,0.085
2.926,0.070,0.085
2.928,0.085,0.085
2.930,0.240,0.090
2.932,0.115,0.095
2.934,0.040,0.105
2.936,-0.140,0.115
2.938,-0.160,0.125
2.940,-0.060,0.135
2.942,-0.060,0.140
2.944,0.025,0.145
2.946,0.090,0.140
2.948,0.125,0.135
2.950,0.240,0.130
2.952,0.140,0.120
2.954,0.035,0.115
2.956,-0.185,0.110
2.958,-0.165,0.105
2.960,-0.065,0.110
2.962,-0.055,0.110
2.964,0.000,0.120
2.966,0.070,0.125
2.968,0.095,0.125
2.970,0.250,0.125
2.972,0.115,0.120
2.974,0.010,0.110
2.976,-0.200,0.100
2.978,-0.145,0.085
2.980,-0.105,0.070
2.982,-0.075,0.055
2.984,-0.070,0.045
2.986,0.010,0.040
2.988,0.050,0.040
2.990,0.150,0.035
2.992,0.035,0.035
2.994,-0.060,0.035
2.996,-0.265,0.030
2.998,-0.250,0.025
3.000,-0.175,0.020
3.002,-0.130,0.010
3.004,-0.140,0.000
3.006,0.000,-0.005
3.008,0.060,-0.010
3.010,0.155,-0.005
3.012,-0.050,-0.005
3.014,-0.085,0.000
3.016,-0.325,0.000
3.018,-0.245,0.005
3.020,-0.170,0.000
3.022,-0.170,-0.005
3.024,-0.160,-0.015
3.026,-0.015,-0.030
3.028,0.010,-0.040
3.030,0.060,-0.045
3.032,-0.065,-0.050
3.034,-0.140,-0.045
3.036,-0.400,-0.040
3.038,-0.260,-0.035
3.040,-0.195,-0.025
3.042,-0.170,-0.020
3.044,-0.115,-0.020
3.046,-0.045,-0.020
3.048,0.025,-0.025
3.050,0.050,-0.035
3.052,-0.080,-0.040
3.054,-0.165,-0.045
3.056,-0.375,-0.050
3.058,-0.290,-0.045
3.060,-0.225,-0.045
3.062,-0.180,-0.040
3.064,-0.085,-0.035
3.066,-0.050,-0.030
3.068,0.050,-0.030
3.070,0.055,-0.030
3.072,-0.075,-0.035
3.074,-0.170,-0.035
3.076,-0.400,-0.035
3.078,-0.270,-0.035
3.080,-0.195,-0.035
3.082,-0.225,-0.040
3.084,-0.080,-0.040
3.086,-0.005,-0.040
3.088,0.025,-0.040
3.090,0.015,-0.040
3.092,-0.050,-0.040
3.094,-0.195,-0.035
3.096,-0.430,-0.035
3.098,-0.220,-0.030
3.100,-0.195,-0.025
3.102,-0.160,-0.025
3.104,-0.050,-0.025
3.106,-0.040,-0.025
3.108,0.075,-0.030
3.110,0.025,-0.035
3.112,-0.160,-0.040
3.114,-0.235,-0.045
3.116,-0.360,-0.045
3.118,-0.225,-0.045
3.120,-0.190,-0.040
3.122,-0.180,-0.035
3.124,-0.075,-0.035
3.126,-0.055,-0.030
3.128,0.085,-0.030
3.130,0.055,-0.035
3.132,-0.090,-0.035
3.134,-0.280,-0.040
3.136,-0.405,-0.040
3.138,-0.245,-0.040
3.140,-0.180,-0.040
3.142,-0.180,-0.035
3.144,-0.080,-0.035
3.146,-0.085,-0.030
3.148,0.090,-0.030
3.150,0.055,-0.030
3.152,-0.105,-0.030
3.154,-0.270,-0.030
3.156,-0.425,-0.035
3.158,-0.235,-0.035
3.160,-0.165,-0.035
3.162,-0.150,-0.035
3.164,-0.095,-0.035
3.166,-0.050,-0.030
3.168,0.085,-0.025
3.170,0.035,-0.025
3.172,-0.115,-0.025
3.174,-0.270,-0.025
3.176,-0.390,-0.025
3.178,-0.235,-0.030
3.180,-0.250,-0.030
3.182,-0.140,-0.035
3.184,-0.050,-0.035
3.186,-0.060,-0.040
3.188,0.065,-0.040
3.190,0.060,-0.040
3.192,-0.070,-0.040
3.194,-0.315,-0.040
3.196,-0.440,-0.045
3.198,-0.270,-0.050
3.200,-0.260,-0.055
3.202,-0.175,-0.060
3.204,-0.045,-0.065
3.206,-0.050,-0.060
3.208,0.050,-0.055
3.210,0.035,-0.045
3.212,-0.105,-0.035
3.214,-0.285,-0.025
3.216,-0.385,-0.015
3.218,-0.230,-0.015
3.220,-0.225,-0.020
3.222,-0.120,-0.030
3.224,-0.090,-0.045
3.226,-0.090,-0.060
3.228,0.030,-0.070
3.230,-0.050,-0.080
3.232,-0.115,-0.080
3.234,-0.275,-0.070
3.236,-0.355,-0.060
3.238,-0.250,-0.045
3.240,-0.245,-0.035
3.242,-0.160,-0.030
3.244,-0.095,-0.030
3.246,-0.055,-0.035
3.248,0.065,-0.040
3.250,-0.040,-0.050
3.252,-0.115,-0.055
3.254,-0.300,-0.055
3.256,-0.320,-0.055
3.258,-0.260,-0.055
3.260,-0.230,-0.050
3.262,-0.145,-0.050
3.264,-0.025,-0.050
3.266,-0.065,-0.050
3.268,0.055,-0.050
3.270,-0.055,-0.055
3.272,-0.180,-0.060
3.274,-0.365,-0.060
3.276,-0.320,-0.060
3.278,-0.210,-0.060
3.280,-0.225,-0.055
3.282,-0.175,-0.055
3.284,-0.060,-0.055
3.286,-0.060,-0.055
3.288,0.055,-0.055
3.290,-0.065,-0.060
3.292,-0.135,-0.060
3.294,-0.375,-0.060
3.296,-0.295,-0.055
3.298,-0.170,-0.055
3.300,-0.235,-0.050
3.302,-0.185,-0.045
3.304,-0.070,-0.040
3.306,-0.065,-0.040
3.308,0.055,-0.040
3.310,-0.010,-0.040
3.312,-0.115,-0.045
3.314,-0.345,-0.045
3.316,-0.315,-0.050
3.318,-0.235,-0.050
3.320,-0.235,-0.055
3.322,-0.180,-0.055
3.324,-0.065,-0.060
3.326,-0.020,-0.060
3.328,0.055,-0.060
3.330,-0.085,-0.060
3.332,-0.135,-0.055
3.334,-0.370,-0.050
3.336,-0.260,-0.040
3.338,-0.210,-0.035
3.340,-0.210,-0.030
3.342,-0.140,-0.025
3.344,-0.030,-0.025
3.346,0.025,-0.025
3.348,0.060,-0.030
3.350,-0.065,-0.035
3.352,-0.130,-0.040
3.354,-0.360,-0.040
3.356,-0.245,-0.040
3.358,-0.265,-0.035
3.360,-0.195,-0.030
3.362,-0.085,-0.020
3.364,-0.010,-0.010
3.366,0.085,-0.005
3.368,0.105,0.005
3.370,-0.030,0.010
3.372,-0.135,0.015
3.374,-0.340,0.020
3.376,-0.215,0.020
3.378,-0.155,0.025
3.380,-0.110,0.025
3.382,-0.055,0.025
3.384,-0.035,0.025
3.386,0.115,0.020
3.388,0.140,0.020
3.390,-0.020,0.020
3.392,-0.145,0.020
3.394,-0.335,0.020
3.396,-0.235,0.020
3.398,-0.125,0.020
3.400,-0.120,0.015
3.402,-0.045,0.010
3.404,-0.040,0.005
3.406,0.065,-0.005
3.408,0.045,-0.015
3.410,-0.105,-0.020
3.412,-0.210,-0.030
3.414,-0.380,-0.035
3.416,-0.225,-0.035
3.418,-0.215,-0.040
3.420,-0.200,-0.045
3.422,-0.070,-0.045
3.424,-0.110,-0.050
3.426,0.035,-0.055
3.428,0.010,-0.055
3.430,-0.110,-0.060
3.432,-0.275,-0.060
3.434,-0.395,-0.060
3.436,-0.270,-0.060
3.438,-0.235,-0.060
3.440,-0.180,-0.060
3.442,-0.140,-0.065
3.444,-0.090,-0.065
3.446,0.055,-0.070
3.448,-0.070,-0.070
3.450,-0.120,-0.075
3.452,-0.240,-0.075
3.454,-0.390,-0.075
3.456,-0.310,-0.070
3.458,-0.220,-0.070
3.460,-0.195,-0.065
3.462,-0.090,-0.060
3.464,-0.095,-0.055
3.466,0.050,-0.055
3.468,0.010,-0.060
3.470,-0.120,-0.060
3.472,-0.320,-0.065
3.474,-0.415,-0.065
3.476,-0.250,-0.070
3.478,-0.295,-0.070
3.480,-0.165,-0.070
3.482,-0.140,-0.070
3.484,-0.075,-0.075
3.486,0.050,-0.080
3.488,-0.010,-0.090
3.490,-0.135,-0.100
3.492,-0.405,-0.115
3.494,-0.505,-0.135
3.496,-0.365,-0.145
3.498,-0.390,-0.155
3.500,-0.295,-0.155
3.502,-0.195,-0.135
3.504,-0.150,-0.105
3.506,0.100,-0.050
3.508,0.105,0.025
3.510,0.080,0.115
3.512,0.010,0.220
3.514,-0.010,0.335
3.516,0.275,0.455
3.518,0.400,0.560
3.520,0.630,0.655
3.522,0.730,0.725
3.524,0.830,0.770
3.526,0.925,0.775
3.528,0.830,0.750
3.530,0.635,0.695
3.532,0.340,0.615
3.534,0.205,0.510
3.536,0.210,0.400
3.538,0.055,0.285
3.540,-0.010,0.180
3.542,0.035,0.090
3.544,0.010,0.020
3.546,0.120,-0.030
3.548,-0.035,-0.055
3.550,-0.135,-0.065
3.552,-0.325,-0.060
3.554,-0.340,-0.050
3.556,-0.250,-0.040
3.558,-0.230,-0.035
3.560,-0.155,-0.030
3.562,-0.070,-0.030
3.564,-0.055,-0.035
3.566,0.095,-0.045
3.568,-0.040,-0.045
3.570,-0.135,-0.050
3.572,-0.340,-0.050
3.574,-0.320,-0.050
3.576,-0.235,-0.045
3.578,-0.190,-0.045
3.580,-0.155,-0.050
3.582,-0.120,-0.050
3.584,-0.055,-0.060
3.586,0.065,-0.060
3.588,-0.050,-0.065
3.590,-0.130,-0.065
3.592,-0.350,-0.060
3.594,-0.295,-0.050
3.596,-0.200,-0.040
3.598,-0.215,-0.030
3.600,-0.150,-0.025
3.602,-0.045,-0.020
3.604,-0.005,-0.020
3.606,0.090,-0.020
3.608,-0.030,-0.025
3.610,-0.140,-0.030
3.612,-0.335,-0.040
3.614,-0.285,-0.045
3.616,-0.215,-0.045
3.618,-0.225,-0.050
3.620,-0.165,-0.055
3.622,-0.075,-0.055
3.624,0.005,-0.055
3.626,0.085,-0.055
3.628,-0.075,-0.050
3.630,-0.125,-0.045
3.632,-0.350,-0.040
3.634,-0.260,-0.035
3.636,-0.220,-0.030
3.638,-0.210,-0.030
3.640,-0.115,-0.030
3.642,-0.065,-0.035
3.644,0.050,-0.040
3.646,0.070,-0.045
3.648,-0.070,-0.045
3.650,-0.135,-0.040
3.652,-0.365,-0.030
3.654,-0.250,-0.025
3.656,-0.185,-0.015
3.658,-0.165,-0.010
3.660,-0.115,-0.010
3.662,-0.020,-0.010
3.664,0.065,-0.020
3.666,0.055,-0.025
3.668,-0.085,-0.030
3.670,-0.135,-0.035
3.672,-0.360,-0.030
3.674,-0.240,-0.025
3.676,-0.185,-0.015
3.678,-0.110,0.000
3.680,-0.075,0.010
3.682,-0.010,0.015
3.684,0.085,0.015
3.686,0.095,0.015
3.688,-0.030,0.010
3.690,-0.140,0.005
3.692,-0.345,0.000
3.694,-0.225,0.005
3.696,-0.155,0.010
3.698,-0.120,0.020
3.700,0.010,0.030
3.702,0.020,0.035
3.704,0.120,0.040
3.706,0.100,0.045
3.708,-0.030,0.040
3.710,-0.140,0.035
3.712,-0.340,0.030
3.714,-0.190,0.025
3.716,-0.145,0.020
3.718,-0.060,0.020
3.720,0.050,0.025
3.722,-0.060,0.030
3.724,0.075,0.040
3.726,0.180,0.045
3.728,0.055,0.055
3.730,-0.140,0.060
3.732,-0.330,0.065
3.734,-0.160,0.070
3.736,-0.095,0.070
3.738,-0.060,0.075
3.740,0.045,0.080
3.742,0.070,0.085
3.744,0.205,0.090
3.746,0.155,0.095
3.748,0.025,0.105
3.750,-0.105,0.105
3.752,-0.260,0.110
3.754,-0.095,0.110
3.756,-0.075,0.115
3.758,-0.010,0.115
3.760,0.055,0.115
3.762,0.100,0.115
3.764,0.240,0.120
3.766,0.205,0.130
3.768,0.055,0.135
3.770,-0.110,0.145
3.772,-0.210,0.150
3.774,-0.035,0.150
3.776,-0.010,0.150
3.778,0.030,0.145
3.780,0.070,0.140
3.782,0.105,0.135
3.784,0.245,0.130
3.786,0.180,0.130
3.788,0.050,0.130
3.790,-0.095,0.135
3.792,-0.205,0.135
3.794,-0.030,0.140
3.796,-0.075,0.140
3.798,0.005,0.135
3.800,0.070,0.130
3.802,0.090,0.120
3.804,0.260,0.110
3.806,0.160,0.100
3.808,0.040,0.095
3.810,-0.155,0.095
3.812,-0.290,0.090
3.814,-0.095,0.090
3.816,-0.120,0.085
3.818,-0.040,0.075
3.820,0.030,0.065
3.822,0.050,0.050
3.824,0.165,0.040
3.826,0.060,0.025
3.828,-0.045,0.015
3.830,-0.295,0.010
3.832,-0.265,0.005
3.834,-0.170,0.000
3.836,-0.215,-0.005
3.838,-0.105,-0.010
3.840,0.010,-0.015
3.842,-0.015,-0.020
3.844,0.095,-0.025
3.846,0.030,-0.030
3.848,-0.080,-0.030
3.850,-0.305,-0.025
3.852,-0.335,-0.020
3.854,-0.235,-0.015
3.856,-0.195,-0.010
3.858,-0.100,-0.015
3.860,-0.025,-0.020
3.862,-0.045,-0.025
3.864,0.115,-0.040
3.866,-0.060,-0.050
3.868,-0.120,-0.055
3.870,-0.350,-0.060
3.872,-0.320,-0.055
3.874,-0.200,-0.050
3.876,-0.210,-0.040
3.878,-0.120,-0.025
3.880,-0.045,-0.020
3.882,-0.010,-0.015
3.884,0.110,-0.015
3.886,-0.015,-0.020
3.888,-0.155,-0.025
3.890,-0.365,-0.030
3.892,-0.280,-0.035
3.894,-0.155,-0.040
3.896,-0.175,-0.045
3.898,-0.175,-0.045
3.900,-0.060,-0.045
3.902,-0.075,-0.050
3.904,0.105,-0.050
3.906,-0.055,-0.050
3.908,-0.130,-0.050
3.910,-0.365,-0.050
3.912,-0.295,-0.045
3.914,-0.200,-0.040
3.916,-0.150,-0.035
3.918,-0.135,-0.035
3.920,-0.105,-0.035
3.922,-0.010,-0.040
3.924,0.070,-0.045
3.926,-0.060,-0.050
3.928,-0.120,-0.055
3.930,-0.385,-0.055
3.932,-0.245,-0.055
3.934,-0.210,-0.050
3.936,-0.160,-0.040
3.938,-0.125,-0.035
3.940,-0.075,-0.030
3.942,0.000,-0.030
3.944,0.070,-0.030
3.946,-0.060,-0.035
3.948,-0.155,-0.045
3.950,-0.390,-0.045
3.952,-0.310,-0.050
3.954,-0.155,-0.050
3.956,-0.090,-0.045
3.958,-0.130,-0.035
3.960,-0.055,-0.030
3.962,0.045,-0.025
3.964,0.060,-0.025
3.966,-0.075,-0.030
3.968,-0.115,-0.030
3.970,-0.365,-0.035
3.972,-0.240,-0.040
3.974,-0.200,-0.040
3.976,-0.195,-0.040
3.978,-0.100,-0.035
3.980,-0.040,-0.030
3.982,0.050,-0.025
3.984,0.065,-0.020
3.986,-0.030,-0.020
3.988,-0.140,-0.025
3.990,-0.385,-0.035
3.992,-0.280,-0.045
3.994,-0.250,-0.050
3.996,-0.190,-0.060
3.998,-0.085,-0.060
4.000,-0.035,-0.055
4.002,0.055,-0.050
4.004,0.055,-0.035
4.006,-0.075,-0.025
4.008,-0.215,-0.015
4.010,-0.380,-0.010
4.012,-0.210,-0.010
4.014,-0.150,-0.015
4.016,-0.120,-0.020
4.018,-0.080,-0.030
4.020,-0.100,-0.035
4.022,0.075,-0.040
4.024,0.060,-0.040
4.026,-0.085,-0.040
4.028,-0.230,-0.035
4.030,-0.390,-0.030
4.032,-0.220,-0.025
4.034,-0.215,-0.020
4.036,-0.160,-0.020
4.038,-0.045,-0.025
4.040,-0.020,-0.030
4.042,0.075,-0.040
4.044,0.055,-0.045
4.046,-0.085,-0.050
4.048,-0.235,-0.055
4.050,-0.430,-0.055
4.052,-0.285,-0.055
4.054,-0.250,-0.055
4.056,-0.145,-0.050
4.058,-0.040,-0.050
4.060,-0.030,-0.045
4.062,0.070,-0.040
4.064,0.055,-0.035
4.066,-0.080,-0.030
4.068,-0.265,-0.025
4.070,-0.395,-0.025
4.072,-0.210,-0.025
4.074,-0.190,-0.025
4.076,-0.205,-0.035
4.078,-0.090,-0.040
4.080,-0.055,-0.045
4.082,0.090,-0.050
4.084,0.030,-0.050
4.086,-0.105,-0.050
4.088,-0.255,-0.045
4.090,-0.455,-0.040
4.092,-0.220,-0.040
4.094,-0.210,-0.040
4.096,-0.150,-0.040
4.098,-0.150,-0.045
4.100,-0.055,-0.050
4.102,0.105,-0.055
4.104,0.015,-0.060
4.106,-0.075,-0.055
4.108,-0.265,-0.055
4.110,-0.420,-0.050
4.112,-0.230,-0.045
4.114,-0.225,-0.040
4.116,-0.205,-0.045
4.118,-0.075,-0.045
4.120,-0.050,-0.050
4.122,0.100,-0.055
4.124,0.025,-0.055
4.126,-0.095,-0.055
4.128,-0.300,-0.045
4.130,-0.370,-0.040
4.132,-0.215,-0.035
4.134,-0.235,-0.030
4.136,-0.155,-0.035
4.138,-0.060,-0.040
4.140,-0.060,-0.050
4.142,0.070,-0.055
4.144,-0.020,-0.060
4.146,-0.100,-0.065
4.148,-0.300,-0.055
4.150,-0.320,-0.050
4.152,-0.185,-0.035
4.154,-0.215,-0.025
4.156,-0.130,-0.020
4.158,-0.030,-0.020
4.160,-0.030,-0.025
4.162,0.060,-0.035
4.164,-0.035,-0.045
4.166,-0.120,-0.050
4.168,-0.335,-0.050
4.170,-0.295,-0.045
4.172,-0.210,-0.035
4.174,-0.120,-0.020
4.176,-0.110,-0.005
4.178,0.005,0.005
4.180,0.030,0.015
4.182,0.135,0.015
4.184,-0.005,0.020
4.186,-0.105,0.015
4.188,-0.265,0.015
4.190,-0.195,0.010
4.192,-0.135,0.010
4.194,-0.180,0.010
4.196,-0.100,0.010
4.198,0.010,0.010
4.200,0.050,0.010
4.202,0.175,0.010
4.204,-0.020,0.005
4.206,-0.115,0.005
4.208,-0.290,0.000
4.210,-0.280,0.000
4.212,-0.140,-0.005
4.214,-0.160,-0.010
4.216,-0.105,-0.015
4.218,-0.010,-0.020
4.220,0.025,-0.030
4.222,0.075,-0.040
4.224,-0.055,-0.045
4.226,-0.120,-0.055
4.228,-0.430,-0.055
4.230,-0.250,-0.055
4.232,-0.185,-0.050
4.234,-0.220,-0.045
4.236,-0.105,-0.040
4.238,-0.035,-0.035
4.240,0.005,-0.035
4.242,0.080,-0.035
4.244,-0.070,-0.045
4.246,-0.135,-0.050
4.248,-0.390,-0.055
4.250,-0.250,-0.065
4.252,-0.215,-0.065
4.254,-0.210,-0.065
4.256,-0.160,-0.065
4.258,-0.075,-0.060
4.260,0.030,-0.060
4.262,0.060,-0.060
4.264,-0.055,-0.060
4.266,-0.145,-0.060
4.268,-0.410,-0.065
4.270,-0.285,-0.070
4.272,-0.230,-0.075
4.274,-0.210,-0.075
4.276,-0.120,-0.075
4.278,-0.100,-0.070
4.280,0.035,-0.065
4.282,0.040,-0.060
4.284,-0.090,-0.060
4.286,-0.200,-0.055
4.288,-0.400,-0.055
4.290,-0.260,-0.060
4.292,-0.205,-0.065
4.294,-0.120,-0.065
4.296,-0.150,-0.070
4.298,-0.105,-0.070
4.300,0.015,-0.070
4.302,0.055,-0.065
4.304,-0.105,-0.060
4.306,-0.240,-0.055
4.308,-0.390,-0.055
4.310,-0.245,-0.060
4.312,-0.225,-0.070
4.314,-0.215,-0.085
4.316,-0.165,-0.095
4.318,-0.170,-0.110
4.320,-0.040,-0.110
4.322,0.020,-0.100
4.324,-0.090,-0.075
4.326,-0.270,-0.035
4.328,-0.305,0.030
4.330,-0.050,0.105
4.332,0.080,0.200
4.334,0.225,0.295
4.336,0.335,0.395
4.338,0.490,0.490
4.340,0.725,0.570
4.342,0.780,0.630
4.344,0.660,0.670
4.346,0.505,0.675
4.348,0.360,0.650
4.350,0.425,0.595
4.352,0.320,0.520
4.354,0.270,0.420
4.356,0.250,0.315
4.358,0.185,0.205
4.360,0.205,0.105
4.362,0.110,0.025
4.364,-0.080,-0.040
4.366,-0.375,-0.080
4.368,-0.465,-0.105
4.370,-0.250,-0.110
4.372,-0.255,-0.110
4.374,-0.250,-0.100
4.376,-0.140,-0.095
4.378,-0.065,-0.085
4.380,0.100,-0.080
4.382,-0.035,-0.075
4.384,-0.100,-0.070
4.386,-0.275,-0.060
4.388,-0.390,-0.055
4.390,-0.240,-0.045
4.392,-0.220,-0.035
4.394,-0.120,-0.030
4.396,-0.045,-0.030
4.398,-0.025,-0.035
4.400,0.125,-0.035
4.402,0.000,-0.040
4.404,-0.125,-0.040
4.406,-0.275,-0.040
4.408,-0.345,-0.035
4.410,-0.190,-0.030
4.412,-0.190,-0.020
4.414,-0.115,-0.015
4.416,-0.065,-0.015
4.418,-0.035,-0.015
4.420,0.165,-0.020
4.422,0.020,-0.030
4.424,-0.145,-0.040
4.426,-0.275,-0.045
4.428,-0.330,-0.045
4.430,-0.225,-0.045
4.432,-0.200,-0.035
4.434,-0.125,-0.025
4.436,-0.040,-0.020
4.438,-0.035,-0.015
4.440,0.110,-0.010
4.442,0.025,-0.010
4.444,-0.070,-0.015
4.446,-0.245,-0.020
4.448,-0.320,-0.020
4.450,-0.220,-0.020
4.452,-0.205,-0.020
4.454,-0.115,-0.020
4.456,-0.040,-0.015
4.458,-0.020,-0.015
4.460,0.150,-0.010
4.462,0.035,-0.015
4.464,-0.120,-0.015
4.466,-0.270,-0.015
4.468,-0.310,-0.015
4.470,-0.160,-0.015
4.472,-0.135,-0.015
4.474,-0.105,-0.010
4.476,-0.025,-0.005
4.478,0.005,0.000
4.480,0.140,0.000
4.482,0.015,0.005
4.484,-0.080,0.005
4.486,-0.270,0.005
4.488,-0.250,0.000
4.490,-0.155,0.000
4.492,-0.130,0.000
4.494,-0.090,0.000
4.496,-0.005,0.000
4.498,0.010,0.000
4.500,0.135,0.000
4.502,-0.010,0.000
4.504,-0.035,0.005
4.506,-0.280,0.010
4.508,-0.195,0.010
4.510,-0.155,0.015
4.512,-0.085,0.020
4.514,-0.010,0.025
4.516,-0.030,0.030
4.518,0.075,0.030
4.520,0.160,0.030
4.522,0.000,0.025
4.524,-0.035,0.025
4.526,-0.265,0.025
4.528,-0.165,0.025
4.530,-0.105,0.030
4.532,-0.125,0.035
4.534,-0.060,0.040
4.536,0.060,0.050
4.538,0.115,0.055
4.540,0.200,0.060
4.542,0.085,0.065
4.544,-0.085,0.065
4.546,-0.250,0.065
4.548,-0.125,0.065
4.550,-0.085,0.070
4.552,-0.060,0.075
4.554,0.015,0.085
4.556,0.070,0.095
4.558,0.185,0.105
4.560,0.200,0.115
4.562,0.110,0.115
4.564,0.010,0.120
4.566,-0.195,0.115
4.568,-0.095,0.115
4.570,-0.020,0.115
4.572,-0.005,0.120
4.574,0.075,0.125
4.576,0.160,0.140
4.578,0.265,0.155
4.580,0.250,0.165
4.582,0.075,0.170
4.584,-0.040,0.165
4.586,-0.140,0.155
4.588,-0.035,0.135
4.590,0.010,0.120
4.592,0.020,0.105
4.594,0.105,0.095
4.596,0.175,0.100
4.598,0.180,0.115
4.600,-0.020,0.135
4.602,-0.095,0.155
4.604,-0.045,0.170
4.606,0.070,0.165
4.608,0.090,0.145
4.610,0.195,0.115
4.612,0.170,0.070
4.614,0.005,0.030
4.616,-0.155,-0.005
4.618,-0.325,-0.020
4.620,-0.105,-0.020
4.622,-0.095,-0.005
4.624,-0.090,0.015
4.626,-0.010,0.040
4.628,0.005,0.055
4.630,0.150,0.055
4.632,0.135,0.040
4.634,-0.055,0.020
4.636,-0.175,-0.010
4.638,-0.350,-0.030
4.640,-0.165,-0.045
4.642,-0.160,-0.045
4.644,-0.105,-0.035
4.646,-0.050,-0.020
4.648,-0.040,-0.005
4.650,0.130,0.005
4.652,0.060,0.005
4.654,-0.085,-0.005
4.656,-0.215,-0.020
4.658,-0.355,-0.035
4.660,-0.195,-0.045
4.662,-0.185,-0.050
4.664,-0.150,-0.045
4.666,-0.045,-0.035
4.668,-0.070,-0.030
4.670,0.150,-0.020
4.672,0.030,-0.020
4.674,-0.065,-0.030
4.676,-0.300,-0.040
4.678,-0.390,-0.055
4.680,-0.190,-0.065
4.682,-0.225,-0.070
4.684,-0.160,-0.070
4.686,-0.045,-0.060
4.688,-0.010,-0.050
4.690,0.090,-0.040
4.692,0.015,-0.030
4.694,-0.115,-0.025
4.696,-0.275,-0.030
4.698,-0.325,-0.035
4.700,-0.215,-0.045
4.702,-0.230,-0.050
4.704,-0.120,-0.055
4.706,-0.025,-0.055
4.708,-0.035,-0.055
4.710,0.130,-0.050
4.712,0.020,-0.050
4.714,-0.060,-0.045
4.716,-0.360,-0.050
4.718,-0.345,-0.050
4.720,-0.220,-0.055
4.722,-0.205,-0.055
4.724,-0.135,-0.050
4.726,-0.020,-0.045
4.728,-0.020,-0.035
4.730,0.140,-0.025
4.732,0.020,-0.015
4.734,-0.085,-0.005
4.736,-0.250,-0.005
4.738,-0.270,-0.005
4.740,-0.175,-0.015
4.742,-0.180,-0.020
4.744,-0.120,-0.030
4.746,-0.020,-0.035
4.748,-0.010,-0.040
4.750,0.120,-0.040
4.752,0.005,-0.035
4.754,-0.070,-0.030
4.756,-0.275,-0.020
4.758,-0.310,-0.015
4.760,-0.180,-0.010
4.762,-0.140,-0.005
4.764,-0.060,-0.005
4.766,0.005,-0.005
4.768,-0.015,-0.010
4.770,0.120,-0.015
4.772,-0.010,-0.020
4.774,-0.095,-0.025
4.776,-0.335,-0.025
4.778,-0.260,-0.025
4.780,-0.155,-0.025
4.782,-0.140,-0.020
4.784,-0.085,-0.010
4.786,-0.005,-0.005
4.788,0.105,0.000
4.790,0.165,-0.005
4.792,0.015,-0.010
4.794,-0.165,-0.015
4.796,-0.375,-0.025
4.798,-0.230,-0.035
4.800,-0.175,-0.045
4.802,-0.190,-0.045
4.804,-0.100,-0.045
4.806,-0.050,-0.045
4.808,0.010,-0.035
4.810,0.110,-0.030
4.812,0.000,-0.025
4.814,-0.110,-0.025
4.816,-0.355,-0.025
4.818,-0.250,-0.025
4.820,-0.190,-0.030
4.822,-0.105,-0.035
4.824,-0.085,-0.035
4.826,-0.040,-0.035
4.828,0.095,-0.035
4.830,0.075,-0.035
4.832,-0.035,-0.030
4.834,-0.130,-0.030
4.836,-0.360,-0.030
4.838,-0.220,-0.030
4.840,-0.185,-0.030
4.842,-0.205,-0.030
4.844,-0.060,-0.030
4.846,0.005,-0.030
4.848,0.090,-0.030
4.850,0.110,-0.025
4.852,-0.040,-0.025
4.854,-0.145,-0.030
4.856,-0.365,-0.035
4.858,-0.265,-0.040
4.860,-0.225,-0.045
4.862,-0.155,-0.055
4.864,-0.100,-0.060
4.866,-0.015,-0.065
4.868,0.070,-0.065
4.870,0.085,-0.060
4.872,-0.065,-0.050
4.874,-0.190,-0.040
4.876,-0.390,-0.030
4.878,-0.225,-0.020
4.880,-0.200,-0.015
4.882,-0.140,-0.015
4.884,-0.050,-0.015
4.886,-0.015,-0.020
4.888,0.115,-0.025
4.890,0.065,-0.030
4.892,-0.050,-0.035
4.894,-0.160,-0.035
4.896,-0.355,-0.035
4.898,-0.220,-0.035
4.900,-0.185,-0.030
4.902,-0.140,-0.030
4.904,-0.025,-0.030
4.906,-0.030,-0.035
4.908,0.065,-0.035
4.910,0.110,-0.030
4.912,-0.045,-0.030
4.914,-0.195,-0.025
4.916,-0.345,-0.015
4.918,-0.185,-0.005
4.920,-0.145,0.005
4.922,-0.095,0.015
4.924,-0.015,0.020
4.926,0.000,0.025
4.928,0.165,0.020
4.930,0.120,0.020
4.932,0.035,0.015
4.934,-0.155,0.010
4.936,-0.335,0.010
4.938,-0.240,0.010
4.940,-0.145,0.010
4.942,-0.070,0.010
4.944,0.005,0.010
4.946,0.035,0.015
4.948,0.195,0.020
4.950,0.085,0.020
4.952,-0.005,0.025
4.954,-0.160,0.025
4.956,-0.300,0.025
4.958,-0.120,0.020
4.960,-0.195,0.010
4.962,-0.105,0.000
4.964,-0.045,-0.015
4.966,-0.030,-0.025
4.968,0.125,-0.040
4.970,0.065,-0.050
4.972,-0.105,-0.055
4.974,-0.270,-0.055
4.976,-0.400,-0.050
4.978,-0.220,-0.045
4.980,-0.175,-0.040
4.982,-0.150,-0.035
4.984,-0.065,-0.035
4.986,-0.025,-0.040
4.988,0.110,-0.045
4.990,0.055,-0.055
4.992,-0.105,-0.060
4.994,-0.295,-0.065
4.996,-0.375,-0.070
4.998,-0.215,-0.070
5.000,-0.220,-0.070
5.002,-0.170,-0.065
5.004,-0.035,-0.065
5.006,-0.050,-0.065
5.008,0.060,-0.070
5.010,-0.015,-0.075
5.012,-0.115,-0.075
5.014,-0.320,-0.080
5.016,-0.345,-0.075
5.018,-0.215,-0.070
5.020,-0.185,-0.065
5.022,-0.160,-0.060
5.024,-0.110,-0.055
5.026,-0.060,-0.055
5.028,0.110,-0.060
5.030,-0.010,-0.065
5.032,-0.125,-0.070
5.034,-0.320,-0.075
5.036,-0.340,-0.080
5.038,-0.175,-0.075
5.040,-0.215,-0.065
5.042,-0.125,-0.055
5.044,-0.045,-0.045
5.046,-0.075,-0.040
5.048,0.120,-0.040
5.050,0.005,-0.050
5.052,-0.120,-0.065
5.054,-0.320,-0.085
5.056,-0.330,-0.110
5.058,-0.290,-0.130
5.060,-0.290,-0.145
5.062,-0.265,-0.145
5.064,-0.125,-0.135
5.066,-0.090,-0.105
5.068,0.080,-0.060
5.070,0.025,-0.005
5.072,0.020,0.070
5.074,-0.090,0.150
5.076,0.080,0.245
5.078,0.195,0.335
5.080,0.255,0.425
5.082,0.465,0.510
5.084,0.645,0.575
5.086,0.745,0.620
5.088,0.865,0.635
5.090,0.645,0.625
5.092,0.560,0.590
5.094,0.265,0.530
5.096,0.250,0.450
5.098,0.165,0.355
5.100,0.115,0.260
5.102,0.040,0.170
5.104,0.050,0.090
5.106,0.090,0.025
5.108,0.120,-0.025
5.110,-0.050,-0.060
5.112,-0.160,-0.080
5.114,-0.390,-0.090
5.116,-0.315,-0.095
5.118,-0.240,-0.095
5.120,-0.205,-0.090
5.122,-0.155,-0.090
5.124,-0.070,-0.085
5.126,0.000,-0.080
5.128,0.120,-0.070
5.130,-0.060,-0.065
5.132,-0.125,-0.055
5.134,-0.340,-0.050
5.136,-0.240,-0.045
5.138,-0.170,-0.040
5.140,-0.140,-0.040
5.142,-0.150,-0.045
5.144,-0.030,-0.050
5.146,0.050,-0.055
5.148,0.115,-0.055
5.150,-0.050,-0.055
5.152,-0.150,-0.055
5.154,-0.385,-0.050
5.156,-0.235,-0.050
5.158,-0.215,-0.045
5.160,-0.155,-0.045
5.162,-0.055,-0.045
5.164,-0.020,-0.045
5.166,0.065,-0.045
5.168,0.110,-0.045
5.170,-0.040,-0.040
5.172,-0.160,-0.035
5.174,-0.390,-0.025
5.176,-0.190,-0.020
5.178,-0.150,-0.015
5.180,-0.125,-0.010
5.182,-0.030,-0.010
5.184,-0.030,-0.015
5.186,0.125,-0.020
5.188,0.060,-0.025
5.190,-0.025,-0.030
5.192,-0.200,-0.035
5.194,-0.350,-0.035
5.196,-0.245,-0.035
5.198,-0.155,-0.030
5.200,-0.130,-0.030
5.202,0.000,-0.025
5.204,0.020,-0.025
5.206,0.115,-0.020
5.208,0.100,-0.020
5.210,-0.040,-0.015
5.212,-0.175,-0.010
5.214,-0.380,-0.005
5.216,-0.175,-0.005
5.218,-0.140,0.000
5.220,-0.085,0.000
5.222,0.015,-0.005
5.224,0.010,-0.005
5.226,0.115,-0.005
5.228,0.080,-0.010
5.230,0.000,-0.010
5.232,-0.195,-0.005
5.234,-0.340,-0.005
5.236,-0.180,0.000
5.238,-0.055,0.000
5.240,-0.080,0.000
5.242,-0.050,-0.005
5.244,-0.040,-0.005
5.246,0.125,-0.010
5.248,0.095,-0.010
5.250,-0.040,-0.010
5.252,-0.190,-0.005
5.254,-0.325,0.000
5.256,-0.135,0.005
5.258,-0.195,0.010
5.260,-0.045,0.010
5.262,0.025,0.015
5.264,0.040,0.015
5.266,0.160,0.015
5.268,0.155,0.020
5.270,0.010,0.025
5.272,-0.195,0.030
5.274,-0.285,0.040
5.276,-0.075,0.045
5.278,-0.110,0.050
5.280,-0.050,0.055
5.282,0.055,0.055
5.284,0.030,0.055
5.286,0.220,0.050
5.288,0.150,0.050
5.290,-0.005,0.050
5.292,-0.150,0.055
5.294,-0.250,0.060
5.296,-0.080,0.070
5.298,-0.100,0.075
5.300,0.000,0.080
5.302,0.100,0.080
5.304,0.115,0.085
5.306,0.280,0.085
5.308,0.145,0.085
5.310,0.050,0.090
5.312,-0.120,0.095
5.314,-0.160,0.105
5.316,-0.005,0.115
5.318,-0.040,0.125
5.320,0.030,0.130
5.322,0.110,0.130
5.324,0.145,0.130
5.326,0.285,0.125
5.328,0.205,0.120
5.330,0.075,0.115
5.332,-0.155,0.115
5.334,-0.130,0.120
5.336,-0.010,0.125
5.338,0.010,0.135
5.340,0.060,0.140
5.342,0.135,0.145
5.344,0.140,0.140
5.346,0.295,0.135
5.348,0.185,0.125
5.350,0.035,0.115
5.352,-0.145,0.110
5.354,-0.140,0.105
5.356,-0.025,0.105
5.358,0.020,0.110
5.360,0.110,0.115
5.362,0.130,0.120
5.364,0.075,0.120
5.366,0.285,0.115
5.368,0.090,0.105
5.370,0.015,0.095
5.372,-0.140,0.080
5.374,-0.145,0.065
5.376,-0.085,0.050
5.378,-0.065,0.045
5.380,-0.030,0.040
5.382,0.060,0.040
5.384,0.115,0.040
5.386,0.190,0.045
5.388,0.070,0.040
5.390,-0.020,0.040
5.392,-0.255,0.035
5.394,-0.165,0.030
5.396,-0.130,0.020
5.398,-0.155,0.010
5.400,-0.065,0.000
5.402,0.010,-0.010
5.404,0.080,-0.020
5.406,0.140,-0.025
5.408,-0.020,-0.030
5.410,-0.075,-0.035
5.412,-0.340,-0.035
5.414,-0.250,-0.030
5.416,-0.150,-0.030
5.418,-0.135,-0.025
5.420,-0.075,-0.025
5.422,-0.075,-0.025
5.424,0.070,-0.030
5.426,0.115,-0.035
5.428,-0.040,-0.040
5.430,-0.095,-0.045
5.432,-0.310,-0.045
5.434,-0.195,-0.050
5.436,-0.195,-0.050
5.438,-0.160,-0.045
5.440,-0.095,-0.045
5.442,-0.055,-0.045
5.444,0.050,-0.050
5.446,0.055,-0.055
5.448,-0.030,-0.065
5.450,-0.185,-0.070
5.452,-0.340,-0.080
5.454,-0.280,-0.085
5.456,-0.230,-0.085
5.458,-0.160,-0.080
5.460,-0.070,-0.070
5.462,-0.040,-0.060
5.464,0.070,-0.050
5.466,0.075,-0.040
5.468,-0.025,-0.035
5.470,-0.155,-0.035
5.472,-0.370,-0.035
5.474,-0.250,-0.040
5.476,-0.160,-0.045
5.478,-0.160,-0.055
5.480,-0.050,-0.060
5.482,0.005,-0.060
5.484,0.080,-0.060
5.486,0.050,-0.055
5.488,-0.080,-0.050
5.490,-0.195,-0.040
5.492,-0.380,-0.035
5.494,-0.195,-0.025
5.496,-0.190,-0.025
5.498,-0.130,-0.025
5.500,-0.050,-0.025
5.502,0.010,-0.030
5.504,0.135,-0.035
5.506,0.040,-0.035
5.508,-0.085,-0.040
5.510,-0.215,-0.040
5.512,-0.320,-0.035
5.514,-0.180,-0.035
5.516,-0.210,-0.035
5.518,-0.165,-0.035
5.520,-0.090,-0.035
5.522,-0.030,-0.030
5.524,0.180,-0.030
5.526,0.110,-0.030
5.528,-0.080,-0.025
5.530,-0.230,-0.020
5.532,-0.330,-0.015
5.534,-0.150,-0.015
5.536,-0.155,-0.015
5.538,-0.160,-0.020
5.540,-0.075,-0.030
5.542,-0.010,-0.040
5.544,0.130,-0.045
5.546,0.055,-0.050
5.548,-0.095,-0.045
5.550,-0.220,-0.040
5.552,-0.335,-0.035
5.554,-0.205,-0.025
5.556,-0.190,-0.020
5.558,-0.115,-0.015
5.560,-0.025,-0.015
5.562,-0.015,-0.020
5.564,0.130,-0.030
5.566,0.075,-0.035
5.568,-0.080,-0.040
5.570,-0.215,-0.040
5.572,-0.325,-0.040
5.574,-0.235,-0.035
5.576,-0.210,-0.030
5.578,-0.130,-0.030
5.580,-0.060,-0.030
5.582,-0.015,-0.035
5.584,0.155,-0.040
5.586,0.065,-0.050
5.588,-0.100,-0.055
5.590,-0.250,-0.060
5.592,-0.345,-0.060
5.594,-0.225,-0.055
5.596,-0.220,-0.050
5.598,-0.115,-0.045
5.600,-0.025,-0.045
5.602,-0.030,-0.045
5.604,0.130,-0.050
5.606,0.025,-0.055
5.608,-0.090,-0.060
5.610,-0.315,-0.065
5.612,-0.325,-0.065
5.614,-0.240,-0.065
5.616,-0.190,-0.060
5.618,-0.085,-0.055
5.620,-0.040,-0.050
5.622,-0.040,-0.050
5.624,0.095,-0.050
5.626,0.030,-0.050
5.628,-0.100,-0.050
5.630,-0.310,-0.050
5.632,-0.300,-0.045
5.634,-0.165,-0.040
5.636,-0.185,-0.035
5.638,-0.090,-0.030
5.640,-0.060,-0.025
5.642,-0.010,-0.025
5.644,0.155,-0.035
5.646,0.025,-0.045
5.648,-0.045,-0.055
5.650,-0.310,-0.065
5.652,-0.360,-0.070
5.654,-0.225,-0.070
5.656,-0.190,-0.065
5.658,-0.090,-0.055
5.660,-0.020,-0.045
5.662,-0.005,-0.030
5.664,0.110,-0.020
5.666,0.000,-0.015
5.668,-0.045,-0.015
5.670,-0.275,-0.015
5.672,-0.170,-0.015
5.674,-0.110,-0.010
5.676,-0.145,-0.010
5.678,-0.125,-0.005
5.680,0.025,0.005
5.682,0.045,0.010
5.684,0.160,0.015
5.686,0.040,0.015
5.688,-0.030,0.015
5.690,-0.235,0.010
5.692,-0.220,0.010
5.694,-0.125,0.005
5.696,-0.115,0.005
5.698,-0.065,0.005
5.700,0.025,0.005
5.702,0.125,0.005
5.704,0.130,0.005
5.706,0.035,0.000
5.708,-0.030,-0.010
5.710,-0.285,-0.025
5.712,-0.265,-0.035
5.714,-0.230,-0.050
5.716,-0.150,-0.060
5.718,-0.095,-0.070
5.720,-0.035,-0.070
5.722,0.085,-0.070
5.724,0.070,-0.070
5.726,-0.065,-0.065
5.728,-0.180,-0.060
5.730,-0.415,-0.055
5.732,-0.230,-0.055
5.734,-0.245,-0.060
5.736,-0.120,-0.060
5.738,-0.105,-0.065
5.740,-0.035,-0.070
5.742,0.055,-0.075
5.744,0.065,-0.075
5.746,-0.080,-0.075
5.748,-0.185,-0.075
5.750,-0.425,-0.070
5.752,-0.265,-0.065
5.754,-0.200,-0.060
5.756,-0.165,-0.060
5.758,-0.070,-0.055
5.760,-0.040,-0.055
5.762,0.095,-0.055
5.764,0.035,-0.060
5.766,-0.065,-0.060
5.768,-0.165,-0.060
5.770,-0.445,-0.060
5.772,-0.265,-0.060
5.774,-0.230,-0.055
5.776,-0.145,-0.055
5.778,-0.045,-0.055
5.780,-0.020,-0.055
5.782,0.095,-0.060
5.784,0.050,-0.060
5.786,-0.150,-0.065
5.788,-0.195,-0.070
5.790,-0.370,-0.075
5.792,-0.285,-0.085
5.794,-0.195,-0.090
5.796,-0.150,-0.100
5.798,-0.115,-0.110
5.800,-0.090,-0.120
5.802,-0.020,-0.125
5.804,-0.060,-0.125
5.806,-0.185,-0.115
5.808,-0.330,-0.095
5.810,-0.435,-0.060
5.812,-0.165,-0.010
5.814,0.040,0.050
5.816,0.060,0.125
5.818,0.215,0.205
5.820,0.295,0.300
5.822,0.570,0.395
5.824,0.625,0.485
5.826,0.560,0.570
5.828,0.510,0.635
5.830,0.390,0.680
5.832,0.585,0.695
5.834,0.575,0.680
5.836,0.545,0.630
5.838,0.545,0.555
5.840,0.465,0.460
5.842,0.505,0.350
5.844,0.340,0.240
5.846,0.080,0.140
5.848,-0.140,0.060
5.850,-0.345,-0.005
5.852,-0.210,-0.040
5.854,-0.215,-0.065
5.856,-0.190,-0.070
5.858,-0.130,-0.075
5.860,-0.090,-0.070
5.862,0.155,-0.070
5.864,0.025,-0.070
5.866,-0.110,-0.075
5.868,-0.270,-0.070
5.870,-0.425,-0.070
5.872,-0.190,-0.065
5.874,-0.205,-0.055
5.876,-0.125,-0.050
5.878,-0.035,-0.045
5.880,-0.015,-0.040
5.882,0.110,-0.045
5.884,0.040,-0.050
5.886,-0.075,-0.060
5.888,-0.320,-0.065
5.890,-0.360,-0.065
5.892,-0.185,-0.065
5.894,-0.195,-0.055
5.896,-0.095,-0.045
5.898,-0.050,-0.035
5.900,-0.010,-0.025
5.902,0.140,-0.025
5.904,0.040,-0.030
5.906,-0.045,-0.035
5.908,-0.305,-0.045
5.910,-0.340,-0.055
5.912,-0.190,-0.060
5.914,-0.200,-0.060
5.916,-0.120,-0.055
5.918,-0.030,-0.050
5.920,-0.040,-0.040
5.922,0.150,-0.035
5.924,0.030,-0.030
5.926,-0.085,-0.035
5.928,-0.290,-0.040
5.930,-0.265,-0.050
5.932,-0.240,-0.055
5.934,-0.155,-0.055
5.936,-0.105,-0.055
5.938,-0.060,-0.055
5.940,-0.010,-0.050
5.942,0.150,-0.040
5.944,0.030,-0.040
5.946,-0.115,-0.035
5.948,-0.310,-0.035
5.950,-0.295,-0.040
5.952,-0.175,-0.040
5.954,-0.185,-0.045
5.956,-0.105,-0.040
5.958,-0.005,-0.040
5.960,0.015,-0.035
5.962,0.165,-0.030
5.964,0.010,-0.025
5.966,-0.075,-0.025
5.968,-0.310,-0.025
5.970,-0.235,-0.025
5.972,-0.155,-0.025
5.974,-0.160,-0.025
5.976,-0.095,-0.025
5.978,-0.030,-0.020
5.980,0.070,-0.015
5.982,0.125,-0.010
5.984,0.040,-0.010
5.986,-0.040,-0.005
5.988,-0.290,-0.005
5.990,-0.180,-0.005
5.992,-0.130,-0.010
5.994,-0.165,-0.010
5.996,-0.075,-0.005
5.998,0.040,0.000
6.000,0.125,0.005
6.002,0.195,0.015
6.004,0.045,0.025
6.006,-0.065,0.030
6.008,-0.285,0.030
6.010,-0.190,0.030
6.012,-0.120,0.030
6.014,-0.075,0.025
6.016,-0.025,0.025
6.018,0.065,0.020
6.020,0.090,0.025
6.022,0.190,0.025
6.024,0.045,0.035
6.026,-0.040,0.040
6.028,-0.270,0.045
6.030,-0.135,0.050
6.032,-0.060,0.055
6.034,-0.040,0.055
6.036,-0.045,0.055
6.038,0.110,0.060
6.040,0.205,0.060
6.042,0.170,0.065
6.044,0.055,0.065
6.046,-0.045,0.070
6.048,-0.220,0.075
6.050,-0.100,0.075
6.052,-0.035,0.075
6.054,-0.045,0.080
6.056,0.055,0.085
6.058,0.135,0.090
6.060,0.240,0.100
6.062,0.245,0.110
6.064,0.090,0.120
6.066,-0.025,0.125
6.068,-0.195,0.130
6.070,-0.055,0.135
6.072,-0.015,0.130
6.074,-0.010,0.125
6.076,0.125,0.115
6.078,0.175,0.110
6.080,0.230,0.110
6.082,0.250,0.115
6.084,0.110,0.125
6.086,0.000,0.135
6.088,-0.120,0.150
6.090,-0.035,0.160
6.092,-0.025,0.165
6.094,0.030,0.160
6.096,0.130,0.150
6.098,0.145,0.135
6.100,0.295,0.120
6.102,0.195,0.105
6.104,0.070,0.095
6.106,-0.030,0.090
6.108,-0.220,0.090
6.110,-0.105,0.090
6.112,-0.025,0.095
6.114,0.015,0.090
6.116,0.080,0.090
6.118,0.060,0.080
6.120,0.220,0.070
6.122,0.140,0.065
6.124,0.005,0.055
6.126,-0.125,0.055
6.128,-0.265,0.055
6.130,-0.095,0.050
6.132,-0.115,0.045
6.134,0.010,0.040
6.136,0.070,0.025
6.138,-0.015,0.010
6.140,0.100,-0.010
6.142,0.080,-0.025
6.144,-0.045,-0.040
6.146,-0.240,-0.045
6.148,-0.320,-0.040
6.150,-0.205,-0.035
6.152,-0.175,-0.025
6.154,-0.110,-0.020
6.156,-0.030,-0.020
6.158,-0.020,-0.025
6.160,0.095,-0.035
6.162,0.095,-0.050
6.164,-0.085,-0.060
6.166,-0.260,-0.070
6.168,-0.415,-0.070
6.170,-0.200,-0.065
6.172,-0.175,-0.050
6.174,-0.120,-0.035
6.176,-0.050,-0.025
6.178,-0.025,-0.015
6.180,0.155,-0.010
6.182,0.085,-0.015
6.184,-0.080,-0.020
6.186,-0.250,-0.030
6.188,-0.350,-0.035
6.190,-0.170,-0.040
6.192,-0.190,-0.045
6.194,-0.095,-0.045
6.196,-0.040,-0.040
6.198,-0.040,-0.040
6.200,0.110,-0.040
6.202,0.025,-0.040
6.204,-0.120,-0.040
6.206,-0.240,-0.045
6.208,-0.290,-0.050
6.210,-0.195,-0.050
6.212,-0.170,-0.055
6.214,-0.170,-0.055
6.216,-0.050,-0.055
6.218,-0.045,-0.055
6.220,0.110,-0.055
6.222,0.010,-0.055
6.224,-0.100,-0.055
6.226,-0.310,-0.050
6.228,-0.330,-0.050
6.230,-0.160,-0.045
6.232,-0.185,-0.045
6.234,-0.085,-0.045
6.236,-0.005,-0.045
6.238,-0.010,-0.050
6.240,0.000,-0.060
6.242,0.050,-0.065
6.244,-0.150,-0.070
6.246,-0.315,-0.075
6.248,-0.295,-0.075
6.250,-0.215,-0.070
6.252,-0.145,-0.060
6.254,-0.125,-0.050
6.256,-0.055,-0.045
6.258,-0.010,-0.035
6.260,0.145,-0.030
6.262,0.035,-0.030
6.264,-0.095,-0.030
6.266,-0.355,-0.035
6.268,-0.255,-0.040
6.270,-0.165,-0.045
6.272,-0.185,-0.045
6.274,-0.115,-0.045
6.276,-0.020,-0.045
6.278,0.045,-0.040
6.280,0.150,-0.035
6.282,0.005,-0.030
6.284,-0.105,-0.025
6.286,-0.340,-0.025
6.288,-0.250,-0.025
6.290,-0.180,-0.030
6.292,-0.160,-0.030
6.294,-0.090,-0.030
6.296,-0.005,-0.030
6.298,0.040,-0.025
6.300,0.085,-0.025
6.302,-0.010,-0.025
6.304,-0.115,-0.025
6.306,-0.300,-0.030
6.308,-0.235,-0.035
6.310,-0.180,-0.040
6.312,-0.160,-0.045
6.314,-0.130,-0.050
6.316,0.010,-0.050
6.318,0.070,-0.050
6.320,0.100,-0.045
6.322,-0.035,-0.040
6.324,-0.155,-0.035
6.326,-0.320,-0.035
6.328,-0.270,-0.035
6.330,-0.165,-0.035
6.332,-0.165,-0.040
6.334,-0.080,-0.045
6.336,-0.025,-0.045
6.338,0.075,-0.045
6.340,0.055,-0.040
6.342,-0.020,-0.030
6.344,-0.155,-0.025
6.346,-0.305,-0.015
6.348,-0.175,-0.015
6.350,-0.165,-0.020
6.352,-0.190,-0.030
6.354,-0.040,-0.040
6.356,-0.075,-0.055
6.358,0.065,-0.065
6.360,0.070,-0.065
6.362,-0.040,-0.065
6.364,-0.140,-0.055
6.366,-0.340,-0.035
6.368,-0.210,-0.020
6.370,-0.165,-0.005
6.372,-0.135,0.005
6.374,-0.035,0.005
6.376,0.000,0.005
6.378,0.175,0.000
6.380,0.100,-0.005
6.382,-0.040,-0.005
6.384,-0.125,0.000
6.386,-0.300,0.005
6.388,-0.130,0.015
6.390,-0.145,0.020
6.392,-0.095,0.025
6.394,0.000,0.020
6.396,0.015,0.015
6.398,0.160,0.010
6.400,0.120,0.005
6.402,-0.020,0.000
6.404,-0.180,0.005
6.406,-0.355,0.010
6.408,-0.115,0.020
6.410,-0.120,0.030
6.412,-0.085,0.040
6.414,0.020,0.040
6.416,0.060,0.030
6.418,0.160,0.015
6.420,0.095,-0.005
6.422,-0.060,-0.025
6.424,-0.240,-0.045
6.426,-0.370,-0.055
6.428,-0.240,-0.060
6.430,-0.160,-0.060
6.432,-0.160,-0.050
6.434,-0.080,-0.045
6.436,-0.010,-0.035
6.438,0.090,-0.030
6.440,0.060,-0.030
6.442,-0.080,-0.040
6.444,-0.220,-0.045
6.446,-0.355,-0.055
6.448,-0.235,-0.065
6.450,-0.240,-0.075
6.452,-0.195,-0.075
6.454,-0.020,-0.075
6.456,-0.090,-0.070
6.458,0.070,-0.065
6.460,0.045,-0.060
6.462,-0.100,-0.055
6.464,-0.230,-0.055
6.466,-0.365,-0.055
6.468,-0.200,-0.055
6.470,-0.240,-0.060
6.472,-0.205,-0.065
6.474,-0.115,-0.070
6.476,-0.055,-0.075
6.478,0.140,-0.075
6.480,0.005,-0.075
6.482,-0.105,-0.070
6.484,-0.280,-0.065
6.486,-0.385,-0.060
6.488,-0.205,-0.055
6.490,-0.225,-0.050
6.492,-0.160,-0.050
6.494,-0.085,-0.055
6.496,-0.040,-0.060
6.498,0.095,-0.065
6.500,0.035,-0.075
6.502,-0.085,-0.080
6.504,-0.340,-0.090
6.506,-0.355,-0.100
6.508,-0.255,-0.110
6.510,-0.315,-0.120
6.512,-0.225,-0.130
6.514,-0.135,-0.140
6.516,-0.145,-0.140
6.518,0.000,-0.135
6.520,-0.070,-0.115
6.522,-0.130,-0.080
6.524,-0.285,-0.025
6.526,-0.215,0.045
6.528,0.070,0.130
6.530,0.135,0.225
6.532,0.255,0.330
6.534,0.445,0.425
6.536,0.520,0.515
6.538,0.765,0.590
6.540,0.785,0.640
6.542,0.660,0.670
6.544,0.485,0.670
6.546,0.420,0.645
6.548,0.430,0.590
6.550,0.380,0.515
6.552,0.325,0.420
6.554,0.305,0.320
6.556,0.230,0.220
6.558,0.275,0.125
6.560,0.045,0.045
6.562,-0.015,-0.015
6.564,-0.320,-0.055
6.566,-0.285,-0.075
6.568,-0.245,-0.080
6.570,-0.195,-0.075
6.572,-0.130,-0.065
6.574,-0.090,-0.055
6.576,-0.040,-0.045
6.578,0.105,-0.045
6.580,-0.025,-0.045
6.582,-0.095,-0.050
6.584,-0.325,-0.055
6.586,-0.255,-0.055
6.588,-0.200,-0.055
6.590,-0.160,-0.050
6.592,-0.125,-0.045
6.594,-0.070,-0.045
6.596,0.005,-0.040
6.598,0.130,-0.045
6.600,-0.015,-0.045
6.602,-0.135,-0.055
6.604,-0.335,-0.060
6.606,-0.295,-0.065
6.608,-0.205,-0.070
6.610,-0.195,-0.070
6.612,-0.105,-0.070
6.614,-0.020,-0.065
6.616,0.050,-0.060
6.618,0.105,-0.055
6.620,-0.055,-0.050
6.622,-0.095,-0.045
6.624,-0.340,-0.040
6.626,-0.235,-0.040
6.628,-0.255,-0.040
6.630,-0.160,-0.040
6.632,-0.095,-0.045
6.634,-0.025,-0.050
6.636,0.045,-0.055
6.638,0.095,-0.060
6.640,-0.040,-0.055
6.642,-0.105,-0.050
6.644,-0.350,-0.035
6.646,-0.220,-0.020
6.648,-0.160,-0.005
6.650,-0.110,0.005
6.652,-0.030,0.010
6.654,-0.035,0.005
6.656,0.120,-0.005
6.658,0.080,-0.020
6.660,-0.060,-0.035
6.662,-0.120,-0.045
6.664,-0.315,-0.050
6.666,-0.195,-0.050
6.668,-0.180,-0.040
6.670,-0.125,-0.025
6.672,-0.070,-0.015
6.674,-0.025,0.000
6.676,0.125,0.005
6.678,0.085,0.005
6.680,-0.005,-0.005
6.682,-0.180,-0.010
6.684,-0.325,-0.020
6.686,-0.170,-0.020
6.688,-0.125,-0.020
6.690,-0.115,-0.015
6.692,-0.015,0.000
6.694,0.020,0.015
6.696,0.165,0.025
6.698,0.080,0.030
6.700,-0.005,0.035
6.702,-0.130,0.030
6.704,-0.235,0.020
6.706,-0.205,0.005
6.708,-0.180,-0.005
6.710,-0.115,-0.010
6.712,-0.005,-0.010
6.714,0.030,-0.010
6.716,0.155,-0.005
6.718,0.125,0.005
6.720,-0.040,0.010
6.722,-0.170,0.015
6.724,-0.290,0.020
6.726,-0.170,0.025
6.728,-0.115,0.030
6.730,-0.030,0.030
6.732,0.030,0.035
6.734,0.025,0.040
6.736,0.210,0.045
6.738,0.130,0.050
6.740,0.020,0.055
6.742,-0.155,0.060
6.744,-0.290,0.060
6.746,-0.105,0.055
6.748,-0.035,0.055
6.750,-0.045,0.050
6.752,0.105,0.050
6.754,0.060,0.050
6.756,0.220,0.055
6.758,0.140,0.065
6.760,0.050,0.075
6.762,-0.165,0.090
6.764,-0.240,0.100
6.766,-0.035,0.110
6.768,-0.025,0.115
6.770,0.030,0.115
6.772,0.125,0.115
6.774,0.125,0.115
6.776,0.250,0.110
6.778,0.200,0.110
6.780,0.075,0.115
6.782,-0.090,0.120
6.784,-0.235,0.125
6.786,-0.030,0.125
6.788,-0.045,0.130
6.790,0.055,0.125
6.792,0.145,0.120
6.794,0.115,0.115
6.796,0.255,0.110
6.798,0.175,0.105
6.800,0.110,0.110
6.802,-0.085,0.115
6.804,-0.140,0.125
6.806,-0.045,0.135
6.808,0.000,0.145
6.810,0.065,0.145
6.812,0.115,0.140
6.814,0.125,0.125
6.816,0.270,0.105
6.818,0.140,0.085
6.820,0.070,0.065
6.822,-0.175,0.050
6.824,-0.230,0.045
6.826,-0.075,0.050
6.828,-0.085,0.060
6.830,0.035,0.070
6.832,0.050,0.080
6.834,0.055,0.085
6.836,0.225,0.080
6.838,0.115,0.065
6.840,0.010,0.040
6.842,-0.205,0.015
6.844,-0.230,-0.005
6.846,-0.205,-0.025
6.848,-0.125,-0.030
6.850,-0.090,-0.030
6.852,-0.005,-0.025
6.854,-0.010,-0.015
6.856,0.155,-0.010
6.858,0.005,-0.005
6.860,-0.090,-0.010
6.862,-0.280,-0.025
6.864,-0.265,-0.035
6.866,-0.160,-0.050
6.868,-0.210,-0.055
6.870,-0.135,-0.060
6.872,-0.020,-0.060
6.874,0.010,-0.050
6.876,0.130,-0.045
6.878,0.015,-0.035
6.880,-0.065,-0.035
6.882,-0.370,-0.035
6.884,-0.260,-0.035
6.886,-0.195,-0.040
6.888,-0.135,-0.045
6.890,-0.120,-0.050
6.892,-0.020,-0.050
6.894,0.040,-0.045
6.896,0.135,-0.045
6.898,-0.045,-0.040
6.900,-0.140,-0.040
6.902,-0.350,-0.040
6.904,-0.235,-0.050
6.906,-0.170,-0.055
6.908,-0.235,-0.060
6.910,-0.115,-0.065
6.912,-0.030,-0.065
6.914,0.050,-0.060
6.916,0.125,-0.050
6.918,-0.025,-0.045
6.920,-0.115,-0.035
6.922,-0.350,-0.035
6.924,-0.285,-0.035
6.926,-0.150,-0.040
6.928,-0.135,-0.050
6.930,-0.135,-0.060
6.932,-0.050,-0.070
6.934,0.030,-0.070
6.936,0.100,-0.070
6.938,-0.045,-0.060
6.940,-0.135,-0.050
6.942,-0.350,-0.035
6.944,-0.185,-0.020
6.946,-0.185,-0.015
6.948,-0.185,-0.015
6.950,-0.105,-0.020
6.952,-0.040,-0.030
6.954,0.095,-0.045
6.956,0.095,-0.055
6.958,-0.090,-0.065
6.960,-0.130,-0.070
6.962,-0.370,-0.070
6.964,-0.280,-0.065
6.966,-0.200,-0.055
6.968,-0.155,-0.045
6.970,-0.040,-0.040
6.972,-0.030,-0.035
6.974,0.070,-0.040
6.976,0.100,-0.040
6.978,-0.070,-0.045
6.980,-0.165,-0.045
6.982,-0.365,-0.045
6.984,-0.240,-0.045
6.986,-0.165,-0.040
6.988,-0.135,-0.030
6.990,-0.075,-0.020
6.992,0.020,-0.015
6.994,0.135,-0.015
6.996,0.100,-0.015
6.998,-0.010,-0.020
7.000,-0.225,-0.030
7.002,-0.365,-0.040
7.004,-0.290,-0.050
7.006,-0.185,-0.060
7.008,-0.135,-0.065
7.010,0.020,-0.065
7.012,-0.085,-0.060
7.014,0.080,-0.050
7.016,0.045,-0.040
7.018,-0.075,-0.030
7.020,-0.205,-0.020
7.022,-0.375,-0.015
7.024,-0.155,-0.010
7.026,-0.155,-0.015
7.028,-0.120,-0.015
7.030,-0.005,-0.020
7.032,-0.050,-0.025
7.034,0.115,-0.030
7.036,0.050,-0.030
7.038,-0.050,-0.030
7.040,-0.210,-0.025
7.042,-0.375,-0.025
7.044,-0.175,-0.025
7.046,-0.160,-0.025
7.048,-0.155,-0.030
7.050,-0.035,-0.035
7.052,-0.030,-0.040
7.054,0.075,-0.045
7.056,0.015,-0.050
7.058,-0.090,-0.050
7.060,-0.155,-0.045
7.062,-0.330,-0.040
7.064,-0.190,-0.035
7.066,-0.230,-0.030
7.068,-0.115,-0.025
7.070,-0.040,-0.020
7.072,0.050,-0.020
7.074,0.145,-0.015
7.076,0.090,-0.010
7.078,-0.035,-0.005
7.080,-0.200,0.000
7.082,-0.340,0.000
7.084,-0.165,0.000
7.086,-0.190,-0.005
7.088,-0.105,-0.010
7.090,-0.065,-0.015
7.092,0.005,-0.020
7.094,0.190,-0.020
7.096,0.070,-0.015
7.098,-0.045,-0.005
7.100,-0.200,0.010
7.102,-0.310,0.020
7.104,-0.145,0.025
7.106,-0.155,0.030
7.108,-0.065,0.025
7.110,-0.005,0.010
7.112,0.010,-0.005
7.114,0.165,-0.020
7.116,0.075,-0.040
7.118,-0.025,-0.050
7.120,-0.295,-0.055
7.122,-0.360,-0.060
7.124,-0.245,-0.055
7.126,-0.180,-0.055
7.128,-0.070,-0.055
7.130,-0.050,-0.055
7.132,-0.070,-0.060
7.134,0.075,-0.070
7.136,0.015,-0.075
7.138,-0.050,-0.080
7.140,-0.380,-0.080
7.142,-0.350,-0.075
7.144,-0.210,-0.070
7.146,-0.210,-0.060
7.148,-0.100,-0.055
7.150,-0.010,-0.050
7.152,-0.035,-0.050
7.154,0.070,-0.055
7.156,-0.005,-0.060
7.158,-0.105,-0.065
7.160,-0.360,-0.070
7.162,-0.295,-0.070
7.164,-0.225,-0.075
7.166,-0.225,-0.075
7.168,-0.165,-0.070
7.170,-0.035,-0.070
7.172,0.015,-0.070
7.174,0.100,-0.070
7.176,-0.030,-0.075
7.178,-0.120,-0.080
7.180,-0.420,-0.080
7.182,-0.285,-0.085
7.184,-0.250,-0.085
7.186,-0.200,-0.080
7.188,-0.125,-0.075
7.190,-0.075,-0.070
7.192,-0.015,-0.065
7.194,0.075,-0.060
7.196,-0.020,-0.060
7.198,-0.060,-0.065
7.200,-0.320,-0.070
7.202,-0.295,-0.085
7.204,-0.280,-0.100
7.206,-0.255,-0.120
7.208,-0.225,-0.140
7.210,-0.165,-0.155
7.212,-0.075,-0.165
7.214,-0.025,-0.165
7.216,-0.165,-0.145
7.218,-0.190,-0.110
7.220,-0.375,-0.055
7.222,-0.180,0.015
7.224,0.000,0.105
7.226,0.135,0.200
7.228,0.265,0.305
7.230,0.430,0.405
7.232,0.580,0.495
7.234,0.720,0.570
7.236,0.665,0.620
7.238,0.685,0.650
7.240,0.435,0.650
7.242,0.430,0.625
7.244,0.440,0.575
7.246,0.415,0.510
7.248,0.380,0.425
7.250,0.240,0.335
7.252,0.275,0.240
7.254,0.240,0.155
7.256,0.075,0.085
7.258,-0.050,0.025
7.260,-0.315,-0.015
7.262,-0.255,-0.040
7.264,-0.165,-0.050
7.266,-0.155,-0.050
7.268,-0.070,-0.045
7.270,-0.030,-0.040
7.272,0.080,-0.035
7.274,0.055,-0.035
7.276,-0.070,-0.040
7.278,-0.205,-0.045
7.280,-0.405,-0.050
7.282,-0.195,-0.055
7.284,-0.155,-0.055
7.286,-0.120,-0.050
7.288,-0.075,-0.045
7.290,-0.015,-0.035
7.292,0.125,-0.030
7.294,0.085,-0.025
7.296,-0.065,-0.030
7.298,-0.275,-0.030
7.300,-0.410,-0.040
7.302,-0.175,-0.045
7.304,-0.160,-0.050
7.306,-0.130,-0.050
7.308,-0.065,-0.050
7.310,-0.055,-0.045
7.312,0.130,-0.035
7.314,0.030,-0.030
7.316,-0.105,-0.025
7.318,-0.210,-0.025
7.320,-0.320,-0.025
7.322,-0.170,-0.035
7.324,-0.155,-0.050
7.326,-0.190,-0.060
7.328,-0.140,-0.070
7.330,-0.040,-0.075
7.332,0.115,-0.070
7.334,0.095,-0.065
7.336,-0.095,-0.050
7.338,-0.235,-0.035
7.340,-0.355,-0.020
7.342,-0.190,-0.010
7.344,-0.165,-0.005
7.346,-0.125,-0.010
7.348,-0.010,-0.020
7.350,0.010,-0.030
7.352,0.100,-0.040
7.354,0.045,-0.045
7.356,-0.030,-0.050
7.358,-0.255,-0.045
7.360,-0.405,-0.040
7.362,-0.180,-0.035
7.364,-0.160,-0.030
7.366,-0.155,-0.030
7.368,0.005,-0.030
7.370,-0.030,-0.030
7.372,0.105,-0.030
7.374,0.060,-0.025
7.376,-0.015,-0.020
7.378,-0.205,-0.005
7.380,-0.275,0.005
7.382,-0.065,0.010
7.384,-0.140,0.010
7.386,-0.115,0.000
7.388,-0.080,-0.020
7.390,-0.070,-0.040
7.392,0.100,-0.065
7.394,-0.040,-0.080
7.396,-0.090,-0.085
7.398,-0.240,-0.080
7.400,-0.315,-0.055
7.402,-0.140,-0.030
7.404,-0.140,0.000
7.406,-0.055,0.025
7.408,0.035,0.040
7.410,0.050,0.040
7.412,0.175,0.030
7.414,0.090,0.010
7.416,0.000,-0.010
7.418,-0.285,-0.025
7.420,-0.320,-0.030
7.422,-0.175,-0.030
7.424,-0.110,-0.015
7.426,-0.025,0.000
7.428,0.040,0.020
7.430,0.030,0.035
7.432,0.190,0.040
7.434,0.045,0.040
7.436,-0.020,0.030
7.438,-0.180,0.025
7.440,-0.190,0.015
7.442,-0.110,0.015
7.444,-0.115,0.015
7.446,-0.040,0.025
7.448,0.050,0.035
7.450,0.050,0.050
7.452,0.240,0.065
7.454,0.085,0.075
7.456,0.065,0.080
7.458,-0.130,0.085
7.460,-0.210,0.085
7.462,-0.050,0.090
7.464,-0.045,0.095
7.466,0.055,0.095
7.468,0.115,0.100
7.470,0.090,0.100
7.472,0.260,0.100
7.474,0.140,0.100
7.476,0.055,0.095
7.478,-0.185,0.090
7.480,-0.150,0.090
7.482,-0.055,0.095
7.484,0.000,0.105
7.486,0.030,0.115
7.488,0.145,0.125
7.490,0.180,0.135
7.492,0.295,0.145
7.494,0.200,0.145
7.496,0.085,0.140
7.498,-0.215,0.130
7.500,-0.075,0.115
7.502,-0.015,0.100
7.504,-0.045,0.085
7.506,0.000,0.080
7.508,0.095,0.075
7.510,0.135,0.080
7.512,0.220,0.085
7.514,0.115,0.090
7.516,0.050,0.095
7.518,-0.200,0.095
7.520,-0.090,0.090
7.522,-0.075,0.085
7.524,-0.075,0.080
7.526,0.000,0.070
7.528,0.095,0.060
7.530,0.170,0.050
7.532,0.125,0.040
7.534,0.070,0.030
7.536,-0.065,0.020
7.538,-0.280,0.010
7.540,-0.170,0.000
7.542,-0.125,-0.010
7.544,-0.165,-0.020
7.546,-0.075,-0.030
7.548,-0.025,-0.035
7.550,0.030,-0.035
7.552,0.080,-0.035
7.554,0.015,-0.035
7.556,-0.105,-0.030
7.558,-0.370,-0.030
7.560,-0.220,-0.030
7.562,-0.155,-0.030
7.564,-0.150,-0.035
7.566,-0.045,-0.040
7.568,-0.055,-0.040
7.570,0.105,-0.040
7.572,0.115,-0.035
7.574,-0.060,-0.030
7.576,-0.175,-0.020
7.578,-0.365,-0.015
7.580,-0.150,-0.015
7.582,-0.100,-0.020
7.584,-0.140,-0.025
7.586,-0.055,-0.035
7.588,-0.060,-0.045
7.590,0.025,-0.050
7.592,0.035,-0.055
7.594,-0.040,-0.050
7.596,-0.170,-0.050
7.598,-0.340,-0.045
7.600,-0.170,-0.040
7.602,-0.145,-0.035
7.604,-0.150,-0.035
7.606,-0.125,-0.035
7.608,-0.075,-0.040
7.610,0.090,-0.040
7.612,0.075,-0.045
7.614,-0.050,-0.045
7.616,-0.210,-0.045
7.618,-0.330,-0.040
7.620,-0.230,-0.040
7.622,-0.205,-0.045
7.624,-0.095,-0.045
7.626,-0.015,-0.055
7.628,-0.140,-0.060
7.630,0.050,-0.060
7.632,0.055,-0.060
7.634,-0.065,-0.060
7.636,-0.135,-0.050
7.638,-0.310,-0.045
7.640,-0.230,-0.035
7.642,-0.165,-0.030
7.644,-0.150,-0.030
7.646,-0.060,-0.030
7.648,-0.020,-0.035
7.650,0.070,-0.040
7.652,0.050,-0.045
7.654,-0.060,-0.045
7.656,-0.210,-0.045
7.658,-0.355,-0.040
7.660,-0.225,-0.035
7.662,-0.140,-0.030
7.664,-0.120,-0.025
7.666,0.005,-0.025
7.668,0.000,-0.030
7.670,0.150,-0.030
7.672,0.060,-0.035
7.674,-0.080,-0.040
7.676,-0.305,-0.045
7.678,-0.475,-0.050
7.680,-0.200,-0.055
7.682,-0.135,-0.055
7.684,-0.140,-0.055
7.686,-0.010,-0.050
7.688,-0.015,-0.050
7.690,0.120,-0.040
7.692,0.100,-0.035
7.694,-0.060,-0.025
7.696,-0.265,-0.020
7.698,-0.375,-0.020
7.700,-0.170,-0.025
7.702,-0.200,-0.030
7.704,-0.130,-0.045
7.706,-0.075,-0.060
7.708,-0.035,-0.075
7.710,0.075,-0.085
7.712,-0.030,-0.090
7.714,-0.075,-0.085
7.716,-0.245,-0.070
7.718,-0.345,-0.050
7.720,-0.200,-0.030
7.722,-0.205,-0.015
7.724,-0.070,-0.005
7.726,0.015,0.000
7.728,0.055,-0.005
7.730,0.160,-0.015
7.732,0.025,-0.030
7.734,-0.045,-0.045
7.736,-0.290,-0.055
7.738,-0.315,-0.060
7.740,-0.210,-0.065
7.742,-0.250,-0.065
7.744,-0.150,-0.060
7.746,-0.045,-0.055
7.748,0.010,-0.045
7.750,0.150,-0.040
7.752,0.040,-0.030
7.754,-0.110,-0.020
7.756,-0.290,-0.010
7.758,-0.290,-0.005
7.760,-0.120,0.000
7.762,-0.110,0.005
7.764,-0.065,0.000
7.766,0.070,-0.005
7.768,0.050,-0.010
7.770,0.120,-0.020
7.772,-0.045,-0.025
7.774,-0.075,-0.025
7.776,-0.245,-0.015
7.778,-0.255,-0.005
7.780,-0.110,0.010
7.782,-0.100,0.025
7.784,-0.030,0.035
7.786,0.010,0.040
7.788,0.100,0.035
7.790,0.215,0.025
7.792,0.035,0.010
7.794,-0.060,0.000
7.796,-0.280,-0.015
7.798,-0.245,-0.025
7.800,-0.185,-0.030
7.802,-0.190,-0.035
7.804,-0.075,-0.035
7.806,-0.020,-0.035
7.808,0.060,-0.040
7.810,0.120,-0.040
7.812,-0.015,-0.045
7.814,-0.065,-0.050
7.816,-0.340,-0.050
7.818,-0.290,-0.050
7.820,-0.205,-0.050
7.822,-0.135,-0.045
7.824,-0.130,-0.045
7.826,-0.045,-0.045
7.828,0.100,-0.050
7.830,0.105,-0.055
7.832,-0.065,-0.065
7.834,-0.180,-0.075
7.836,-0.375,-0.080
7.838,-0.280,-0.085
7.840,-0.265,-0.085
7.842,-0.185,-0.080
7.844,-0.100,-0.075
7.846,-0.045,-0.075
7.848,0.075,-0.070
7.850,0.040,-0.065
7.852,-0.085,-0.065
7.854,-0.170,-0.060
7.856,-0.375,-0.060
7.858,-0.240,-0.055
7.860,-0.220,-0.050
7.862,-0.120,-0.045
7.864,-0.015,-0.035
7.866,0.000,-0.030
7.868,0.090,-0.030
7.870,0.120,-0.030
7.872,-0.025,-0.030
7.874,-0.160,-0.040
7.876,-0.410,-0.045
7.878,-0.260,-0.055
7.880,-0.230,-0.065
7.882,-0.210,-0.075
7.884,-0.125,-0.085
7.886,-0.065,-0.095
7.888,0.055,-0.100
7.890,0.010,-0.110
7.892,-0.100,-0.120
7.894,-0.310,-0.125
7.896,-0.490,-0.135
7.898,-0.330,-0.135
7.900,-0.310,-0.130
7.902,-0.215,-0.115
7.904,-0.055,-0.085
7.906,-0.030,-0.045
7.908,0.180,0.015
7.910,0.200,0.090
7.912,0.185,0.180
7.914,0.145,0.275
7.916,0.100,0.370
7.918,0.315,0.465
7.920,0.440,0.545
7.922,0.530,0.605
7.924,0.635,0.645
7.926,0.735,0.655
7.928,0.880,0.640
7.930,0.740,0.600
7.932,0.470,0.535
7.934,0.230,0.445
7.936,0.035,0.350
7.938,0.065,0.245
7.940,0.010,0.150
7.942,-0.035,0.065
7.944,-0.035,0.000
7.946,-0.075,-0.045
7.948,0.045,-0.065
7.950,0.060,-0.060
7.952,-0.065,-0.050
7.954,-0.200,-0.030
7.956,-0.345,-0.010
7.958,-0.140,0.000
7.960,-0.145,-0.005
7.962,-0.140,-0.020
7.964,0.010,-0.040
7.966,-0.045,-0.065
7.968,0.045,-0.080
7.970,0.030,-0.090
7.972,-0.120,-0.090
7.974,-0.255,-0.075
7.976,-0.390,-0.055
7.978,-0.170,-0.035
7.980,-0.170,-0.015
7.982,-0.115,-0.010
7.984,-0.070,-0.010
7.986,-0.005,-0.020
7.988,0.115,-0.035
7.990,0.070,-0.050
7.992,-0.065,-0.060
7.994,-0.235,-0.070
7.996,-0.345,-0.070
7.998,-0.205,-0.065
8.000,-0.265,-0.060
8.002,-0.135,-0.055
8.004,-0.085,-0.050
8.006,-0.035,-0.050
8.008,0.125,-0.050
8.010,0.030,-0.055
8.012,-0.065,-0.055
8.014,-0.245,-0.055
8.016,-0.315,-0.055
8.018,-0.225,-0.050
8.020,-0.235,-0.040
8.022,-0.135,-0.040
8.024,0.030,-0.035
8.026,0.035,-0.035
8.028,0.145,-0.035
8.030,0.050,-0.035
8.032,-0.035,-0.035
8.034,-0.295,-0.035
8.036,-0.330,-0.035
8.038,-0.170,-0.030
8.040,-0.135,-0.030
8.042,-0.210,-0.030
8.044,-0.020,-0.030
8.046,0.045,-0.030
8.048,0.170,-0.035
8.050,0.065,-0.035
8.052,-0.065,-0.030
8.054,-0.335,-0.025
8.056,-0.290,-0.015
8.058,-0.150,-0.010
8.060,-0.135,-0.005
8.062,-0.105,-0.005
8.064,-0.025,-0.005
8.066,0.045,-0.015
8.068,0.170,-0.025
8.070,0.010,-0.040
8.072,-0.080,-0.045
8.074,-0.305,-0.050
8.076,-0.225,-0.045
8.078,-0.205,-0.035
8.080,-0.205,-0.025
8.082,-0.075,-0.010
8.084,0.020,0.000
8.086,0.070,0.010
8.088,0.125,0.010
8.090,0.075,0.005
8.092,-0.035,-0.005
8.094,-0.275,-0.015
8.096,-0.240,-0.020
8.098,-0.195,-0.020
8.100,-0.125,-0.010
8.102,-0.070,0.000
8.104,0.010,0.010
8.106,0.125,0.025
8.108,0.215,0.035
8.110,0.110,0.045
8.112,-0.040,0.045
8.114,-0.260,0.045
8.116,-0.215,0.045
8.118,-0.085,0.045
8.120,-0.060,0.040
8.122,-0.025,0.045
8.124,0.055,0.045
8.126,0.180,0.050
8.128,0.160,0.060
8.130,0.070,0.065
8.132,-0.050,0.065
8.134,-0.230,0.070
8.136,-0.135,0.070
8.138,-0.045,0.065
8.140,-0.015,0.065
8.142,0.000,0.065
8.144,0.095,0.065
8.146,0.190,0.070
8.148,0.245,0.070
8.150,0.055,0.075
8.152,0.005,0.080
8.154,-0.195,0.080
8.156,-0.110,0.085
8.158,-0.075,0.085
8.160,-0.040,0.090
8.162,0.075,0.090
8.164,0.125,0.095
8.166,0.265,0.100
8.168,0.260,0.110
8.170,0.095,0.115
8.172,-0.010,0.120
8.174,-0.200,0.125
8.176,0.000,0.125
8.178,0.045,0.125
8.180,-0.020,0.120
8.182,0.085,0.115
8.184,0.105,0.115
8.186,0.260,0.115
8.188,0.265,0.115
8.190,0.105,0.115
8.192,-0.025,0.120
8.194,-0.175,0.120
8.196,-0.055,0.115
8.198,-0.060,0.105
8.200,-0.055,0.095
8.202,0.070,0.080
8.204,0.100,0.070
8.206,0.210,0.060
8.208,0.175,0.055
8.210,0.060,0.055
8.212,-0.085,0.055
8.214,-0.300,0.060
8.216,-0.135,0.060
8.218,-0.065,0.055
8.220,-0.085,0.045
8.222,0.015,0.030
8.224,0.075,0.015
8.226,0.165,0.000
8.228,0.145,-0.010
8.230,-0.025,-0.015
8.232,-0.205,-0.010
8.234,-0.375,-0.005
8.236,-0.190,0.000
8.238,-0.155,0.005
8.240,-0.110,0.005
8.242,0.020,-0.005
8.244,0.015,-0.020
8.246,0.105,-0.035
8.248,0.025,-0.050
8.250,-0.040,-0.060
8.252,-0.150,-0.060
8.254,-0.305,-0.055
8.256,-0.240,-0.040
8.258,-0.210,-0.025
8.260,-0.145,-0.015
8.262,-0.045,-0.010
8.264,0.010,-0.015
8.266,0.165,-0.025
8.268,0.050,-0.045
8.270,-0.045,-0.060
8.272,-0.290,-0.070
8.274,-0.350,-0.075
8.276,-0.235,-0.070
8.278,-0.175,-0.055
8.280,-0.115,-0.040
8.282,-0.065,-0.025
8.284,-0.030,-0.010
8.286,0.180,-0.005
8.288,0.105,-0.005
8.290,-0.050,-0.010
8.292,-0.240,-0.020
8.294,-0.380,-0.030
8.296,-0.140,-0.035
8.298,-0.150,-0.040
8.300,-0.120,-0.045
8.302,-0.130,-0.045
8.304,-0.025,-0.045
8.306,0.135,-0.050
8.308,0.085,-0.055
8.310,-0.115,-0.060
8.312,-0.270,-0.065
8.314,-0.330,-0.070
8.316,-0.210,-0.070
8.318,-0.240,-0.065
8.320,-0.140,-0.055
8.322,-0.020,-0.045
8.324,0.005,-0.035
8.326,0.175,-0.030
8.328,0.085,-0.025
8.330,-0.095,-0.025
8.332,-0.285,-0.025
8.334,-0.270,-0.035
8.336,-0.200,-0.040
8.338,-0.210,-0.045
8.340,-0.150,-0.045
8.342,0.005,-0.045
8.344,0.010,-0.045
8.346,0.140,-0.040
8.348,0.035,-0.040
8.350,-0.085,-0.040
8.352,-0.310,-0.040
8.354,-0.345,-0.040
8.356,-0.135,-0.045
8.358,-0.210,-0.050
8.360,-0.115,-0.050
8.362,-0.005,-0.055
8.364,-0.035,-0.060
8.366,0.105,-0.060
8.368,0.030,-0.060
8.370,-0.075,-0.065
8.372,-0.365,-0.065
8.374,-0.325,-0.065
8.376,-0.180,-0.060
8.378,-0.175,-0.060
8.380,-0.115,-0.055
8.382,0.005,-0.050
8.384,-0.080,-0.045
8.386,0.100,-0.040
8.388,0.035,-0.035
8.390,-0.065,-0.035
8.392,-0.285,-0.035
8.394,-0.270,-0.035
8.396,-0.155,-0.040
8.398,-0.255,-0.040
8.400,-0.060,-0.040
8.402,0.050,-0.040
8.404,0.035,-0.035
8.406,0.110,-0.030
8.408,-0.005,-0.025
8.410,-0.045,-0.025
8.412,-0.285,-0.025
8.414,-0.270,-0.025
8.416,-0.195,-0.030
8.418,-0.145,-0.035
8.420,-0.105,-0.040
8.422,-0.030,-0.045
8.424,0.025,-0.045
8.426,0.135,-0.040
8.428,-0.030,-0.035
8.430,-0.065,-0.030
8.432,-0.285,-0.020
8.434,-0.215,-0.015
8.436,-0.155,-0.015
8.438,-0.125,-0.015
8.440,-0.115,-0.015
8.442,-0.005,-0.015
8.444,0.130,-0.020
8.446,0.155,-0.015
8.448,0.005,-0.010
8.450,-0.050,0.000
8.452,-0.280,0.010
8.454,-0.190,0.020
8.456,-0.110,0.030
8.458,-0.045,0.035
8.460,-0.040,0.030
8.462,0.015,0.025
8.464,0.120,0.020
8.466,0.120,0.010
8.468,0.025,0.000
8.470,-0.150,-0.005
8.472,-0.315,-0.010
8.474,-0.145,-0.010
8.476,-0.150,-0.005
8.478,-0.155,-0.005
8.480,-0.050,-0.005
8.482,0.075,-0.005
8.484,0.145,-0.005
8.486,0.115,-0.005
8.488,-0.025,0.000
8.490,-0.120,-0.005
8.492,-0.285,-0.005
8.494,-0.110,-0.005
8.496,-0.150,-0.015
8.498,-0.295,-0.025
8.500,-0.055,-0.035
8.502,0.010,-0.050
8.504,0.050,-0.065
8.506,0.090,-0.075
8.508,-0.090,-0.085
8.510,-0.230,-0.090
8.512,-0.400,-0.090
8.514,-0.255,-0.080
8.516,-0.230,-0.070
8.518,-0.185,-0.060
8.520,-0.105,-0.050
8.522,-0.025,-0.040
8.524,0.145,-0.035
8.526,0.120,-0.035
8.528,-0.055,-0.035
8.530,-0.185,-0.035
8.532,-0.380,-0.040
8.534,-0.230,-0.040
8.536,-0.235,-0.045
8.538,-0.105,-0.050
8.540,-0.045,-0.050
8.542,-0.035,-0.055
8.544,0.115,-0.060
8.546,0.040,-0.060
8.548,-0.090,-0.065
8.550,-0.255,-0.065
8.552,-0.420,-0.060
8.554,-0.210,-0.060
8.556,-0.220,-0.055
8.558,-0.155,-0.055
8.560,-0.035,-0.050
8.562,-0.045,-0.055
8.564,0.095,-0.055
8.566,0.015,-0.065
8.568,-0.080,-0.075
8.570,-0.240,-0.085
8.572,-0.365,-0.100
8.574,-0.290,-0.110
8.576,-0.350,-0.120
8.578,-0.260,-0.125
8.580,-0.160,-0.125
8.582,-0.090,-0.120
8.584,0.080,-0.105
8.586,0.035,-0.075
8.588,-0.110,-0.035
8.590,-0.185,0.025
8.592,-0.155,0.095
8.594,0.070,0.180
8.596,0.165,0.270
8.598,0.275,0.365
8.600,0.475,0.455
8.602,0.590,0.530
8.604,0.810,0.585
8.606,0.745,0.615
8.608,0.605,0.615
8.610,0.405,0.580
8.612,0.215,0.525
8.614,0.280,0.445
8.616,0.175,0.355
8.618,0.135,0.260
8.620,0.195,0.170
8.622,0.085,0.095
8.624,0.195,0.030
8.626,0.105,-0.015
8.628,-0.055,-0.040
8.630,-0.310,-0.055
8.632,-0.390,-0.060
8.634,-0.220,-0.060
8.636,-0.220,-0.060
8.638,-0.155,-0.060
8.640,-0.065,-0.060
8.642,0.000,-0.060
8.644,0.105,-0.065
8.646,0.025,-0.065
8.648,-0.075,-0.060
8.650,-0.285,-0.060
8.652,-0.315,-0.055
8.654,-0.215,-0.050
8.656,-0.185,-0.045
8.658,-0.080,-0.045
8.660,-0.045,-0.045
8.662,-0.015,-0.050
8.664,0.085,-0.055
8.666,0.000,-0.060
8.668,-0.085,-0.065
8.670,-0.315,-0.070
8.672,-0.285,-0.070
8.674,-0.195,-0.065
8.676,-0.235,-0.060
8.678,-0.125,-0.055
8.680,0.010,-0.050
8.682,0.030,-0.050
8.684,0.120,-0.050
8.686,-0.010,-0.050
8.688,-0.100,-0.055
8.690,-0.335,-0.055
8.692,-0.315,-0.055
8.694,-0.200,-0.055
8.696,-0.140,-0.050
8.698,-0.095,-0.045
8.700,-0.005,-0.035
8.702,0.015,-0.030
8.704,0.140,-0.020
8.706,0.010,-0.015
8.708,-0.090,-0.015
8.710,-0.310,-0.015
8.712,-0.270,-0.020
8.714,-0.130,-0.025
8.716,-0.090,-0.030
8.718,-0.090,-0.035
8.720,-0.060,-0.035
8.722,0.015,-0.035
8.724,0.130,-0.030
8.726,0.050,-0.030
8.728,-0.100,-0.025
8.730,-0.395,-0.020
8.732,-0.220,-0.020
8.734,-0.160,-0.020
8.736,-0.110,-0.025
8.738,-0.045,-0.025
8.740,-0.005,-0.030
8.742,0.045,-0.025
8.744,0.100,-0.025
8.746,-0.015,-0.015
8.748,-0.115,-0.010
8.750,-0.305,0.000
8.752,-0.150,0.005
8.754,-0.130,0.010
8.756,-0.155,0.010
8.758,-0.060,0.005
8.760,0.010,0.000
8.762,0.115,-0.005
8.764,0.110,-0.010
8.766,0.010,-0.010
8.768,-0.085,-0.005
8.770,-0.335,-0.005
8.772,-0.165,0.000
8.774,-0.110,0.005
8.776,-0.095,0.010
8.778,0.000,0.010
8.780,0.020,0.010
8.782,0.140,0.010
8.784,0.140,0.010
8.786,0.005,0.015
8.788,-0.110,0.020
8.790,-0.300,0.030
8.792,-0.135,0.040
8.794,-0.120,0.045
8.796,-0.055,0.050
8.798,0.020,0.050
8.800,0.070,0.050
8.802,0.170,0.045
8.804,0.175,0.040
8.806,0.040,0.035
8.808,-0.120,0.035
8.810,-0.260,0.035
8.812,-0.130,0.045
8.814,-0.085,0.055
8.816,-0.030,0.065
8.818,0.045,0.075
8.820,0.050,0.085
8.822,0.235,0.090
8.824,0.225,0.095
8.826,0.060,0.095
8.828,-0.080,0.095
8.830,-0.210,0.095
8.832,-0.040,0.100
8.834,-0.020,0.100
8.836,-0.030,0.105
8.838,0.055,0.110
8.840,0.155,0.115
8.842,0.270,0.115
8.844,0.215,0.115
8.846,0.110,0.115
8.848,-0.065,0.115
8.850,-0.200,0.110
8.852,-0.030,0.105
8.854,0.005,0.100
8.856,-0.075,0.095
8.858,0.075,0.095
8.860,0.145,0.095
8.862,0.285,0.100
8.864,0.220,0.105
8.866,0.065,0.110
8.868,-0.085,0.115
8.870,-0.240,0.115
8.872,-0.065,0.115
8.874,0.010,0.105
8.876,0.075,0.100
8.878,0.020,0.090
8.880,0.090,0.085
8.882,0.250,0.075
8.884,0.205,0.075
8.886,0.025,0.075
8.888,-0.140,0.080
8.890,-0.245,0.080
8.892,-0.105,0.080
8.894,-0.100,0.070
8.896,-0.040,0.060
8.898,0.090,0.045
8.900,0.080,0.025
8.902,0.155,0.010
8.904,0.115,0.000
8.906,-0.045,-0.005
8.908,-0.160,-0.005
8.910,-0.325,0.000
8.912,-0.175,0.005
8.914,-0.165,0.010
8.916,-0.100,0.010
8.918,0.005,0.000
8.920,0.040,-0.010
8.922,0.140,-0.020
8.924,0.020,-0.035
8.926,-0.095,-0.045
8.928,-0.240,-0.045
8.930,-0.325,-0.045
8.932,-0.160,-0.035
8.934,-0.160,-0.025
8.936,-0.115,-0.020
8.938,-0.050,-0.015
8.940,-0.025,-0.015
8.942,0.140,-0.020
8.944,0.035,-0.030
8.946,-0.070,-0.040
8.948,-0.270,-0.050
8.950,-0.285,-0.055
8.952,-0.185,-0.055
8.954,-0.195,-0.055
8.956,-0.110,-0.050
8.958,-0.060,-0.045
8.960,-0.020,-0.040
8.962,0.080,-0.040
8.964,0.005,-0.040
8.966,-0.115,-0.050
8.968,-0.265,-0.055
8.970,-0.240,-0.060
8.972,-0.265,-0.065
8.974,-0.210,-0.070
8.976,-0.115,-0.070
8.978,-0.015,-0.065
8.980,-0.010,-0.060
8.982,0.130,-0.050
8.984,-0.005,-0.045
8.986,-0.090,-0.040
8.988,-0.320,-0.035
8.990,-0.270,-0.035
8.992,-0.165,-0.040
8.994,-0.165,-0.040
8.996,-0.115,-0.045
8.998,-0.025,-0.045
9.000,0.000,-0.050
9.002,0.125,-0.050
9.004,-0.035,-0.050
9.006,-0.080,-0.050
9.008,-0.330,-0.050
9.010,-0.260,-0.050
9.012,-0.185,-0.050
9.014,-0.165,-0.050
9.016,-0.135,-0.055
9.018,-0.045,-0.060
9.020,0.005,-0.060
9.022,0.100,-0.060
9.024,-0.030,-0.055
9.026,-0.105,-0.050
9.028,-0.360,-0.045
9.030,-0.230,-0.035
9.032,-0.150,-0.030
9.034,-0.130,-0.025
9.036,-0.075,-0.025
9.038,-0.035,-0.025
9.040,0.040,-0.030
9.042,0.105,-0.035
9.044,-0.030,-0.035
9.046,-0.125,-0.035
9.048,-0.350,-0.035
9.050,-0.225,-0.035
9.052,-0.140,-0.035
9.054,-0.135,-0.040
9.056,-0.110,-0.045
9.058,-0.015,-0.050
9.060,0.045,-0.055
9.062,0.080,-0.060
9.064,-0.040,-0.060
9.066,-0.165,-0.055
9.068,-0.370,-0.045
9.070,-0.260,-0.035
9.072,-0.140,-0.025
9.074,-0.110,-0.015
9.076,-0.070,-0.015
9.078,-0.005,-0.015
9.080,0.095,-0.025
9.082,0.110,-0.035
9.084,0.025,-0.045
9.086,-0.235,-0.055
9.088,-0.440,-0.060
9.090,-0.250,-0.060
9.092,-0.170,-0.055
9.094,-0.140,-0.045
9.096,-0.040,-0.040
9.098,0.025,-0.030
9.100,0.095,-0.030
9.102,0.080,-0.030
9.104,-0.075,-0.030
9.106,-0.200,-0.035
9.108,-0.375,-0.040
9.110,-0.245,-0.045
9.112,-0.155,-0.050
9.114,-0.160,-0.050
9.116,-0.080,-0.050
9.118,0.045,-0.050
9.120,0.140,-0.045
9.122,0.010,-0.045
9.124,-0.040,-0.035
9.126,-0.200,-0.030
9.128,-0.345,-0.020
9.130,-0.205,-0.015
9.132,-0.190,-0.010
9.134,-0.130,-0.010
9.136,-0.020,-0.010
9.138,0.020,-0.015
9.140,0.140,-0.015
9.142,0.120,-0.020
9.144,-0.075,-0.025
9.146,-0.230,-0.030
9.148,-0.385,-0.030
9.150,-0.170,-0.025
9.152,-0.210,-0.025
9.154,-0.130,-0.025
9.156,-0.015,-0.030
9.158,0.010,-0.030
9.160,0.130,-0.035
9.162,0.075,-0.035
9.164,-0.055,-0.030
9.166,-0.250,-0.025
9.168,-0.355,-0.015
9.170,-0.135,-0.005
9.172,-0.130,0.005
9.174,-0.090,0.010
9.176,-0.025,0.010
9.178,0.010,0.010
9.180,0.140,0.005
9.182,0.105,0.000
9.184,-0.020,0.000
9.186,-0.125,0.000
9.188,-0.285,0.000
9.190,-0.195,0.005
9.192,-0.155,0.010
9.194,-0.080,0.015
9.196,0.020,0.015
9.198,0.070,0.010
9.200,0.195,0.005
9.202,0.050,-0.005
9.204,0.000,-0.015
9.206,-0.215,-0.020
9.208,-0.375,-0.025
9.210,-0.200,-0.025
9.212,-0.205,-0.025
9.214,-0.130,-0.025
9.216,-0.030,-0.025
9.218,0.000,-0.035
9.220,0.135,-0.040
9.222,0.035,-0.050
9.224,-0.105,-0.060
9.226,-0.295,-0.065
9.228,-0.360,-0.070
9.230,-0.220,-0.070
9.232,-0.195,-0.065
9.234,-0.175,-0.060
9.236,-0.050,-0.055
9.238,-0.035,-0.055
9.240,0.110,-0.060
9.242,0.045,-0.065
9.244,-0.145,-0.070
9.246,-0.315,-0.075
9.248,-0.340,-0.075
9.250,-0.220,-0.070
9.252,-0.210,-0.065
9.254,-0.160,-0.060
9.256,-0.085,-0.055
9.258,-0.030,-0.050
9.260,0.115,-0.050
9.262,0.005,-0.060
9.264,-0.095,-0.065
9.266,-0.350,-0.075
9.268,-0.305,-0.085
9.270,-0.265,-0.090
9.272,-0.215,-0.090
9.274,-0.135,-0.085
9.276,-0.020,-0.075
9.278,-0.025,-0.065
9.280,0.045,-0.055
9.282,-0.015,-0.050
9.284,-0.100,-0.050
9.286,-0.315,-0.050
9.288,-0.320,-0.060
9.290,-0.210,-0.075
9.292,-0.225,-0.090
9.294,-0.160,-0.110
9.296,-0.060,-0.130
9.298,-0.085,-0.145
9.300,-0.015,-0.160
9.302,-0.185,-0.170
9.304,-0.270,-0.170
9.306,-0.480,-0.160
9.308,-0.380,-0.135
9.310,-0.210,-0.095
9.312,-0.120,-0.040
9.314,-0.015,0.035
9.316,0.165,0.125
9.318,0.350,0.230
9.320,0.515,0.335
9.322,0.435,0.445
9.324,0.465,0.540
9.326,0.330,0.625
9.328,0.510,0.685
9.330,0.640,0.720
9.332,0.615,0.720
9.334,0.695,0.690
9.336,0.620,0.630
9.338,0.620,0.550
9.340,0.610,0.455
9.342,0.315,0.350
9.344,0.130,0.255
9.346,-0.150,0.165
9.348,-0.120,0.095
9.350,-0.080,0.040
9.352,-0.130,0.005
9.354,-0.080,-0.020
9.356,0.000,-0.030
9.358,0.090,-0.030
9.360,0.090,-0.025
9.362,-0.035,-0.025
9.364,-0.130,-0.020
9.366,-0.375,-0.020
9.368,-0.185,-0.020
9.370,-0.165,-0.025
9.372,-0.180,-0.025
9.374,-0.100,-0.030
9.376,0.020,-0.035
9.378,0.090,-0.040
9.380,0.065,-0.040
9.382,-0.045,-0.045
9.384,-0.150,-0.045
9.386,-0.360,-0.045
9.388,-0.205,-0.040
9.390,-0.235,-0.040
9.392,-0.145,-0.035
9.394,-0.020,-0.030
9.396,-0.030,-0.025
9.398,0.150,-0.020
9.400,0.115,-0.020
9.402,-0.080,-0.020
9.404,-0.220,-0.025
9.406,-0.375,-0.035
9.408,-0.205,-0.045
9.410,-0.165,-0.050
9.412,-0.190,-0.060
9.414,-0.055,-0.060
9.416,-0.020,-0.060
9.418,0.095,-0.050
9.420,0.085,-0.040
9.422,-0.060,-0.025
9.424,-0.195,-0.010
9.426,-0.335,-0.005
9.428,-0.175,0.000
9.430,-0.210,-0.005
9.432,-0.120,-0.010
9.434,-0.035,-0.020
9.436,0.010,-0.030
9.438,0.090,-0.035
9.440,0.055,-0.035
9.442,-0.035,-0.030
9.444,-0.180,-0.020
9.446,-0.330,-0.010
9.448,-0.155,-0.005
9.450,-0.180,0.000
9.452,-0.175,0.000
9.454,-0.020,-0.005
9.456,0.020,-0.015
9.458,0.145,-0.020
9.460,0.110,-0.020
9.462,-0.030,-0.020
9.464,-0.225,-0.015
9.466,-0.340,-0.010
9.468,-0.160,0.000
9.470,-0.165,0.005
9.472,-0.135,0.005
9.474,-0.010,0.005
9.476,0.040,0.000
9.478,0.145,0.000
9.480,0.105,-0.005
9.482,-0.075,0.000
9.484,-0.200,0.000
9.486,-0.315,0.005
9.488,-0.135,0.010
9.490,-0.160,0.015
9.492,-0.135,0.010
9.494,0.010,0.005
9.496,0.050,0.000
9.498,0.215,-0.010
9.500,0.055,-0.010
9.502,-0.080,-0.010
9.504,-0.250,-0.005
9.506,-0.315,0.005
9.508,-0.125,0.020
9.510,-0.115,0.030
9.512,-0.060,0.040
9.514,0.045,0.040
9.516,0.025,0.040
9.518,0.180,0.035
9.520,0.125,0.025
9.522,-0.030,0.020
9.524,-0.220,0.020
9.526,-0.270,0.020
9.528,-0.110,0.030
9.530,-0.120,0.035
9.532,-0.015,0.045
9.534,0.080,0.055
9.536,0.000,0.060
9.538,0.225,0.065
9.540,0.145,0.070
9.542,0.035,0.075
9.544,-0.150,0.080
9.546,-0.190,0.085
9.548,-0.065,0.095
9.550,-0.040,0.100
9.552,-0.020,0.105
9.554,0.080,0.105
9.556,0.140,0.100
9.558,0.275,0.095
9.560,0.130,0.095
9.562,0.070,0.090
9.564,-0.185,0.090
9.566,-0.145,0.090
9.568,-0.035,0.100
9.570,-0.045,0.105
9.572,0.050,0.115
9.574,0.120,0.125
9.576,0.115,0.135
9.578,0.310,0.140
9.580,0.200,0.140
9.582,0.090,0.145
9.584,-0.180,0.140
9.586,-0.100,0.135
9.588,-0.010,0.130
9.590,0.005,0.125
9.592,0.055,0.115
9.594,0.150,0.105
9.596,0.140,0.095
9.598,0.170,0.090
9.600,0.095,0.085
9.602,0.015,0.085
9.604,-0.185,0.085
9.606,-0.065,0.095
9.608,-0.030,0.100
9.610,-0.040,0.105
9.612,-0.015,0.105
9.614,0.115,0.105
9.616,0.145,0.095
9.618,0.245,0.080
9.620,0.075,0.070
9.622,0.015,0.055
9.624,-0.245,0.045
9.626,-0.165,0.040
9.628,-0.125,0.035
9.630,-0.080,0.040
9.632,-0.040,0.040
9.634,0.020,0.035
9.636,0.095,0.030
9.638,0.150,0.020
9.640,0.000,0.010
9.642,-0.075,-0.005
9.644,-0.305,-0.010
9.646,-0.210,-0.015
9.648,-0.165,-0.015
9.650,-0.090,-0.010
9.652,-0.045,-0.005
9.654,-0.040,0.005
9.656,0.100,0.010
9.658,0.085,0.010
9.660,-0.025,0.005
9.662,-0.105,-0.010
9.664,-0.340,-0.020
9.666,-0.165,-0.030
9.668,-0.240,-0.040
9.670,-0.155,-0.040
9.672,-0.050,-0.040
9.674,-0.025,-0.030
9.676,0.090,-0.020
9.678,0.150,-0.015
9.680,0.000,-0.010
9.682,-0.170,-0.010
9.684,-0.420,-0.015
9.686,-0.210,-0.020
9.688,-0.125,-0.025
9.690,-0.155,-0.030
9.692,-0.020,-0.030
9.694,0.005,-0.030
9.696,0.080,-0.020
9.698,0.100,-0.010
9.700,-0.005,0.000
9.702,-0.140,0.005
9.704,-0.335,0.005
9.706,-0.220,0.000
9.708,-0.160,-0.005
9.710,-0.115,-0.015
9.712,-0.035,-0.025
9.714,-0.025,-0.030
9.716,0.110,-0.035
9.718,0.050,-0.030
9.720,-0.060,-0.025
9.722,-0.220,-0.020
9.724,-0.375,-0.010
9.726,-0.200,-0.005
9.728,-0.145,0.000
9.730,-0.120,0.000
9.732,-0.010,-0.005
9.734,0.040,-0.005
9.736,0.135,-0.010
9.738,0.045,-0.015
9.740,-0.065,-0.015
9.742,-0.230,-0.015
9.744,-0.385,-0.015
9.746,-0.170,-0.015
9.748,-0.165,-0.010
9.750,-0.105,-0.010
9.752,-0.030,-0.010
9.754,-0.030,-0.015
9.756,0.120,-0.020
9.758,0.070,-0.025
9.760,-0.075,-0.035
9.762,-0.185,-0.040
9.764,-0.395,-0.040
9.766,-0.220,-0.045
9.768,-0.230,-0.045
9.770,-0.105,-0.045
9.772,-0.055,-0.040
9.774,-0.045,-0.035
9.776,0.150,-0.035
9.778,0.100,-0.030
9.780,-0.105,-0.025
9.782,-0.225,-0.025
9.784,-0.380,-0.025
9.786,-0.210,-0.025
9.788,-0.200,-0.025
9.790,-0.115,-0.025
9.792,0.020,-0.025
9.794,0.015,-0.025
9.796,0.070,-0.025
9.798,0.085,-0.030
9.800,-0.035,-0.030
9.802,-0.210,-0.030
9.804,-0.415,-0.035
9.806,-0.235,-0.035
9.808,-0.175,-0.035
9.810,-0.150,-0.035
9.812,-0.050,-0.035
9.814,-0.025,-0.035
9.816,0.140,-0.030
9.818,0.080,-0.020
9.820,-0.085,-0.015
9.822,-0.245,-0.010
9.824,-0.345,-0.010
9.826,-0.185,-0.010
9.828,-0.185,-0.015
9.830,-0.120,-0.020
9.832,-0.035,-0.025
9.834,-0.040,-0.030
9.836,0.125,-0.035
9.838,0.065,-0.035
9.840,-0.075,-0.035
9.842,-0.305,-0.035
9.844,-0.315,-0.030
9.846,-0.195,-0.025
9.848,-0.180,-0.025
9.850,-0.130,-0.025
9.852,-0.040,-0.030
9.854,-0.065,-0.035
9.856,0.140,-0.035
9.858,0.035,-0.040
9.860,-0.110,-0.040
9.862,-0.285,-0.035
9.864,-0.280,-0.035
9.866,-0.225,-0.030
9.868,-0.185,-0.030
9.870,-0.110,-0.035
9.872,-0.030,-0.040
9.874,-0.045,-0.045
9.876,0.035,-0.055
9.878,-0.035,-0.060
9.880,-0.060,-0.065
9.882,-0.275,-0.065
9.884,-0.320,-0.055
9.886,-0.225,-0.050
9.888,-0.185,-0.035
9.890,-0.125,-0.025
9.892,-0.010,-0.020
9.894,0.030,-0.015
9.896,0.125,-0.015
9.898,-0.010,-0.015
9.900,-0.050,-0.020
9.902,-0.295,-0.025
9.904,-0.260,-0.035
9.906,-0.185,-0.035
9.908,-0.160,-0.040
9.910,-0.140,-0.040
9.912,-0.055,-0.040
9.914,0.030,-0.045
9.916,0.110,-0.045
9.918,-0.055,-0.045
9.920,-0.105,-0.050
9.922,-0.340,-0.055
9.924,-0.240,-0.055
9.926,-0.160,-0.060
9.928,-0.250,-0.060
9.930,-0.145,-0.060
9.932,-0.045,-0.060
9.934,0.040,-0.055
9.936,0.095,-0.045
9.938,-0.025,-0.040
9.940,-0.095,-0.030
9.942,-0.310,-0.025
9.944,-0.230,-0.020
9.946,-0.180,-0.020
9.948,-0.175,-0.020
9.950,-0.100,-0.020
9.952,-0.025,-0.025
9.954,0.045,-0.030
9.956,0.025,-0.030
9.958,-0.030,-0.030
9.960,-0.110,-0.030
9.962,-0.350,-0.030
9.964,-0.255,-0.030
9.966,-0.150,-0.030
9.968,-0.105,-0.030
9.970,-0.110,-0.035
9.972,-0.070,-0.040
9.974,0.010,-0.045
9.976,0.045,-0.050
9.978,-0.040,-0.050
9.980,-0.175,-0.045
9.982,-0.365,-0.040
9.984,-0.205,-0.035
9.986,-0.155,-0.025
9.988,-0.135,-0.020
9.990,-0.045,-0.020
9.992,-0.020,-0.025
9.994,0.045,-0.030
9.996,0.065,-0.035
9.998,-0.060,-0.040
