'Elapsed time','ECG I','ECG I filtered'
'seconds','mV','mV'
0.000,-1.210,-0.270
0.002,-1.080,-0.150
0.004,-0.950,-0.060
0.006,-0.965,0.015
0.008,-0.940,0.060
0.010,-0.820,0.080
0.012,-0.725,0.070
0.014,-0.740,0.040
0.016,-0.925,0.010
0.018,-1.030,-0.020
0.020,-1.230,-0.040
0.022,-1.015,-0.040
0.024,-0.950,-0.035
0.026,-1.010,-0.015
0.028,-0.890,0.010
0.030,-0.850,0.025
0.032,-0.715,0.035
0.034,-0.725,0.035
0.036,-0.895,0.025
0.038,-1.045,0.010
0.040,-1.195,-0.005
0.042,-1.045,-0.010
0.044,-0.980,-0.015
0.046,-0.945,-0.005
0.048,-0.875,0.005
0.050,-0.845,0.020
0.052,-0.660,0.035
0.054,-0.815,0.040
0.056,-0.920,0.040
0.058,-1.065,0.030
0.060,-1.170,0.015
0.062,-1.030,0.000
0.064,-0.985,-0.010
0.066,-0.960,-0.015
0.068,-0.865,-0.010
0.070,-0.800,0.000
0.072,-0.760,0.010
0.074,-0.740,0.025
0.076,-0.905,0.030
0.078,-1.050,0.030
0.080,-1.185,0.025
0.082,-0.990,0.015
0.084,-1.010,0.005
0.086,-1.000,-0.005
0.088,-0.895,-0.010
0.090,-0.780,-0.005
0.092,-0.675,0.005
0.094,-0.790,0.020
0.096,-0.895,0.035
0.098,-1.050,0.045
0.100,-1.160,0.050
0.102,-0.965,0.045
0.104,-1.035,0.035
0.106,-0.945,0.025
0.108,-0.850,0.010
0.110,-0.855,-0.005
0.112,-0.725,-0.010
0.114,-0.790,-0.010
0.116,-0.945,0.000
0.118,-1.070,0.010
0.120,-1.150,0.025
0.122,-0.990,0.035
0.124,-0.970,0.035
0.126,-0.905,0.035
0.128,-0.880,0.025
0.130,-0.875,0.010
0.132,-0.725,-0.005
0.134,-0.805,-0.015
0.136,-0.890,-0.020
0.138,-1.100,-0.015
0.140,-1.170,-0.010
0.142,-1.015,0.005
0.144,-1.000,0.015
0.146,-0.940,0.020
0.148,-0.885,0.020
0.150,-0.855,0.020
0.152,-0.685,0.010
0.154,-0.810,0.005
0.156,-0.955,-0.005
0.158,-1.125,-0.010
0.160,-1.125,-0.010
0.162,-1.010,-0.005
0.164,-0.975,0.000
0.166,-0.940,0.005
0.168,-0.845,0.005
0.170,-0.840,0.005
0.172,-0.840,0.000
0.174,-0.815,-0.010
0.176,-0.890,-0.015
0.178,-1.155,-0.025
0.180,-1.125,-0.025
0.182,-1.055,-0.025
0.184,-1.015,-0.025
0.186,-0.920,-0.020
0.188,-0.900,-0.015
0.190,-0.805,-0.010
0.192,-0.715,-0.015
0.194,-0.900,-0.015
0.196,-0.955,-0.020
0.198,-1.145,-0.025
0.200,-1.120,-0.030
0.202,-1.035,-0.030
0.204,-0.975,-0.025
0.206,-0.980,-0.020
0.208,-0.840,-0.015
0.210,-0.795,-0.010
0.212,-0.695,-0.010
0.214,-0.930,-0.010
0.216,-0.920,-0.015
0.218,-1.165,-0.020
0.220,-1.105,-0.020
0.222,-1.045,-0.020
0.224,-1.015,-0.020
0.226,-0.940,-0.015
0.228,-0.855,-0.010
0.230,-0.820,-0.005
0.232,-0.750,0.000
0.234,-0.865,0.000
0.236,-0.945,0.000
0.238,-1.190,-0.005
0.240,-1.085,-0.015
0.242,-1.030,-0.020
0.244,-0.950,-0.025
0.246,-0.915,-0.030
0.248,-0.940,-0.035
0.250,-0.840,-0.035
0.252,-0.780,-0.035
0.254,-0.910,-0.030
0.256,-0.940,-0.025
0.258,-1.155,-0.020
0.260,-1.125,-0.015
0.262,-1.020,-0.010
0.264,-0.965,-0.010
0.266,-0.930,-0.005
0.268,-0.880,-0.005
0.270,-0.780,-0.005
0.272,-0.745,-0.010
0.274,-0.930,-0.010
0.276,-1.005,-0.015
0.278,-1.150,-0.015
0.280,-1.095,-0.020
0.282,-1.000,-0.020
0.284,-0.990,-0.020
0.286,-0.895,-0.020
0.288,-0.880,-0.020
0.290,-0.805,-0.020
0.292,-0.770,-0.025
0.294,-0.925,-0.025
0.296,-1.030,-0.025
0.298,-1.205,-0.025
0.300,-1.065,-0.020
0.302,-1.015,-0.020
0.304,-0.990,-0.015
0.306,-0.885,-0.010
0.308,-0.860,-0.005
0.310,-0.710,-0.005
0.312,-0.835,0.000
0.314,-0.875,0.000
0.316,-0.985,0.000
0.318,-1.200,-0.005
0.320,-1.065,-0.010
0.322,-1.015,-0.010
0.324,-0.995,-0.015
0.326,-0.870,-0.015
0.328,-0.855,-0.015
0.330,-0.735,-0.015
0.332,-0.770,-0.010
0.334,-0.895,-0.005
0.336,-1.045,0.000
0.338,-1.220,0.010
0.340,-1.055,0.020
0.342,-0.965,0.025
0.344,-0.915,0.035
0.346,-0.810,0.040
0.348,-0.835,0.050
0.350,-0.645,0.050
0.352,-0.715,0.055
0.354,-0.890,0.050
0.356,-1.025,0.045
0.358,-1.170,0.040
0.360,-1.020,0.030
0.362,-0.940,0.020
0.364,-0.940,0.010
0.366,-0.895,0.005
0.368,-0.820,0.000
0.370,-0.680,-0.005
0.372,-0.730,0.000
0.374,-0.960,0.005
0.376,-1.065,0.010
0.378,-1.105,0.020
0.380,-0.985,0.025
0.382,-1.015,0.030
0.384,-0.950,0.035
0.386,-0.820,0.035
0.388,-0.820,0.030
0.390,-0.655,0.030
0.392,-0.755,0.025
0.394,-0.910,0.015
0.396,-1.080,0.010
0.398,-1.225,0.000
0.400,-1.050,-0.010
0.402,-1.030,-0.015
0.404,-0.990,-0.025
0.406,-0.915,-0.035
0.408,-0.880,-0.040
0.410,-0.740,-0.045
0.412,-0.855,-0.045
0.414,-0.940,-0.045
0.416,-1.145,-0.040
0.418,-1.225,-0.040
0.420,-1.035,-0.040
0.422,-1.040,-0.040
0.424,-1.010,-0.040
0.426,-0.950,-0.045
0.428,-0.995,-0.050
0.430,-0.735,-0.055
0.432,-0.835,-0.060
0.434,-0.960,-0.060
0.436,-1.155,-0.060
0.438,-1.220,-0.055
0.440,-1.030,-0.050
0.442,-1.085,-0.045
0.444,-1.010,-0.040
0.446,-0.910,-0.035
0.448,-0.865,-0.040
0.450,-0.700,-0.040
0.452,-0.890,-0.050
0.454,-1.010,-0.055
0.456,-1.200,-0.060
0.458,-1.180,-0.065
0.460,-1.070,-0.065
0.462,-1.070,-0.060
0.464,-1.000,-0.055
0.466,-0.890,-0.050
0.468,-0.915,-0.045
0.470,-0.745,-0.045
0.472,-0.890,-0.045
0.474,-0.950,-0.050
0.476,-1.155,-0.060
0.478,-1.215,-0.070
0.480,-1.050,-0.090
0.482,-1.105,-0.105
0.484,-1.080,-0.120
0.486,-1.035,-0.125
0.488,-0.980,-0.125
0.490,-0.840,-0.115
0.492,-0.950,-0.085
0.494,-0.995,-0.045
0.496,-1.140,0.015
0.498,-0.975,0.085
0.500,-0.775,0.165
0.502,-0.700,0.260
0.504,-0.600,0.350
0.506,-0.435,0.445
0.508,-0.285,0.530
0.510,-0.100,0.600
0.512,-0.095,0.650
0.514,-0.225,0.680
0.516,-0.460,0.680
0.518,-0.430,0.655
0.520,-0.370,0.600
0.522,-0.480,0.530
0.524,-0.510,0.440
0.526,-0.530,0.345
0.528,-0.595,0.255
0.530,-0.620,0.170
0.532,-0.810,0.095
0.534,-0.890,0.040
0.536,-1.140,0.005
0.538,-1.080,-0.020
0.540,-1.040,-0.035
0.542,-1.025,-0.045
0.544,-1.020,-0.045
0.546,-0.915,-0.050
0.548,-0.830,-0.055
0.550,-0.800,-0.055
0.552,-0.910,-0.055
0.554,-0.985,-0.055
0.556,-1.230,-0.050
0.558,-1.105,-0.045
0.560,-1.040,-0.035
0.562,-1.015,-0.030
0.564,-0.935,-0.025
0.566,-0.875,-0.025
0.568,-0.815,-0.030
0.570,-0.775,-0.035
0.572,-0.940,-0.040
0.574,-1.005,-0.045
0.576,-1.205,-0.045
0.578,-1.080,-0.045
0.580,-1.055,-0.040
0.582,-0.985,-0.030
0.584,-0.935,-0.025
0.586,-0.880,-0.025
0.588,-0.820,-0.025
0.590,-0.840,-0.025
0.592,-0.940,-0.030
0.594,-1.040,-0.030
0.596,-1.190,-0.035
0.598,-1.075,-0.030
0.600,-1.045,-0.030
0.602,-1.045,-0.025
0.604,-0.915,-0.020
0.606,-0.840,-0.015
0.608,-0.775,-0.015
0.610,-0.765,-0.015
0.612,-0.875,-0.020
0.614,-1.085,-0.020
0.616,-1.235,-0.025
0.618,-1.070,-0.025
0.620,-1.010,-0.025
0.622,-1.015,-0.020
0.624,-0.945,-0.015
0.626,-0.890,-0.010
0.628,-0.725,-0.010
0.630,-0.755,-0.005
0.632,-0.935,-0.005
0.634,-1.055,-0.005
0.636,-1.250,-0.010
0.638,-1.045,-0.015
0.640,-1.040,-0.020
0.642,-1.005,-0.025
0.644,-0.895,-0.025
0.646,-0.880,-0.030
0.648,-0.750,-0.030
0.650,-0.805,-0.025
0.652,-0.960,-0.020
0.654,-1.050,-0.015
0.656,-1.225,-0.010
0.658,-1.035,-0.005
0.660,-1.020,0.000
0.662,-0.960,0.005
0.664,-0.855,0.005
0.666,-0.875,0.005
0.668,-0.705,0.005
0.670,-0.785,0.010
0.672,-0.915,0.010
0.674,-1.065,0.010
0.676,-1.200,0.010
0.678,-1.075,0.005
0.680,-0.970,0.000
0.682,-0.975,-0.005
0.684,-0.870,-0.015
0.686,-0.880,-0.020
0.688,-0.785,-0.025
0.690,-0.775,-0.025
0.692,-0.920,-0.020
0.694,-1.155,-0.010
0.696,-1.185,0.005
0.698,-0.960,0.020
0.700,-0.985,0.035
0.702,-0.915,0.050
0.704,-0.835,0.055
0.706,-0.835,0.055
0.708,-0.695,0.050
0.710,-0.745,0.045
0.712,-0.885,0.045
0.714,-1.035,0.040
0.716,-1.180,0.040
0.718,-0.955,0.045
0.720,-1.005,0.050
0.722,-0.925,0.055
0.724,-0.835,0.060
0.726,-0.795,0.065
0.728,-0.630,0.065
0.730,-0.780,0.060
0.732,-0.860,0.060
0.734,-1.070,0.060
0.736,-1.085,0.060
0.738,-0.945,0.065
0.740,-0.955,0.070
0.742,-0.890,0.080
0.744,-0.755,0.090
0.746,-0.755,0.100
0.748,-0.625,0.105
0.750,-0.730,0.110
0.752,-0.815,0.115
0.754,-1.015,0.115
0.756,-1.085,0.115
0.758,-0.895,0.115
0.760,-0.915,0.110
0.762,-0.860,0.110
0.764,-0.780,0.110
0.766,-0.685,0.110
0.768,-0.615,0.110
0.770,-0.700,0.115
0.772,-0.830,0.120
0.774,-1.020,0.130
0.776,-1.040,0.135
0.778,-0.875,0.140
0.780,-0.860,0.140
0.782,-0.820,0.140
0.784,-0.720,0.130
0.786,-0.705,0.120
0.788,-0.610,0.110
0.790,-0.750,0.100
0.792,-0.835,0.095
0.794,-1.055,0.090
0.796,-1.035,0.090
0.798,-0.935,0.090
0.800,-0.920,0.095
0.802,-0.825,0.095
0.804,-0.735,0.095
0.806,-0.850,0.090
0.808,-0.665,0.085
0.810,-0.735,0.075
0.812,-0.865,0.065
0.814,-1.125,0.055
0.816,-1.065,0.050
0.818,-0.995,0.045
0.820,-0.960,0.040
0.822,-0.925,0.040
0.824,-0.820,0.035
0.826,-0.775,0.035
0.828,-0.670,0.030
0.830,-0.845,0.020
0.832,-1.000,0.015
0.834,-1.180,0.005
0.836,-1.135,-0.005
0.838,-1.020,-0.015
0.840,-1.000,-0.020
0.842,-0.980,-0.030
0.844,-0.880,-0.035
0.846,-0.830,-0.040
0.848,-0.745,-0.045
0.850,-0.930,-0.045
0.852,-1.020,-0.040
0.854,-1.225,-0.035
0.856,-1.085,-0.025
0.858,-1.045,-0.020
0.860,-1.030,-0.010
0.862,-0.980,-0.005
0.864,-0.905,-0.005
0.866,-0.775,-0.010
0.868,-0.775,-0.015
0.870,-0.915,-0.025
0.872,-0.935,-0.035
0.874,-1.250,-0.045
0.876,-1.155,-0.050
0.878,-1.095,-0.055
0.880,-1.020,-0.060
0.882,-0.990,-0.055
0.884,-0.880,-0.055
0.886,-0.820,-0.050
0.888,-0.805,-0.045
0.890,-0.945,-0.040
0.892,-0.980,-0.040
0.894,-1.255,-0.035
0.896,-1.120,-0.030
0.898,-1.055,-0.030
0.900,-1.035,-0.025
0.902,-0.900,-0.025
0.904,-0.895,-0.020
0.906,-0.760,-0.020
0.908,-0.815,-0.025
0.910,-0.955,-0.025
0.912,-1.100,-0.030
0.914,-1.220,-0.035
0.916,-1.095,-0.040
0.918,-1.125,-0.045
0.920,-1.065,-0.050
0.922,-0.950,-0.050
0.924,-0.850,-0.045
0.926,-0.735,-0.045
0.928,-0.780,-0.035
0.930,-0.965,-0.030
0.932,-1.140,-0.025
0.934,-1.260,-0.025
0.936,-1.130,-0.025
0.938,-1.095,-0.025
0.940,-1.000,-0.025
0.942,-0.950,-0.030
0.944,-0.885,-0.030
0.946,-0.725,-0.030
0.948,-0.820,-0.030
0.950,-0.925,-0.025
0.952,-1.095,-0.020
0.954,-1.310,-0.015
0.956,-1.105,-0.015
0.958,-1.010,-0.015
0.960,-0.980,-0.020
0.962,-0.915,-0.025
0.964,-0.920,-0.030
0.966,-0.755,-0.040
0.968,-0.805,-0.040
0.970,-1.005,-0.040
0.972,-1.170,-0.035
0.974,-1.225,-0.030
0.976,-1.080,-0.025
0.978,-1.040,-0.020
0.980,-1.010,-0.020
0.982,-0.900,-0.020
0.984,-0.885,-0.025
0.986,-0.800,-0.030
0.988,-0.850,-0.030
0.990,-0.970,-0.035
0.992,-1.120,-0.035
0.994,-1.245,-0.035
0.996,-1.100,-0.030
0.998,-1.085,-0.030
1.000,-1.000,-0.025
1.002,-0.960,-0.025
1.004,-0.890,-0.030
1.006,-0.740,-0.030
1.008,-0.850,-0.035
1.010,-0.965,-0.040
1.012,-1.155,-0.040
1.014,-1.240,-0.040
1.016,-1.065,-0.035
1.018,-1.105,-0.030
1.020,-1.020,-0.025
1.022,-0.865,-0.025
1.024,-0.870,-0.025
1.026,-0.780,-0.025
1.028,-0.850,-0.030
1.030,-0.970,-0.035
1.032,-1.155,-0.040
1.034,-1.225,-0.040
1.036,-1.130,-0.045
1.038,-1.080,-0.040
1.040,-1.020,-0.040
1.042,-0.915,-0.035
1.044,-0.900,-0.035
1.046,-0.770,-0.035
1.048,-0.870,-0.035
1.050,-0.995,-0.040
1.052,-1.185,-0.045
1.054,-1.270,-0.050
1.056,-1.095,-0.055
1.058,-1.095,-0.055
1.060,-0.960,-0.055
1.062,-0.965,-0.050
1.064,-0.910,-0.045
1.066,-0.765,-0.040
1.068,-0.865,-0.030
1.070,-0.985,-0.030
1.072,-1.210,-0.030
1.074,-1.190,-0.030
1.076,-1.050,-0.035
1.078,-1.080,-0.040
1.080,-1.020,-0.045
1.082,-0.910,-0.050
1.084,-0.940,-0.055
1.086,-0.755,-0.060
1.088,-0.915,-0.055
1.090,-0.995,-0.055
1.092,-1.190,-0.050
1.094,-1.215,-0.045
1.096,-1.095,-0.040
1.098,-1.045,-0.040
1.100,-1.030,-0.035
1.102,-0.945,-0.040
1.104,-0.900,-0.040
1.106,-0.800,-0.045
1.108,-0.890,-0.045
1.110,-0.975,-0.050
1.112,-1.240,-0.050
1.114,-1.140,-0.050
1.116,-1.065,-0.050
1.118,-1.095,-0.050
1.120,-1.040,-0.050
1.122,-0.950,-0.050
1.124,-0.915,-0.050
1.126,-0.765,-0.050
1.128,-0.925,-0.050
1.130,-1.000,-0.050
1.132,-1.225,-0.055
1.134,-1.125,-0.055
1.136,-1.150,-0.055
1.138,-1.055,-0.050
1.140,-0.995,-0.050
1.142,-0.985,-0.045
1.144,-0.865,-0.040
1.146,-0.785,-0.040
1.148,-0.900,-0.040
1.150,-1.035,-0.040
1.152,-1.275,-0.045
1.154,-1.100,-0.045
1.156,-1.065,-0.050
1.158,-1.100,-0.050
1.160,-0.985,-0.050
1.162,-0.955,-0.050
1.164,-0.865,-0.045
1.166,-0.770,-0.040
1.168,-0.915,-0.040
1.170,-1.040,-0.035
1.172,-1.255,-0.035
1.174,-1.130,-0.035
1.176,-1.100,-0.035
1.178,-1.060,-0.040
1.180,-0.955,-0.045
1.182,-0.900,-0.050
1.184,-0.880,-0.050
1.186,-0.815,-0.055
1.188,-0.935,-0.055
1.190,-1.150,-0.055
1.192,-1.305,-0.050
1.194,-1.155,-0.045
1.196,-1.035,-0.040
1.198,-1.035,-0.035
1.200,-0.935,-0.025
1.202,-0.910,-0.020
1.204,-0.770,-0.015
1.206,-0.790,-0.015
1.208,-0.965,-0.015
1.210,-1.080,-0.015
1.212,-1.245,-0.020
1.214,-1.115,-0.025
1.216,-1.115,-0.030
1.218,-0.965,-0.035
1.220,-0.920,-0.035
1.222,-0.965,-0.030
1.224,-0.785,-0.025
1.226,-0.815,-0.020
1.228,-0.950,-0.015
1.230,-1.075,-0.010
1.232,-1.240,-0.005
1.234,-1.025,-0.005
1.236,-1.050,-0.005
1.238,-1.090,-0.005
1.240,-0.950,-0.005
1.242,-0.875,0.000
1.244,-0.680,0.005
1.246,-0.785,0.010
1.248,-0.915,0.020
1.250,-1.075,0.030
1.252,-1.215,0.035
1.254,-1.045,0.040
1.256,-1.045,0.035
1.258,-0.985,0.035
1.260,-0.880,0.030
1.262,-0.845,0.020
1.264,-0.730,0.015
1.266,-0.785,0.010
1.268,-0.950,0.010
1.270,-1.085,0.010
1.272,-1.195,0.015
1.274,-1.080,0.015
1.276,-1.070,0.015
1.278,-1.030,0.010
1.280,-0.915,0.005
1.282,-0.855,0.000
1.284,-0.720,-0.005
1.286,-0.835,-0.010
1.288,-0.935,-0.010
1.290,-1.130,-0.015
1.292,-1.225,-0.015
1.294,-1.105,-0.020
1.296,-1.080,-0.030
1.298,-1.045,-0.035
1.300,-0.925,-0.045
1.302,-0.920,-0.060
1.304,-0.825,-0.065
1.306,-0.840,-0.070
1.308,-1.050,-0.075
1.310,-1.165,-0.070
1.312,-1.240,-0.065
1.314,-1.045,-0.060
1.316,-1.185,-0.055
1.318,-1.050,-0.055
1.320,-0.985,-0.055
1.322,-0.885,-0.060
1.324,-0.780,-0.060
1.326,-0.840,-0.065
1.328,-1.070,-0.065
1.330,-1.225,-0.065
1.332,-1.330,-0.060
1.334,-1.130,-0.055
1.336,-1.080,-0.055
1.338,-1.045,-0.055
1.340,-0.955,-0.060
1.342,-0.955,-0.065
1.344,-0.815,-0.075
1.346,-0.910,-0.080
1.348,-1.045,-0.080
1.350,-1.245,-0.080
1.352,-1.295,-0.075
1.354,-1.095,-0.070
1.356,-1.090,-0.065
1.358,-1.055,-0.060
1.360,-0.970,-0.055
1.362,-0.955,-0.055
1.364,-0.790,-0.060
1.366,-0.930,-0.065
1.368,-1.060,-0.070
1.370,-1.245,-0.080
1.372,-1.255,-0.090
1.374,-1.110,-0.095
1.376,-1.120,-0.110
1.378,-1.110,-0.120
1.380,-1.075,-0.135
1.382,-1.030,-0.140
1.384,-0.925,-0.145
1.386,-1.035,-0.135
1.388,-1.100,-0.115
1.390,-1.270,-0.075
1.392,-1.140,-0.020
1.394,-0.940,0.055
1.396,-0.910,0.140
1.398,-0.710,0.240
1.400,-0.535,0.340
1.402,-0.455,0.440
1.404,-0.185,0.535
1.406,-0.255,0.615
1.408,-0.275,0.680
1.410,-0.420,0.715
1.412,-0.335,0.720
1.414,-0.315,0.695
1.416,-0.365,0.645
1.418,-0.430,0.565
1.420,-0.440,0.465
1.422,-0.545,0.360
1.424,-0.520,0.260
1.426,-0.750,0.170
1.428,-0.890,0.095
1.430,-1.175,0.045
1.432,-1.130,0.010
1.434,-1.050,-0.005
1.436,-1.010,-0.005
1.438,-0.995,-0.010
1.440,-0.890,-0.010
1.442,-0.885,-0.015
1.444,-0.770,-0.020
1.446,-0.955,-0.030
1.448,-1.005,-0.045
1.450,-1.275,-0.050
1.452,-1.145,-0.055
1.454,-1.090,-0.055
1.456,-1.080,-0.055
1.458,-1.020,-0.050
1.460,-0.945,-0.055
1.462,-0.860,-0.055
1.464,-0.820,-0.060
1.466,-1.000,-0.065
1.468,-1.050,-0.070
1.470,-1.275,-0.065
1.472,-1.145,-0.060
1.474,-1.125,-0.055
1.476,-1.055,-0.045
1.478,-0.940,-0.035
1.480,-0.880,-0.030
1.482,-0.820,-0.025
1.484,-0.845,-0.030
1.486,-1.015,-0.030
1.488,-1.100,-0.035
1.490,-1.270,-0.040
1.492,-1.155,-0.040
1.494,-1.065,-0.035
1.496,-1.005,-0.030
1.498,-0.960,-0.025
1.500,-0.905,-0.020
1.502,-0.810,-0.020
1.504,-0.780,-0.020
1.506,-1.010,-0.025
1.508,-1.115,-0.030
1.510,-1.285,-0.030
1.512,-1.090,-0.030
1.514,-1.080,-0.030
1.516,-1.075,-0.030
1.518,-0.970,-0.025
1.520,-0.900,-0.025
1.522,-0.755,-0.020
1.524,-0.760,-0.020
1.526,-0.985,-0.020
1.528,-1.110,-0.020
1.530,-1.280,-0.020
1.532,-1.130,-0.025
1.534,-1.100,-0.025
1.536,-1.025,-0.025
1.538,-0.925,-0.030
1.540,-0.920,-0.030
1.542,-0.765,-0.030
1.544,-0.910,-0.030
1.546,-0.965,-0.025
1.548,-1.090,-0.020
1.550,-1.255,-0.015
1.552,-1.070,-0.005
1.554,-1.060,0.000
1.556,-1.010,0.005
1.558,-0.935,0.005
1.560,-0.915,0.005
1.562,-0.800,-0.005
1.564,-0.825,-0.015
1.566,-0.970,-0.020
1.568,-1.115,-0.025
1.570,-1.245,-0.030
1.572,-1.095,-0.025
1.574,-1.100,-0.015
1.576,-1.015,-0.005
1.578,-0.915,0.005
1.580,-0.895,0.010
1.582,-0.760,0.015
1.584,-0.790,0.020
1.586,-0.925,0.020
1.588,-1.110,0.020
1.590,-1.215,0.015
1.592,-1.045,0.015
1.594,-1.075,0.015
1.596,-0.955,0.015
1.598,-0.895,0.020
1.600,-0.900,0.020
1.602,-0.735,0.020
1.604,-0.755,0.025
1.606,-0.935,0.025
1.608,-1.105,0.030
1.610,-1.170,0.030
1.612,-1.005,0.035
1.614,-1.030,0.040
1.616,-0.965,0.045
1.618,-0.910,0.050
1.620,-0.880,0.050
1.622,-0.700,0.055
1.624,-0.810,0.055
1.626,-0.875,0.055
1.628,-1.050,0.055
1.630,-1.185,0.060
1.632,-0.950,0.060
1.634,-1.010,0.065
1.636,-0.990,0.065
1.638,-0.840,0.070
1.640,-0.820,0.075
1.642,-0.715,0.080
1.644,-0.735,0.085
1.646,-0.820,0.095
1.648,-1.045,0.100
1.650,-1.100,0.110
1.652,-0.930,0.120
1.654,-0.940,0.125
1.656,-0.890,0.130
1.658,-0.815,0.125
1.660,-0.770,0.125
1.662,-0.625,0.120
1.664,-0.775,0.115
1.666,-0.845,0.110
1.668,-1.055,0.110
1.670,-1.060,0.110
1.672,-0.925,0.115
1.674,-0.935,0.120
1.676,-0.850,0.120
1.678,-0.755,0.120
1.680,-0.735,0.120
1.682,-0.675,0.115
1.684,-0.745,0.115
1.686,-0.935,0.110
1.688,-1.060,0.110
1.690,-1.055,0.110
1.692,-0.955,0.110
1.694,-0.905,0.115
1.696,-0.865,0.115
1.698,-0.790,0.115
1.700,-0.790,0.105
1.702,-0.665,0.100
1.704,-0.825,0.085
1.706,-0.920,0.070
1.708,-1.170,0.055
1.710,-1.095,0.045
1.712,-1.005,0.035
1.714,-0.980,0.030
1.716,-0.970,0.025
1.718,-0.875,0.030
1.720,-0.805,0.030
1.722,-0.725,0.035
1.724,-0.805,0.035
1.726,-0.990,0.035
1.728,-1.255,0.035
1.730,-1.085,0.030
1.732,-1.045,0.025
1.734,-1.005,0.015
1.736,-0.975,0.005
1.738,-0.890,-0.005
1.740,-0.820,-0.010
1.742,-0.815,-0.015
1.744,-0.950,-0.020
1.746,-1.005,-0.020
1.748,-1.240,-0.015
1.750,-1.115,-0.015
1.752,-1.065,-0.015
1.754,-1.045,-0.020
1.756,-1.015,-0.025
1.758,-0.930,-0.030
1.760,-0.840,-0.035
1.762,-0.820,-0.040
1.764,-0.955,-0.045
1.766,-1.075,-0.040
1.768,-1.250,-0.040
1.770,-1.195,-0.035
1.772,-1.090,-0.030
1.774,-1.005,-0.025
1.776,-0.970,-0.025
1.778,-0.935,-0.025
1.780,-0.790,-0.025
1.782,-0.860,-0.025
1.784,-1.045,-0.025
1.786,-1.040,-0.025
1.788,-1.200,-0.025
1.790,-1.125,-0.020
1.792,-1.090,-0.020
1.794,-1.040,-0.020
1.796,-0.990,-0.020
1.798,-0.915,-0.025
1.800,-0.825,-0.025
1.802,-0.830,-0.030
1.804,-0.940,-0.025
1.806,-1.135,-0.020
1.808,-1.285,-0.015
1.810,-1.075,-0.005
1.812,-1.065,-0.005
1.814,-1.040,-0.005
1.816,-0.950,-0.010
1.818,-0.930,-0.020
1.820,-0.850,-0.030
1.822,-0.805,-0.035
1.824,-1.005,-0.040
1.826,-1.075,-0.040
1.828,-1.245,-0.035
1.830,-1.100,-0.030
1.832,-1.105,-0.020
1.834,-1.055,-0.010
1.836,-0.950,-0.010
1.838,-0.900,-0.010
1.840,-0.780,-0.020
1.842,-0.815,-0.030
1.844,-1.025,-0.040
1.846,-1.105,-0.045
1.848,-1.320,-0.050
1.850,-1.130,-0.045
1.852,-1.080,-0.040
1.854,-1.045,-0.035
1.856,-0.980,-0.030
1.858,-0.930,-0.030
1.860,-0.820,-0.030
1.862,-0.845,-0.035
1.864,-1.050,-0.040
1.866,-1.160,-0.040
1.868,-1.285,-0.040
1.870,-1.140,-0.040
1.872,-1.045,-0.035
1.874,-0.995,-0.030
1.876,-0.900,-0.025
1.878,-0.970,-0.025
1.880,-0.815,-0.025
1.882,-0.885,-0.030
1.884,-0.965,-0.035
1.886,-1.135,-0.040
1.888,-1.330,-0.040
1.890,-1.125,-0.035
1.892,-1.110,-0.030
1.894,-0.990,-0.025
1.896,-0.925,-0.020
1.898,-0.925,-0.020
1.900,-0.800,-0.020
1.902,-0.850,-0.020
1.904,-1.000,-0.025
1.906,-1.175,-0.030
1.908,-1.300,-0.035
1.910,-1.135,-0.035
1.912,-1.115,-0.035
1.914,-1.030,-0.035
1.916,-0.945,-0.030
1.918,-0.965,-0.030
1.920,-0.745,-0.030
1.922,-0.865,-0.030
1.924,-1.020,-0.030
1.926,-1.200,-0.030
1.928,-1.270,-0.035
1.930,-1.110,-0.035
1.932,-1.070,-0.030
1.934,-1.035,-0.030
1.936,-0.960,-0.030
1.938,-0.930,-0.030
1.940,-0.810,-0.030
1.942,-0.880,-0.030
1.944,-1.010,-0.030
1.946,-1.185,-0.030
1.948,-1.345,-0.035
1.950,-1.095,-0.040
1.952,-1.080,-0.045
1.954,-1.035,-0.050
1.956,-0.930,-0.060
1.958,-0.950,-0.065
1.960,-0.850,-0.065
1.962,-0.975,-0.065
1.964,-0.995,-0.065
1.966,-1.235,-0.055
1.968,-1.275,-0.045
1.970,-1.045,-0.040
1.972,-1.085,-0.030
1.974,-1.055,-0.030
1.976,-0.935,-0.030
1.978,-0.920,-0.035
1.980,-0.775,-0.045
1.982,-0.955,-0.050
1.984,-1.050,-0.050
1.986,-1.285,-0.050
1.988,-1.200,-0.045
1.990,-1.110,-0.035
1.992,-1.055,-0.025
1.994,-1.015,-0.025
1.996,-0.935,-0.025
1.998,-0.935,-0.030
2.000,-0.800,-0.040
2.002,-0.995,-0.055
2.004,-1.025,-0.060
2.006,-1.250,-0.065
2.008,-1.235,-0.060
2.010,-1.090,-0.055
2.012,-1.085,-0.040
2.014,-0.985,-0.025
2.016,-0.920,-0.015
2.018,-0.920,-0.015
2.020,-0.790,-0.015
2.022,-0.970,-0.020
2.024,-1.040,-0.030
2.026,-1.275,-0.040
2.028,-1.180,-0.045
2.030,-1.065,-0.045
2.032,-1.040,-0.040
2.034,-1.040,-0.040
2.036,-1.000,-0.035
2.038,-0.840,-0.035
2.040,-0.820,-0.040
2.042,-1.010,-0.045
2.044,-1.090,-0.050
2.046,-1.305,-0.060
2.048,-1.145,-0.065
2.050,-1.120,-0.065
2.052,-1.095,-0.060
2.054,-0.965,-0.055
2.056,-0.955,-0.045
2.058,-0.910,-0.040
2.060,-0.835,-0.040
2.062,-1.005,-0.040
2.064,-1.050,-0.040
2.066,-1.255,-0.045
2.068,-1.145,-0.050
2.070,-1.075,-0.045
2.072,-1.085,-0.045
2.074,-1.005,-0.040
2.076,-0.925,-0.035
2.078,-0.810,-0.030
2.080,-0.870,-0.025
2.082,-0.995,-0.025
2.084,-1.085,-0.030
2.086,-1.260,-0.035
2.088,-1.200,-0.040
2.090,-1.085,-0.040
2.092,-1.055,-0.045
2.094,-0.960,-0.040
2.096,-0.955,-0.035
2.098,-0.760,-0.025
2.100,-0.880,-0.020
2.102,-0.990,-0.015
2.104,-1.125,-0.015
2.106,-1.330,-0.020
2.108,-1.105,-0.025
2.110,-1.105,-0.030
2.112,-1.075,-0.040
2.114,-0.945,-0.045
2.116,-0.915,-0.050
2.118,-0.830,-0.045
2.120,-0.855,-0.040
2.122,-1.005,-0.035
2.124,-1.110,-0.030
2.126,-1.255,-0.025
2.128,-1.135,-0.020
2.130,-1.130,-0.020
2.132,-1.030,-0.020
2.134,-0.965,-0.025
2.136,-0.925,-0.025
2.138,-0.795,-0.025
2.140,-0.820,-0.020
2.142,-0.930,-0.015
2.144,-1.110,-0.005
2.146,-1.340,0.005
2.148,-1.110,0.010
2.150,-1.070,0.015
2.152,-1.000,0.015
2.154,-0.910,0.015
2.156,-0.895,0.010
2.158,-0.765,0.010
2.160,-0.835,0.010
2.162,-0.910,0.010
2.164,-1.105,0.015
2.166,-1.250,0.020
2.168,-1.040,0.030
2.170,-1.045,0.035
2.172,-1.020,0.035
2.174,-0.965,0.035
2.176,-0.880,0.030
2.178,-0.740,0.020
2.180,-0.815,0.015
2.182,-0.925,0.010
2.184,-1.110,0.005
2.186,-1.285,0.005
2.188,-1.100,0.005
2.190,-1.035,0.005
2.192,-1.000,0.005
2.194,-0.945,0.005
2.196,-0.895,0.005
2.198,-0.840,0.000
2.200,-0.800,-0.005
2.202,-0.935,-0.005
2.204,-1.125,-0.010
2.206,-1.235,-0.010
2.208,-1.150,-0.015
2.210,-1.130,-0.020
2.212,-1.070,-0.025
2.214,-0.965,-0.030
2.216,-0.975,-0.040
2.218,-0.780,-0.050
2.220,-0.905,-0.055
2.222,-1.045,-0.060
2.224,-1.205,-0.060
2.226,-1.310,-0.055
2.228,-1.150,-0.050
2.230,-1.135,-0.045
2.232,-1.035,-0.040
2.234,-0.940,-0.040
2.236,-0.965,-0.045
2.238,-0.805,-0.050
2.240,-0.930,-0.055
2.242,-1.060,-0.060
2.244,-1.220,-0.065
2.246,-1.270,-0.070
2.248,-1.155,-0.070
2.250,-1.140,-0.070
2.252,-1.045,-0.070
2.254,-1.005,-0.070
2.256,-1.005,-0.075
2.258,-0.820,-0.075
2.260,-0.965,-0.080
2.262,-1.110,-0.080
2.264,-1.215,-0.080
2.266,-1.250,-0.080
2.268,-1.125,-0.075
2.270,-1.130,-0.070
2.272,-1.095,-0.065
2.274,-0.970,-0.065
2.276,-0.965,-0.065
2.278,-0.840,-0.070
2.280,-0.990,-0.075
2.282,-1.025,-0.080
2.284,-1.285,-0.095
2.286,-1.260,-0.105
2.288,-1.190,-0.120
2.290,-1.160,-0.130
2.292,-1.150,-0.140
2.294,-1.090,-0.150
2.296,-1.110,-0.145
2.298,-0.990,-0.130
2.300,-0.985,-0.100
2.302,-1.030,-0.050
2.304,-1.170,0.020
2.306,-0.995,0.110
2.308,-0.805,0.215
2.310,-0.685,0.330
2.312,-0.545,0.445
2.314,-0.385,0.555
2.316,-0.225,0.645
2.318,-0.050,0.715
2.320,-0.100,0.755
2.322,-0.165,0.765
2.324,-0.455,0.745
2.326,-0.400,0.695
2.328,-0.415,0.620
2.330,-0.510,0.530
2.332,-0.610,0.425
2.334,-0.680,0.320
2.336,-0.755,0.215
2.338,-0.680,0.120
2.340,-0.845,0.045
2.342,-1.020,-0.005
2.344,-1.250,-0.040
2.346,-1.180,-0.055
2.348,-1.130,-0.055
2.350,-1.070,-0.045
2.352,-1.065,-0.035
2.354,-0.900,-0.025
2.356,-0.865,-0.015
2.358,-0.860,-0.015
2.360,-0.945,-0.020
2.362,-1.045,-0.025
2.364,-1.295,-0.035
2.366,-1.155,-0.035
2.368,-1.090,-0.040
2.370,-1.045,-0.035
2.372,-1.035,-0.035
2.374,-0.935,-0.030
2.376,-0.845,-0.030
2.378,-0.865,-0.030
2.380,-0.985,-0.035
2.382,-1.075,-0.040
2.384,-1.335,-0.045
2.386,-1.175,-0.050
2.388,-1.110,-0.055
2.390,-1.080,-0.055
2.392,-0.980,-0.055
2.394,-0.960,-0.055
2.396,-0.865,-0.055
2.398,-0.840,-0.050
2.400,-0.955,-0.045
2.402,-1.175,-0.040
2.404,-1.360,-0.035
2.406,-1.150,-0.030
2.408,-1.070,-0.025
2.410,-1.050,-0.025
2.412,-0.960,-0.025
2.414,-0.925,-0.030
2.416,-0.830,-0.035
2.418,-0.850,-0.040
2.420,-1.025,-0.045
2.422,-1.105,-0.045
2.424,-1.300,-0.040
2.426,-1.140,-0.040
2.428,-1.105,-0.030
2.430,-1.060,-0.025
2.432,-0.950,-0.025
2.434,-0.915,-0.025
2.436,-0.800,-0.025
2.438,-0.885,-0.030
2.440,-0.945,-0.035
2.442,-1.170,-0.040
2.444,-1.370,-0.045
2.446,-1.170,-0.045
2.448,-1.065,-0.040
2.450,-1.000,-0.035
2.452,-0.990,-0.025
2.454,-0.960,-0.020
2.456,-0.810,-0.015
2.458,-0.805,-0.010
2.460,-0.970,-0.010
2.462,-1.155,-0.010
2.464,-1.280,-0.005
2.466,-1.105,-0.005
2.468,-1.085,-0.005
2.470,-1.045,0.000
2.472,-0.935,0.000
2.474,-0.885,0.000
2.476,-0.720,0.000
2.478,-0.865,0.000
2.480,-0.990,-0.005
2.482,-1.140,-0.005
2.484,-1.370,-0.005
2.486,-1.085,-0.005
2.488,-1.060,-0.005
2.490,-1.015,0.000
2.492,-0.945,0.000
2.494,-0.900,0.000
2.496,-0.775,0.000
2.498,-0.850,0.005
2.500,-0.985,0.010
2.502,-1.145,0.015
2.504,-1.280,0.020
2.506,-1.040,0.025
2.508,-1.045,0.030
2.510,-0.965,0.035
2.512,-0.885,0.035
2.514,-0.940,0.035
2.516,-0.750,0.035
2.518,-0.810,0.030
2.520,-0.950,0.030
2.522,-1.110,0.035
2.524,-1.200,0.040
2.526,-1.070,0.045
2.528,-1.030,0.055
2.530,-0.960,0.060
2.532,-0.875,0.060
2.534,-0.890,0.060
2.536,-0.705,0.055
2.538,-0.800,0.050
2.540,-0.875,0.050
2.542,-1.125,0.045
2.544,-1.170,0.050
2.546,-1.010,0.060
2.548,-0.975,0.070
2.550,-0.895,0.080
2.552,-0.770,0.095
2.554,-0.825,0.105
2.556,-0.695,0.110
2.558,-0.785,0.110
2.560,-0.900,0.110
2.562,-1.055,0.105
2.564,-1.135,0.105
2.566,-1.010,0.105
2.568,-0.930,0.105
2.570,-0.885,0.110
2.572,-0.805,0.115
2.574,-0.755,0.125
2.576,-0.620,0.130
2.578,-0.785,0.130
2.580,-0.915,0.135
2.582,-1.100,0.130
2.584,-1.045,0.130
2.586,-0.930,0.125
2.588,-0.920,0.120
2.590,-0.885,0.120
2.592,-0.805,0.120
2.594,-0.790,0.120
2.596,-0.660,0.120
2.598,-0.805,0.120
2.600,-0.910,0.120
2.602,-1.125,0.115
2.604,-1.025,0.110
2.606,-0.940,0.105
2.608,-0.960,0.095
2.610,-0.920,0.085
2.612,-0.800,0.075
2.614,-0.760,0.070
2.616,-0.740,0.065
2.618,-0.875,0.065
2.620,-0.945,0.065
2.622,-1.160,0.065
2.624,-1.080,0.065
2.626,-0.975,0.065
2.628,-0.985,0.060
2.630,-0.965,0.050
2.632,-0.915,0.040
2.634,-0.810,0.030
2.636,-0.770,0.025
2.638,-0.910,0.015
2.640,-1.000,0.010
2.642,-1.180,0.010
2.644,-1.085,0.010
2.646,-1.045,0.010
2.648,-1.105,0.010
2.650,-1.005,0.005
2.652,-0.935,-0.005
2.654,-0.810,-0.015
2.656,-0.770,-0.020
2.658,-0.995,-0.030
2.660,-1.050,-0.035
2.662,-1.260,-0.040
2.664,-1.155,-0.035
2.666,-1.135,-0.035
2.668,-1.055,-0.030
2.670,-1.025,-0.030
2.672,-0.960,-0.030
2.674,-0.835,-0.030
2.676,-0.820,-0.030
2.678,-0.970,-0.030
2.680,-1.090,-0.030
2.682,-1.305,-0.025
2.684,-1.145,-0.020
2.686,-1.130,-0.010
2.688,-1.070,-0.005
2.690,-0.930,-0.005
2.692,-0.870,-0.005
2.694,-0.855,-0.010
2.696,-0.890,-0.015
2.698,-1.005,-0.025
2.700,-1.080,-0.030
2.702,-1.275,-0.035
2.704,-1.140,-0.030
2.706,-1.040,-0.025
2.708,-1.050,-0.015
2.710,-1.010,-0.010
2.712,-0.965,-0.005
2.714,-0.800,-0.005
2.716,-0.850,-0.010
2.718,-0.960,-0.015
2.720,-1.150,-0.025
2.722,-1.330,-0.030
2.724,-1.110,-0.035
2.726,-1.060,-0.030
2.728,-1.040,-0.025
2.730,-0.980,-0.015
2.732,-0.945,-0.010
2.734,-0.800,-0.005
2.736,-0.875,-0.005
2.738,-0.975,-0.010
2.740,-1.150,-0.015
2.742,-1.295,-0.025
2.744,-1.130,-0.035
2.746,-1.090,-0.040
2.748,-1.105,-0.045
2.750,-0.955,-0.040
2.752,-0.930,-0.035
2.754,-0.815,-0.030
2.756,-0.875,-0.020
2.758,-0.985,-0.015
2.760,-1.185,-0.015
2.762,-1.320,-0.015
2.764,-1.130,-0.020
2.766,-1.075,-0.025
2.768,-1.035,-0.030
2.770,-0.905,-0.030
2.772,-0.950,-0.030
2.774,-0.815,-0.030
2.776,-0.885,-0.030
2.778,-0.980,-0.030
2.780,-1.185,-0.030
2.782,-1.320,-0.030
2.784,-1.110,-0.030
2.786,-1.130,-0.030
2.788,-1.050,-0.030
2.790,-0.975,-0.030
2.792,-0.945,-0.030
2.794,-0.775,-0.030
2.796,-0.855,-0.025
2.798,-1.035,-0.025
2.800,-1.210,-0.020
2.802,-1.315,-0.020
2.804,-1.085,-0.020
2.806,-1.065,-0.025
2.808,-1.065,-0.030
2.810,-0.940,-0.035
2.812,-0.960,-0.040
2.814,-0.825,-0.045
2.816,-0.870,-0.050
2.818,-0.985,-0.050
2.820,-1.215,-0.045
2.822,-1.280,-0.040
2.824,-1.160,-0.035
2.826,-1.115,-0.030
2.828,-1.045,-0.030
2.830,-0.955,-0.030
2.832,-0.970,-0.035
2.834,-0.815,-0.040
2.836,-0.850,-0.045
2.838,-1.035,-0.050
2.840,-1.210,-0.055
2.842,-1.260,-0.055
2.844,-1.145,-0.055
2.846,-1.135,-0.055
2.848,-1.055,-0.050
2.850,-0.970,-0.045
2.852,-0.945,-0.045
2.854,-0.840,-0.040
2.856,-0.920,-0.040
2.858,-1.045,-0.040
2.860,-1.220,-0.040
2.862,-1.240,-0.045
2.864,-1.100,-0.045
2.866,-1.100,-0.050
2.868,-1.080,-0.050
2.870,-0.955,-0.055
2.872,-0.895,-0.055
2.874,-0.825,-0.055
2.876,-0.955,-0.050
2.878,-1.085,-0.050
2.880,-1.255,-0.045
2.882,-1.225,-0.040
2.884,-1.110,-0.035
2.886,-1.065,-0.035
2.888,-1.040,-0.035
2.890,-0.970,-0.040
2.892,-0.960,-0.040
2.894,-0.825,-0.045
2.896,-0.975,-0.045
2.898,-1.050,-0.050
2.900,-1.200,-0.050
2.902,-1.175,-0.050
2.904,-1.135,-0.050
2.906,-1.080,-0.050
2.908,-1.040,-0.050
2.910,-0.920,-0.050
2.912,-0.950,-0.055
2.914,-0.900,-0.055
2.916,-0.985,-0.060
2.918,-1.035,-0.060
2.920,-1.295,-0.060
2.922,-1.180,-0.060
2.924,-1.115,-0.055
2.926,-1.110,-0.055
2.928,-1.035,-0.055
2.930,-0.950,-0.050
2.932,-0.910,-0.050
2.934,-0.800,-0.045
2.936,-1.010,-0.040
2.938,-1.030,-0.035
2.940,-1.245,-0.030
2.942,-1.130,-0.030
2.944,-1.155,-0.030
2.946,-1.140,-0.035
2.948,-1.065,-0.045
2.950,-0.930,-0.055
2.952,-0.855,-0.065
2.954,-0.815,-0.070
2.956,-1.005,-0.070
2.958,-1.085,-0.060
2.960,-1.350,-0.045
2.962,-1.125,-0.030
2.964,-1.065,-0.010
2.966,-1.040,0.000
2.968,-1.000,0.005
2.970,-0.945,0.000
2.972,-0.820,-0.010
2.974,-0.845,-0.030
2.976,-0.980,-0.045
2.978,-1.105,-0.060
2.980,-1.350,-0.060
2.982,-1.190,-0.060
2.984,-1.080,-0.050
2.986,-1.085,-0.040
2.988,-0.975,-0.030
2.990,-0.915,-0.025
2.992,-0.835,-0.025
2.994,-0.850,-0.030
2.996,-1.040,-0.040
2.998,-1.130,-0.050
3.000,-1.320,-0.055
3.002,-1.175,-0.055
3.004,-1.125,-0.045
3.006,-1.050,-0.035
3.008,-0.925,-0.025
3.010,-0.880,-0.010
3.012,-0.820,-0.005
3.014,-0.840,0.000
3.016,-0.965,0.000
3.018,-1.150,-0.005
3.020,-1.255,-0.005
3.022,-1.140,-0.005
3.024,-1.080,-0.005
3.026,-1.020,0.000
3.028,-0.880,0.010
3.030,-0.835,0.015
3.032,-0.760,0.020
3.034,-0.810,0.025
3.036,-0.910,0.025
3.038,-1.105,0.025
3.040,-1.330,0.025
3.042,-1.070,0.020
3.044,-1.025,0.020
3.046,-0.985,0.015
3.048,-0.965,0.015
3.050,-0.955,0.010
3.052,-0.745,0.010
3.054,-0.785,0.005
3.056,-0.905,0.005
3.058,-1.185,0.005
3.060,-1.250,0.010
3.062,-1.080,0.015
3.064,-1.015,0.020
3.066,-0.995,0.025
3.068,-0.920,0.025
3.070,-0.895,0.025
3.072,-0.700,0.025
3.074,-0.815,0.015
3.076,-1.020,0.005
3.078,-1.160,-0.005
3.080,-1.305,-0.020
3.082,-1.135,-0.030
3.084,-1.105,-0.035
3.086,-1.050,-0.040
3.088,-0.960,-0.045
3.090,-0.890,-0.045
3.092,-0.815,-0.050
3.094,-0.900,-0.050
3.096,-1.060,-0.050
3.098,-1.235,-0.055
3.100,-1.305,-0.060
3.102,-1.135,-0.070
3.104,-1.135,-0.075
3.106,-1.030,-0.080
3.108,-1.030,-0.085
3.110,-0.990,-0.090
3.112,-0.850,-0.090
3.114,-1.005,-0.090
3.116,-1.075,-0.090
3.118,-1.220,-0.085
3.120,-1.315,-0.075
3.122,-1.100,-0.070
3.124,-1.145,-0.065
3.126,-1.095,-0.060
3.128,-1.030,-0.060
3.130,-0.975,-0.065
3.132,-0.815,-0.075
3.134,-0.965,-0.080
3.136,-1.030,-0.090
3.138,-1.255,-0.095
3.140,-1.265,-0.095
3.142,-1.160,-0.090
3.144,-1.125,-0.080
3.146,-1.080,-0.070
3.148,-1.020,-0.060
3.150,-1.060,-0.060
3.152,-0.860,-0.065
3.154,-0.930,-0.085
3.156,-1.055,-0.110
3.158,-1.285,-0.135
3.160,-1.295,-0.165
3.162,-1.255,-0.190
3.164,-1.290,-0.205
3.166,-1.210,-0.205
3.168,-1.140,-0.185
3.170,-1.080,-0.150
3.172,-0.830,-0.095
3.174,-0.935,-0.020
3.176,-0.920,0.065
3.178,-1.015,0.170
3.180,-0.850,0.280
3.182,-0.670,0.405
3.184,-0.550,0.525
3.186,-0.315,0.645
3.188,-0.115,0.750
3.190,0.020,0.835
3.192,0.220,0.890
3.194,0.090,0.910
3.196,-0.090,0.885
3.198,-0.420,0.820
3.200,-0.505,0.720
3.202,-0.510,0.600
3.204,-0.615,0.460
3.206,-0.660,0.330
3.208,-0.745,0.210
3.210,-0.795,0.110
3.212,-0.720,0.040
3.214,-0.890,-0.005
3.216,-0.980,-0.025
3.218,-1.275,-0.030
3.220,-1.190,-0.025
3.222,-1.135,-0.020
3.224,-1.085,-0.020
3.226,-1.020,-0.025
3.228,-0.935,-0.035
3.230,-0.880,-0.050
3.232,-0.840,-0.065
3.234,-0.965,-0.070
3.236,-1.045,-0.075
3.238,-1.335,-0.075
3.240,-1.160,-0.065
3.242,-1.120,-0.060
3.244,-1.145,-0.050
3.246,-1.055,-0.050
3.248,-0.945,-0.050
3.250,-0.850,-0.055
3.252,-0.860,-0.060
3.254,-0.995,-0.070
3.256,-1.065,-0.075
3.258,-1.295,-0.075
3.260,-1.200,-0.070
3.262,-1.155,-0.065
3.264,-1.055,-0.060
3.266,-1.030,-0.055
3.268,-0.980,-0.050
3.270,-0.885,-0.050
3.272,-0.810,-0.050
3.274,-0.960,-0.050
3.276,-1.075,-0.050
3.278,-1.345,-0.050
3.280,-1.200,-0.050
3.282,-1.115,-0.045
3.284,-1.025,-0.045
3.286,-0.935,-0.045
3.288,-0.925,-0.045
3.290,-0.885,-0.045
3.292,-0.860,-0.045
3.294,-1.000,-0.045
3.296,-1.140,-0.045
3.298,-1.305,-0.045
3.300,-1.110,-0.040
3.302,-1.125,-0.035
3.304,-1.090,-0.035
3.306,-1.005,-0.030
3.308,-0.930,-0.025
3.310,-0.795,-0.020
3.312,-0.820,-0.020
3.314,-0.995,-0.020
3.316,-1.120,-0.020
3.318,-1.240,-0.020
3.320,-1.125,-0.020
3.322,-1.130,-0.025
3.324,-1.115,-0.025
3.326,-0.915,-0.025
3.328,-0.890,-0.030
3.330,-0.800,-0.030
3.332,-0.795,-0.025
3.334,-0.995,-0.025
3.336,-1.135,-0.025
3.338,-1.310,-0.020
3.340,-1.110,-0.020
3.342,-1.085,-0.025
3.344,-1.100,-0.025
3.346,-0.945,-0.030
3.348,-0.960,-0.030
3.350,-0.755,-0.030
3.352,-0.815,-0.025
3.354,-0.980,-0.015
3.356,-1.110,-0.005
3.358,-1.230,0.005
3.360,-1.080,0.010
3.362,-1.050,0.015
3.364,-0.990,0.015
3.366,-0.960,0.015
3.368,-0.955,0.010
3.370,-0.705,0.005
3.372,-0.820,0.005
3.374,-0.920,0.005
3.376,-1.120,0.010
3.378,-1.270,0.020
3.380,-1.075,0.030
3.382,-1.050,0.040
3.384,-0.985,0.040
3.386,-0.900,0.040
3.388,-0.835,0.035
3.390,-0.690,0.030
3.392,-0.810,0.025
3.394,-0.985,0.020
3.396,-1.120,0.025
3.398,-1.220,0.035
3.400,-1.030,0.045
3.402,-0.965,0.060
3.404,-0.885,0.075
3.406,-0.790,0.085
3.408,-0.845,0.090
3.410,-0.715,0.090
3.412,-0.805,0.090
3.414,-0.900,0.090
3.416,-1.030,0.090
3.418,-1.110,0.090
3.420,-0.995,0.090
3.422,-0.975,0.095
3.424,-0.920,0.100
3.426,-0.820,0.105
3.428,-0.810,0.105
3.430,-0.675,0.110
3.432,-0.745,0.110
3.434,-0.840,0.110
3.436,-1.015,0.115
3.438,-1.065,0.125
3.440,-0.975,0.130
3.442,-0.915,0.135
3.444,-0.825,0.145
3.446,-0.740,0.145
3.448,-0.785,0.145
3.450,-0.630,0.140
3.452,-0.740,0.140
3.454,-0.805,0.135
3.456,-1.045,0.130
3.458,-1.050,0.135
3.460,-0.920,0.135
3.462,-0.895,0.140
3.464,-0.860,0.140
3.466,-0.820,0.145
3.468,-0.725,0.140
3.470,-0.570,0.135
3.472,-0.765,0.125
3.474,-0.890,0.115
3.476,-1.105,0.105
3.478,-1.050,0.095
3.480,-0.975,0.095
3.482,-0.975,0.090
3.484,-0.920,0.090
3.486,-0.780,0.090
3.488,-0.755,0.090
3.490,-0.665,0.085
3.492,-0.820,0.080
3.494,-0.895,0.075
3.496,-1.200,0.065
3.498,-1.080,0.060
3.500,-1.005,0.050
3.502,-0.965,0.045
3.504,-0.925,0.040
3.506,-0.855,0.035
3.508,-0.805,0.025
3.510,-0.750,0.020
3.512,-0.955,0.010
3.514,-0.950,0.005
3.516,-1.200,0.000
3.518,-1.125,0.000
3.520,-1.055,-0.005
3.522,-1.045,-0.005
3.524,-0.975,-0.005
3.526,-0.875,-0.010
3.528,-0.875,-0.015
3.530,-0.770,-0.020
3.532,-0.940,-0.025
3.534,-1.095,-0.030
3.536,-1.275,-0.030
3.538,-1.150,-0.030
3.540,-1.070,-0.030
3.542,-1.065,-0.025
3.544,-0.980,-0.025
3.546,-0.930,-0.020
3.548,-0.805,-0.025
3.550,-0.850,-0.025
3.552,-0.990,-0.030
3.554,-1.065,-0.035
3.556,-1.300,-0.040
3.558,-1.095,-0.040
3.560,-1.070,-0.045
3.562,-1.055,-0.045
3.564,-1.005,-0.040
3.566,-0.920,-0.040
3.568,-0.855,-0.040
3.570,-0.850,-0.040
3.572,-0.990,-0.045
3.574,-1.065,-0.045
3.576,-1.240,-0.050
3.578,-1.160,-0.055
3.580,-1.155,-0.055
3.582,-1.055,-0.055
3.584,-0.950,-0.055
3.586,-0.950,-0.050
3.588,-0.855,-0.050
3.590,-0.855,-0.045
3.592,-0.950,-0.040
3.594,-1.115,-0.035
3.596,-1.290,-0.030
3.598,-1.115,-0.030
3.600,-1.090,-0.025
3.602,-1.045,-0.030
3.604,-0.915,-0.030
3.606,-0.890,-0.030
3.608,-0.820,-0.030
3.610,-0.855,-0.025
3.612,-0.990,-0.020
3.614,-1.145,-0.015
3.616,-1.290,-0.015
3.618,-1.095,-0.015
3.620,-1.080,-0.020
3.622,-1.005,-0.025
3.624,-0.960,-0.035
3.626,-0.945,-0.045
3.628,-0.865,-0.050
3.630,-0.830,-0.055
3.632,-0.985,-0.050
3.634,-1.145,-0.045
3.636,-1.310,-0.035
3.638,-1.125,-0.025
3.640,-1.100,-0.020
3.642,-1.030,-0.015
3.644,-0.945,-0.020
3.646,-0.905,-0.030
3.648,-0.810,-0.045
3.650,-0.930,-0.055
3.652,-0.985,-0.065
3.654,-1.150,-0.065
3.656,-1.250,-0.060
3.658,-1.120,-0.055
3.660,-1.110,-0.045
3.662,-1.025,-0.040
3.664,-0.975,-0.040
3.666,-1.005,-0.045
3.668,-0.835,-0.055
3.670,-0.880,-0.065
3.672,-0.985,-0.070
3.674,-1.235,-0.075
3.676,-1.345,-0.070
3.678,-1.105,-0.065
3.680,-1.075,-0.055
3.682,-1.045,-0.050
3.684,-0.990,-0.040
3.686,-0.925,-0.040
3.688,-0.795,-0.040
3.690,-0.895,-0.045
3.692,-1.050,-0.045
3.694,-1.190,-0.050
3.696,-1.285,-0.050
3.698,-1.080,-0.045
3.700,-1.095,-0.045
3.702,-1.035,-0.045
3.704,-1.010,-0.050
3.706,-0.985,-0.055
3.708,-0.805,-0.065
3.710,-0.895,-0.075
3.712,-1.025,-0.080
3.714,-1.265,-0.085
3.716,-1.315,-0.080
3.718,-1.120,-0.075
3.720,-1.095,-0.060
3.722,-1.010,-0.050
3.724,-0.930,-0.045
3.726,-0.950,-0.040
3.728,-0.820,-0.045
3.730,-0.915,-0.050
3.732,-1.030,-0.060
3.734,-1.275,-0.070
3.736,-1.250,-0.075
3.738,-1.100,-0.080
3.740,-1.095,-0.080
3.742,-1.090,-0.075
3.744,-0.995,-0.075
3.746,-0.950,-0.070
3.748,-0.790,-0.075
3.750,-1.015,-0.075
3.752,-1.015,-0.080
3.754,-1.235,-0.085
3.756,-1.205,-0.085
3.758,-1.180,-0.085
3.760,-1.110,-0.080
3.762,-1.080,-0.070
3.764,-0.905,-0.060
3.766,-0.865,-0.050
3.768,-0.840,-0.045
3.770,-0.975,-0.050
3.772,-1.070,-0.050
3.774,-1.255,-0.060
3.776,-1.190,-0.065
3.778,-1.100,-0.070
3.780,-1.100,-0.070
3.782,-1.035,-0.075
3.784,-1.030,-0.070
3.786,-0.920,-0.070
3.788,-0.835,-0.070
3.790,-0.965,-0.075
3.792,-1.050,-0.080
3.794,-1.275,-0.085
3.796,-1.230,-0.085
3.798,-1.200,-0.090
3.800,-1.090,-0.085
3.802,-1.025,-0.080
3.804,-0.915,-0.075
3.806,-0.910,-0.070
3.808,-0.820,-0.060
3.810,-1.015,-0.055
3.812,-1.015,-0.055
3.814,-1.320,-0.055
3.816,-1.170,-0.060
3.818,-1.085,-0.060
3.820,-1.080,-0.065
3.822,-1.050,-0.065
3.824,-0.905,-0.060
3.826,-0.900,-0.055
3.828,-0.870,-0.050
3.830,-0.925,-0.045
3.832,-1.030,-0.040
3.834,-1.295,-0.040
3.836,-1.145,-0.035
3.838,-1.080,-0.035
3.840,-1.060,-0.035
3.842,-0.950,-0.035
3.844,-0.940,-0.030
3.846,-0.805,-0.030
3.848,-0.765,-0.025
3.850,-0.990,-0.020
3.852,-1.035,-0.015
3.854,-1.275,-0.010
3.856,-1.115,-0.005
3.858,-1.035,0.000
3.860,-0.995,0.000
3.862,-0.875,0.010
3.864,-0.855,0.015
3.866,-0.830,0.025
3.868,-0.745,0.030
3.870,-0.895,0.040
3.872,-1.035,0.050
3.874,-1.195,0.050
3.876,-1.035,0.055
3.878,-0.995,0.050
3.880,-0.970,0.040
3.882,-0.925,0.030
3.884,-0.920,0.015
3.886,-0.770,0.005
3.888,-0.800,0.000
3.890,-0.925,0.000
3.892,-1.080,0.005
3.894,-1.270,0.010
3.896,-1.070,0.020
3.898,-1.045,0.025
3.900,-0.970,0.030
3.902,-0.920,0.025
3.904,-0.890,0.015
3.906,-0.720,0.005
3.908,-0.790,-0.010
3.910,-1.000,-0.025
3.912,-1.215,-0.035
3.914,-1.300,-0.045
3.916,-1.115,-0.050
3.918,-1.060,-0.055
3.920,-1.020,-0.055
3.922,-0.970,-0.055
3.924,-0.970,-0.060
3.926,-0.865,-0.065
3.928,-0.890,-0.075
3.930,-1.040,-0.080
3.932,-1.180,-0.085
3.934,-1.325,-0.085
3.936,-1.160,-0.080
3.938,-1.095,-0.075
3.940,-1.035,-0.075
3.942,-1.010,-0.070
3.944,-1.015,-0.070
3.946,-0.840,-0.070
3.948,-0.875,-0.075
3.950,-1.025,-0.080
3.952,-1.255,-0.090
3.954,-1.375,-0.095
3.956,-1.130,-0.095
3.958,-1.105,-0.095
3.960,-1.115,-0.095
3.962,-0.995,-0.090
3.964,-0.965,-0.085
3.966,-0.860,-0.085
3.968,-0.920,-0.085
3.970,-1.055,-0.085
3.972,-1.215,-0.090
3.974,-1.310,-0.090
3.976,-1.190,-0.090
3.978,-1.105,-0.090
3.980,-1.095,-0.085
3.982,-0.975,-0.085
3.984,-0.965,-0.090
3.986,-0.800,-0.095
3.988,-0.940,-0.110
3.990,-1.075,-0.130
3.992,-1.350,-0.150
3.994,-1.385,-0.175
3.996,-1.260,-0.190
3.998,-1.305,-0.200
4.000,-1.200,-0.190
4.002,-1.110,-0.160
4.004,-1.010,-0.110
4.006,-0.740,-0.035
4.008,-0.735,0.060
4.010,-0.735,0.175
4.012,-0.820,0.305
4.014,-0.805,0.435
4.016,-0.500,0.565
4.018,-0.335,0.680
4.020,-0.150,0.775
4.022,0.035,0.840
4.024,0.075,0.870
4.026,0.095,0.860
4.028,-0.025,0.810
4.030,-0.180,0.725
4.032,-0.585,0.610
4.034,-0.725,0.480
4.036,-0.775,0.340
4.038,-0.895,0.205
4.040,-0.980,0.090
4.042,-0.905,-0.005
4.044,-0.945,-0.070
4.046,-0.860,-0.105
4.048,-1.015,-0.120
4.050,-1.070,-0.120
4.052,-1.245,-0.105
4.054,-1.230,-0.090
4.056,-1.170,-0.080
4.058,-1.170,-0.075
4.060,-1.080,-0.075
4.062,-0.990,-0.080
4.064,-0.920,-0.090
4.066,-0.815,-0.095
4.068,-0.975,-0.100
4.070,-1.050,-0.095
4.072,-1.270,-0.090
4.074,-1.215,-0.080
4.076,-1.140,-0.070
4.078,-1.130,-0.065
4.080,-1.025,-0.060
4.082,-0.975,-0.055
4.084,-0.850,-0.055
4.086,-0.800,-0.055
4.088,-0.960,-0.055
4.090,-1.065,-0.050
4.092,-1.215,-0.045
4.094,-1.220,-0.045
4.096,-1.085,-0.040
4.098,-1.070,-0.040
4.100,-1.045,-0.045
4.102,-0.955,-0.055
4.104,-0.870,-0.060
4.106,-0.845,-0.070
4.108,-0.985,-0.075
4.110,-1.050,-0.075
4.112,-1.255,-0.070
4.114,-1.135,-0.065
4.116,-1.140,-0.060
4.118,-1.125,-0.055
4.120,-1.060,-0.050
4.122,-0.955,-0.050
4.124,-0.815,-0.055
4.126,-0.785,-0.055
4.128,-0.975,-0.055
4.130,-1.030,-0.050
4.132,-1.270,-0.045
4.134,-1.115,-0.035
4.136,-1.100,-0.025
4.138,-1.050,-0.020
4.140,-0.985,-0.020
4.142,-0.915,-0.025
4.144,-0.830,-0.030
4.146,-0.850,-0.035
4.148,-0.985,-0.040
4.150,-1.075,-0.040
4.152,-1.270,-0.035
4.154,-1.115,-0.030
4.156,-1.095,-0.020
4.158,-1.040,-0.010
4.160,-0.895,-0.005
4.162,-0.855,0.000
4.164,-0.825,0.000
4.166,-0.830,0.000
4.168,-0.940,-0.005
4.170,-1.085,-0.005
4.172,-1.265,-0.005
4.174,-1.085,0.000
4.176,-1.025,0.005
4.178,-1.015,0.005
4.180,-0.915,0.005
4.182,-0.915,0.005
4.184,-0.760,0.005
4.186,-0.745,0.005
4.188,-0.950,0.005
4.190,-1.120,0.010
4.192,-1.275,0.015
4.194,-1.030,0.025
4.196,-1.025,0.035
4.198,-0.965,0.040
4.200,-0.925,0.040
4.202,-0.860,0.035
4.204,-0.775,0.025
4.206,-0.785,0.015
4.208,-0.895,0.005
4.210,-1.180,0.000
4.212,-1.210,0.005
4.214,-1.040,0.015
4.216,-1.000,0.030
4.218,-0.925,0.050
4.220,-0.830,0.065
4.222,-0.805,0.075
4.224,-0.730,0.080
4.226,-0.780,0.075
4.228,-0.900,0.075
4.230,-1.060,0.070
4.232,-1.160,0.065
4.234,-1.005,0.070
4.236,-0.950,0.075
4.238,-0.885,0.085
4.240,-0.855,0.100
4.242,-0.835,0.110
4.244,-0.615,0.120
4.246,-0.710,0.125
4.248,-0.820,0.125
4.250,-1.030,0.125
4.252,-1.115,0.120
4.254,-0.985,0.120
4.256,-0.945,0.120
4.258,-0.890,0.120
4.260,-0.760,0.125
4.262,-0.750,0.130
4.264,-0.600,0.135
4.266,-0.700,0.140
4.268,-0.800,0.145
4.270,-0.995,0.145
4.272,-1.045,0.145
4.274,-0.930,0.145
4.276,-0.935,0.150
4.278,-0.850,0.150
4.280,-0.745,0.150
4.282,-0.760,0.150
4.284,-0.600,0.155
4.286,-0.670,0.155
4.288,-0.800,0.155
4.290,-1.015,0.160
4.292,-1.075,0.160
4.294,-0.895,0.160
4.296,-0.855,0.165
4.298,-0.840,0.165
4.300,-0.755,0.165
4.302,-0.785,0.160
4.304,-0.615,0.155
4.306,-0.680,0.145
4.308,-0.865,0.135
4.310,-1.050,0.125
4.312,-1.045,0.115
4.314,-0.935,0.105
4.316,-0.965,0.100
4.318,-0.890,0.095
4.320,-0.800,0.095
4.322,-0.830,0.095
4.324,-0.665,0.095
4.326,-0.785,0.090
4.328,-0.915,0.085
4.330,-1.055,0.075
4.332,-1.165,0.065
4.334,-1.010,0.055
4.336,-1.030,0.040
4.338,-0.980,0.030
4.340,-0.840,0.020
4.342,-0.840,0.015
4.344,-0.750,0.010
4.346,-0.890,0.010
4.348,-1.025,0.005
4.350,-1.180,0.005
4.352,-1.165,0.000
4.354,-1.050,-0.005
4.356,-1.060,-0.015
4.358,-1.010,-0.020
4.360,-0.955,-0.025
4.362,-0.925,-0.025
4.364,-0.815,-0.030
4.366,-0.935,-0.030
4.368,-0.975,-0.030
4.370,-1.215,-0.030
4.372,-1.165,-0.035
4.374,-1.080,-0.035
4.376,-1.085,-0.040
4.378,-1.085,-0.050
4.380,-0.935,-0.055
4.382,-0.895,-0.055
4.384,-0.835,-0.060
4.386,-0.970,-0.060
4.388,-1.010,-0.055
4.390,-1.280,-0.050
4.392,-1.155,-0.045
4.394,-1.095,-0.045
4.396,-1.075,-0.040
4.398,-1.060,-0.040
4.400,-1.010,-0.040
4.402,-0.925,-0.040
4.404,-0.755,-0.040
4.406,-0.920,-0.040
4.408,-1.025,-0.040
4.410,-1.285,-0.035
4.412,-1.190,-0.030
4.414,-1.105,-0.030
4.416,-1.040,-0.035
4.418,-1.040,-0.035
4.420,-0.975,-0.045
4.422,-0.860,-0.050
4.424,-0.830,-0.050
4.426,-0.975,-0.050
4.428,-1.040,-0.050
4.430,-1.280,-0.040
4.432,-1.175,-0.030
4.434,-1.080,-0.020
4.436,-1.035,-0.015
4.438,-0.915,-0.010
4.440,-0.900,-0.010
4.442,-0.855,-0.010
4.444,-0.885,-0.020
4.446,-0.985,-0.025
4.448,-1.095,-0.030
4.450,-1.275,-0.030
4.452,-1.125,-0.030
4.454,-1.070,-0.030
4.456,-1.020,-0.030
4.458,-0.995,-0.035
4.460,-0.970,-0.035
4.462,-0.880,-0.040
4.464,-0.845,-0.045
4.466,-1.000,-0.045
4.468,-1.120,-0.045
4.470,-1.310,-0.040
4.472,-1.120,-0.035
4.474,-1.100,-0.025
4.476,-1.025,-0.020
4.478,-0.940,-0.015
4.480,-0.950,-0.015
4.482,-0.820,-0.020
4.484,-0.865,-0.035
4.486,-1.025,-0.045
4.488,-1.110,-0.055
4.490,-1.335,-0.065
4.492,-1.170,-0.070
4.494,-1.100,-0.070
4.496,-1.050,-0.060
4.498,-1.015,-0.055
4.500,-0.940,-0.045
4.502,-0.825,-0.040
4.504,-0.915,-0.035
4.506,-1.000,-0.035
4.508,-1.155,-0.035
4.510,-1.310,-0.035
4.512,-1.125,-0.040
4.514,-1.090,-0.040
4.516,-1.060,-0.040
4.518,-0.960,-0.040
4.520,-0.935,-0.040
4.522,-0.840,-0.035
4.524,-0.875,-0.040
4.526,-1.040,-0.040
4.528,-1.175,-0.045
4.530,-1.310,-0.050
4.532,-1.155,-0.055
4.534,-1.130,-0.060
4.536,-1.080,-0.060
4.538,-1.030,-0.060
4.540,-0.930,-0.055
4.542,-0.800,-0.050
4.544,-0.900,-0.050
4.546,-1.015,-0.045
4.548,-1.180,-0.045
4.550,-1.350,-0.045
4.552,-1.105,-0.050
4.554,-1.175,-0.055
4.556,-1.095,-0.060
4.558,-0.955,-0.065
4.560,-0.970,-0.070
4.562,-0.860,-0.070
4.564,-0.915,-0.065
4.566,-1.030,-0.060
4.568,-1.195,-0.055
4.570,-1.305,-0.050
4.572,-1.115,-0.045
4.574,-1.165,-0.040
4.576,-1.135,-0.040
4.578,-1.000,-0.045
4.580,-0.925,-0.055
4.582,-0.765,-0.065
4.584,-0.890,-0.075
4.586,-1.145,-0.085
4.588,-1.295,-0.095
4.590,-1.330,-0.100
4.592,-1.170,-0.095
4.594,-1.110,-0.085
4.596,-1.045,-0.070
4.598,-1.005,-0.050
4.600,-1.030,-0.030
4.602,-0.930,-0.010
4.604,-0.930,0.005
4.606,-0.815,0.010
4.608,-0.905,0.010
4.610,-0.985,0.005
4.612,-1.190,0.000
4.614,-1.250,-0.010
4.616,-1.030,-0.015
4.618,-1.035,-0.015
4.620,-0.980,-0.010
4.622,-0.930,0.000
4.624,-0.910,0.010
4.626,-0.715,0.020
4.628,-0.885,0.020
4.630,-1.065,0.020
4.632,-1.210,0.010
4.634,-1.190,-0.005
4.636,-1.100,-0.020
4.638,-1.050,-0.035
4.640,-1.025,-0.045
4.642,-0.930,-0.045
4.644,-0.915,-0.040
4.646,-0.830,-0.030
4.648,-0.945,-0.020
4.650,-1.015,-0.015
4.652,-1.240,-0.010
4.654,-1.215,-0.015
4.656,-1.095,-0.020
4.658,-1.060,-0.030
4.660,-1.025,-0.045
4.662,-0.980,-0.050
4.664,-0.930,-0.055
4.666,-0.840,-0.060
4.668,-1.020,-0.055
4.670,-1.060,-0.055
4.672,-1.295,-0.055
4.674,-1.200,-0.055
4.676,-1.175,-0.060
4.678,-1.100,-0.065
4.680,-1.075,-0.075
4.682,-1.005,-0.085
4.684,-0.950,-0.090
4.686,-0.860,-0.095
4.688,-1.040,-0.100
4.690,-1.105,-0.100
4.692,-1.360,-0.100
4.694,-1.235,-0.100
4.696,-1.200,-0.100
4.698,-1.120,-0.100
4.700,-1.085,-0.100
4.702,-1.030,-0.095
4.704,-0.920,-0.095
4.706,-0.915,-0.090
4.708,-1.040,-0.090
4.710,-1.145,-0.085
4.712,-1.385,-0.080
4.714,-1.230,-0.080
4.716,-1.145,-0.080
4.718,-1.085,-0.085
4.720,-1.045,-0.090
4.722,-1.025,-0.095
4.724,-0.975,-0.100
4.726,-0.940,-0.100
4.728,-1.070,-0.105
4.730,-1.185,-0.105
4.732,-1.375,-0.105
4.734,-1.245,-0.100
4.736,-1.155,-0.100
4.738,-1.115,-0.100
4.740,-1.010,-0.105
4.742,-1.080,-0.110
4.744,-0.925,-0.120
4.746,-1.000,-0.125
4.748,-1.120,-0.135
4.750,-1.270,-0.135
4.752,-1.480,-0.125
4.754,-1.230,-0.105
4.756,-1.150,-0.070
4.758,-1.005,-0.020
4.760,-0.870,0.055
4.762,-0.745,0.140
4.764,-0.525,0.245
4.766,-0.435,0.350
4.768,-0.515,0.455
4.770,-0.565,0.545
4.772,-0.765,0.615
4.774,-0.395,0.655
4.776,-0.405,0.655
4.778,-0.380,0.625
4.780,-0.345,0.565
4.782,-0.450,0.480
4.784,-0.395,0.380
4.786,-0.570,0.270
4.788,-0.840,0.170
4.790,-1.120,0.080
4.792,-1.330,0.005
4.794,-1.200,-0.055
4.796,-1.205,-0.100
4.798,-1.205,-0.125
4.800,-1.095,-0.145
4.802,-1.080,-0.150
4.804,-0.905,-0.155
4.806,-1.035,-0.150
4.808,-1.155,-0.145
4.810,-1.265,-0.135
4.812,-1.430,-0.125
4.814,-1.230,-0.115
4.816,-1.230,-0.105
4.818,-1.130,-0.100
4.820,-0.980,-0.090
4.822,-1.025,-0.085
4.824,-0.855,-0.080
4.826,-0.970,-0.075
4.828,-1.060,-0.065
4.830,-1.215,-0.060
4.832,-1.315,-0.050
4.834,-1.170,-0.045
4.836,-1.150,-0.045
4.838,-1.115,-0.050
4.840,-1.005,-0.055
4.842,-0.985,-0.065
4.844,-0.910,-0.075
4.846,-0.975,-0.085
4.848,-1.115,-0.090
4.850,-1.200,-0.085
4.852,-1.255,-0.080
4.854,-1.170,-0.065
4.856,-1.130,-0.055
4.858,-1.090,-0.045
4.860,-1.025,-0.040
4.862,-0.980,-0.035
4.864,-0.885,-0.040
4.866,-0.905,-0.050
4.868,-1.050,-0.055
4.870,-1.230,-0.060
4.872,-1.315,-0.060
4.874,-1.160,-0.060
4.876,-1.145,-0.055
4.878,-1.060,-0.045
4.880,-1.000,-0.040
4.882,-1.035,-0.040
4.884,-0.850,-0.040
4.886,-0.955,-0.045
4.888,-1.020,-0.050
4.890,-1.195,-0.055
4.892,-1.260,-0.060
4.894,-1.120,-0.065
4.896,-1.205,-0.060
4.898,-1.120,-0.060
4.900,-1.020,-0.055
4.902,-0.980,-0.050
4.904,-0.805,-0.045
4.906,-0.950,-0.040
4.908,-1.045,-0.035
4.910,-1.300,-0.030
4.912,-1.225,-0.030
4.914,-1.130,-0.025
4.916,-1.095,-0.020
4.918,-1.070,-0.015
4.920,-0.935,-0.015
4.922,-0.985,-0.015
4.924,-0.780,-0.015
4.926,-0.925,-0.020
4.928,-1.010,-0.020
4.930,-1.280,-0.025
4.932,-1.230,-0.020
4.934,-1.125,-0.020
4.936,-1.145,-0.015
4.938,-0.975,-0.005
4.940,-0.940,0.000
4.942,-0.885,0.005
4.944,-0.825,0.010
4.946,-0.855,0.015
4.948,-0.990,0.015
4.950,-1.280,0.015
4.952,-1.175,0.015
4.954,-1.095,0.015
4.956,-1.075,0.020
4.958,-1.020,0.020
4.960,-0.925,0.025
4.962,-0.890,0.030
4.964,-0.725,0.035
4.966,-0.930,0.035
4.968,-0.970,0.040
4.970,-1.225,0.045
4.972,-1.125,0.045
4.974,-1.055,0.050
4.976,-0.990,0.055
4.978,-0.965,0.060
4.980,-0.880,0.065
4.982,-0.790,0.070
4.984,-0.765,0.075
4.986,-0.890,0.080
4.988,-0.945,0.085
4.990,-1.125,0.090
4.992,-1.090,0.095
4.994,-1.040,0.100
4.996,-0.950,0.105
4.998,-0.910,0.105
5.000,-0.855,0.110
5.002,-0.740,0.115
5.004,-0.680,0.125
5.006,-0.880,0.130
5.008,-0.890,0.140
5.010,-1.155,0.145
5.012,-0.980,0.150
5.014,-0.990,0.155
5.016,-0.915,0.155
5.018,-0.805,0.155
5.020,-0.770,0.150
5.022,-0.720,0.150
5.024,-0.710,0.150
5.026,-0.840,0.150
5.028,-0.925,0.150
5.030,-1.115,0.155
5.032,-0.975,0.165
5.034,-0.945,0.170
5.036,-0.895,0.180
5.038,-0.790,0.180
5.040,-0.755,0.185
5.042,-0.695,0.185
5.044,-0.710,0.185
5.046,-0.805,0.180
5.048,-0.925,0.180
5.050,-1.120,0.180
5.052,-0.975,0.180
5.054,-0.955,0.175
5.056,-0.920,0.170
5.058,-0.795,0.160
5.060,-0.815,0.150
5.062,-0.690,0.135
5.064,-0.695,0.125
5.066,-0.835,0.115
5.068,-1.060,0.105
5.070,-1.220,0.105
5.072,-1.075,0.100
5.074,-1.030,0.100
5.076,-0.975,0.100
5.078,-0.870,0.100
5.080,-0.865,0.090
5.082,-0.755,0.080
5.084,-0.780,0.070
5.086,-0.950,0.060
5.088,-1.060,0.050
5.090,-1.255,0.045
5.092,-1.125,0.045
5.094,-1.085,0.040
5.096,-1.010,0.040
5.098,-0.970,0.040
5.100,-0.915,0.035
5.102,-0.775,0.025
5.104,-0.875,0.015
5.106,-1.025,0.005
5.108,-1.190,-0.005
5.110,-1.340,-0.010
5.112,-1.175,-0.015
5.114,-1.115,-0.020
5.116,-1.050,-0.020
5.118,-0.945,-0.015
5.120,-0.920,-0.015
5.122,-0.865,-0.010
5.124,-0.925,-0.010
5.126,-1.020,-0.010
5.128,-1.220,-0.010
5.130,-1.315,-0.010
5.132,-1.165,-0.015
5.134,-1.130,-0.015
5.136,-1.080,-0.015
5.138,-0.935,-0.020
5.140,-0.980,-0.020
5.142,-0.875,-0.025
5.144,-0.920,-0.025
5.146,-1.010,-0.030
5.148,-1.220,-0.030
5.150,-1.350,-0.030
5.152,-1.150,-0.030
5.154,-1.190,-0.030
5.156,-1.085,-0.030
5.158,-1.010,-0.030
5.160,-1.015,-0.030
5.162,-0.805,-0.025
5.164,-0.905,-0.025
5.166,-1.030,-0.020
5.168,-1.245,-0.010
5.170,-1.315,-0.005
5.172,-1.120,0.000
5.174,-1.100,0.005
5.176,-1.075,0.005
5.178,-0.975,0.000
5.180,-0.940,-0.005
5.182,-0.860,-0.015
5.184,-0.955,-0.020
5.186,-1.005,-0.030
5.188,-1.230,-0.035
5.190,-1.300,-0.035
5.192,-1.165,-0.035
5.194,-1.090,-0.030
5.196,-1.085,-0.025
5.198,-0.975,-0.020
5.200,-1.005,-0.015
5.202,-0.830,-0.015
5.204,-0.965,-0.010
5.206,-0.985,-0.010
5.208,-1.245,-0.005
5.210,-1.240,-0.005
5.212,-1.130,0.000
5.214,-1.095,0.000
5.216,-1.065,0.005
5.218,-0.945,0.005
5.220,-0.955,0.000
5.222,-0.820,0.000
5.224,-1.000,-0.005
5.226,-1.020,-0.010
5.228,-1.215,-0.010
5.230,-1.225,-0.010
5.232,-1.145,-0.005
5.234,-1.105,-0.005
5.236,-1.025,0.000
5.238,-0.945,0.005
5.240,-0.910,0.005
5.242,-0.870,0.000
5.244,-0.955,-0.005
5.246,-1.025,-0.010
5.248,-1.335,-0.020
5.250,-1.210,-0.020
5.252,-1.135,-0.025
5.254,-1.100,-0.020
5.256,-1.070,-0.015
5.258,-0.985,-0.015
5.260,-0.915,-0.010
5.262,-0.850,-0.005
5.264,-0.970,0.000
5.266,-1.025,0.000
5.268,-1.240,0.000
5.270,-1.165,0.005
5.272,-1.135,0.005
5.274,-1.135,0.005
5.276,-1.045,0.010
5.278,-0.890,0.010
5.280,-0.865,0.010
5.282,-0.895,0.010
5.284,-1.010,0.005
5.286,-1.125,-0.005
5.288,-1.275,-0.010
5.290,-1.205,-0.015
5.292,-1.130,-0.025
5.294,-1.120,-0.030
5.296,-1.070,-0.030
5.298,-1.005,-0.030
5.300,-0.890,-0.030
5.302,-0.900,-0.025
5.304,-1.010,-0.025
5.306,-1.105,-0.025
5.308,-1.370,-0.020
5.310,-1.225,-0.020
5.312,-1.085,-0.020
5.314,-1.100,-0.020
5.316,-1.080,-0.025
5.318,-0.960,-0.025
5.320,-0.860,-0.030
5.322,-0.895,-0.030
5.324,-1.090,-0.035
5.326,-1.145,-0.035
5.328,-1.340,-0.040
5.330,-1.205,-0.035
5.332,-1.140,-0.035
5.334,-1.130,-0.030
5.336,-1.015,-0.025
5.338,-0.940,-0.020
5.340,-0.880,-0.015
5.342,-0.840,-0.010
5.344,-1.055,-0.005
5.346,-1.170,0.000
5.348,-1.340,0.000
5.350,-1.160,0.000
5.352,-1.075,0.000
5.354,-1.085,0.005
5.356,-0.980,0.010
5.358,-0.975,0.015
5.360,-0.805,0.020
5.362,-0.840,0.025
5.364,-0.995,0.030
5.366,-1.135,0.035
5.368,-1.305,0.030
5.370,-1.150,0.025
5.372,-1.040,0.020
5.374,-1.060,0.010
5.376,-1.015,0.005
5.378,-0.930,0.000
5.380,-0.825,0.000
5.382,-0.855,0.005
5.384,-1.040,0.015
5.386,-1.165,0.020
5.388,-1.275,0.025
5.390,-1.125,0.020
5.392,-1.135,0.010
5.394,-1.090,0.000
5.396,-1.025,-0.020
5.398,-1.040,-0.040
5.400,-0.905,-0.055
5.402,-0.885,-0.065
5.404,-1.060,-0.070
5.406,-1.225,-0.070
5.408,-1.410,-0.070
5.410,-1.270,-0.065
5.412,-1.170,-0.065
5.414,-1.135,-0.065
5.416,-1.080,-0.070
5.418,-1.060,-0.070
5.420,-0.870,-0.075
5.422,-0.980,-0.080
5.424,-1.120,-0.080
5.426,-1.250,-0.075
5.428,-1.415,-0.070
5.430,-1.235,-0.070
5.432,-1.195,-0.070
5.434,-1.120,-0.070
5.436,-1.095,-0.075
5.438,-1.055,-0.085
5.440,-0.950,-0.100
5.442,-0.995,-0.110
5.444,-1.120,-0.115
5.446,-1.330,-0.120
5.448,-1.420,-0.120
5.450,-1.265,-0.120
5.452,-1.240,-0.120
5.454,-1.185,-0.115
5.456,-1.070,-0.115
5.458,-1.100,-0.120
5.460,-0.970,-0.120
5.462,-1.005,-0.125
5.464,-1.105,-0.125
5.466,-1.335,-0.120
5.468,-1.405,-0.120
5.470,-1.215,-0.115
5.472,-1.290,-0.110
5.474,-1.165,-0.110
5.476,-1.035,-0.115
5.478,-1.095,-0.125
5.480,-0.950,-0.135
5.482,-1.045,-0.155
5.484,-1.195,-0.170
5.486,-1.435,-0.190
5.488,-1.500,-0.200
5.490,-1.375,-0.210
5.492,-1.335,-0.205
5.494,-1.265,-0.190
5.496,-1.155,-0.155
5.498,-1.070,-0.105
5.500,-0.865,-0.040
5.502,-0.910,0.050
5.504,-0.840,0.155
5.506,-0.930,0.270
5.508,-0.825,0.385
5.510,-0.610,0.500
5.512,-0.480,0.605
5.514,-0.335,0.680
5.516,-0.195,0.730
5.518,-0.150,0.750
5.520,-0.060,0.730
5.522,-0.235,0.680
5.524,-0.425,0.605
5.526,-0.750,0.505
5.528,-0.860,0.395
5.530,-0.900,0.285
5.532,-1.055,0.180
5.534,-0.985,0.085
5.536,-0.965,0.015
5.538,-0.965,-0.040
5.540,-0.875,-0.070
5.542,-1.060,-0.085
5.544,-1.105,-0.090
5.546,-1.345,-0.090
5.548,-1.325,-0.090
5.550,-1.215,-0.090
5.552,-1.215,-0.095
5.554,-1.130,-0.100
5.556,-1.135,-0.105
5.558,-1.050,-0.110
5.560,-0.905,-0.110
5.562,-1.055,-0.105
5.564,-1.160,-0.095
5.566,-1.375,-0.085
5.568,-1.210,-0.070
5.570,-1.235,-0.065
5.572,-1.170,-0.060
5.574,-1.135,-0.065
5.576,-1.055,-0.075
5.578,-0.950,-0.085
5.580,-0.935,-0.095
5.582,-1.095,-0.100
5.584,-1.145,-0.105
5.586,-1.430,-0.105
5.588,-1.260,-0.100
5.590,-1.180,-0.090
5.592,-1.200,-0.090
5.594,-1.070,-0.085
5.596,-1.065,-0.085
5.598,-0.995,-0.085
5.600,-0.930,-0.080
5.602,-1.045,-0.075
5.604,-1.165,-0.070
5.606,-1.370,-0.060
5.608,-1.195,-0.055
5.610,-1.170,-0.050
5.612,-1.170,-0.050
5.614,-1.035,-0.055
5.616,-1.010,-0.065
5.618,-0.940,-0.080
5.620,-0.950,-0.090
5.622,-1.140,-0.100
5.624,-1.225,-0.100
5.626,-1.380,-0.095
5.628,-1.215,-0.085
5.630,-1.175,-0.070
5.632,-1.145,-0.055
5.634,-1.070,-0.045
5.636,-1.010,-0.035
5.638,-0.865,-0.035
5.640,-0.945,-0.040
5.642,-1.030,-0.050
5.644,-1.230,-0.060
5.646,-1.415,-0.065
5.648,-1.190,-0.065
5.650,-1.150,-0.060
5.652,-1.120,-0.055
5.654,-0.975,-0.050
5.656,-0.985,-0.040
5.658,-0.915,-0.030
5.660,-0.950,-0.025
5.662,-1.045,-0.020
5.664,-1.185,-0.020
5.666,-1.315,-0.025
5.668,-1.150,-0.030
5.670,-1.170,-0.040
5.672,-1.175,-0.045
5.674,-1.005,-0.050
5.676,-1.000,-0.055
5.678,-0.855,-0.050
5.680,-0.930,-0.045
5.682,-1.015,-0.035
5.684,-1.195,-0.025
5.686,-1.320,-0.015
5.688,-1.185,-0.010
5.690,-1.135,-0.005
5.692,-1.060,-0.010
5.694,-0.975,-0.010
5.696,-1.015,-0.015
5.698,-0.830,-0.020
5.700,-0.850,-0.020
5.702,-0.920,-0.015
5.704,-1.200,-0.005
5.706,-1.355,0.000
5.708,-1.125,0.010
5.710,-1.150,0.015
5.712,-1.060,0.015
5.714,-1.025,0.015
5.716,-0.915,0.010
5.718,-0.755,0.005
5.720,-0.800,0.000
5.722,-1.035,0.005
5.724,-1.200,0.015
5.726,-1.265,0.025
5.728,-1.090,0.040
5.730,-1.105,0.055
5.732,-1.015,0.060
5.734,-0.915,0.065
5.736,-0.860,0.065
5.738,-0.780,0.065
5.740,-0.835,0.065
5.742,-0.920,0.065
5.744,-1.100,0.075
5.746,-1.210,0.080
5.748,-1.045,0.090
5.750,-1.050,0.100
5.752,-1.000,0.105
5.754,-0.880,0.105
5.756,-0.805,0.100
5.758,-0.775,0.090
5.760,-0.835,0.080
5.762,-0.915,0.075
5.764,-1.140,0.075
5.766,-1.180,0.080
5.768,-1.000,0.090
5.770,-1.020,0.100
5.772,-0.925,0.110
5.774,-0.830,0.115
5.776,-0.870,0.115
5.778,-0.705,0.110
5.780,-0.815,0.105
5.782,-0.925,0.095
5.784,-1.115,0.095
5.786,-1.155,0.095
5.788,-0.985,0.100
5.790,-1.005,0.105
5.792,-0.970,0.110
5.794,-0.880,0.115
5.796,-0.830,0.115
5.798,-0.710,0.105
5.800,-0.805,0.095
5.802,-0.900,0.080
5.804,-1.170,0.070
5.806,-1.185,0.060
5.808,-1.080,0.055
5.810,-1.045,0.055
5.812,-0.995,0.055
5.814,-0.880,0.055
5.816,-0.860,0.050
5.818,-0.735,0.040
5.820,-0.940,0.030
5.822,-1.010,0.015
5.824,-1.230,0.000
5.826,-1.195,-0.010
5.828,-1.155,-0.020
5.830,-1.120,-0.020
5.832,-1.010,-0.015
5.834,-0.925,-0.010
5.836,-0.925,-0.005
5.838,-0.855,-0.005
5.840,-0.915,-0.005
5.842,-1.090,-0.010
5.844,-1.285,-0.015
5.846,-1.210,-0.025
5.848,-1.135,-0.030
5.850,-1.080,-0.040
5.852,-1.080,-0.040
5.854,-0.990,-0.045
5.856,-0.980,-0.045
5.858,-0.855,-0.040
5.860,-0.970,-0.040
5.862,-1.060,-0.040
5.864,-1.310,-0.040
5.866,-1.215,-0.040
5.868,-1.130,-0.040
5.870,-1.110,-0.040
5.872,-1.115,-0.045
5.874,-0.975,-0.045
5.876,-0.885,-0.045
5.878,-0.840,-0.045
5.880,-1.010,-0.045
5.882,-1.080,-0.040
5.884,-1.330,-0.040
5.886,-1.180,-0.040
5.888,-1.135,-0.040
5.890,-1.125,-0.040
5.892,-1.030,-0.040
5.894,-1.000,-0.040
5.896,-0.920,-0.040
5.898,-0.865,-0.040
5.900,-0.990,-0.040
5.902,-1.105,-0.040
5.904,-1.335,-0.040
5.906,-1.180,-0.040
5.908,-1.125,-0.040
5.910,-1.100,-0.035
5.912,-1.085,-0.035
5.914,-1.005,-0.035
5.916,-0.845,-0.035
5.918,-0.880,-0.030
5.920,-1.040,-0.030
5.922,-1.155,-0.030
5.924,-1.290,-0.035
5.926,-1.175,-0.035
5.928,-1.115,-0.040
5.930,-1.090,-0.040
5.932,-0.975,-0.040
5.934,-1.005,-0.040
5.936,-0.865,-0.035
5.938,-0.860,-0.030
5.940,-1.015,-0.025
5.942,-1.165,-0.020
5.944,-1.325,-0.015
5.946,-1.130,-0.020
5.948,-1.085,-0.025
5.950,-1.075,-0.030
5.952,-1.020,-0.040
5.954,-0.990,-0.045
5.956,-0.880,-0.050
5.958,-0.955,-0.050
5.960,-1.015,-0.040
5.962,-1.155,-0.030
5.964,-1.285,-0.020
5.966,-1.125,-0.010
5.968,-1.125,0.000
5.970,-1.040,0.000
5.972,-0.950,-0.005
5.974,-0.980,-0.010
5.976,-0.870,-0.020
5.978,-0.875,-0.025
5.980,-0.975,-0.030
5.982,-1.180,-0.030
5.984,-1.330,-0.025
5.986,-1.100,-0.020
5.988,-1.095,-0.020
5.990,-1.105,-0.020
5.992,-1.005,-0.020
5.994,-1.040,-0.025
5.996,-0.820,-0.035
5.998,-0.930,-0.045
6.000,-0.995,-0.050
6.002,-1.210,-0.055
6.004,-1.285,-0.055
6.006,-1.110,-0.050
6.008,-1.180,-0.045
6.010,-1.090,-0.035
6.012,-0.940,-0.030
6.014,-0.955,-0.030
6.016,-0.830,-0.025
6.018,-0.880,-0.025
6.020,-1.050,-0.025
6.022,-1.200,-0.025
6.024,-1.340,-0.025
6.026,-1.140,-0.030
6.028,-1.130,-0.030
6.030,-1.040,-0.030
6.032,-0.925,-0.035
6.034,-0.980,-0.040
6.036,-0.820,-0.040
6.038,-0.900,-0.040
6.040,-1.070,-0.035
6.042,-1.230,-0.035
6.044,-1.355,-0.030
6.046,-1.140,-0.025
6.048,-1.085,-0.025
6.050,-1.015,-0.030
6.052,-1.000,-0.035
6.054,-1.015,-0.040
6.056,-0.785,-0.050
6.058,-0.940,-0.050
6.060,-1.080,-0.055
6.062,-1.190,-0.050
6.064,-1.300,-0.045
6.066,-1.145,-0.040
6.068,-1.145,-0.035
6.070,-1.065,-0.035
6.072,-0.965,-0.035
6.074,-0.995,-0.045
6.076,-0.865,-0.050
6.078,-0.900,-0.050
6.080,-1.080,-0.050
6.082,-1.245,-0.050
6.084,-1.225,-0.040
6.086,-1.085,-0.030
6.088,-1.145,-0.025
6.090,-1.050,-0.020
6.092,-0.955,-0.025
6.094,-0.895,-0.035
6.096,-0.850,-0.050
6.098,-1.000,-0.060
6.100,-1.065,-0.070
6.102,-1.270,-0.075
6.104,-1.235,-0.065
6.106,-1.170,-0.050
6.108,-1.065,-0.035
6.110,-0.980,-0.015
6.112,-0.950,0.000
6.114,-0.955,0.005
6.116,-0.815,0.005
6.118,-0.920,0.000
6.120,-1.010,-0.015
6.122,-1.225,-0.025
6.124,-1.210,-0.030
6.126,-1.100,-0.030
6.128,-1.095,-0.020
6.130,-0.985,-0.005
6.132,-0.875,0.015
6.134,-0.860,0.030
6.136,-0.755,0.045
6.138,-0.875,0.050
6.140,-0.990,0.050
6.142,-1.190,0.045
6.144,-1.115,0.040
6.146,-1.115,0.035
6.148,-0.995,0.030
6.150,-0.965,0.025
6.152,-0.890,0.025
6.154,-0.810,0.025
6.156,-0.790,0.025
6.158,-0.890,0.020
6.160,-0.965,0.015
6.162,-1.215,0.000
6.164,-1.180,-0.015
6.166,-1.195,-0.030
6.168,-1.120,-0.045
6.170,-1.050,-0.060
6.172,-0.945,-0.065
6.174,-0.860,-0.065
6.176,-0.830,-0.060
6.178,-0.980,-0.050
6.180,-1.035,-0.045
6.182,-1.315,-0.040
6.184,-1.175,-0.040
6.186,-1.130,-0.040
6.188,-1.185,-0.045
6.190,-0.995,-0.055
6.192,-0.950,-0.060
6.194,-0.860,-0.065
6.196,-0.860,-0.065
6.198,-0.980,-0.065
6.200,-1.080,-0.060
6.202,-1.350,-0.055
6.204,-1.170,-0.050
6.206,-1.130,-0.050
6.208,-1.135,-0.050
6.210,-1.025,-0.060
6.212,-0.935,-0.065
6.214,-0.895,-0.070
6.216,-0.910,-0.075
6.218,-0.980,-0.070
6.220,-1.110,-0.065
6.222,-1.295,-0.055
6.224,-1.210,-0.045
6.226,-1.120,-0.040
6.228,-1.095,-0.040
6.230,-1.000,-0.045
6.232,-0.975,-0.050
6.234,-0.840,-0.065
6.236,-0.910,-0.070
6.238,-1.055,-0.075
6.240,-1.135,-0.075
6.242,-1.295,-0.065
6.244,-1.195,-0.055
6.246,-1.115,-0.045
6.248,-1.050,-0.045
6.250,-0.990,-0.050
6.252,-1.000,-0.065
6.254,-0.875,-0.090
6.256,-0.960,-0.115
6.258,-1.105,-0.145
6.260,-1.305,-0.165
6.262,-1.460,-0.180
6.264,-1.285,-0.175
6.266,-1.255,-0.150
6.268,-1.210,-0.110
6.270,-0.985,-0.055
6.272,-0.870,0.020
6.274,-0.645,0.105
6.276,-0.550,0.210
6.278,-0.600,0.325
6.280,-0.655,0.445
6.282,-0.695,0.565
6.284,-0.395,0.675
6.286,-0.285,0.770
6.288,-0.130,0.830
6.290,0.005,0.860
6.292,-0.020,0.845
6.294,0.075,0.790
6.296,-0.125,0.705
6.298,-0.380,0.595
6.300,-0.635,0.480
6.302,-0.945,0.365
6.304,-0.880,0.265
6.306,-0.970,0.180
6.308,-0.900,0.120
6.310,-0.865,0.075
6.312,-0.835,0.045
6.314,-0.755,0.020
6.316,-0.875,0.005
6.318,-0.990,-0.010
6.320,-1.160,-0.025
6.322,-1.235,-0.035
6.324,-1.130,-0.045
6.326,-1.075,-0.045
6.328,-1.090,-0.045
6.330,-0.965,-0.045
6.332,-0.955,-0.040
6.334,-0.790,-0.040
6.336,-0.845,-0.040
6.338,-1.030,-0.045
6.340,-1.250,-0.055
6.342,-1.290,-0.060
6.344,-1.175,-0.070
6.346,-1.080,-0.070
6.348,-1.030,-0.065
6.350,-0.985,-0.055
6.352,-1.005,-0.045
6.354,-0.805,-0.035
6.356,-0.880,-0.025
6.358,-0.980,-0.025
6.360,-1.190,-0.025
6.362,-1.320,-0.030
6.364,-1.140,-0.040
6.366,-1.100,-0.045
6.368,-1.040,-0.055
6.370,-0.920,-0.060
6.372,-0.940,-0.065
6.374,-0.840,-0.065
6.376,-0.965,-0.060
6.378,-0.965,-0.060
6.380,-1.260,-0.055
6.382,-1.285,-0.055
6.384,-1.120,-0.050
6.386,-1.100,-0.050
6.388,-1.035,-0.045
6.390,-0.935,-0.040
6.392,-0.955,-0.040
6.394,-0.750,-0.035
6.396,-0.920,-0.035
6.398,-1.000,-0.035
6.400,-1.240,-0.030
6.402,-1.200,-0.030
6.404,-1.120,-0.025
6.406,-1.070,-0.025
6.408,-0.990,-0.020
6.410,-0.940,-0.015
6.412,-0.925,-0.015
6.414,-0.780,-0.015
6.416,-0.910,-0.015
6.418,-1.000,-0.020
6.420,-1.290,-0.025
6.422,-1.190,-0.035
6.424,-1.080,-0.040
6.426,-1.030,-0.040
6.428,-1.025,-0.040
6.430,-0.945,-0.040
6.432,-0.890,-0.035
6.434,-0.800,-0.030
6.436,-0.925,-0.025
6.438,-0.990,-0.020
6.440,-1.265,-0.015
6.442,-1.150,-0.015
6.444,-1.055,-0.015
6.446,-1.060,-0.020
6.448,-1.005,-0.020
6.450,-0.915,-0.025
6.452,-0.845,-0.025
6.454,-0.750,-0.020
6.456,-0.970,-0.015
6.458,-1.010,-0.010
6.460,-1.235,-0.010
6.462,-1.195,-0.005
6.464,-0.985,0.000
6.466,-1.025,0.000
6.468,-0.965,0.000
6.470,-0.880,0.000
6.472,-0.835,0.000
6.474,-0.795,0.000
6.476,-0.955,0.005
6.478,-0.975,0.015
6.480,-1.200,0.020
6.482,-1.020,0.030
6.484,-1.040,0.040
6.486,-1.025,0.045
6.488,-0.940,0.045
6.490,-0.845,0.045
6.492,-0.750,0.045
6.494,-0.770,0.040
6.496,-0.860,0.045
6.498,-0.950,0.045
6.500,-1.155,0.055
6.502,-1.075,0.065
6.504,-1.000,0.075
6.506,-0.940,0.090
6.508,-0.860,0.100
6.510,-0.835,0.105
6.512,-0.675,0.110
6.514,-0.745,0.110
6.516,-0.815,0.105
6.518,-0.935,0.105
6.520,-1.125,0.105
6.522,-1.000,0.100
6.524,-0.940,0.105
6.526,-0.920,0.105
6.528,-0.805,0.110
6.530,-0.830,0.110
6.532,-0.665,0.110
6.534,-0.670,0.115
6.536,-0.850,0.115
6.538,-0.890,0.120
6.540,-1.100,0.120
6.542,-0.955,0.125
6.544,-0.970,0.135
6.546,-0.930,0.140
6.548,-0.770,0.145
6.550,-0.810,0.150
6.552,-0.550,0.155
6.554,-0.640,0.155
6.556,-0.790,0.150
6.558,-0.955,0.145
6.560,-1.110,0.140
6.562,-0.990,0.130
6.564,-0.915,0.120
6.566,-0.905,0.110
6.568,-0.790,0.105
6.570,-0.815,0.095
6.572,-0.670,0.090
6.574,-0.670,0.090
6.576,-0.845,0.090
6.578,-1.060,0.085
6.580,-1.175,0.085
6.582,-1.020,0.085
6.584,-1.010,0.080
6.586,-0.925,0.075
6.588,-0.860,0.070
6.590,-0.880,0.060
6.592,-0.710,0.050
6.594,-0.735,0.045
6.596,-0.900,0.045
6.598,-1.065,0.040
6.600,-1.230,0.040
6.602,-1.060,0.040
6.604,-1.050,0.035
6.606,-0.975,0.030
6.608,-0.925,0.020
6.610,-0.910,0.005
6.612,-0.745,-0.010
6.614,-0.870,-0.025
6.616,-1.005,-0.040
6.618,-1.155,-0.045
6.620,-1.240,-0.045
6.622,-1.075,-0.040
6.624,-1.130,-0.035
6.626,-1.025,-0.030
6.628,-1.005,-0.030
6.630,-0.960,-0.030
6.632,-0.755,-0.035
6.634,-0.820,-0.040
6.636,-0.995,-0.045
6.638,-1.250,-0.050
6.640,-1.265,-0.055
6.642,-1.125,-0.050
6.644,-1.060,-0.045
6.646,-0.995,-0.035
6.648,-0.950,-0.030
6.650,-0.980,-0.025
6.652,-0.785,-0.020
6.654,-0.850,-0.020
6.656,-1.010,-0.020
6.658,-1.170,-0.025
6.660,-1.255,-0.025
6.662,-1.100,-0.025
6.664,-1.070,-0.030
6.666,-1.005,-0.030
6.668,-0.970,-0.030
6.670,-0.955,-0.030
6.672,-0.800,-0.035
6.674,-0.900,-0.040
6.676,-1.020,-0.045
6.678,-1.180,-0.050
6.680,-1.220,-0.055
6.682,-1.120,-0.055
6.684,-1.125,-0.055
6.686,-1.065,-0.055
6.688,-0.940,-0.050
6.690,-0.970,-0.050
6.692,-0.780,-0.050
6.694,-0.900,-0.055
6.696,-1.055,-0.055
6.698,-1.230,-0.060
6.700,-1.210,-0.060
6.702,-1.175,-0.055
6.704,-1.115,-0.050
6.706,-0.965,-0.045
6.708,-0.930,-0.040
6.710,-0.910,-0.035
6.712,-0.775,-0.030
6.714,-0.970,-0.035
6.716,-0.985,-0.040
6.718,-1.245,-0.045
6.720,-1.180,-0.050
6.722,-1.135,-0.055
6.724,-1.035,-0.055
6.726,-0.985,-0.050
6.728,-0.990,-0.040
6.730,-0.905,-0.030
6.732,-0.765,-0.025
6.734,-0.895,-0.020
6.736,-1.055,-0.020
6.738,-1.260,-0.025
6.740,-1.155,-0.035
6.742,-1.110,-0.045
6.744,-1.030,-0.055
6.746,-1.045,-0.060
6.748,-0.940,-0.060
6.750,-0.910,-0.055
6.752,-0.770,-0.045
6.754,-0.945,-0.035
6.756,-1.025,-0.025
6.758,-1.240,-0.020
6.760,-1.155,-0.020
6.762,-1.065,-0.030
6.764,-1.070,-0.040
6.766,-1.015,-0.055
6.768,-0.935,-0.065
6.770,-0.880,-0.075
6.772,-0.895,-0.075
6.774,-0.930,-0.070
6.776,-1.045,-0.060
6.778,-1.280,-0.045
6.780,-1.195,-0.035
6.782,-1.090,-0.025
6.784,-1.035,-0.025
6.786,-0.980,-0.030
6.788,-0.940,-0.035
6.790,-0.860,-0.045
6.792,-0.840,-0.055
6.794,-1.010,-0.060
6.796,-1.060,-0.065
6.798,-1.215,-0.060
6.800,-1.165,-0.060
6.802,-1.130,-0.055
6.804,-1.055,-0.050
6.806,-0.950,-0.050
6.808,-0.970,-0.050
6.810,-0.830,-0.050
6.812,-0.830,-0.050
6.814,-0.995,-0.050
6.816,-1.110,-0.045
6.818,-1.270,-0.040
6.820,-1.155,-0.035
6.822,-1.095,-0.030
6.824,-1.025,-0.025
6.826,-0.955,-0.020
6.828,-0.910,-0.025
6.830,-0.805,-0.030
6.832,-0.860,-0.035
6.834,-1.000,-0.045
6.836,-1.145,-0.050
6.838,-1.315,-0.055
6.840,-1.160,-0.055
6.842,-1.085,-0.055
6.844,-1.060,-0.055
6.846,-0.935,-0.055
6.848,-0.935,-0.050
6.850,-0.765,-0.050
6.852,-0.895,-0.045
6.854,-0.985,-0.045
6.856,-1.190,-0.045
6.858,-1.315,-0.045
6.860,-1.125,-0.045
6.862,-1.075,-0.050
6.864,-1.050,-0.055
6.866,-1.005,-0.055
6.868,-0.995,-0.055
6.870,-0.815,-0.055
6.872,-0.855,-0.050
6.874,-0.975,-0.045
6.876,-1.160,-0.035
6.878,-1.290,-0.030
6.880,-1.070,-0.025
6.882,-1.160,-0.030
6.884,-1.060,-0.035
6.886,-0.955,-0.045
6.888,-0.880,-0.055
6.890,-0.845,-0.065
6.892,-0.865,-0.070
6.894,-1.060,-0.075
6.896,-1.185,-0.065
6.898,-1.290,-0.055
6.900,-1.115,-0.045
6.902,-1.075,-0.035
6.904,-1.050,-0.030
6.906,-0.960,-0.030
6.908,-0.930,-0.035
6.910,-0.805,-0.045
6.912,-0.860,-0.055
6.914,-1.020,-0.065
6.916,-1.210,-0.065
6.918,-1.275,-0.065
6.920,-1.115,-0.055
6.922,-1.120,-0.045
6.924,-1.040,-0.035
6.926,-0.970,-0.035
6.928,-0.955,-0.035
6.930,-0.790,-0.045
6.932,-0.885,-0.055
6.934,-0.985,-0.065
6.936,-1.225,-0.075
6.938,-1.280,-0.080
6.940,-1.185,-0.075
6.942,-1.090,-0.065
6.944,-1.000,-0.055
6.946,-0.935,-0.040
6.948,-0.995,-0.035
6.950,-0.805,-0.030
6.952,-0.885,-0.035
6.954,-0.965,-0.045
6.956,-1.230,-0.055
6.958,-1.255,-0.060
6.960,-1.125,-0.070
6.962,-1.080,-0.065
6.964,-1.075,-0.060
6.966,-0.950,-0.055
6.968,-0.940,-0.045
6.970,-0.810,-0.040
6.972,-0.885,-0.035
6.974,-0.970,-0.035
6.976,-1.195,-0.040
6.978,-1.200,-0.040
6.980,-1.110,-0.045
6.982,-1.110,-0.040
6.984,-0.965,-0.035
6.986,-0.890,-0.025
6.988,-0.920,-0.010
6.990,-0.735,0.000
6.992,-0.885,0.010
6.994,-0.990,0.015
6.996,-1.160,0.015
6.998,-1.140,0.015
7.000,-1.065,0.010
7.002,-1.035,0.005
7.004,-0.960,0.000
7.006,-0.890,0.000
7.008,-0.845,0.005
7.010,-0.770,0.010
7.012,-0.860,0.020
7.014,-0.970,0.025
7.016,-1.175,0.030
7.018,-1.110,0.030
7.020,-1.045,0.025
7.022,-1.020,0.015
7.024,-0.985,0.005
7.026,-0.855,-0.005
7.028,-0.800,-0.015
7.030,-0.745,-0.020
7.032,-0.955,-0.020
7.034,-1.000,-0.020
7.036,-1.255,-0.015
7.038,-1.115,-0.015
7.040,-1.125,-0.015
7.042,-1.080,-0.020
7.044,-1.020,-0.030
7.046,-0.955,-0.040
7.048,-0.835,-0.055
7.050,-0.825,-0.065
7.052,-0.970,-0.070
7.054,-1.010,-0.070
7.056,-1.295,-0.065
7.058,-1.190,-0.055
7.060,-1.095,-0.045
7.062,-1.065,-0.035
7.064,-1.010,-0.030
7.066,-0.960,-0.030
7.068,-0.845,-0.040
7.070,-0.860,-0.055
7.072,-1.020,-0.070
7.074,-1.005,-0.080
7.076,-1.285,-0.090
7.078,-1.215,-0.095
7.080,-1.150,-0.090
7.082,-1.080,-0.080
7.084,-0.965,-0.065
7.086,-0.960,-0.050
7.088,-0.815,-0.040
7.090,-0.865,-0.040
7.092,-1.030,-0.040
7.094,-1.070,-0.050
7.096,-1.285,-0.060
7.098,-1.145,-0.070
7.100,-1.100,-0.080
7.102,-1.060,-0.080
7.104,-1.030,-0.080
7.106,-0.940,-0.070
7.108,-0.885,-0.060
7.110,-0.890,-0.050
7.112,-0.980,-0.045
7.114,-1.085,-0.045
7.116,-1.240,-0.050
7.118,-1.145,-0.065
7.120,-1.165,-0.085
7.122,-1.110,-0.110
7.124,-1.105,-0.130
7.126,-1.080,-0.145
7.128,-0.945,-0.155
7.130,-0.940,-0.145
7.132,-1.065,-0.120
7.134,-1.155,-0.080
7.136,-1.345,-0.020
7.138,-1.005,0.055
7.140,-0.880,0.150
7.142,-0.735,0.255
7.144,-0.495,0.365
7.146,-0.390,0.475
7.148,-0.165,0.585
7.150,-0.115,0.680
7.152,-0.135,0.755
7.154,-0.260,0.800
7.156,-0.390,0.815
7.158,-0.230,0.795
7.160,-0.300,0.740
7.162,-0.350,0.655
7.164,-0.405,0.550
7.166,-0.500,0.430
7.168,-0.485,0.315
7.170,-0.655,0.210
7.172,-0.830,0.120
7.174,-1.035,0.055
7.176,-1.280,0.015
7.178,-1.085,-0.010
7.180,-1.030,-0.020
7.182,-1.030,-0.025
7.184,-0.935,-0.025
7.186,-0.950,-0.030
7.188,-0.815,-0.040
7.190,-0.930,-0.050
7.192,-0.970,-0.055
7.194,-1.160,-0.065
7.196,-1.260,-0.065
7.198,-1.110,-0.060
7.200,-1.130,-0.050
7.202,-1.015,-0.040
7.204,-0.985,-0.030
7.206,-0.960,-0.025
7.208,-0.775,-0.020
7.210,-0.815,-0.020
7.212,-0.965,-0.025
7.214,-1.170,-0.030
7.216,-1.285,-0.040
7.218,-1.085,-0.045
7.220,-1.135,-0.050
7.222,-1.030,-0.055
7.224,-0.965,-0.055
7.226,-0.960,-0.055
7.228,-0.800,-0.050
7.230,-0.870,-0.045
7.232,-0.995,-0.040
7.234,-1.175,-0.030
7.236,-1.235,-0.025
7.238,-1.085,-0.020
7.240,-1.060,-0.020
7.242,-1.005,-0.025
7.244,-0.960,-0.030
7.246,-0.960,-0.040
7.248,-0.780,-0.050
7.250,-0.915,-0.060
7.252,-0.995,-0.065
7.254,-1.220,-0.065
7.256,-1.250,-0.060
7.258,-1.095,-0.055
7.260,-1.090,-0.045
7.262,-0.990,-0.035
7.264,-0.885,-0.025
7.266,-0.920,-0.025
7.268,-0.790,-0.025
7.270,-0.880,-0.035
7.272,-1.025,-0.040
7.274,-1.300,-0.045
7.276,-1.165,-0.050
7.278,-1.085,-0.050
7.280,-1.075,-0.045
7.282,-1.040,-0.035
7.284,-0.905,-0.025
7.286,-0.900,-0.015
7.288,-0.745,-0.005
7.290,-0.885,-0.005
7.292,-0.955,-0.005
7.294,-1.165,-0.005
7.296,-1.165,-0.015
7.298,-1.080,-0.020
7.300,-1.005,-0.025
7.302,-0.980,-0.030
7.304,-0.995,-0.030
7.306,-0.885,-0.025
7.308,-0.760,-0.015
7.310,-0.885,-0.010
7.312,-0.980,0.000
7.314,-1.220,0.010
7.316,-1.120,0.010
7.318,-1.030,0.015
7.320,-0.995,0.010
7.322,-0.965,0.010
7.324,-0.890,0.005
7.326,-0.910,0.000
7.328,-0.780,0.000
7.330,-0.870,0.000
7.332,-1.010,0.005
7.334,-1.180,0.015
7.336,-1.125,0.020
7.338,-1.010,0.030
7.340,-0.955,0.035
7.342,-0.930,0.035
7.344,-0.875,0.035
7.346,-0.790,0.030
7.348,-0.740,0.025
7.350,-0.940,0.020
7.352,-0.955,0.015
7.354,-1.150,0.020
7.356,-1.100,0.025
7.358,-1.015,0.035
7.360,-0.940,0.050
7.362,-0.900,0.060
7.364,-0.770,0.070
7.366,-0.690,0.075
7.368,-0.755,0.080
7.370,-0.870,0.085
7.372,-0.930,0.085
7.374,-1.150,0.085
7.376,-1.035,0.090
7.378,-0.900,0.095
7.380,-0.880,0.105
7.382,-0.820,0.110
7.384,-0.780,0.115
7.386,-0.685,0.120
7.388,-0.685,0.120
7.390,-0.825,0.115
7.392,-0.970,0.105
7.394,-1.135,0.100
7.396,-1.000,0.095
7.398,-0.885,0.095
7.400,-0.910,0.100
7.402,-0.790,0.115
7.404,-0.750,0.125
7.406,-0.640,0.145
7.408,-0.665,0.155
7.410,-0.790,0.165
7.412,-0.900,0.170
7.414,-1.045,0.165
7.416,-0.945,0.155
7.418,-0.925,0.145
7.420,-0.820,0.130
7.422,-0.735,0.120
7.424,-0.830,0.115
7.426,-0.690,0.110
7.428,-0.710,0.110
7.430,-0.820,0.115
7.432,-0.950,0.120
7.434,-1.120,0.120
7.436,-0.950,0.120
7.438,-0.880,0.115
7.440,-0.945,0.110
7.442,-0.745,0.105
7.444,-0.760,0.100
7.446,-0.695,0.095
7.448,-0.710,0.095
7.450,-0.825,0.095
7.452,-1.025,0.090
7.454,-1.150,0.090
7.456,-1.015,0.085
7.458,-0.970,0.075
7.460,-0.945,0.065
7.462,-0.905,0.055
7.464,-0.815,0.045
7.466,-0.685,0.035
7.468,-0.820,0.030
7.470,-0.935,0.025
7.472,-1.055,0.020
7.474,-1.245,0.015
7.476,-1.055,0.010
7.478,-1.070,0.000
7.480,-1.020,-0.005
7.482,-0.955,-0.015
7.484,-0.890,-0.020
7.486,-0.765,-0.025
7.488,-0.855,-0.030
7.490,-0.960,-0.030
7.492,-1.175,-0.030
7.494,-1.235,-0.030
7.496,-1.070,-0.030
7.498,-1.085,-0.035
7.500,-1.045,-0.035
7.502,-0.930,-0.040
7.504,-0.950,-0.045
7.506,-0.780,-0.040
7.508,-0.815,-0.040
7.510,-0.970,-0.035
7.512,-1.145,-0.025
7.514,-1.255,-0.020
7.516,-1.125,-0.020
7.518,-1.090,-0.020
7.520,-1.035,-0.025
7.522,-0.930,-0.030
7.524,-0.915,-0.040
7.526,-0.770,-0.045
7.528,-0.875,-0.050
7.530,-0.965,-0.045
7.532,-1.175,-0.045
7.534,-1.285,-0.035
7.536,-1.075,-0.030
7.538,-1.070,-0.030
7.540,-1.070,-0.035
7.542,-0.940,-0.040
7.544,-0.920,-0.050
7.546,-0.790,-0.060
7.548,-0.880,-0.060
7.550,-0.960,-0.060
7.552,-1.180,-0.055
7.554,-1.235,-0.045
7.556,-1.115,-0.030
7.558,-1.085,-0.020
7.560,-1.010,-0.015
7.562,-0.940,-0.015
7.564,-0.895,-0.015
7.566,-0.765,-0.025
7.568,-0.850,-0.035
7.570,-0.990,-0.040
7.572,-1.235,-0.045
7.574,-1.195,-0.045
7.576,-1.080,-0.045
7.578,-1.095,-0.045
7.580,-1.060,-0.040
7.582,-0.860,-0.040
7.584,-0.920,-0.035
7.586,-0.810,-0.035
7.588,-0.895,-0.035
7.590,-1.025,-0.035
7.592,-1.195,-0.030
7.594,-1.145,-0.030
7.596,-1.070,-0.025
7.598,-1.055,-0.025
7.600,-1.030,-0.030
7.602,-0.895,-0.040
7.604,-0.905,-0.050
7.606,-0.830,-0.060
7.608,-0.940,-0.060
7.610,-1.015,-0.060
7.612,-1.230,-0.050
7.614,-1.155,-0.035
7.616,-1.050,-0.020
7.618,-1.030,-0.010
7.620,-0.955,0.000
7.622,-0.900,0.005
7.624,-0.850,-0.005
7.626,-0.780,-0.015
7.628,-0.875,-0.030
7.630,-1.015,-0.040
7.632,-1.355,-0.050
7.634,-1.160,-0.050
7.636,-1.050,-0.050
7.638,-1.035,-0.040
7.640,-0.995,-0.035
7.642,-0.930,-0.030
7.644,-0.855,-0.025
7.646,-0.795,-0.030
7.648,-0.925,-0.035
7.650,-0.995,-0.040
7.652,-1.260,-0.045
7.654,-1.135,-0.050
7.656,-1.080,-0.045
7.658,-1.055,-0.040
7.660,-0.975,-0.035
7.662,-0.915,-0.025
7.664,-0.805,-0.020
7.666,-0.780,-0.020
7.668,-0.950,-0.020
7.670,-1.100,-0.025
7.672,-1.215,-0.030
7.674,-1.080,-0.035
7.676,-1.050,-0.040
7.678,-0.995,-0.045
7.680,-1.035,-0.045
7.682,-0.900,-0.045
7.684,-0.830,-0.040
7.686,-0.845,-0.035
7.688,-0.935,-0.035
7.690,-1.060,-0.030
7.692,-1.310,-0.030
7.694,-1.105,-0.030
7.696,-1.055,-0.030
7.698,-1.020,-0.035
7.700,-0.940,-0.035
7.702,-0.900,-0.040
7.704,-0.845,-0.045
7.706,-0.855,-0.045
7.708,-0.965,-0.045
7.710,-1.075,-0.040
7.712,-1.255,-0.035
7.714,-1.115,-0.030
7.716,-1.080,-0.025
7.718,-1.015,-0.025
7.720,-0.940,-0.030
7.722,-0.880,-0.035
7.724,-0.830,-0.040
7.726,-0.870,-0.045
7.728,-0.940,-0.050
7.730,-1.125,-0.045
7.732,-1.290,-0.040
7.734,-1.065,-0.035
7.736,-1.095,-0.030
7.738,-1.025,-0.025
7.740,-0.935,-0.025
7.742,-0.930,-0.030
7.744,-0.815,-0.040
7.746,-0.840,-0.050
7.748,-1.000,-0.060
7.750,-1.155,-0.070
7.752,-1.295,-0.075
7.754,-1.145,-0.070
7.756,-1.090,-0.070
7.758,-1.055,-0.060
7.760,-0.915,-0.050
7.762,-0.830,-0.040
7.764,-0.790,-0.030
7.766,-0.820,-0.025
7.768,-0.965,-0.020
7.770,-1.165,-0.020
7.772,-1.295,-0.020
7.774,-1.085,-0.025
7.776,-1.050,-0.030
7.778,-0.995,-0.035
7.780,-0.955,-0.045
7.782,-0.970,-0.050
7.784,-0.765,-0.055
7.786,-0.835,-0.055
7.788,-1.000,-0.055
7.790,-1.165,-0.050
7.792,-1.325,-0.045
7.794,-1.115,-0.040
7.796,-1.075,-0.035
7.798,-1.005,-0.035
7.800,-0.905,-0.035
7.802,-0.940,-0.040
7.804,-0.765,-0.040
7.806,-0.815,-0.045
7.808,-1.020,-0.045
7.810,-1.190,-0.045
7.812,-1.290,-0.045
7.814,-1.070,-0.040
7.816,-1.095,-0.035
7.818,-1.025,-0.035
7.820,-0.945,-0.030
7.822,-0.910,-0.035
7.824,-0.715,-0.035
7.826,-0.825,-0.035
7.828,-1.010,-0.030
7.830,-1.125,-0.030
7.832,-1.255,-0.025
7.834,-1.080,-0.020
7.836,-1.055,-0.015
7.838,-0.980,-0.015
7.840,-0.895,-0.015
7.842,-0.865,-0.015
7.844,-0.815,-0.015
7.846,-0.860,-0.015
7.848,-0.940,-0.010
7.850,-1.145,-0.005
7.852,-1.165,0.000
7.854,-1.010,0.010
7.856,-1.005,0.020
7.858,-0.920,0.025
7.860,-0.825,0.025
7.862,-0.895,0.020
7.864,-0.715,0.015
7.866,-0.855,0.010
7.868,-0.970,0.010
7.870,-1.170,0.010
7.872,-1.130,0.010
7.874,-0.980,0.010
7.876,-0.970,0.010
7.878,-0.995,0.005
7.880,-0.920,0.000
7.882,-0.845,-0.010
7.884,-0.750,-0.020
7.886,-0.875,-0.030
7.888,-0.955,-0.035
7.890,-1.225,-0.040
7.892,-1.155,-0.040
7.894,-1.065,-0.035
7.896,-1.070,-0.035
7.898,-1.005,-0.035
7.900,-0.920,-0.040
7.902,-0.905,-0.045
7.904,-0.745,-0.055
7.906,-0.945,-0.065
7.908,-1.005,-0.070
7.910,-1.280,-0.070
7.912,-1.210,-0.070
7.914,-1.065,-0.070
7.916,-1.040,-0.065
7.918,-0.995,-0.060
7.920,-1.015,-0.060
7.922,-0.910,-0.065
7.924,-0.800,-0.070
7.926,-0.985,-0.075
7.928,-1.055,-0.080
7.930,-1.230,-0.080
7.932,-1.165,-0.075
7.934,-1.095,-0.070
7.936,-1.065,-0.065
7.938,-1.055,-0.060
7.940,-0.915,-0.055
7.942,-0.845,-0.055
7.944,-0.795,-0.055
7.946,-0.960,-0.055
7.948,-1.005,-0.060
7.950,-1.215,-0.060
7.952,-1.115,-0.055
7.954,-1.085,-0.055
7.956,-1.115,-0.055
7.958,-0.995,-0.055
7.960,-0.915,-0.060
7.962,-0.905,-0.065
7.964,-0.885,-0.075
7.966,-0.945,-0.080
7.968,-1.055,-0.080
7.970,-1.280,-0.085
7.972,-1.155,-0.080
7.974,-1.125,-0.080
7.976,-1.050,-0.080
7.978,-0.990,-0.080
7.980,-0.940,-0.085
7.982,-0.910,-0.095
7.984,-0.965,-0.105
7.986,-1.055,-0.115
7.988,-1.170,-0.110
7.990,-1.340,-0.090
7.992,-1.120,-0.050
7.994,-1.005,0.005
7.996,-0.905,0.080
7.998,-0.655,0.170
8.000,-0.515,0.265
8.002,-0.370,0.365
8.004,-0.330,0.465
8.006,-0.410,0.550
8.008,-0.405,0.620
8.010,-0.450,0.665
8.012,-0.325,0.685
8.014,-0.340,0.670
8.016,-0.335,0.630
8.018,-0.325,0.560
8.020,-0.450,0.465
8.022,-0.375,0.360
8.024,-0.550,0.250
8.026,-0.810,0.150
8.028,-1.050,0.060
8.030,-1.260,-0.005
8.032,-1.115,-0.050
8.034,-1.095,-0.075
8.036,-1.050,-0.080
8.038,-0.995,-0.080
8.040,-0.995,-0.075
8.042,-0.835,-0.070
8.044,-0.900,-0.070
8.046,-0.995,-0.075
8.048,-1.155,-0.080
8.050,-1.260,-0.085
8.052,-1.160,-0.085
8.054,-1.075,-0.085
8.056,-1.055,-0.075
8.058,-0.955,-0.065
8.060,-0.920,-0.055
8.062,-0.780,-0.050
8.064,-0.835,-0.045
8.066,-0.990,-0.040
8.068,-1.160,-0.045
8.070,-1.325,-0.045
8.072,-1.095,-0.045
8.074,-1.055,-0.045
8.076,-0.975,-0.045
8.078,-0.925,-0.040
8.080,-0.950,-0.040
8.082,-0.795,-0.040
8.084,-0.820,-0.045
8.086,-0.965,-0.050
8.088,-1.110,-0.055
8.090,-1.365,-0.060
8.092,-1.100,-0.060
8.094,-1.030,-0.055
8.096,-0.990,-0.050
8.098,-0.940,-0.040
8.100,-0.920,-0.030
8.102,-0.800,-0.020
8.104,-0.835,-0.015
8.106,-0.970,-0.010
8.108,-1.090,-0.010
8.110,-1.220,-0.010
8.112,-1.045,-0.015
8.114,-1.020,-0.015
8.116,-0.975,-0.020
8.118,-0.955,-0.020
8.120,-0.910,-0.020
8.122,-0.795,-0.020
8.124,-0.830,-0.025
8.126,-0.970,-0.025
8.128,-1.150,-0.030
8.130,-1.215,-0.030
8.132,-1.015,-0.030
8.134,-1.075,-0.030
8.136,-0.985,-0.025
8.138,-0.885,-0.025
8.140,-0.890,-0.020
8.142,-0.735,-0.020
8.144,-0.820,-0.020
8.146,-1.010,-0.020
8.148,-1.185,-0.025
8.150,-1.165,-0.030
8.152,-1.055,-0.030
8.154,-1.080,-0.025
8.156,-0.965,-0.025
8.158,-0.880,-0.015
8.160,-0.845,-0.010
8.162,-0.705,0.000
8.164,-0.870,0.000
8.166,-0.995,0.000
8.168,-1.165,0.000
8.170,-1.140,-0.005
8.172,-1.055,-0.015
8.174,-1.005,-0.020
8.176,-1.000,-0.020
8.178,-0.835,-0.020
8.180,-0.825,-0.010
8.182,-0.775,0.000
8.184,-0.855,0.010
8.186,-0.945,0.015
8.188,-1.160,0.020
8.190,-1.095,0.025
8.192,-1.005,0.020
8.194,-0.940,0.015
8.196,-0.950,0.010
8.198,-0.835,0.010
8.200,-0.790,0.015
8.202,-0.725,0.020
8.204,-0.905,0.030
8.206,-0.880,0.040
8.208,-1.110,0.055
8.210,-1.010,0.060
8.212,-0.970,0.065
8.214,-0.960,0.070
8.216,-0.880,0.065
8.218,-0.795,0.065
8.220,-0.725,0.065
8.222,-0.685,0.065
8.224,-0.795,0.070
8.226,-0.830,0.075
8.228,-1.130,0.080
8.230,-1.035,0.085
8.232,-0.950,0.085
8.234,-0.925,0.085
8.236,-0.815,0.085
8.238,-0.800,0.085
8.240,-0.720,0.085
8.242,-0.610,0.095
8.244,-0.770,0.100
8.246,-0.840,0.115
8.248,-1.090,0.130
8.250,-0.975,0.140
8.252,-0.880,0.150
8.254,-0.845,0.155
8.256,-0.775,0.150
8.258,-0.675,0.145
8.260,-0.660,0.135
8.262,-0.635,0.130
8.264,-0.810,0.125
8.266,-0.860,0.130
8.268,-1.045,0.140
8.270,-0.890,0.150
8.272,-0.900,0.160
8.274,-0.870,0.170
8.276,-0.725,0.170
8.278,-0.720,0.170
8.280,-0.585,0.160
8.282,-0.610,0.150
8.284,-0.770,0.135
8.286,-0.870,0.125
8.288,-1.110,0.120
8.290,-0.965,0.115
8.292,-0.900,0.115
8.294,-0.895,0.115
8.296,-0.755,0.115
8.298,-0.720,0.115
8.300,-0.610,0.110
8.302,-0.720,0.110
8.304,-0.865,0.105
8.306,-0.980,0.100
8.308,-1.145,0.095
8.310,-0.945,0.085
8.312,-0.925,0.075
8.314,-0.915,0.065
8.316,-0.855,0.055
8.318,-0.840,0.040
8.320,-0.750,0.025
8.322,-0.760,0.015
8.324,-0.900,0.005
8.326,-1.055,0.005
8.328,-1.235,0.005
8.330,-1.085,0.005
8.332,-0.930,0.010
8.334,-0.960,0.010
8.336,-0.875,0.010
8.338,-0.960,0.005
8.340,-0.750,-0.005
8.342,-0.795,-0.015
8.344,-0.955,-0.020
8.346,-1.110,-0.030
8.348,-1.235,-0.030
8.350,-1.085,-0.035
8.352,-1.075,-0.030
8.354,-1.010,-0.030
8.356,-0.895,-0.030
8.358,-0.870,-0.025
8.360,-0.780,-0.025
8.362,-0.870,-0.030
8.364,-0.960,-0.030
8.366,-1.085,-0.035
8.368,-1.225,-0.040
8.370,-1.145,-0.040
8.372,-1.115,-0.045
8.374,-0.990,-0.050
8.376,-0.910,-0.050
8.378,-0.925,-0.055
8.380,-0.785,-0.055
8.382,-0.850,-0.055
8.384,-0.950,-0.055
8.386,-1.130,-0.055
8.388,-1.350,-0.060
8.390,-1.090,-0.060
8.392,-1.135,-0.065
8.394,-1.025,-0.065
8.396,-0.880,-0.065
8.398,-0.870,-0.065
8.400,-0.770,-0.055
8.402,-0.855,-0.050
8.404,-1.005,-0.040
8.406,-1.180,-0.030
8.408,-1.310,-0.025
8.410,-1.075,-0.025
8.412,-1.015,-0.030
8.414,-1.030,-0.040
8.416,-0.935,-0.055
8.418,-0.905,-0.065
8.420,-0.780,-0.070
8.422,-0.810,-0.075
8.424,-1.045,-0.065
8.426,-1.210,-0.055
8.428,-1.230,-0.040
8.430,-1.040,-0.030
8.432,-1.085,-0.020
8.434,-0.995,-0.020
8.436,-0.900,-0.030
8.438,-0.910,-0.040
8.440,-0.750,-0.055
8.442,-0.900,-0.065
8.444,-0.980,-0.065
8.446,-1.205,-0.065
8.448,-1.215,-0.055
8.450,-1.055,-0.040
8.452,-1.045,-0.030
8.454,-0.985,-0.020
8.456,-0.960,-0.020
8.458,-0.905,-0.020
8.460,-0.735,-0.030
8.462,-0.890,-0.035
8.464,-0.995,-0.040
8.466,-1.185,-0.045
8.468,-1.135,-0.040
8.470,-1.025,-0.035
8.472,-1.065,-0.030
8.474,-1.025,-0.025
8.476,-0.895,-0.020
8.478,-0.875,-0.020
8.480,-0.745,-0.020
8.482,-0.885,-0.025
8.484,-0.970,-0.025
8.486,-1.185,-0.025
8.488,-1.145,-0.025
8.490,-1.050,-0.020
8.492,-1.030,-0.015
8.494,-0.965,-0.010
8.496,-0.885,-0.010
8.498,-0.885,-0.015
8.500,-0.790,-0.015
8.502,-0.895,-0.020
8.504,-0.970,-0.025
8.506,-1.190,-0.025
8.508,-1.110,-0.025
8.510,-1.040,-0.025
8.512,-1.020,-0.025
8.514,-0.930,-0.025
8.516,-0.960,-0.030
8.518,-0.835,-0.035
8.520,-0.770,-0.045
8.522,-0.955,-0.050
8.524,-0.985,-0.055
8.526,-1.225,-0.055
8.528,-1.130,-0.050
8.530,-1.095,-0.045
8.532,-1.025,-0.040
8.534,-0.970,-0.035
8.536,-0.850,-0.035
8.538,-0.795,-0.035
8.540,-0.850,-0.035
8.542,-0.965,-0.040
8.544,-1.000,-0.045
8.546,-1.270,-0.045
8.548,-1.090,-0.045
8.550,-1.085,-0.040
8.552,-1.020,-0.040
8.554,-0.985,-0.035
8.556,-0.910,-0.030
8.558,-0.780,-0.025
8.560,-0.810,-0.025
8.562,-0.935,-0.030
8.564,-1.065,-0.030
8.566,-1.240,-0.030
8.568,-1.110,-0.035
8.570,-1.055,-0.035
8.572,-1.025,-0.040
8.574,-0.980,-0.040
8.576,-0.825,-0.040
8.578,-0.785,-0.045
8.580,-0.875,-0.045
8.582,-0.935,-0.045
8.584,-1.070,-0.040
8.586,-1.280,-0.035
8.588,-1.070,-0.030
8.590,-1.010,-0.020
8.592,-1.035,-0.015
8.594,-0.950,-0.010
8.596,-0.880,-0.015
8.598,-0.750,-0.020
8.600,-0.810,-0.025
8.602,-0.965,-0.035
8.604,-1.075,-0.040
8.606,-1.235,-0.045
8.608,-1.160,-0.045
8.610,-1.145,-0.040
8.612,-0.990,-0.035
8.614,-0.885,-0.030
8.616,-0.865,-0.030
8.618,-0.740,-0.030
8.620,-0.840,-0.030
8.622,-0.995,-0.035
8.624,-1.145,-0.040
8.626,-1.265,-0.040
8.628,-1.110,-0.040
8.630,-1.070,-0.040
8.632,-1.015,-0.035
8.634,-0.940,-0.030
8.636,-0.905,-0.030
8.638,-0.745,-0.030
8.640,-0.820,-0.030
8.642,-0.930,-0.030
8.644,-1.135,-0.035
8.646,-1.290,-0.040
8.648,-1.115,-0.040
8.650,-1.085,-0.040
8.652,-1.025,-0.035
8.654,-0.925,-0.035
8.656,-0.910,-0.030
8.658,-0.745,-0.030
8.660,-0.805,-0.030
8.662,-0.930,-0.030
8.664,-1.145,-0.030
8.666,-1.300,-0.035
8.668,-1.120,-0.040
8.670,-1.060,-0.045
8.672,-0.990,-0.050
8.674,-0.885,-0.050
8.676,-0.975,-0.050
8.678,-0.760,-0.055
8.680,-0.805,-0.055
8.682,-1.025,-0.050
8.684,-1.170,-0.050
8.686,-1.230,-0.045
8.688,-1.075,-0.045
8.690,-1.115,-0.040
8.692,-0.960,-0.035
8.694,-0.820,-0.030
8.696,-0.880,-0.025
8.698,-0.755,-0.020
8.700,-0.810,-0.015
8.702,-0.970,-0.015
8.704,-1.140,-0.010
8.706,-1.215,-0.010
8.708,-1.025,-0.005
8.710,-1.055,-0.005
8.712,-0.960,0.000
8.714,-0.815,0.010
8.716,-0.845,0.015
8.718,-0.725,0.025
8.720,-0.790,0.035
8.722,-0.920,0.040
8.724,-1.075,0.040
8.726,-1.160,0.040
8.728,-1.025,0.035
8.730,-1.020,0.030
8.732,-0.950,0.020
8.734,-0.855,0.010
8.736,-0.880,0.000
8.738,-0.690,-0.005
8.740,-0.840,-0.005
8.742,-0.950,0.000
8.744,-1.175,0.005
8.746,-1.145,0.015
8.748,-1.020,0.015
8.750,-1.020,0.015
8.752,-0.935,0.010
8.754,-0.810,0.000
8.756,-0.865,-0.015
8.758,-0.790,-0.025
8.760,-0.925,-0.035
8.762,-0.905,-0.040
8.764,-1.225,-0.040
8.766,-1.215,-0.035
8.768,-1.000,-0.030
8.770,-1.030,-0.020
8.772,-1.010,-0.020
8.774,-0.925,-0.020
8.776,-0.905,-0.025
8.778,-0.805,-0.040
8.780,-0.870,-0.050
8.782,-0.930,-0.060
8.784,-1.235,-0.065
8.786,-1.210,-0.070
8.788,-1.060,-0.065
8.790,-1.115,-0.060
8.792,-1.055,-0.050
8.794,-0.895,-0.045
8.796,-0.850,-0.040
8.798,-0.785,-0.045
8.800,-0.925,-0.050
8.802,-1.035,-0.060
8.804,-1.255,-0.065
8.806,-1.175,-0.075
8.808,-1.105,-0.075
8.810,-1.030,-0.075
8.812,-1.015,-0.065
8.814,-0.945,-0.060
8.816,-0.875,-0.050
8.818,-0.795,-0.045
8.820,-0.910,-0.040
8.822,-1.015,-0.040
8.824,-1.275,-0.045
8.826,-1.145,-0.050
8.828,-1.095,-0.055
8.830,-1.035,-0.055
8.832,-0.980,-0.060
8.834,-0.870,-0.060
8.836,-0.905,-0.060
8.838,-0.875,-0.065
8.840,-0.950,-0.065
8.842,-1.035,-0.070
8.844,-1.270,-0.080
8.846,-1.190,-0.090
8.848,-1.130,-0.105
8.850,-1.035,-0.120
8.852,-0.980,-0.130
8.854,-1.085,-0.140
8.856,-0.950,-0.145
8.858,-0.990,-0.140
8.860,-1.065,-0.125
8.862,-1.165,-0.100
8.864,-1.340,-0.060
8.866,-1.065,-0.005
8.868,-0.880,0.065
8.870,-0.775,0.150
8.872,-0.620,0.245
8.874,-0.565,0.350
8.876,-0.320,0.460
8.878,-0.200,0.560
8.880,-0.250,0.650
8.882,-0.265,0.720
8.884,-0.425,0.765
8.886,-0.240,0.775
8.888,-0.230,0.755
8.890,-0.265,0.700
8.892,-0.265,0.620
8.894,-0.380,0.525
8.896,-0.380,0.415
8.898,-0.545,0.305
8.900,-0.770,0.210
8.902,-0.940,0.125
8.904,-1.155,0.060
8.906,-1.070,0.020
8.908,-1.050,-0.005
8.910,-1.005,-0.020
8.912,-0.860,-0.020
8.914,-0.870,-0.020
8.916,-0.785,-0.020
8.918,-0.875,-0.020
8.920,-0.970,-0.020
8.922,-1.125,-0.025
8.924,-1.245,-0.035
8.926,-1.090,-0.040
8.928,-1.080,-0.040
8.930,-1.010,-0.040
8.932,-0.950,-0.035
8.934,-0.895,-0.035
8.936,-0.755,-0.030
8.938,-0.835,-0.030
8.940,-0.975,-0.030
8.942,-1.175,-0.035
8.944,-1.295,-0.035
8.946,-1.090,-0.040
8.948,-1.060,-0.045
8.950,-1.005,-0.045
8.952,-0.930,-0.045
8.954,-0.875,-0.045
8.956,-0.810,-0.045
8.958,-0.850,-0.040
8.960,-0.980,-0.035
8.962,-1.190,-0.035
8.964,-1.275,-0.030
8.966,-1.000,-0.030
8.968,-1.015,-0.030
8.970,-1.040,-0.030
8.972,-0.900,-0.030
8.974,-0.955,-0.035
8.976,-0.735,-0.035
8.978,-0.860,-0.040
8.980,-0.975,-0.040
8.982,-1.195,-0.040
8.984,-1.225,-0.040
8.986,-1.085,-0.040
8.988,-1.020,-0.035
8.990,-1.010,-0.035
8.992,-0.910,-0.030
8.994,-0.910,-0.025
8.996,-0.770,-0.020
8.998,-0.850,-0.020
9.000,-0.950,-0.020
9.002,-1.135,-0.015
9.004,-1.225,-0.015
9.006,-1.065,-0.020
9.008,-1.090,-0.020
9.010,-1.015,-0.025
9.012,-0.910,-0.025
9.014,-0.870,-0.025
9.016,-0.755,-0.025
9.018,-0.845,-0.020
9.020,-0.965,-0.020
9.022,-1.165,-0.015
9.024,-1.205,-0.015
9.026,-1.045,-0.010
9.028,-1.020,-0.010
9.030,-0.975,-0.010
9.032,-0.920,-0.015
9.034,-0.895,-0.015
9.036,-0.745,-0.020
9.038,-0.880,-0.020
9.040,-0.925,-0.020
9.042,-1.150,-0.020
9.044,-1.185,-0.015
9.046,-1.050,-0.010
9.048,-1.025,-0.005
9.050,-0.930,0.005
9.052,-0.845,0.010
9.054,-0.785,0.015
9.056,-0.655,0.015
9.058,-0.875,0.015
9.060,-0.960,0.015
9.062,-1.160,0.015
9.064,-1.120,0.015
9.066,-1.045,0.015
9.068,-0.990,0.015
9.070,-0.920,0.015
9.072,-0.880,0.015
9.074,-0.830,0.015
9.076,-0.745,0.015
9.078,-0.840,0.020
9.080,-0.885,0.025
9.082,-1.130,0.030
9.084,-1.080,0.035
9.086,-0.995,0.040
9.088,-1.010,0.045
9.090,-0.890,0.045
9.092,-0.780,0.045
9.094,-0.795,0.045
9.096,-0.705,0.050
9.098,-0.805,0.050
9.100,-0.890,0.060
9.102,-1.135,0.065
9.104,-1.055,0.075
9.106,-0.940,0.085
9.108,-0.915,0.095
9.110,-0.845,0.105
9.112,-0.725,0.105
9.114,-0.715,0.105
9.116,-0.665,0.105
9.118,-0.810,0.105
9.120,-0.875,0.100
9.122,-1.075,0.105
9.124,-0.940,0.105
9.126,-0.900,0.110
9.128,-0.915,0.115
9.130,-0.850,0.125
9.132,-0.750,0.130
9.134,-0.650,0.130
9.136,-0.655,0.135
9.138,-0.770,0.135
9.140,-0.840,0.135
9.142,-1.025,0.140
9.144,-0.940,0.140
9.146,-0.890,0.145
9.148,-0.855,0.145
9.150,-0.775,0.150
9.152,-0.730,0.145
9.154,-0.665,0.140
9.156,-0.635,0.135
9.158,-0.745,0.125
9.160,-0.815,0.120
9.162,-1.095,0.115
9.164,-1.030,0.110
9.166,-0.905,0.110
9.168,-0.910,0.110
9.170,-0.800,0.110
9.172,-0.740,0.105
9.174,-0.650,0.105
9.176,-0.740,0.100
9.178,-0.820,0.090
9.180,-0.960,0.085
9.182,-1.145,0.080
9.184,-1.005,0.075
9.186,-0.980,0.070
9.188,-0.935,0.065
9.190,-0.875,0.060
9.192,-0.825,0.050
9.194,-0.725,0.040
9.196,-0.760,0.030
9.198,-0.900,0.020
9.200,-1.055,0.015
9.202,-1.205,0.010
9.204,-1.095,0.005
9.206,-1.015,0.005
9.208,-0.940,0.005
9.210,-0.915,0.005
9.212,-0.890,0.000
9.214,-0.805,-0.005
9.216,-0.760,-0.015
9.218,-0.920,-0.025
9.220,-1.100,-0.030
9.222,-1.260,-0.035
9.224,-1.160,-0.035
9.226,-1.055,-0.030
9.228,-0.980,-0.025
9.230,-0.880,-0.015
9.232,-0.875,-0.010
9.234,-0.740,-0.005
9.236,-0.810,-0.005
9.238,-0.980,-0.010
9.240,-1.110,-0.020
9.242,-1.270,-0.030
9.244,-1.115,-0.035
9.246,-1.040,-0.035
9.248,-0.960,-0.035
9.250,-0.945,-0.030
9.252,-0.925,-0.020
9.254,-0.770,-0.015
9.256,-0.830,-0.015
9.258,-0.930,-0.015
9.260,-1.070,-0.020
9.262,-1.320,-0.030
9.264,-1.140,-0.035
9.266,-1.130,-0.045
9.268,-0.935,-0.045
9.270,-0.890,-0.045
9.272,-0.920,-0.040
9.274,-0.735,-0.035
9.276,-0.870,-0.030
9.278,-0.970,-0.025
9.280,-1.170,-0.025
9.282,-1.275,-0.025
9.284,-1.075,-0.030
9.286,-1.040,-0.035
9.288,-0.985,-0.040
9.290,-0.965,-0.040
9.292,-0.925,-0.040
9.294,-0.780,-0.035
9.296,-0.855,-0.030
9.298,-0.990,-0.020
9.300,-1.140,-0.015
9.302,-1.215,-0.015
9.304,-1.075,-0.020
9.306,-1.060,-0.025
9.308,-1.010,-0.035
9.310,-0.885,-0.040
9.312,-0.895,-0.045
9.314,-0.795,-0.045
9.316,-0.845,-0.040
9.318,-0.995,-0.035
9.320,-1.175,-0.025
9.322,-1.175,-0.015
9.324,-1.065,-0.010
9.326,-1.040,-0.010
9.328,-0.985,-0.015
9.330,-0.925,-0.025
9.332,-0.905,-0.030
9.334,-0.765,-0.040
9.336,-0.925,-0.040
9.338,-0.985,-0.040
9.340,-1.130,-0.040
9.342,-1.160,-0.035
9.344,-1.085,-0.035
9.346,-1.095,-0.035
9.348,-0.970,-0.040
9.350,-0.955,-0.050
9.352,-0.875,-0.055
9.354,-0.770,-0.060
9.356,-0.940,-0.060
9.358,-1.005,-0.055
9.360,-1.240,-0.045
9.362,-1.150,-0.035
9.364,-1.020,-0.025
9.366,-1.045,-0.015
9.368,-1.020,-0.015
9.370,-0.875,-0.020
9.372,-0.855,-0.030
9.374,-0.755,-0.040
9.376,-0.970,-0.045
9.378,-1.030,-0.050
9.380,-1.170,-0.045
9.382,-1.155,-0.035
9.384,-1.075,-0.025
9.386,-1.005,-0.015
9.388,-0.940,-0.010
9.390,-0.875,-0.010
9.392,-0.830,-0.020
9.394,-0.820,-0.035
9.396,-0.985,-0.050
9.398,-1.010,-0.060
9.400,-1.250,-0.070
9.402,-1.125,-0.065
9.404,-1.055,-0.055
9.406,-1.115,-0.045
9.408,-0.955,-0.030
9.410,-0.880,-0.015
9.412,-0.850,-0.010
9.414,-0.765,-0.010
9.416,-0.880,-0.020
9.418,-0.930,-0.030
9.420,-1.315,-0.045
9.422,-1.150,-0.050
9.424,-1.110,-0.055
9.426,-1.080,-0.050
9.428,-0.960,-0.045
9.430,-0.850,-0.035
9.432,-0.735,-0.025
9.434,-0.845,-0.020
9.436,-0.960,-0.020
9.438,-1.020,-0.025
9.440,-1.270,-0.035
9.442,-1.120,-0.045
9.444,-1.045,-0.050
9.446,-1.080,-0.055
9.448,-1.000,-0.060
9.450,-0.895,-0.055
9.452,-0.835,-0.050
9.454,-0.800,-0.040
9.456,-0.945,-0.035
9.458,-1.050,-0.030
9.460,-1.250,-0.030
9.462,-1.125,-0.030
9.464,-1.050,-0.035
9.466,-1.110,-0.040
9.468,-0.925,-0.040
9.470,-0.880,-0.040
9.472,-0.790,-0.040
9.474,-0.790,-0.035
9.476,-0.945,-0.030
9.478,-1.085,-0.025
9.480,-1.290,-0.025
9.482,-1.105,-0.025
9.484,-1.060,-0.025
9.486,-1.040,-0.030
9.488,-0.960,-0.035
9.490,-0.870,-0.040
9.492,-0.825,-0.045
9.494,-0.805,-0.045
9.496,-0.955,-0.040
9.498,-1.090,-0.040
9.500,-1.305,-0.035
9.502,-1.120,-0.035
9.504,-1.025,-0.035
9.506,-1.065,-0.040
9.508,-1.000,-0.050
9.510,-0.865,-0.055
9.512,-0.785,-0.060
9.514,-0.830,-0.065
9.516,-1.015,-0.060
9.518,-1.125,-0.050
9.520,-1.260,-0.040
9.522,-1.155,-0.030
9.524,-1.020,-0.020
9.526,-1.020,-0.015
9.528,-0.905,-0.020
9.530,-0.885,-0.025
9.532,-0.770,-0.030
9.534,-0.840,-0.040
9.536,-1.020,-0.045
9.538,-1.115,-0.050
9.540,-1.255,-0.050
9.542,-1.120,-0.045
9.544,-1.100,-0.040
9.546,-1.035,-0.040
9.548,-0.955,-0.040
9.550,-0.870,-0.040
9.552,-0.780,-0.045
9.554,-0.840,-0.050
9.556,-0.985,-0.050
9.558,-1.175,-0.050
9.560,-1.270,-0.050
9.562,-1.095,-0.045
9.564,-1.100,-0.040
9.566,-1.040,-0.035
9.568,-0.885,-0.035
9.570,-0.905,-0.035
9.572,-0.775,-0.040
9.574,-0.780,-0.040
9.576,-0.950,-0.045
9.578,-1.195,-0.045
9.580,-1.290,-0.040
9.582,-1.110,-0.040
9.584,-1.075,-0.035
9.586,-1.000,-0.030
9.588,-0.915,-0.030
9.590,-0.925,-0.035
9.592,-0.755,-0.040
9.594,-0.915,-0.045
9.596,-1.010,-0.045
9.598,-1.140,-0.045
9.600,-1.235,-0.040
9.602,-1.085,-0.030
9.604,-1.075,-0.020
9.606,-0.990,-0.010
9.608,-0.895,0.000
9.610,-0.925,0.000
9.612,-0.735,-0.005
9.614,-0.820,-0.010
9.616,-0.990,-0.020
9.618,-1.130,-0.025
9.620,-1.190,-0.030
9.622,-1.070,-0.030
9.624,-1.015,-0.020
9.626,-1.000,-0.010
9.628,-0.905,0.005
9.630,-0.870,0.020
9.632,-0.685,0.030
9.634,-0.780,0.040
9.636,-0.905,0.045
9.638,-1.135,0.045
9.640,-1.110,0.045
9.642,-1.020,0.040
9.644,-0.970,0.035
9.646,-0.925,0.030
9.648,-0.900,0.025
9.650,-0.870,0.015
9.652,-0.750,0.010
9.654,-0.840,0.005
9.656,-0.910,0.005
9.658,-1.140,0.000
9.660,-1.145,0.000
9.662,-1.050,0.000
9.664,-1.015,0.000
9.666,-0.960,0.000
9.668,-0.895,0.000
9.670,-0.815,-0.005
9.672,-0.740,-0.010
9.674,-0.930,-0.020
9.676,-0.945,-0.025
9.678,-1.185,-0.030
9.680,-1.135,-0.030
9.682,-1.095,-0.035
9.684,-1.080,-0.035
9.686,-0.970,-0.035
9.688,-0.900,-0.035
9.690,-0.875,-0.035
9.692,-0.805,-0.040
9.694,-0.980,-0.045
9.696,-1.060,-0.050
9.698,-1.250,-0.055
9.700,-1.085,-0.060
9.702,-1.130,-0.060
9.704,-1.120,-0.060
9.706,-1.000,-0.060
9.708,-0.890,-0.060
9.710,-0.825,-0.055
9.712,-0.860,-0.055
9.714,-0.960,-0.055
9.716,-1.075,-0.055
9.718,-1.255,-0.060
9.720,-1.200,-0.060
9.722,-1.090,-0.060
9.724,-1.035,-0.060
9.726,-1.015,-0.060
9.728,-0.940,-0.060
9.730,-0.865,-0.060
9.732,-0.825,-0.065
9.734,-0.965,-0.065
9.736,-1.040,-0.070
9.738,-1.285,-0.070
9.740,-1.175,-0.070
9.742,-1.105,-0.070
9.744,-1.000,-0.070
9.746,-1.020,-0.065
9.748,-0.905,-0.060
9.750,-0.830,-0.050
9.752,-0.870,-0.045
9.754,-0.970,-0.040
9.756,-1.030,-0.040
9.758,-1.255,-0.045
9.760,-1.155,-0.055
9.762,-1.080,-0.075
9.764,-1.030,-0.095
9.766,-1.070,-0.115
9.768,-0.980,-0.130
9.770,-0.920,-0.140
9.772,-0.970,-0.145
9.774,-1.095,-0.135
9.776,-1.230,-0.110
9.778,-1.325,-0.070
9.780,-1.120,-0.015
9.782,-0.930,0.050
9.784,-0.810,0.135
9.786,-0.615,0.230
9.788,-0.520,0.340
9.790,-0.320,0.450
9.792,-0.190,0.555
9.794,-0.220,0.655
9.796,-0.295,0.735
9.798,-0.400,0.790
9.800,-0.220,0.810
9.802,-0.215,0.795
9.804,-0.230,0.745
9.806,-0.240,0.665
9.808,-0.300,0.565
9.810,-0.305,0.455
9.812,-0.470,0.345
9.814,-0.785,0.245
9.816,-0.975,0.165
9.818,-1.145,0.100
9.820,-1.000,0.055
9.822,-1.010,0.020
9.824,-0.975,0.000
9.826,-0.865,-0.010
9.828,-0.895,-0.020
9.830,-0.820,-0.030
9.832,-0.855,-0.035
9.834,-0.985,-0.040
9.836,-1.035,-0.040
9.838,-1.290,-0.040
9.840,-1.110,-0.035
9.842,-1.100,-0.035
9.844,-1.030,-0.030
9.846,-0.905,-0.030
9.848,-0.875,-0.030
9.850,-0.790,-0.035
9.852,-0.865,-0.035
9.854,-0.945,-0.035
9.856,-1.120,-0.030
9.858,-1.255,-0.025
9.860,-1.040,-0.015
9.862,-1.070,-0.010
9.864,-1.035,-0.005
9.866,-0.935,-0.010
9.868,-0.895,-0.015
9.870,-0.775,-0.025
9.872,-0.830,-0.040
9.874,-0.980,-0.045
9.876,-1.135,-0.050
9.878,-1.305,-0.050
9.880,-1.100,-0.045
9.882,-1.105,-0.035
9.884,-1.010,-0.030
9.886,-0.900,-0.020
9.888,-0.900,-0.020
9.890,-0.755,-0.020
9.892,-0.830,-0.025
9.894,-0.965,-0.030
9.896,-1.165,-0.035
9.898,-1.245,-0.035
9.900,-1.080,-0.030
9.902,-1.045,-0.030
9.904,-1.010,-0.025
9.906,-0.955,-0.020
9.908,-0.905,-0.020
9.910,-0.755,-0.025
9.912,-0.865,-0.030
9.914,-1.000,-0.040
9.916,-1.170,-0.045
9.918,-1.185,-0.050
9.920,-1.100,-0.050
9.922,-1.045,-0.050
9.924,-1.030,-0.040
9.926,-0.930,-0.035
9.928,-0.880,-0.025
9.930,-0.735,-0.015
9.932,-0.880,-0.010
9.934,-0.990,-0.010
9.936,-1.190,-0.010
9.938,-1.160,-0.015
9.940,-1.020,-0.015
9.942,-1.000,-0.020
9.944,-1.020,-0.020
9.946,-0.930,-0.020
9.948,-0.880,-0.015
9.950,-0.720,-0.010
9.952,-0.870,-0.005
9.954,-0.935,0.000
9.956,-1.170,0.005
9.958,-1.130,0.005
9.960,-1.020,0.005
9.962,-1.025,0.005
9.964,-0.935,0.000
9.966,-0.840,0.000
9.968,-0.825,0.000
9.970,-0.775,0.000
9.972,-0.910,0.005
9.974,-0.930,0.010
9.976,-1.150,0.015
9.978,-1.090,0.020
9.980,-1.055,0.025
9.982,-0.990,0.025
9.984,-0.905,0.030
9.986,-0.860,0.035
9.988,-0.805,0.035
9.990,-0.685,0.040
9.992,-0.840,0.045
9.994,-0.945,0.045
9.996,-1.155,0.050
9.998,-1.035,0.055
