'Elapsed time','ECG I','ECG I filtered'
'seconds','mV','mV'
0.000,0.360,0.190
0.002,0.195,0.090
0.004,0.135,0.020
0.006,-0.060,-0.030
0.008,0.090,-0.060
0.010,0.105,-0.060
0.012,0.105,-0.040
0.014,0.205,-0.015
0.016,0.245,0.005
0.018,0.310,0.020
0.020,0.350,0.020
0.022,0.200,0.010
0.024,0.060,-0.005
0.026,-0.045,-0.020
0.028,0.100,-0.030
0.030,0.080,-0.025
0.032,0.105,-0.015
0.034,0.210,0.000
0.036,0.215,0.015
0.038,0.360,0.025
0.040,0.355,0.030
0.042,0.245,0.020
0.044,0.105,0.005
0.046,-0.065,-0.015
0.048,0.040,-0.035
0.050,0.070,-0.045
0.052,0.055,-0.045
0.054,0.175,-0.040
0.056,0.265,-0.025
0.058,0.395,-0.010
0.060,0.400,0.000
0.062,0.200,0.010
0.064,0.055,0.010
0.066,-0.090,0.005
0.068,0.070,0.000
0.070,0.040,-0.010
0.072,0.105,-0.015
0.074,0.245,-0.015
0.076,0.200,-0.015
0.078,0.410,-0.010
0.080,0.415,0.000
0.082,0.235,0.005
0.084,0.045,0.005
0.086,-0.095,0.005
0.088,0.045,0.000
0.090,0.050,-0.005
0.092,0.115,-0.015
0.094,0.190,-0.025
0.096,0.185,-0.030
0.098,0.355,-0.035
0.100,0.365,-0.030
0.102,0.225,-0.025
0.104,0.075,-0.015
0.106,-0.105,-0.005
0.108,0.065,0.000
0.110,0.060,0.005
0.112,0.115,0.000
0.114,0.180,-0.005
0.116,0.220,-0.015
0.118,0.370,-0.030
0.120,0.295,-0.035
0.122,0.225,-0.040
0.124,0.000,-0.035
0.126,-0.060,-0.030
0.128,0.100,-0.020
0.130,0.065,-0.010
0.132,0.105,-0.010
0.134,0.150,-0.010
0.136,0.200,-0.015
0.138,0.360,-0.030
0.140,0.305,-0.045
0.142,0.185,-0.055
0.144,-0.035,-0.065
0.146,-0.065,-0.070
0.148,0.030,-0.065
0.150,0.045,-0.060
0.152,0.135,-0.050
0.154,0.215,-0.045
0.156,0.205,-0.040
0.158,0.315,-0.040
0.160,0.260,-0.045
0.162,0.220,-0.050
0.164,-0.060,-0.050
0.166,-0.075,-0.055
0.168,0.100,-0.050
0.170,0.050,-0.050
0.172,0.060,-0.045
0.174,0.200,-0.040
0.176,0.195,-0.040
0.178,0.375,-0.035
0.180,0.285,-0.035
0.182,0.205,-0.035
0.184,-0.070,-0.035
0.186,-0.035,-0.035
0.188,0.040,-0.030
0.190,0.060,-0.030
0.192,0.110,-0.025
0.194,0.290,-0.030
0.196,0.300,-0.030
0.198,0.345,-0.040
0.200,0.220,-0.045
0.202,0.100,-0.055
0.204,-0.170,-0.060
0.206,0.005,-0.060
0.208,0.085,-0.060
0.210,0.060,-0.055
0.212,0.110,-0.055
0.214,0.175,-0.055
0.216,0.270,-0.055
0.218,0.310,-0.065
0.220,0.170,-0.070
0.222,0.140,-0.080
0.224,-0.060,-0.090
0.226,-0.035,-0.090
0.228,-0.005,-0.090
0.230,0.035,-0.085
0.232,0.115,-0.075
0.234,0.155,-0.065
0.236,0.315,-0.055
0.238,0.375,-0.055
0.240,0.205,-0.055
0.242,0.075,-0.055
0.244,-0.110,-0.060
0.246,-0.030,-0.065
0.248,0.030,-0.070
0.250,0.045,-0.070
0.252,0.125,-0.070
0.254,0.155,-0.070
0.256,0.290,-0.065
0.258,0.350,-0.065
0.260,0.215,-0.070
0.262,0.030,-0.070
0.264,-0.110,-0.075
0.266,-0.025,-0.075
0.268,0.025,-0.080
0.270,0.035,-0.080
0.272,0.115,-0.080
0.274,0.150,-0.080
0.276,0.265,-0.080
0.278,0.315,-0.080
0.280,0.210,-0.080
0.282,0.045,-0.080
0.284,-0.135,-0.080
0.286,-0.015,-0.075
0.288,0.015,-0.070
0.290,0.090,-0.065
0.292,0.175,-0.060
0.294,0.175,-0.055
0.296,0.355,-0.055
0.298,0.320,-0.060
0.300,0.155,-0.065
0.302,-0.015,-0.070
0.304,-0.160,-0.075
0.306,0.010,-0.075
0.308,0.055,-0.075
0.310,0.065,-0.065
0.312,0.205,-0.050
0.314,0.235,-0.035
0.316,0.395,-0.020
0.318,0.420,-0.010
0.320,0.190,0.005
0.322,0.060,0.010
0.324,-0.045,0.010
0.326,0.095,0.010
0.328,0.075,0.010
0.330,0.130,0.005
0.332,0.215,0.005
0.334,0.280,0.010
0.336,0.460,0.010
0.338,0.365,0.015
0.340,0.310,0.015
0.342,0.085,0.015
0.344,-0.070,0.015
0.346,0.080,0.010
0.348,0.075,0.005
0.350,0.145,-0.005
0.352,0.205,-0.010
0.354,0.240,-0.015
0.356,0.395,-0.015
0.358,0.395,-0.015
0.360,0.205,-0.015
0.362,0.090,-0.010
0.364,-0.075,0.000
0.366,0.115,0.000
0.368,0.090,0.000
0.370,0.125,-0.005
0.372,0.200,-0.010
0.374,0.215,-0.025
0.376,0.335,-0.045
0.378,0.305,-0.060
0.380,0.230,-0.075
0.382,0.000,-0.090
0.384,-0.175,-0.100
0.386,-0.025,-0.105
0.388,-0.035,-0.110
0.390,0.015,-0.115
0.392,0.115,-0.115
0.394,0.175,-0.120
0.396,0.295,-0.120
0.398,0.225,-0.125
0.400,0.145,-0.125
0.402,-0.060,-0.120
0.404,-0.150,-0.120
0.406,0.000,-0.115
0.408,-0.020,-0.110
0.410,0.040,-0.110
0.412,0.110,-0.110
0.414,0.110,-0.115
0.416,0.320,-0.120
0.418,0.230,-0.125
0.420,0.100,-0.130
0.422,-0.080,-0.135
0.424,-0.100,-0.135
0.426,-0.040,-0.135
0.428,-0.030,-0.135
0.430,0.055,-0.135
0.432,0.135,-0.140
0.434,0.105,-0.150
0.436,0.215,-0.160
0.438,0.145,-0.180
0.440,0.060,-0.200
0.442,-0.190,-0.220
0.444,-0.215,-0.235
0.446,-0.110,-0.240
0.448,-0.155,-0.230
0.450,-0.070,-0.200
0.452,0.165,-0.145
0.454,0.255,-0.065
0.456,0.465,0.035
0.458,0.495,0.160
0.460,0.510,0.295
0.462,0.455,0.435
0.464,0.635,0.570
0.466,0.905,0.690
0.468,0.985,0.785
0.470,1.075,0.845
0.472,1.140,0.870
0.474,1.185,0.850
0.476,1.235,0.800
0.478,1.035,0.720
0.480,0.800,0.615
0.482,0.505,0.505
0.484,0.485,0.390
0.486,0.430,0.280
0.488,0.295,0.180
0.490,0.190,0.090
0.492,0.210,0.010
0.494,0.230,-0.055
0.496,0.295,-0.105
0.498,0.155,-0.150
0.500,0.080,-0.185
0.502,-0.230,-0.210
0.504,-0.145,-0.225
0.506,-0.140,-0.235
0.508,-0.100,-0.235
0.510,-0.070,-0.225
0.512,0.080,-0.210
0.514,0.110,-0.195
0.516,0.230,-0.175
0.518,0.165,-0.155
0.520,0.120,-0.140
0.522,-0.135,-0.120
0.524,-0.025,-0.105
0.526,0.040,-0.090
0.528,0.085,-0.075
0.530,0.185,-0.065
0.532,0.195,-0.060
0.534,0.315,-0.055
0.536,0.345,-0.055
0.538,0.220,-0.060
0.540,0.130,-0.065
0.542,-0.085,-0.070
0.544,0.000,-0.075
0.546,0.055,-0.075
0.548,0.090,-0.070
0.550,0.180,-0.065
0.552,0.260,-0.060
0.554,0.385,-0.050
0.556,0.380,-0.045
0.558,0.230,-0.040
0.560,0.070,-0.040
0.562,-0.075,-0.040
0.564,0.050,-0.045
0.566,0.100,-0.045
0.568,0.120,-0.040
0.570,0.185,-0.040
0.572,0.250,-0.030
0.574,0.385,-0.025
0.576,0.365,-0.015
0.578,0.280,-0.005
0.580,0.110,0.000
0.582,-0.010,0.000
0.584,0.100,0.000
0.586,0.140,-0.010
0.588,0.165,-0.020
0.590,0.255,-0.025
0.592,0.220,-0.035
0.594,0.335,-0.035
0.596,0.390,-0.030
0.598,0.290,-0.020
0.600,0.110,-0.010
0.602,-0.080,0.005
0.604,0.150,0.015
0.606,0.165,0.025
0.608,0.240,0.030
0.610,0.220,0.025
0.612,0.300,0.020
0.614,0.410,0.010
0.616,0.445,0.005
0.618,0.285,0.000
0.620,0.140,0.000
0.622,-0.005,0.000
0.624,0.090,0.010
0.626,0.140,0.020
0.628,0.215,0.030
0.630,0.330,0.035
0.632,0.345,0.045
0.634,0.490,0.045
0.636,0.425,0.050
0.638,0.340,0.055
0.640,0.180,0.055
0.642,0.080,0.060
0.644,0.215,0.065
0.646,0.165,0.075
0.648,0.160,0.080
0.650,0.350,0.085
0.652,0.410,0.085
0.654,0.595,0.090
0.656,0.520,0.090
0.658,0.360,0.090
0.660,0.180,0.095
0.662,0.080,0.100
0.664,0.235,0.105
0.666,0.215,0.115
0.668,0.305,0.125
0.670,0.395,0.135
0.672,0.425,0.150
0.674,0.640,0.160
0.676,0.575,0.170
0.678,0.435,0.175
0.680,0.280,0.185
0.682,0.165,0.185
0.684,0.340,0.185
0.686,0.300,0.185
0.688,0.360,0.185
0.690,0.475,0.190
0.692,0.510,0.195
0.694,0.670,0.200
0.696,0.605,0.215
0.698,0.530,0.230
0.700,0.380,0.240
0.702,0.225,0.255
0.704,0.405,0.265
0.706,0.365,0.265
0.708,0.435,0.260
0.710,0.500,0.255
0.712,0.570,0.245
0.714,0.710,0.235
0.716,0.620,0.230
0.718,0.565,0.230
0.720,0.325,0.235
0.722,0.295,0.240
0.724,0.400,0.250
0.726,0.375,0.250
0.728,0.435,0.250
0.730,0.540,0.245
0.732,0.520,0.230
0.734,0.665,0.210
0.736,0.570,0.190
0.738,0.510,0.175
0.740,0.270,0.160
0.742,0.245,0.155
0.744,0.285,0.150
0.746,0.315,0.150
0.748,0.320,0.145
0.750,0.420,0.140
0.752,0.485,0.125
0.754,0.565,0.110
0.756,0.450,0.095
0.758,0.375,0.075
0.760,0.110,0.060
0.762,0.110,0.050
0.764,0.200,0.040
0.766,0.190,0.035
0.768,0.265,0.035
0.770,0.325,0.030
0.772,0.390,0.025
0.774,0.480,0.020
0.776,0.335,0.015
0.778,0.305,0.005
0.780,0.045,0.000
0.782,0.110,-0.010
0.784,0.165,-0.015
0.786,0.125,-0.020
0.788,0.175,-0.020
0.790,0.265,-0.025
0.792,0.420,-0.030
0.794,0.465,-0.035
0.796,0.285,-0.035
0.798,0.225,-0.040
0.800,-0.020,-0.040
0.802,0.080,-0.035
0.804,0.145,-0.030
0.806,0.135,-0.030
0.808,0.220,-0.025
0.810,0.295,-0.025
0.812,0.400,-0.020
0.814,0.470,-0.020
0.816,0.275,-0.025
0.818,0.190,-0.025
0.820,-0.045,-0.025
0.822,0.120,-0.025
0.824,0.185,-0.025
0.826,0.165,-0.030
0.828,0.190,-0.030
0.830,0.300,-0.035
0.832,0.375,-0.035
0.834,0.440,-0.040
0.836,0.305,-0.040
0.838,0.165,-0.040
0.840,-0.020,-0.035
0.842,0.095,-0.030
0.844,0.140,-0.025
0.846,0.185,-0.020
0.848,0.250,-0.015
0.850,0.280,-0.015
0.852,0.385,-0.015
0.854,0.405,-0.020
0.856,0.320,-0.020
0.858,0.180,-0.020
0.860,0.030,-0.020
0.862,0.145,-0.015
0.864,0.115,-0.010
0.866,0.190,-0.005
0.868,0.270,-0.005
0.870,0.300,-0.005
0.872,0.470,-0.005
0.874,0.395,-0.015
0.876,0.315,-0.020
0.878,0.165,-0.025
0.880,-0.015,-0.030
0.882,0.115,-0.030
0.884,0.095,-0.025
0.886,0.225,-0.020
0.888,0.280,-0.015
0.890,0.255,-0.010
0.892,0.475,-0.005
0.894,0.450,0.000
0.896,0.375,0.000
0.898,0.175,0.000
0.900,-0.020,0.000
0.902,0.100,0.000
0.904,0.115,-0.005
0.906,0.250,-0.005
0.908,0.325,-0.010
0.910,0.340,-0.010
0.912,0.445,-0.015
0.914,0.420,-0.020
0.916,0.345,-0.020
0.918,0.145,-0.015
0.920,-0.030,-0.015
0.922,0.100,-0.010
0.924,0.195,-0.010
0.926,0.240,-0.010
0.928,0.305,-0.010
0.930,0.290,-0.015
0.932,0.420,-0.025
0.934,0.440,-0.030
0.936,0.345,-0.035
0.938,0.105,-0.035
0.940,0.015,-0.035
0.942,0.125,-0.025
0.944,0.155,-0.015
0.946,0.230,-0.010
0.948,0.290,0.000
0.950,0.305,0.000
0.952,0.525,-0.005
0.954,0.430,-0.015
0.956,0.230,-0.025
0.958,0.105,-0.035
0.960,0.070,-0.040
0.962,0.110,-0.045
0.964,0.170,-0.045
0.966,0.190,-0.040
0.968,0.270,-0.030
0.970,0.340,-0.025
0.972,0.505,-0.015
0.974,0.405,-0.010
0.976,0.335,-0.010
0.978,0.105,-0.010
0.980,0.015,-0.015
0.982,0.145,-0.020
0.984,0.150,-0.020
0.986,0.220,-0.025
0.988,0.305,-0.025
0.990,0.300,-0.025
0.992,0.445,-0.025
0.994,0.390,-0.025
0.996,0.315,-0.025
0.998,0.090,-0.025
1.000,0.045,-0.020
1.002,0.165,-0.020
1.004,0.180,-0.020
1.006,0.230,-0.025
1.008,0.290,-0.025
1.010,0.365,-0.035
1.012,0.430,-0.040
1.014,0.335,-0.045
1.016,0.285,-0.055
1.018,0.080,-0.055
1.020,0.045,-0.055
1.022,0.155,-0.050
1.024,0.175,-0.040
1.026,0.240,-0.035
1.028,0.275,-0.025
1.030,0.335,-0.020
1.032,0.485,-0.015
1.034,0.410,-0.015
1.036,0.290,-0.015
1.038,0.090,-0.020
1.040,0.085,-0.020
1.042,0.165,-0.025
1.044,0.190,-0.030
1.046,0.215,-0.030
1.048,0.305,-0.030
1.050,0.355,-0.030
1.052,0.490,-0.030
1.054,0.335,-0.030
1.056,0.220,-0.030
1.058,0.070,-0.025
1.060,0.110,-0.020
1.062,0.215,-0.015
1.064,0.215,-0.010
1.066,0.255,-0.005
1.068,0.345,0.000
1.070,0.420,0.005
1.072,0.490,0.005
1.074,0.420,0.000
1.076,0.360,0.000
1.078,0.100,0.000
1.080,0.065,0.000
1.082,0.190,0.005
1.084,0.260,0.010
1.086,0.315,0.015
1.088,0.335,0.020
1.090,0.470,0.030
1.092,0.555,0.035
1.094,0.395,0.040
1.096,0.305,0.040
1.098,0.095,0.045
1.100,0.195,0.045
1.102,0.285,0.050
1.104,0.285,0.050
1.106,0.320,0.055
1.108,0.400,0.055
1.110,0.555,0.060
1.112,0.495,0.060
1.114,0.430,0.065
1.116,0.375,0.070
1.118,0.155,0.075
1.120,0.225,0.080
1.122,0.285,0.085
1.124,0.315,0.090
1.126,0.420,0.095
1.128,0.480,0.100
1.130,0.585,0.105
1.132,0.625,0.105
1.134,0.430,0.100
1.136,0.330,0.100
1.138,0.125,0.095
1.140,0.275,0.095
1.142,0.270,0.090
1.144,0.290,0.085
1.146,0.430,0.080
1.148,0.440,0.075
1.150,0.565,0.065
1.152,0.605,0.060
1.154,0.420,0.050
1.156,0.205,0.035
1.158,0.070,0.020
1.160,0.180,0.005
1.162,0.195,-0.015
1.164,0.170,-0.030
1.166,0.305,-0.050
1.168,0.330,-0.060
1.170,0.445,-0.065
1.172,0.440,-0.070
1.174,0.280,-0.065
1.176,0.130,-0.060
1.178,0.000,-0.050
1.180,0.140,-0.045
1.182,0.120,-0.045
1.184,0.160,-0.050
1.186,0.260,-0.060
1.188,0.295,-0.075
1.190,0.430,-0.090
1.192,0.400,-0.105
1.194,0.255,-0.115
1.196,0.040,-0.115
1.198,-0.035,-0.115
1.200,0.095,-0.105
1.202,0.095,-0.095
1.204,0.190,-0.085
1.206,0.245,-0.075
1.208,0.290,-0.070
1.210,0.435,-0.075
1.212,0.380,-0.080
1.214,0.280,-0.095
1.216,0.110,-0.105
1.218,-0.075,-0.120
1.220,0.045,-0.130
1.222,0.025,-0.145
1.224,0.100,-0.155
1.226,0.175,-0.170
1.228,0.150,-0.180
1.230,0.310,-0.195
1.232,0.290,-0.205
1.234,0.170,-0.215
1.236,-0.075,-0.210
1.238,-0.135,-0.195
1.240,0.040,-0.155
1.242,0.110,-0.100
1.244,0.295,-0.015
1.246,0.415,0.090
1.248,0.585,0.215
1.250,0.880,0.355
1.252,1.050,0.495
1.254,1.035,0.625
1.256,0.970,0.735
1.258,0.945,0.820
1.260,1.130,0.865
1.262,1.080,0.875
1.264,1.110,0.845
1.266,1.150,0.785
1.268,1.050,0.695
1.270,1.140,0.590
1.272,0.915,0.480
1.274,0.740,0.365
1.276,0.460,0.260
1.278,0.240,0.160
1.280,0.190,0.075
1.282,0.115,0.000
1.284,0.225,-0.060
1.286,0.255,-0.115
1.288,0.200,-0.150
1.290,0.350,-0.180
1.292,0.285,-0.200
1.294,0.140,-0.205
1.296,-0.070,-0.205
1.298,-0.100,-0.195
1.300,0.010,-0.180
1.302,0.050,-0.170
1.304,0.110,-0.155
1.306,0.200,-0.145
1.308,0.245,-0.140
1.310,0.395,-0.140
1.312,0.300,-0.135
1.314,0.230,-0.135
1.316,-0.010,-0.135
1.318,0.040,-0.130
1.320,0.145,-0.125
1.322,0.185,-0.115
1.324,0.115,-0.110
1.326,0.220,-0.105
1.328,0.305,-0.100
1.330,0.430,-0.100
1.332,0.365,-0.105
1.334,0.260,-0.110
1.336,-0.030,-0.110
1.338,0.050,-0.115
1.340,0.130,-0.120
1.342,0.075,-0.120
1.344,0.085,-0.125
1.346,0.245,-0.125
1.348,0.325,-0.120
1.350,0.430,-0.120
1.352,0.315,-0.120
1.354,0.270,-0.115
1.356,-0.005,-0.115
1.358,0.075,-0.110
1.360,0.065,-0.110
1.362,0.075,-0.110
1.364,0.205,-0.110
1.366,0.275,-0.110
1.368,0.355,-0.105
1.370,0.440,-0.100
1.372,0.340,-0.095
1.374,0.240,-0.085
1.376,-0.015,-0.075
1.378,0.090,-0.070
1.380,0.135,-0.065
1.382,0.185,-0.065
1.384,0.205,-0.070
1.386,0.300,-0.075
1.388,0.415,-0.085
1.390,0.420,-0.090
1.392,0.290,-0.095
1.394,0.230,-0.090
1.396,0.015,-0.085
1.398,0.050,-0.070
1.400,0.180,-0.060
1.402,0.225,-0.045
1.404,0.300,-0.035
1.406,0.315,-0.035
1.408,0.455,-0.035
1.410,0.475,-0.040
1.412,0.355,-0.045
1.414,0.200,-0.045
1.416,0.040,-0.050
1.418,0.150,-0.045
1.420,0.195,-0.040
1.422,0.215,-0.035
1.424,0.340,-0.025
1.426,0.365,-0.020
1.428,0.475,-0.015
1.430,0.490,-0.015
1.432,0.365,-0.010
1.434,0.225,-0.005
1.436,0.075,0.000
1.438,0.220,0.010
1.440,0.265,0.020
1.442,0.325,0.030
1.444,0.355,0.040
1.446,0.395,0.050
1.448,0.540,0.055
1.450,0.525,0.055
1.452,0.470,0.055
1.454,0.240,0.055
1.456,0.145,0.055
1.458,0.290,0.060
1.460,0.345,0.065
1.462,0.310,0.075
1.464,0.415,0.085
1.466,0.495,0.100
1.468,0.640,0.110
1.470,0.605,0.120
1.472,0.485,0.130
1.474,0.335,0.135
1.476,0.200,0.140
1.478,0.360,0.145
1.480,0.375,0.145
1.482,0.405,0.145
1.484,0.465,0.150
1.486,0.545,0.150
1.488,0.700,0.155
1.490,0.650,0.160
1.492,0.475,0.165
1.494,0.365,0.175
1.496,0.290,0.180
1.498,0.485,0.185
1.500,0.395,0.190
1.502,0.445,0.195
1.504,0.515,0.200
1.506,0.605,0.205
1.508,0.760,0.205
1.510,0.665,0.210
1.512,0.585,0.210
1.514,0.415,0.205
1.516,0.280,0.200
1.518,0.415,0.190
1.520,0.350,0.180
1.522,0.450,0.170
1.524,0.530,0.155
1.526,0.545,0.145
1.528,0.680,0.135
1.530,0.665,0.130
1.532,0.490,0.125
1.534,0.275,0.120
1.536,0.155,0.110
1.538,0.310,0.100
1.540,0.280,0.085
1.542,0.360,0.070
1.544,0.435,0.050
1.546,0.400,0.030
1.548,0.545,0.015
1.550,0.470,0.010
1.552,0.345,0.005
1.554,0.220,0.010
1.556,0.120,0.015
1.558,0.220,0.020
1.560,0.260,0.020
1.562,0.295,0.015
1.564,0.355,0.000
1.566,0.365,-0.015
1.568,0.490,-0.030
1.570,0.400,-0.045
1.572,0.300,-0.055
1.574,0.115,-0.060
1.576,0.050,-0.060
1.578,0.160,-0.055
1.580,0.190,-0.050
1.582,0.260,-0.045
1.584,0.320,-0.045
1.586,0.325,-0.050
1.588,0.455,-0.055
1.590,0.345,-0.065
1.592,0.275,-0.070
1.594,0.090,-0.070
1.596,0.105,-0.070
1.598,0.160,-0.060
1.600,0.190,-0.055
1.602,0.255,-0.045
1.604,0.375,-0.045
1.606,0.305,-0.045
1.608,0.445,-0.055
1.610,0.360,-0.065
1.612,0.340,-0.075
1.614,0.055,-0.085
1.616,0.080,-0.090
1.618,0.135,-0.090
1.620,0.175,-0.085
1.622,0.230,-0.075
1.624,0.280,-0.070
1.626,0.340,-0.060
1.628,0.475,-0.060
1.630,0.360,-0.060
1.632,0.290,-0.060
1.634,0.045,-0.065
1.636,0.115,-0.065
1.638,0.145,-0.065
1.640,0.190,-0.065
1.642,0.240,-0.060
1.644,0.305,-0.055
1.646,0.385,-0.055
1.648,0.465,-0.050
1.650,0.360,-0.050
1.652,0.270,-0.050
1.654,0.045,-0.050
1.656,0.145,-0.050
1.658,0.190,-0.050
1.660,0.220,-0.045
1.662,0.240,-0.045
1.664,0.330,-0.040
1.666,0.415,-0.035
1.668,0.500,-0.035
1.670,0.400,-0.030
1.672,0.280,-0.030
1.674,0.075,-0.030
1.676,0.130,-0.030
1.678,0.205,-0.030
1.680,0.205,-0.030
1.682,0.275,-0.025
1.684,0.295,-0.025
1.686,0.465,-0.025
1.688,0.495,-0.030
1.690,0.415,-0.030
1.692,0.270,-0.040
1.694,0.040,-0.045
1.696,0.120,-0.050
1.698,0.160,-0.050
1.700,0.220,-0.045
1.702,0.325,-0.040
1.704,0.335,-0.030
1.706,0.520,-0.025
1.708,0.490,-0.015
1.710,0.335,-0.010
1.712,0.205,-0.010
1.714,0.030,-0.015
1.716,0.195,-0.020
1.718,0.185,-0.030
1.720,0.200,-0.040
1.722,0.320,-0.045
1.724,0.425,-0.045
1.726,0.425,-0.045
1.728,0.460,-0.040
1.730,0.365,-0.030
1.732,0.205,-0.025
1.734,-0.005,-0.020
1.736,0.170,-0.020
1.738,0.240,-0.025
1.740,0.210,-0.030
1.742,0.285,-0.035
1.744,0.370,-0.040
1.746,0.485,-0.045
1.748,0.500,-0.045
1.750,0.330,-0.045
1.752,0.160,-0.045
1.754,-0.020,-0.045
1.756,0.140,-0.045
1.758,0.185,-0.050
1.760,0.210,-0.050
1.762,0.290,-0.055
1.764,0.315,-0.055
1.766,0.510,-0.055
1.768,0.480,-0.050
1.770,0.340,-0.045
1.772,0.145,-0.045
1.774,-0.065,-0.040
1.776,0.150,-0.040
1.778,0.220,-0.045
1.780,0.250,-0.050
1.782,0.300,-0.060
1.784,0.325,-0.070
1.786,0.430,-0.070
1.788,0.400,-0.070
1.790,0.295,-0.065
1.792,0.150,-0.060
1.794,-0.025,-0.050
1.796,0.210,-0.040
1.798,0.215,-0.040
1.800,0.155,-0.040
1.802,0.260,-0.045
1.804,0.330,-0.055
1.806,0.465,-0.060
1.808,0.445,-0.070
1.810,0.285,-0.070
1.812,0.155,-0.070
1.814,-0.025,-0.065
1.816,0.125,-0.060
1.818,0.125,-0.060
1.820,0.210,-0.060
1.822,0.245,-0.060
1.824,0.300,-0.070
1.826,0.480,-0.075
1.828,0.430,-0.085
1.830,0.260,-0.090
1.832,0.100,-0.090
1.834,-0.010,-0.085
1.836,0.125,-0.080
1.838,0.145,-0.070
1.840,0.180,-0.070
1.842,0.265,-0.065
1.844,0.260,-0.070
1.846,0.475,-0.075
1.848,0.395,-0.085
1.850,0.280,-0.090
1.852,0.070,-0.095
1.854,0.055,-0.095
1.856,0.065,-0.090
1.858,0.135,-0.085
1.860,0.220,-0.075
1.862,0.280,-0.070
1.864,0.290,-0.065
1.866,0.455,-0.065
1.868,0.405,-0.065
1.870,0.255,-0.070
1.872,0.050,-0.075
1.874,0.060,-0.080
1.876,0.160,-0.080
1.878,0.145,-0.085
1.880,0.155,-0.085
1.882,0.285,-0.085
1.884,0.295,-0.085
1.886,0.450,-0.085
1.888,0.355,-0.085
1.890,0.270,-0.085
1.892,0.050,-0.080
1.894,0.065,-0.075
1.896,0.175,-0.070
1.898,0.145,-0.065
1.900,0.175,-0.065
1.902,0.290,-0.065
1.904,0.345,-0.070
1.906,0.465,-0.080
1.908,0.325,-0.090
1.910,0.260,-0.095
1.912,0.015,-0.100
1.914,0.065,-0.100
1.916,0.110,-0.090
1.918,0.165,-0.080
1.920,0.220,-0.065
1.922,0.320,-0.055
1.924,0.355,-0.045
1.926,0.490,-0.040
1.928,0.355,-0.045
1.930,0.245,-0.050
1.932,0.020,-0.060
1.934,0.125,-0.065
1.936,0.155,-0.070
1.938,0.125,-0.065
1.940,0.235,-0.060
1.942,0.310,-0.050
1.944,0.470,-0.040
1.946,0.485,-0.035
1.948,0.335,-0.035
1.950,0.290,-0.035
1.952,0.025,-0.040
1.954,0.120,-0.045
1.956,0.135,-0.050
1.958,0.240,-0.050
1.960,0.260,-0.050
1.962,0.320,-0.040
1.964,0.415,-0.030
1.966,0.465,-0.015
1.968,0.400,0.000
1.970,0.255,0.010
1.972,0.070,0.015
1.974,0.195,0.020
1.976,0.260,0.025
1.978,0.260,0.030
1.980,0.385,0.035
1.982,0.425,0.040
1.984,0.535,0.045
1.986,0.510,0.055
1.988,0.475,0.060
1.990,0.295,0.065
1.992,0.125,0.065
1.994,0.240,0.060
1.996,0.270,0.055
1.998,0.280,0.045
2.000,0.415,0.040
2.002,0.390,0.035
2.004,0.495,0.030
2.006,0.515,0.030
2.008,0.390,0.035
2.010,0.245,0.035
2.012,0.110,0.035
2.014,0.200,0.030
2.016,0.240,0.025
2.018,0.275,0.015
2.020,0.305,0.005
2.022,0.330,-0.010
2.024,0.490,-0.015
2.026,0.470,-0.025
2.028,0.325,-0.030
2.030,0.145,-0.030
2.032,0.000,-0.035
2.034,0.170,-0.035
2.036,0.140,-0.040
2.038,0.170,-0.050
2.040,0.285,-0.055
2.042,0.305,-0.060
2.044,0.435,-0.065
2.046,0.430,-0.065
2.048,0.300,-0.065
2.050,0.165,-0.065
2.052,-0.085,-0.060
2.054,0.100,-0.060
2.056,0.115,-0.065
2.058,0.175,-0.070
2.060,0.215,-0.075
2.062,0.275,-0.085
2.064,0.390,-0.095
2.066,0.370,-0.100
2.068,0.305,-0.105
2.070,0.090,-0.105
2.072,-0.085,-0.105
2.074,0.045,-0.105
2.076,0.135,-0.105
2.078,0.160,-0.110
2.080,0.195,-0.120
2.082,0.175,-0.130
2.084,0.330,-0.145
2.086,0.310,-0.160
2.088,0.150,-0.175
2.090,-0.035,-0.190
2.092,-0.145,-0.195
2.094,-0.005,-0.200
2.096,-0.030,-0.195
2.098,0.070,-0.175
2.100,0.130,-0.140
2.102,0.275,-0.085
2.104,0.490,-0.005
2.106,0.595,0.100
2.108,0.565,0.225
2.110,0.530,0.365
2.112,0.555,0.505
2.114,0.910,0.640
2.116,1.000,0.755
2.118,1.155,0.840
2.120,1.320,0.890
2.122,1.225,0.900
2.124,1.350,0.875
2.126,1.275,0.815
2.128,1.070,0.735
2.130,0.750,0.635
2.132,0.610,0.525
2.134,0.615,0.410
2.136,0.520,0.300
2.138,0.400,0.195
2.140,0.335,0.100
2.142,0.295,0.020
2.144,0.450,-0.050
2.146,0.325,-0.100
2.148,0.220,-0.140
2.150,-0.040,-0.170
2.152,-0.115,-0.185
2.154,-0.035,-0.200
2.156,-0.030,-0.205
2.158,-0.040,-0.205
2.160,0.160,-0.205
2.162,0.200,-0.200
2.164,0.285,-0.190
2.166,0.225,-0.175
2.168,0.200,-0.160
2.170,-0.045,-0.145
2.172,-0.035,-0.125
2.174,0.080,-0.110
2.176,0.090,-0.100
2.178,0.130,-0.100
2.180,0.240,-0.100
2.182,0.240,-0.105
2.184,0.365,-0.115
2.186,0.275,-0.120
2.188,0.235,-0.125
2.190,-0.035,-0.125
2.192,-0.010,-0.120
2.194,0.085,-0.115
2.196,0.065,-0.110
2.198,0.100,-0.105
2.200,0.160,-0.105
2.202,0.260,-0.105
2.204,0.410,-0.110
2.206,0.300,-0.110
2.208,0.190,-0.110
2.210,-0.030,-0.110
2.212,0.025,-0.105
2.214,0.045,-0.105
2.216,0.070,-0.100
2.218,0.135,-0.105
2.220,0.175,-0.105
2.222,0.280,-0.110
2.224,0.360,-0.115
2.226,0.285,-0.115
2.228,0.185,-0.115
2.230,-0.015,-0.110
2.232,0.010,-0.105
2.234,0.000,-0.100
2.236,0.110,-0.090
2.238,0.185,-0.090
2.240,0.235,-0.090
2.242,0.300,-0.090
2.244,0.360,-0.095
2.246,0.260,-0.100
2.248,0.125,-0.100
2.250,-0.100,-0.095
2.252,0.100,-0.085
2.254,0.065,-0.075
2.256,0.070,-0.065
2.258,0.255,-0.060
2.260,0.310,-0.060
2.262,0.300,-0.060
2.264,0.365,-0.070
2.266,0.265,-0.075
2.268,0.165,-0.080
2.270,-0.060,-0.075
2.272,0.055,-0.070
2.274,0.100,-0.065
2.276,0.150,-0.055
2.278,0.220,-0.045
2.280,0.265,-0.045
2.282,0.375,-0.045
2.284,0.380,-0.055
2.286,0.275,-0.060
2.288,0.060,-0.070
2.290,-0.010,-0.075
2.292,0.085,-0.075
2.294,0.090,-0.065
2.296,0.185,-0.055
2.298,0.265,-0.040
2.300,0.270,-0.025
2.302,0.430,-0.015
2.304,0.450,-0.010
2.306,0.315,-0.005
2.308,0.130,-0.005
2.310,-0.035,-0.005
2.312,0.160,-0.005
2.314,0.150,0.005
2.316,0.165,0.010
2.318,0.340,0.020
2.320,0.365,0.035
2.322,0.510,0.045
2.324,0.470,0.050
2.326,0.345,0.060
2.328,0.175,0.060
2.330,0.060,0.065
2.332,0.215,0.065
2.334,0.200,0.070
2.336,0.275,0.080
2.338,0.385,0.090
2.340,0.405,0.100
2.342,0.580,0.110
2.344,0.560,0.125
2.346,0.425,0.130
2.348,0.255,0.135
2.350,0.090,0.135
2.352,0.260,0.135
2.354,0.290,0.130
2.356,0.290,0.130
2.358,0.415,0.130
2.360,0.500,0.140
2.362,0.610,0.145
2.364,0.555,0.155
2.366,0.455,0.170
2.368,0.315,0.175
2.370,0.145,0.180
2.372,0.290,0.180
2.374,0.250,0.175
2.376,0.350,0.165
2.378,0.460,0.150
2.380,0.480,0.140
2.382,0.575,0.130
2.384,0.560,0.125
2.386,0.400,0.125
2.388,0.250,0.125
2.390,0.105,0.125
2.392,0.255,0.125
2.394,0.205,0.120
2.396,0.270,0.105
2.398,0.375,0.090
2.400,0.340,0.075
2.402,0.530,0.060
2.404,0.450,0.050
2.406,0.365,0.045
2.408,0.135,0.040
2.410,0.040,0.040
2.412,0.205,0.040
2.414,0.120,0.035
2.416,0.150,0.025
2.418,0.295,0.005
2.420,0.320,-0.015
2.422,0.470,-0.030
2.424,0.310,-0.045
2.426,0.240,-0.055
2.428,0.035,-0.055
2.430,-0.030,-0.045
2.432,0.085,-0.040
2.434,0.110,-0.030
2.436,0.195,-0.025
2.438,0.215,-0.030
2.440,0.230,-0.040
2.442,0.370,-0.055
2.444,0.310,-0.070
2.446,0.240,-0.080
2.448,-0.050,-0.085
2.450,-0.015,-0.085
2.452,0.035,-0.080
2.454,0.045,-0.070
2.456,0.150,-0.055
2.458,0.200,-0.050
2.460,0.275,-0.045
2.462,0.380,-0.045
2.464,0.275,-0.050
2.466,0.200,-0.060
2.468,-0.070,-0.065
2.470,-0.005,-0.070
2.472,0.085,-0.065
2.474,0.100,-0.065
2.476,0.110,-0.055
2.478,0.170,-0.050
2.480,0.290,-0.045
2.482,0.385,-0.045
2.484,0.265,-0.045
2.486,0.195,-0.055
2.488,-0.050,-0.060
2.490,0.010,-0.065
2.492,0.050,-0.070
2.494,0.100,-0.075
2.496,0.115,-0.070
2.498,0.210,-0.070
2.500,0.275,-0.060
2.502,0.350,-0.055
2.504,0.285,-0.050
2.506,0.200,-0.045
2.508,-0.030,-0.045
2.510,0.030,-0.045
2.512,0.055,-0.050
2.514,0.025,-0.055
2.516,0.145,-0.060
2.518,0.225,-0.070
2.520,0.285,-0.075
2.522,0.320,-0.075
2.524,0.170,-0.075
2.526,0.115,-0.070
2.528,-0.070,-0.065
2.530,0.040,-0.055
2.532,0.140,-0.045
2.534,0.085,-0.035
2.536,0.135,-0.025
2.538,0.205,-0.025
2.540,0.315,-0.025
2.542,0.380,-0.030
2.544,0.220,-0.035
2.546,0.150,-0.035
2.548,-0.055,-0.040
2.550,0.060,-0.040
2.552,0.105,-0.035
2.554,0.075,-0.035
2.556,0.165,-0.030
2.558,0.220,-0.030
2.560,0.335,-0.035
2.562,0.360,-0.035
2.564,0.210,-0.040
2.566,0.120,-0.040
2.568,-0.090,-0.040
2.570,0.060,-0.035
2.572,0.065,-0.030
2.574,0.115,-0.025
2.576,0.195,-0.020
2.578,0.200,-0.020
2.580,0.330,-0.020
2.582,0.305,-0.025
2.584,0.220,-0.030
2.586,0.095,-0.040
2.588,-0.065,-0.040
2.590,0.050,-0.040
2.592,0.020,-0.040
2.594,0.080,-0.030
2.596,0.195,-0.025
2.598,0.195,-0.020
2.600,0.365,-0.020
2.602,0.340,-0.025
2.604,0.245,-0.030
2.606,0.010,-0.040
2.608,-0.095,-0.045
2.610,0.030,-0.050
2.612,0.065,-0.050
2.614,0.055,-0.045
2.616,0.185,-0.035
2.618,0.205,-0.025
2.620,0.385,-0.020
2.622,0.350,-0.015
2.624,0.215,-0.015
2.626,0.040,-0.020
2.628,-0.100,-0.025
2.630,0.005,-0.035
2.632,0.010,-0.040
2.634,0.100,-0.045
2.636,0.150,-0.040
2.638,0.195,-0.035
2.640,0.355,-0.030
2.642,0.320,-0.025
2.644,0.215,-0.020
2.646,0.015,-0.020
2.648,-0.085,-0.025
2.650,0.050,-0.040
2.652,-0.035,-0.050
2.654,0.030,-0.065
2.656,0.150,-0.075
2.658,0.170,-0.080
2.660,0.320,-0.075
2.662,0.270,-0.065
2.664,0.195,-0.055
2.666,0.010,-0.040
2.668,-0.120,-0.030
2.670,0.000,-0.025
2.672,0.035,-0.020
2.674,0.070,-0.025
2.676,0.185,-0.030
2.678,0.160,-0.040
2.680,0.325,-0.050
2.682,0.320,-0.050
2.684,0.215,-0.055
2.686,-0.020,-0.050
2.688,-0.160,-0.050
2.690,-0.015,-0.045
2.692,-0.010,-0.045
2.694,0.050,-0.040
2.696,0.100,-0.040
2.698,0.230,-0.040
2.700,0.365,-0.040
2.702,0.315,-0.035
2.704,0.160,-0.025
2.706,0.005,-0.020
2.708,-0.035,-0.015
2.710,0.085,-0.010
2.712,-0.055,-0.010
2.714,0.055,-0.020
2.716,0.170,-0.030
2.718,0.190,-0.040
2.720,0.355,-0.045
2.722,0.260,-0.050
2.724,0.210,-0.045
2.726,-0.045,-0.030
2.728,-0.120,-0.015
2.730,0.050,0.000
2.732,0.065,0.015
2.734,0.170,0.020
2.736,0.200,0.020
2.738,0.205,0.015
2.740,0.385,0.005
2.742,0.275,-0.005
2.744,0.200,-0.010
2.746,-0.030,-0.005
2.748,-0.010,0.000
2.750,0.040,0.010
2.752,0.085,0.025
2.754,0.140,0.040
2.756,0.220,0.050
2.758,0.285,0.055
2.760,0.420,0.055
2.762,0.275,0.050
2.764,0.220,0.045
2.766,0.015,0.045
2.768,0.050,0.045
2.770,0.100,0.055
2.772,0.130,0.065
2.774,0.190,0.075
2.776,0.280,0.090
2.778,0.375,0.100
2.780,0.470,0.110
2.782,0.330,0.115
2.784,0.255,0.115
2.786,0.035,0.115
2.788,0.125,0.110
2.790,0.155,0.110
2.792,0.145,0.110
2.794,0.195,0.110
2.796,0.305,0.110
2.798,0.380,0.110
2.800,0.440,0.115
2.802,0.350,0.120
2.804,0.265,0.120
2.806,0.025,0.125
2.808,0.075,0.125
2.810,0.150,0.125
2.812,0.175,0.120
2.814,0.175,0.115
2.816,0.335,0.100
2.818,0.365,0.085
2.820,0.400,0.070
2.822,0.235,0.055
2.824,0.135,0.040
2.826,-0.120,0.030
2.828,-0.030,0.025
2.830,0.070,0.025
2.832,0.095,0.030
2.834,0.185,0.035
2.836,0.215,0.040
2.838,0.340,0.040
2.840,0.310,0.040
2.842,0.200,0.040
2.844,0.040,0.035
2.846,-0.095,0.025
2.848,0.015,0.020
2.850,0.055,0.015
2.852,0.035,0.005
2.854,0.190,0.000
2.856,0.145,0.000
2.858,0.275,0.000
2.860,0.290,0.000
2.862,0.235,0.005
2.864,0.050,0.010
2.866,-0.125,0.020
2.868,0.005,0.025
2.870,0.025,0.030
2.872,0.045,0.035
2.874,0.125,0.030
2.876,0.195,0.025
2.878,0.320,0.015
2.880,0.310,0.000
2.882,0.145,-0.010
2.884,-0.070,-0.025
2.886,-0.180,-0.040
2.888,-0.085,-0.050
2.890,-0.040,-0.060
2.892,-0.055,-0.075
2.894,0.015,-0.085
2.896,0.050,-0.095
2.898,0.200,-0.095
2.900,0.205,-0.080
2.902,0.075,-0.050
2.904,-0.015,0.005
2.906,-0.095,0.085
2.908,0.190,0.190
2.910,0.315,0.315
2.912,0.480,0.460
2.914,0.745,0.615
2.916,0.980,0.760
2.918,1.230,0.890
2.920,1.310,1.000
2.922,1.305,1.070
2.924,1.140,1.105
2.926,0.895,1.100
2.928,1.010,1.055
2.930,0.975,0.975
2.932,0.900,0.870
2.934,0.890,0.745
2.936,0.735,0.610
2.938,0.745,0.480
2.940,0.560,0.355
2.942,0.310,0.245
2.944,0.085,0.160
2.946,-0.130,0.090
2.948,0.000,0.040
2.950,-0.005,0.005
2.952,0.015,-0.015
2.954,0.065,-0.025
2.956,0.075,-0.025
2.958,0.210,-0.020
2.960,0.190,-0.015
2.962,0.130,0.000
2.964,-0.030,0.015
2.966,-0.075,0.030
2.968,0.060,0.045
2.970,0.050,0.060
2.972,0.115,0.070
2.974,0.105,0.070
2.976,0.165,0.070
2.978,0.300,0.060
2.980,0.240,0.050
2.982,0.185,0.040
2.984,-0.030,0.030
2.986,-0.120,0.025
2.988,0.030,0.025
2.990,-0.040,0.030
2.992,0.050,0.040
2.994,0.175,0.050
2.996,0.170,0.060
2.998,0.310,0.065
3.000,0.255,0.065
3.002,0.130,0.065
3.004,0.005,0.055
3.006,-0.125,0.050
3.008,-0.025,0.045
3.010,0.030,0.040
3.012,0.060,0.040
3.014,0.080,0.035
3.016,0.145,0.035
3.018,0.300,0.035
3.020,0.220,0.035
3.022,0.130,0.030
3.024,-0.145,0.030
3.026,-0.105,0.025
3.028,-0.020,0.020
3.030,-0.060,0.015
3.032,0.025,0.010
3.034,0.080,0.010
3.036,0.140,0.010
3.038,0.280,0.010
3.040,0.160,0.010
3.042,0.115,0.005
3.044,-0.145,0.005
3.046,-0.155,0.005
3.048,-0.025,0.005
3.050,-0.030,0.005
3.052,-0.075,0.005
3.054,0.115,0.005
3.056,0.185,0.005
3.058,0.255,0.005
3.060,0.165,0.010
3.062,0.040,0.010
3.064,-0.175,0.010
3.066,-0.135,0.010
3.068,-0.070,0.010
3.070,-0.060,0.010
3.072,0.020,0.005
3.074,0.075,0.005
3.076,0.165,0.000
3.078,0.220,0.000
3.080,0.140,0.000
3.082,0.005,-0.005
3.084,-0.260,0.000
3.086,-0.120,0.000
3.088,-0.015,0.000
3.090,-0.050,0.000
3.092,-0.045,0.000
3.094,0.080,0.000
3.096,0.120,0.000
3.098,0.210,0.000
3.100,0.120,0.005
3.102,0.005,0.010
3.104,-0.180,0.015
3.106,-0.095,0.020
3.108,-0.145,0.025
3.110,-0.015,0.025
3.112,0.055,0.030
3.114,0.085,0.030
3.116,0.190,0.030
3.118,0.260,0.035
3.120,0.140,0.040
3.122,-0.005,0.050
3.124,-0.205,0.060
3.126,-0.045,0.070
3.128,-0.025,0.080
3.130,0.005,0.085
3.132,0.130,0.085
3.134,0.190,0.085
3.136,0.225,0.090
3.138,0.250,0.090
3.140,0.135,0.095
3.142,0.070,0.105
3.144,-0.090,0.115
3.146,-0.005,0.130
3.148,0.045,0.145
3.150,0.095,0.155
3.152,0.160,0.160
3.154,0.245,0.160
3.156,0.315,0.160
3.158,0.315,0.155
3.160,0.215,0.155
3.162,0.015,0.155
3.164,-0.035,0.165
3.166,0.065,0.175
3.168,0.055,0.185
3.170,0.075,0.190
3.172,0.165,0.190
3.174,0.230,0.185
3.176,0.405,0.180
3.178,0.320,0.165
3.180,0.170,0.150
3.182,0.010,0.140
3.184,-0.200,0.135
3.186,0.020,0.130
3.188,0.035,0.130
3.190,0.045,0.130
3.192,0.105,0.125
3.194,0.130,0.115
3.196,0.285,0.100
3.198,0.225,0.080
3.200,0.090,0.060
3.202,-0.125,0.035
3.204,-0.275,0.015
3.206,-0.125,0.000
3.208,-0.105,-0.005
3.210,-0.100,-0.010
3.212,-0.030,-0.015
3.214,0.045,-0.015
3.216,0.175,-0.015
3.218,0.080,-0.020
3.220,-0.020,-0.030
3.222,-0.200,-0.040
3.224,-0.335,-0.050
3.226,-0.210,-0.060
3.228,-0.230,-0.070
3.230,-0.215,-0.075
3.232,-0.110,-0.080
3.234,-0.035,-0.085
3.236,0.105,-0.085
3.238,0.025,-0.090
3.240,-0.110,-0.090
3.242,-0.265,-0.090
3.244,-0.395,-0.095
3.246,-0.235,-0.090
3.248,-0.275,-0.090
3.250,-0.190,-0.085
3.252,-0.125,-0.080
3.254,-0.070,-0.075
3.256,0.120,-0.075
3.258,0.025,-0.070
3.260,-0.065,-0.070
3.262,-0.240,-0.070
3.264,-0.400,-0.080
3.266,-0.245,-0.085
3.268,-0.265,-0.095
3.270,-0.230,-0.105
3.272,-0.155,-0.110
3.274,-0.125,-0.115
3.276,0.055,-0.115
3.278,-0.030,-0.115
3.280,-0.105,-0.105
3.282,-0.320,-0.095
3.284,-0.355,-0.085
3.286,-0.235,-0.080
3.288,-0.225,-0.075
3.290,-0.190,-0.075
3.292,-0.135,-0.080
3.294,-0.080,-0.085
3.296,0.050,-0.095
3.298,-0.065,-0.100
3.300,-0.145,-0.110
3.302,-0.355,-0.110
3.304,-0.335,-0.110
3.306,-0.235,-0.105
3.308,-0.275,-0.100
3.310,-0.220,-0.095
3.312,-0.115,-0.090
3.314,-0.085,-0.095
3.316,0.040,-0.100
3.318,-0.095,-0.105
3.320,-0.160,-0.115
3.322,-0.330,-0.120
3.324,-0.355,-0.120
3.326,-0.295,-0.120
3.328,-0.240,-0.120
3.330,-0.220,-0.115
3.332,-0.170,-0.110
3.334,-0.100,-0.110
3.336,0.000,-0.110
3.338,-0.120,-0.110
3.340,-0.155,-0.115
3.342,-0.385,-0.115
3.344,-0.310,-0.115
3.346,-0.220,-0.115
3.348,-0.330,-0.110
3.350,-0.225,-0.110
3.352,-0.165,-0.110
3.354,-0.100,-0.110
3.356,-0.010,-0.115
3.358,-0.105,-0.115
3.360,-0.200,-0.125
3.362,-0.455,-0.130
3.364,-0.335,-0.130
3.366,-0.300,-0.135
3.368,-0.335,-0.135
3.370,-0.290,-0.130
3.372,-0.175,-0.130
3.374,-0.075,-0.125
3.376,0.030,-0.120
3.378,-0.120,-0.120
3.380,-0.195,-0.115
3.382,-0.430,-0.115
3.384,-0.360,-0.110
3.386,-0.330,-0.115
3.388,-0.300,-0.115
3.390,-0.260,-0.120
3.392,-0.155,-0.125
3.394,-0.085,-0.130
3.396,-0.040,-0.135
3.398,-0.160,-0.140
3.400,-0.220,-0.140
3.402,-0.470,-0.135
3.404,-0.335,-0.130
3.406,-0.355,-0.125
3.408,-0.340,-0.115
3.410,-0.280,-0.115
3.412,-0.130,-0.115
3.414,-0.090,-0.120
3.416,-0.040,-0.125
3.418,-0.205,-0.130
3.420,-0.290,-0.135
3.422,-0.445,-0.135
3.424,-0.390,-0.135
3.426,-0.320,-0.130
3.428,-0.325,-0.125
3.430,-0.245,-0.120
3.432,-0.185,-0.120
3.434,-0.075,-0.120
3.436,-0.050,-0.120
3.438,-0.190,-0.130
3.440,-0.310,-0.135
3.442,-0.485,-0.135
3.444,-0.375,-0.140
3.446,-0.370,-0.140
3.448,-0.345,-0.135
3.450,-0.245,-0.130
3.452,-0.220,-0.125
3.454,-0.070,-0.125
3.456,-0.080,-0.125
3.458,-0.170,-0.125
3.460,-0.370,-0.125
3.462,-0.510,-0.125
3.464,-0.380,-0.125
3.466,-0.340,-0.125
3.468,-0.325,-0.125
3.470,-0.280,-0.120
3.472,-0.195,-0.120
3.474,-0.065,-0.120
3.476,-0.080,-0.120
3.478,-0.210,-0.120
3.480,-0.395,-0.125
3.482,-0.525,-0.130
3.484,-0.400,-0.135
3.486,-0.335,-0.140
3.488,-0.350,-0.140
3.490,-0.245,-0.140
3.492,-0.200,-0.135
3.494,-0.065,-0.130
3.496,-0.070,-0.125
3.498,-0.255,-0.115
3.500,-0.380,-0.110
3.502,-0.490,-0.105
3.504,-0.390,-0.105
3.506,-0.370,-0.105
3.508,-0.340,-0.110
3.510,-0.265,-0.120
3.512,-0.235,-0.125
3.514,-0.065,-0.135
3.516,-0.100,-0.135
3.518,-0.230,-0.135
3.520,-0.450,-0.130
3.522,-0.505,-0.125
3.524,-0.405,-0.120
3.526,-0.370,-0.115
3.528,-0.345,-0.110
3.530,-0.255,-0.110
3.532,-0.245,-0.115
3.534,-0.045,-0.120
3.536,-0.150,-0.125
3.538,-0.200,-0.130
3.540,-0.425,-0.130
3.542,-0.530,-0.125
3.544,-0.400,-0.120
3.546,-0.365,-0.110
3.548,-0.355,-0.105
3.550,-0.265,-0.105
3.552,-0.170,-0.105
3.554,-0.005,-0.110
3.556,-0.130,-0.115
3.558,-0.305,-0.120
3.560,-0.455,-0.125
3.562,-0.535,-0.125
3.564,-0.370,-0.120
3.566,-0.410,-0.115
3.568,-0.345,-0.110
3.570,-0.210,-0.105
3.572,-0.205,-0.100
3.574,-0.050,-0.100
3.576,-0.175,-0.100
3.578,-0.230,-0.100
3.580,-0.410,-0.095
3.582,-0.455,-0.085
3.584,-0.370,-0.075
3.586,-0.315,-0.055
3.588,-0.260,-0.035
3.590,-0.185,-0.020
3.592,-0.160,-0.005
3.594,0.040,0.005
3.596,-0.045,0.005
3.598,-0.155,0.005
3.600,-0.385,0.005
3.602,-0.375,0.000
3.604,-0.270,0.000
3.606,-0.255,0.000
3.608,-0.230,0.005
3.610,-0.135,0.010
3.612,-0.080,0.015
3.614,0.035,0.015
3.616,-0.075,0.015
3.618,-0.160,0.010
3.620,-0.365,0.005
3.622,-0.395,0.000
3.624,-0.315,-0.005
3.626,-0.245,-0.010
3.628,-0.255,-0.005
3.630,-0.185,-0.005
3.632,-0.065,0.000
3.634,0.025,0.000
3.636,-0.085,-0.005
3.638,-0.220,-0.010
3.640,-0.435,-0.025
3.642,-0.465,-0.040
3.644,-0.345,-0.060
3.646,-0.375,-0.075
3.648,-0.320,-0.085
3.650,-0.230,-0.095
3.652,-0.160,-0.095
3.654,-0.065,-0.095
3.656,-0.190,-0.090
3.658,-0.285,-0.085
3.660,-0.525,-0.080
3.662,-0.435,-0.080
3.664,-0.430,-0.080
3.666,-0.395,-0.085
3.668,-0.335,-0.090
3.670,-0.250,-0.095
3.672,-0.150,-0.100
3.674,-0.130,-0.100
3.676,-0.210,-0.100
3.678,-0.315,-0.095
3.680,-0.565,-0.095
3.682,-0.490,-0.095
3.684,-0.410,-0.100
3.686,-0.420,-0.105
3.688,-0.310,-0.110
3.690,-0.280,-0.115
3.692,-0.160,-0.120
3.694,-0.140,-0.125
3.696,-0.265,-0.120
3.698,-0.385,-0.120
3.700,-0.615,-0.120
3.702,-0.510,-0.120
3.704,-0.500,-0.125
3.706,-0.445,-0.140
3.708,-0.380,-0.160
3.710,-0.360,-0.185
3.712,-0.275,-0.205
3.714,-0.290,-0.220
3.716,-0.390,-0.220
3.718,-0.485,-0.200
3.720,-0.655,-0.155
3.722,-0.455,-0.080
3.724,-0.355,0.015
3.726,-0.200,0.135
3.728,0.075,0.270
3.730,0.220,0.415
3.732,0.620,0.560
3.734,0.685,0.690
3.736,0.680,0.810
3.738,0.655,0.900
3.740,0.560,0.960
3.742,0.615,0.985
3.744,0.675,0.970
3.746,0.620,0.920
3.748,0.605,0.835
3.750,0.510,0.725
3.752,0.525,0.595
3.754,0.390,0.460
3.756,0.165,0.325
3.758,-0.230,0.205
3.760,-0.435,0.100
3.762,-0.385,0.015
3.764,-0.405,-0.050
3.766,-0.425,-0.095
3.768,-0.330,-0.125
3.770,-0.300,-0.145
3.772,-0.220,-0.160
3.774,-0.290,-0.170
3.776,-0.420,-0.175
3.778,-0.585,-0.175
3.780,-0.690,-0.175
3.782,-0.545,-0.170
3.784,-0.495,-0.165
3.786,-0.445,-0.150
3.788,-0.300,-0.140
3.790,-0.305,-0.125
3.792,-0.170,-0.110
3.794,-0.205,-0.100
3.796,-0.280,-0.090
3.798,-0.470,-0.085
3.800,-0.615,-0.085
3.802,-0.465,-0.085
3.804,-0.465,-0.085
3.806,-0.380,-0.090
3.808,-0.305,-0.090
3.810,-0.280,-0.090
3.812,-0.210,-0.085
3.814,-0.160,-0.080
3.816,-0.250,-0.080
3.818,-0.470,-0.075
3.820,-0.630,-0.070
3.822,-0.455,-0.070
3.824,-0.400,-0.070
3.826,-0.395,-0.070
3.828,-0.350,-0.075
3.830,-0.285,-0.075
3.832,-0.160,-0.075
3.834,-0.195,-0.075
3.836,-0.290,-0.070
3.838,-0.485,-0.065
3.840,-0.550,-0.055
3.842,-0.445,-0.050
3.844,-0.410,-0.050
3.846,-0.355,-0.050
3.848,-0.320,-0.055
3.850,-0.320,-0.065
3.852,-0.165,-0.070
3.854,-0.185,-0.075
3.856,-0.300,-0.080
3.858,-0.515,-0.075
3.860,-0.515,-0.065
3.862,-0.400,-0.055
3.864,-0.505,-0.040
3.866,-0.335,-0.030
3.868,-0.240,-0.020
3.870,-0.245,-0.015
3.872,-0.065,-0.015
3.874,-0.215,-0.015
3.876,-0.310,-0.025
3.878,-0.505,-0.030
3.880,-0.475,-0.035
3.882,-0.400,-0.040
3.884,-0.350,-0.040
3.886,-0.375,-0.035
3.888,-0.325,-0.035
3.890,-0.245,-0.025
3.892,-0.075,-0.020
3.894,-0.205,-0.010
3.896,-0.240,-0.005
3.898,-0.530,0.000
3.900,-0.420,0.005
3.902,-0.335,0.010
3.904,-0.375,0.010
3.906,-0.335,0.010
3.908,-0.255,0.010
3.910,-0.170,0.005
3.912,-0.070,0.010
3.914,-0.185,0.010
3.916,-0.235,0.015
3.918,-0.480,0.025
3.920,-0.420,0.035
3.922,-0.345,0.045
3.924,-0.330,0.055
3.926,-0.290,0.065
3.928,-0.170,0.070
3.930,-0.135,0.075
3.932,-0.030,0.075
3.934,-0.140,0.080
3.936,-0.180,0.080
3.938,-0.395,0.090
3.940,-0.345,0.095
3.942,-0.300,0.105
3.944,-0.270,0.110
3.946,-0.255,0.115
3.948,-0.145,0.120
3.950,-0.055,0.120
3.952,0.040,0.120
3.954,-0.085,0.120
3.956,-0.155,0.130
3.958,-0.370,0.140
3.960,-0.295,0.155
3.962,-0.285,0.170
3.964,-0.170,0.185
3.966,-0.105,0.200
3.968,-0.065,0.210
3.970,0.040,0.210
3.972,0.045,0.210
3.974,-0.055,0.200
3.976,-0.120,0.195
3.978,-0.340,0.195
3.980,-0.230,0.200
3.982,-0.140,0.205
3.984,-0.190,0.215
3.986,-0.110,0.230
3.988,-0.055,0.240
3.990,0.115,0.245
3.992,0.140,0.245
3.994,-0.010,0.240
3.996,-0.155,0.235
3.998,-0.345,0.225
4.000,-0.215,0.215
4.002,-0.225,0.205
4.004,-0.195,0.200
4.006,-0.120,0.195
4.008,-0.110,0.190
4.010,0.075,0.185
4.012,0.050,0.175
4.014,-0.115,0.165
4.016,-0.280,0.155
4.018,-0.430,0.140
4.020,-0.330,0.120
4.022,-0.295,0.105
4.024,-0.285,0.095
4.026,-0.195,0.080
4.028,-0.200,0.070
4.030,-0.080,0.065
4.032,-0.105,0.055
4.034,-0.230,0.055
4.036,-0.425,0.050
4.038,-0.555,0.045
4.040,-0.405,0.040
4.042,-0.390,0.035
4.044,-0.360,0.025
4.046,-0.300,0.015
4.048,-0.270,0.000
4.050,-0.145,-0.015
4.052,-0.155,-0.025
4.054,-0.340,-0.030
4.056,-0.470,-0.035
4.058,-0.630,-0.035
4.060,-0.475,-0.030
4.062,-0.445,-0.020
4.064,-0.405,-0.015
4.066,-0.330,-0.015
4.068,-0.300,-0.015
4.070,-0.135,-0.015
4.072,-0.195,-0.025
4.074,-0.345,-0.030
4.076,-0.525,-0.035
4.078,-0.595,-0.035
4.080,-0.415,-0.035
4.082,-0.460,-0.025
4.084,-0.430,-0.020
4.086,-0.350,-0.015
4.088,-0.315,-0.010
4.090,-0.160,-0.005
4.092,-0.195,-0.010
4.094,-0.330,-0.010
4.096,-0.460,-0.015
4.098,-0.575,-0.015
4.100,-0.450,-0.015
4.102,-0.475,-0.015
4.104,-0.425,-0.015
4.106,-0.325,-0.010
4.108,-0.290,-0.005
4.110,-0.100,-0.005
4.112,-0.175,-0.005
4.114,-0.360,-0.010
4.116,-0.495,-0.010
4.118,-0.595,-0.015
4.120,-0.490,-0.015
4.122,-0.460,-0.015
4.124,-0.400,-0.010
4.126,-0.325,-0.010
4.128,-0.325,-0.005
4.130,-0.140,0.000
4.132,-0.185,0.000
4.134,-0.290,0.000
4.136,-0.495,0.000
4.138,-0.540,0.000
4.140,-0.440,-0.005
4.142,-0.480,-0.010
4.144,-0.405,-0.010
4.146,-0.310,-0.015
4.148,-0.290,-0.015
4.150,-0.185,-0.015
4.152,-0.225,-0.015
4.154,-0.305,-0.015
4.156,-0.515,-0.015
4.158,-0.555,-0.010
4.160,-0.485,-0.010
4.162,-0.470,-0.010
4.164,-0.410,-0.010
4.166,-0.295,-0.010
4.168,-0.265,-0.010
4.170,-0.145,-0.015
4.172,-0.250,-0.010
4.174,-0.290,-0.010
4.176,-0.540,-0.005
4.178,-0.585,-0.005
4.180,-0.440,0.005
4.182,-0.410,0.010
4.184,-0.360,0.010
4.186,-0.255,0.015
4.188,-0.300,0.015
4.190,-0.150,0.010
4.192,-0.230,0.005
4.194,-0.300,0.000
4.196,-0.540,-0.005
4.198,-0.505,-0.010
4.200,-0.470,-0.010
4.202,-0.455,-0.005
4.204,-0.355,0.000
4.206,-0.265,0.005
4.208,-0.260,0.010
4.210,-0.140,0.015
4.212,-0.245,0.015
4.214,-0.355,0.015
4.216,-0.555,0.010
4.218,-0.500,0.005
4.220,-0.460,-0.005
4.222,-0.435,-0.015
4.224,-0.375,-0.020
4.226,-0.395,-0.025
4.228,-0.225,-0.030
4.230,-0.185,-0.030
4.232,-0.280,-0.025
4.234,-0.345,-0.025
4.236,-0.665,-0.020
4.238,-0.480,-0.015
4.240,-0.395,-0.015
4.242,-0.485,-0.015
4.244,-0.395,-0.015
4.246,-0.275,-0.020
4.248,-0.205,-0.025
4.250,-0.160,-0.025
4.252,-0.310,-0.025
4.254,-0.395,-0.020
4.256,-0.630,-0.015
4.258,-0.485,-0.005
4.260,-0.450,0.005
4.262,-0.400,0.015
4.264,-0.355,0.020
4.266,-0.310,0.015
4.268,-0.170,0.010
4.270,-0.190,-0.005
4.272,-0.310,-0.015
4.274,-0.460,-0.025
4.276,-0.635,-0.035
4.278,-0.515,-0.035
4.280,-0.475,-0.030
4.282,-0.440,-0.025
4.284,-0.360,-0.010
4.286,-0.280,0.000
4.288,-0.175,0.005
4.290,-0.190,0.005
4.292,-0.300,0.005
4.294,-0.425,-0.005
4.296,-0.640,-0.015
4.298,-0.530,-0.025
4.300,-0.455,-0.030
4.302,-0.440,-0.035
4.304,-0.380,-0.035
4.306,-0.300,-0.030
4.308,-0.190,-0.020
4.310,-0.155,-0.015
4.312,-0.315,-0.010
4.314,-0.470,-0.005
4.316,-0.630,-0.005
4.318,-0.490,-0.010
4.320,-0.460,-0.015
4.322,-0.435,-0.015
4.324,-0.310,-0.015
4.326,-0.300,-0.010
4.328,-0.150,-0.005
4.330,-0.190,0.005
4.332,-0.335,0.010
4.334,-0.475,0.015
4.336,-0.605,0.015
4.338,-0.425,0.010
4.340,-0.450,0.000
4.342,-0.460,-0.005
4.344,-0.380,-0.015
4.346,-0.310,-0.020
4.348,-0.155,-0.020
4.350,-0.215,-0.020
4.352,-0.315,-0.015
4.354,-0.460,-0.005
4.356,-0.650,0.000
4.358,-0.465,0.005
4.360,-0.490,0.000
4.362,-0.405,-0.005
4.364,-0.350,-0.010
4.366,-0.320,-0.020
4.368,-0.160,-0.025
4.370,-0.175,-0.025
4.372,-0.330,-0.020
4.374,-0.490,-0.015
4.376,-0.535,-0.005
4.378,-0.430,0.000
4.380,-0.530,0.005
4.382,-0.455,0.000
4.384,-0.360,-0.005
4.386,-0.270,-0.015
4.388,-0.155,-0.025
4.390,-0.265,-0.035
4.392,-0.315,-0.040
4.394,-0.510,-0.035
4.396,-0.535,-0.030
4.398,-0.445,-0.020
4.400,-0.515,-0.010
4.402,-0.390,0.000
4.404,-0.350,0.005
4.406,-0.345,0.005
4.408,-0.120,0.005
4.410,-0.155,0.000
4.412,-0.300,-0.005
4.414,-0.510,-0.005
4.416,-0.595,-0.005
4.418,-0.465,-0.005
4.420,-0.480,0.000
4.422,-0.425,0.000
4.424,-0.325,0.005
4.426,-0.270,0.005
4.428,-0.105,0.005
4.430,-0.200,0.010
4.432,-0.320,0.010
4.434,-0.495,0.015
4.436,-0.525,0.020
4.438,-0.430,0.025
4.440,-0.395,0.030
4.442,-0.365,0.035
4.444,-0.250,0.040
4.446,-0.255,0.045
4.448,-0.055,0.050
4.450,-0.185,0.050
4.452,-0.240,0.060
4.454,-0.450,0.065
4.456,-0.430,0.080
4.458,-0.335,0.095
4.460,-0.335,0.110
4.462,-0.245,0.125
4.464,-0.175,0.135
4.466,-0.140,0.140
4.468,0.005,0.140
4.470,-0.085,0.140
4.472,-0.230,0.130
4.474,-0.365,0.120
4.476,-0.430,0.105
4.478,-0.350,0.095
4.480,-0.375,0.085
4.482,-0.285,0.080
4.484,-0.240,0.075
4.486,-0.120,0.075
4.488,0.000,0.080
4.490,-0.135,0.085
4.492,-0.210,0.090
4.494,-0.485,0.095
4.496,-0.415,0.095
4.498,-0.330,0.095
4.500,-0.325,0.090
4.502,-0.315,0.080
4.504,-0.250,0.065
4.506,-0.160,0.045
4.508,-0.065,0.020
4.510,-0.245,0.005
4.512,-0.290,-0.010
4.514,-0.555,-0.015
4.516,-0.545,-0.015
4.518,-0.430,-0.005
4.520,-0.405,0.005
4.522,-0.355,0.015
4.524,-0.280,0.025
4.526,-0.225,0.025
4.528,-0.135,0.015
4.530,-0.245,0.005
4.532,-0.325,-0.010
4.534,-0.550,-0.025
4.536,-0.485,-0.030
4.538,-0.455,-0.035
4.540,-0.445,-0.030
4.542,-0.355,-0.020
4.544,-0.280,-0.010
4.546,-0.150,0.000
4.548,-0.150,0.005
4.550,-0.250,0.000
4.552,-0.390,-0.005
4.554,-0.615,-0.015
4.556,-0.505,-0.025
4.558,-0.425,-0.035
4.560,-0.405,-0.040
4.562,-0.325,-0.045
4.564,-0.350,-0.045
4.566,-0.210,-0.050
4.568,-0.170,-0.065
4.570,-0.375,-0.085
4.572,-0.535,-0.110
4.574,-0.755,-0.145
4.576,-0.600,-0.170
4.578,-0.605,-0.185
4.580,-0.520,-0.175
4.582,-0.440,-0.135
4.584,-0.360,-0.060
4.586,-0.110,0.045
4.588,0.000,0.165
4.590,-0.035,0.285
4.592,-0.065,0.385
4.594,-0.045,0.445
4.596,0.315,0.455
4.598,0.445,0.415
4.600,-0.245,0.325
4.602,-0.150,0.200
4.604,-0.175,0.070
4.606,-0.290,-0.055
4.608,-0.535,-0.155
4.610,-0.675,-0.215
4.612,-0.585,-0.235
4.614,-0.605,-0.220
4.616,-0.560,-0.190
4.618,-0.445,-0.150
4.620,-0.430,-0.120
4.622,-0.265,-0.105
4.624,-0.280,-0.110
4.626,-0.400,-0.120
4.628,-0.575,-0.135
4.630,-0.675,-0.145
4.632,-0.485,-0.145
4.634,-0.510,-0.135
4.636,-0.475,-0.115
4.638,-0.345,-0.090
4.640,-0.310,-0.065
4.642,-0.185,-0.055
4.644,-0.155,-0.055
4.646,-0.370,-0.070
4.648,-0.560,-0.090
4.650,-0.635,-0.110
4.652,-0.435,-0.120
4.654,-0.560,-0.125
4.656,-0.445,-0.120
4.658,-0.370,-0.105
4.660,-0.345,-0.090
4.662,-0.175,-0.075
4.664,-0.210,-0.065
4.666,-0.305,-0.065
4.668,-0.530,-0.070
4.670,-0.600,-0.080
4.672,-0.490,-0.085
4.674,-0.495,-0.090
4.676,-0.405,-0.090
4.678,-0.345,-0.090
4.680,-0.310,-0.085
4.682,-0.190,-0.080
4.684,-0.220,-0.075
4.686,-0.325,-0.080
4.688,-0.540,-0.085
4.690,-0.565,-0.085
4.692,-0.465,-0.090
4.694,-0.470,-0.090
4.696,-0.435,-0.085
4.698,-0.325,-0.075
4.700,-0.315,-0.065
4.702,-0.115,-0.050
4.704,-0.175,-0.045
4.706,-0.265,-0.040
4.708,-0.495,-0.040
4.710,-0.480,-0.040
4.712,-0.460,-0.045
4.714,-0.440,-0.055
4.716,-0.410,-0.060
4.718,-0.280,-0.065
4.720,-0.255,-0.065
4.722,-0.130,-0.070
4.724,-0.225,-0.070
4.726,-0.285,-0.070
4.728,-0.535,-0.070
4.730,-0.520,-0.070
4.732,-0.435,-0.065
4.734,-0.420,-0.055
4.736,-0.335,-0.050
4.738,-0.315,-0.045
4.740,-0.190,-0.040
4.742,-0.070,-0.035
4.744,-0.195,-0.035
4.746,-0.260,-0.035
4.748,-0.470,-0.035
4.750,-0.475,-0.035
4.752,-0.445,-0.035
4.754,-0.340,-0.030
4.756,-0.305,-0.020
4.758,-0.230,-0.010
4.760,-0.095,0.000
4.762,-0.050,0.010
4.764,-0.175,0.015
4.766,-0.220,0.020
4.768,-0.415,0.030
4.770,-0.370,0.035
4.772,-0.330,0.045
4.774,-0.250,0.055
4.776,-0.200,0.065
4.778,-0.155,0.080
4.780,-0.080,0.090
4.782,0.035,0.095
4.784,-0.030,0.100
4.786,-0.105,0.100
4.788,-0.415,0.100
4.790,-0.315,0.100
4.792,-0.270,0.100
4.794,-0.195,0.105
4.796,-0.125,0.115
4.798,-0.075,0.125
4.800,0.020,0.140
4.802,0.130,0.150
4.804,-0.010,0.160
4.806,-0.080,0.165
4.808,-0.365,0.165
4.810,-0.185,0.170
4.812,-0.120,0.175
4.814,-0.140,0.180
4.816,-0.065,0.190
4.818,-0.025,0.200
4.820,0.145,0.210
4.822,0.225,0.220
4.824,0.080,0.230
4.826,-0.085,0.230
4.828,-0.280,0.230
4.830,-0.140,0.225
4.832,-0.135,0.220
4.834,-0.115,0.210
4.836,-0.005,0.205
4.838,0.025,0.200
4.840,0.200,0.195
4.842,0.145,0.190
4.844,-0.010,0.185
4.846,-0.175,0.180
4.848,-0.320,0.170
4.850,-0.210,0.160
4.852,-0.140,0.145
4.854,-0.140,0.135
4.856,-0.075,0.120
4.858,-0.055,0.110
4.860,0.045,0.100
4.862,0.060,0.090
4.864,-0.100,0.080
4.866,-0.270,0.070
4.868,-0.420,0.055
4.870,-0.310,0.045
4.872,-0.255,0.030
4.874,-0.260,0.015
4.876,-0.145,0.005
4.878,-0.130,0.000
4.880,-0.030,-0.005
4.882,-0.040,-0.010
4.884,-0.195,-0.010
4.886,-0.350,-0.010
4.888,-0.505,-0.010
4.890,-0.345,-0.015
4.892,-0.340,-0.020
4.894,-0.280,-0.025
4.896,-0.250,-0.030
4.898,-0.140,-0.035
4.900,-0.010,-0.035
4.902,-0.025,-0.030
4.904,-0.155,-0.025
4.906,-0.365,-0.020
4.908,-0.500,-0.020
4.910,-0.350,-0.020
4.912,-0.345,-0.025
4.914,-0.330,-0.030
4.916,-0.245,-0.040
4.918,-0.205,-0.050
4.920,-0.020,-0.055
4.922,-0.060,-0.055
4.924,-0.150,-0.055
4.926,-0.380,-0.050
4.928,-0.470,-0.040
4.930,-0.375,-0.035
4.932,-0.360,-0.030
4.934,-0.300,-0.030
4.936,-0.190,-0.030
4.938,-0.145,-0.035
4.940,-0.025,-0.045
4.942,-0.065,-0.050
4.944,-0.215,-0.050
4.946,-0.385,-0.050
4.948,-0.475,-0.050
4.950,-0.270,-0.050
4.952,-0.335,-0.050
4.954,-0.315,-0.050
4.956,-0.245,-0.055
4.958,-0.220,-0.060
4.960,-0.030,-0.065
4.962,-0.085,-0.070
4.964,-0.190,-0.065
4.966,-0.385,-0.060
4.968,-0.415,-0.055
4.970,-0.345,-0.045
4.972,-0.325,-0.035
4.974,-0.250,-0.030
4.976,-0.170,-0.030
4.978,-0.135,-0.035
4.980,-0.015,-0.045
4.982,-0.120,-0.055
4.984,-0.155,-0.060
4.986,-0.400,-0.065
4.988,-0.400,-0.060
4.990,-0.290,-0.055
4.992,-0.335,-0.045
4.994,-0.170,-0.035
4.996,-0.185,-0.030
4.998,-0.115,-0.025
5.000,0.040,-0.025
5.002,-0.085,-0.030
5.004,-0.180,-0.035
5.006,-0.375,-0.040
5.008,-0.415,-0.045
5.010,-0.265,-0.050
5.012,-0.265,-0.050
5.014,-0.180,-0.045
5.016,-0.205,-0.045
5.018,-0.130,-0.045
5.020,0.045,-0.050
5.022,-0.115,-0.050
5.024,-0.170,-0.055
5.026,-0.345,-0.055
5.028,-0.345,-0.050
5.030,-0.300,-0.050
5.032,-0.300,-0.045
5.034,-0.250,-0.040
5.036,-0.130,-0.035
5.038,-0.085,-0.035
5.040,0.045,-0.040
5.042,-0.075,-0.045
5.044,-0.160,-0.055
5.046,-0.400,-0.065
5.048,-0.395,-0.070
5.050,-0.345,-0.070
5.052,-0.300,-0.070
5.054,-0.205,-0.070
5.056,-0.080,-0.065
5.058,-0.060,-0.060
5.060,0.010,-0.055
5.062,-0.100,-0.055
5.064,-0.175,-0.060
5.066,-0.425,-0.060
5.068,-0.365,-0.065
5.070,-0.290,-0.065
5.072,-0.270,-0.070
5.074,-0.185,-0.065
5.076,-0.110,-0.065
5.078,-0.025,-0.060
5.080,0.000,-0.055
5.082,-0.100,-0.055
5.084,-0.180,-0.055
5.086,-0.385,-0.050
5.088,-0.290,-0.055
5.090,-0.285,-0.055
5.092,-0.255,-0.055
5.094,-0.200,-0.055
5.096,-0.085,-0.055
5.098,-0.005,-0.060
5.100,-0.015,-0.060
5.102,-0.105,-0.060
5.104,-0.185,-0.065
5.106,-0.415,-0.065
5.108,-0.280,-0.060
5.110,-0.290,-0.060
5.112,-0.270,-0.055
5.114,-0.160,-0.055
5.116,-0.110,-0.055
5.118,0.050,-0.055
5.120,0.010,-0.055
5.122,-0.085,-0.060
5.124,-0.270,-0.065
5.126,-0.425,-0.070
5.128,-0.295,-0.080
5.130,-0.280,-0.090
5.132,-0.320,-0.095
5.134,-0.150,-0.100
5.136,-0.120,-0.100
5.138,-0.015,-0.100
5.140,-0.030,-0.095
5.142,-0.090,-0.090
5.144,-0.260,-0.085
5.146,-0.445,-0.085
5.148,-0.280,-0.080
5.150,-0.280,-0.080
5.152,-0.240,-0.080
5.154,-0.115,-0.080
5.156,-0.145,-0.080
5.158,0.015,-0.080
5.160,-0.005,-0.080
5.162,-0.100,-0.075
5.164,-0.245,-0.065
5.166,-0.355,-0.060
5.168,-0.265,-0.050
5.170,-0.215,-0.040
5.172,-0.170,-0.030
5.174,-0.105,-0.025
5.176,-0.050,-0.020
5.178,0.120,-0.020
5.180,0.100,-0.020
5.182,-0.075,-0.020
5.184,-0.230,-0.025
5.186,-0.350,-0.030
5.188,-0.225,-0.035
5.190,-0.225,-0.035
5.192,-0.185,-0.035
5.194,-0.035,-0.030
5.196,-0.005,-0.025
5.198,0.125,-0.020
5.200,0.080,-0.010
5.202,-0.035,0.000
5.204,-0.185,0.010
5.206,-0.330,0.020
5.208,-0.160,0.025
5.210,-0.130,0.025
5.212,-0.110,0.030
5.214,-0.005,0.030
5.216,0.115,0.030
5.218,0.205,0.035
5.220,0.135,0.045
5.222,0.025,0.055
5.224,-0.135,0.065
5.226,-0.270,0.070
5.228,-0.070,0.070
5.230,-0.120,0.070
5.232,-0.035,0.060
5.234,0.020,0.050
5.236,0.040,0.040
5.238,0.190,0.030
5.240,0.150,0.025
5.242,0.045,0.025
5.244,-0.160,0.030
5.246,-0.265,0.035
5.248,-0.090,0.040
5.250,-0.110,0.040
5.252,-0.070,0.035
5.254,-0.005,0.020
5.256,-0.055,0.005
5.258,0.210,-0.015
5.260,0.115,-0.030
5.262,-0.050,-0.045
5.264,-0.240,-0.050
5.266,-0.275,-0.055
5.268,-0.245,-0.055
5.270,-0.210,-0.055
5.272,-0.160,-0.055
5.274,-0.055,-0.060
5.276,-0.040,-0.065
5.278,0.115,-0.075
5.280,0.025,-0.085
5.282,-0.040,-0.090
5.284,-0.300,-0.095
5.286,-0.290,-0.095
5.288,-0.190,-0.090
5.290,-0.190,-0.090
5.292,-0.255,-0.085
5.294,-0.110,-0.085
5.296,-0.025,-0.090
5.298,0.160,-0.090
5.300,0.025,-0.095
5.302,-0.045,-0.100
5.304,-0.320,-0.100
5.306,-0.320,-0.095
5.308,-0.200,-0.095
5.310,-0.170,-0.090
5.312,-0.105,-0.085
5.314,-0.090,-0.085
5.316,-0.080,-0.095
5.318,0.080,-0.105
5.320,-0.015,-0.125
5.322,-0.085,-0.145
5.324,-0.380,-0.165
5.326,-0.415,-0.190
5.328,-0.325,-0.210
5.330,-0.320,-0.220
5.332,-0.285,-0.225
5.334,-0.135,-0.215
5.336,-0.050,-0.190
5.338,0.015,-0.145
5.340,0.000,-0.075
5.342,0.020,0.020
5.344,-0.095,0.135
5.346,0.115,0.265
5.348,0.315,0.405
5.350,0.475,0.540
5.352,0.690,0.660
5.354,0.870,0.760
5.356,1.060,0.830
5.358,1.120,0.860
5.360,0.950,0.860
5.362,0.905,0.830
5.364,0.495,0.765
5.366,0.560,0.680
5.368,0.495,0.580
5.370,0.395,0.470
5.372,0.320,0.360
5.374,0.275,0.245
5.376,0.230,0.140
5.378,0.200,0.045
5.380,0.000,-0.035
5.382,-0.065,-0.095
5.384,-0.360,-0.140
5.386,-0.315,-0.165
5.388,-0.265,-0.180
5.390,-0.245,-0.180
5.392,-0.150,-0.180
5.394,-0.105,-0.175
5.396,0.020,-0.175
5.398,-0.045,-0.180
5.400,-0.105,-0.180
5.402,-0.180,-0.185
5.404,-0.400,-0.185
5.406,-0.300,-0.180
5.408,-0.240,-0.175
5.410,-0.150,-0.160
5.412,-0.070,-0.145
5.414,-0.070,-0.130
5.416,0.090,-0.115
5.418,0.130,-0.105
5.420,-0.065,-0.100
5.422,-0.130,-0.095
5.424,-0.300,-0.095
5.426,-0.190,-0.095
5.428,-0.190,-0.095
5.430,-0.140,-0.090
5.432,-0.005,-0.085
5.434,0.035,-0.085
5.436,0.115,-0.080
5.438,0.140,-0.080
5.440,-0.010,-0.080
5.442,-0.165,-0.080
5.444,-0.310,-0.080
5.446,-0.115,-0.075
5.448,-0.080,-0.070
5.450,-0.140,-0.065
5.452,0.010,-0.060
5.454,0.005,-0.050
5.456,0.240,-0.040
5.458,0.180,-0.035
5.460,0.020,-0.035
5.462,-0.110,-0.030
5.464,-0.245,-0.030
5.466,-0.135,-0.030
5.468,-0.065,-0.030
5.470,-0.010,-0.030
5.472,0.065,-0.030
5.474,0.020,-0.030
5.476,0.215,-0.030
5.478,0.170,-0.025
5.480,0.045,-0.025
5.482,-0.125,-0.025
5.484,-0.210,-0.020
5.486,-0.085,-0.020
5.488,-0.090,-0.020
5.490,-0.060,-0.020
5.492,0.130,-0.020
5.494,0.135,-0.020
5.496,0.180,-0.015
5.498,0.230,-0.015
5.500,0.110,-0.010
5.502,-0.110,-0.005
5.504,-0.185,0.000
5.506,-0.025,0.005
5.508,-0.045,0.010
5.510,-0.005,0.015
5.512,0.080,0.020
5.514,0.080,0.020
5.516,0.290,0.025
5.518,0.265,0.025
5.520,0.145,0.025
5.522,-0.040,0.030
5.524,-0.160,0.030
5.526,-0.055,0.035
5.528,0.030,0.035
5.530,0.075,0.035
5.532,0.125,0.035
5.534,0.105,0.035
5.536,0.310,0.030
5.538,0.230,0.030
5.540,0.115,0.025
5.542,-0.060,0.030
5.544,-0.100,0.035
5.546,0.030,0.040
5.548,0.010,0.055
5.550,0.075,0.070
5.552,0.165,0.085
5.554,0.165,0.100
5.556,0.410,0.110
5.558,0.355,0.120
5.560,0.240,0.125
5.562,-0.015,0.130
5.564,0.030,0.130
5.566,0.125,0.135
5.568,0.125,0.140
5.570,0.165,0.145
5.572,0.265,0.155
5.574,0.295,0.165
5.576,0.460,0.175
5.578,0.395,0.185
5.580,0.320,0.195
5.582,0.085,0.205
5.584,0.100,0.210
5.586,0.250,0.215
5.588,0.230,0.215
5.590,0.220,0.220
5.592,0.305,0.225
5.594,0.435,0.230
5.596,0.540,0.235
5.598,0.440,0.240
5.600,0.330,0.245
5.602,0.140,0.245
5.604,0.185,0.245
5.606,0.160,0.245
5.608,0.195,0.240
5.610,0.250,0.230
5.612,0.340,0.220
5.614,0.390,0.205
5.616,0.480,0.190
5.618,0.390,0.180
5.620,0.275,0.165
5.622,0.015,0.155
5.624,0.070,0.150
5.626,0.175,0.140
5.628,0.095,0.135
5.630,0.160,0.125
5.632,0.270,0.120
5.634,0.310,0.110
5.636,0.355,0.095
5.638,0.315,0.080
5.640,0.195,0.065
5.642,-0.130,0.050
5.644,-0.050,0.035
5.646,0.020,0.025
5.648,0.025,0.015
5.650,0.070,0.005
5.652,0.120,0.005
5.654,0.230,0.000
5.656,0.320,0.000
5.658,0.190,0.000
5.660,0.080,0.000
5.662,-0.185,-0.005
5.664,-0.020,-0.010
5.666,-0.055,-0.015
5.668,-0.045,-0.025
5.670,0.045,-0.030
5.672,0.125,-0.035
5.674,0.250,-0.040
5.676,0.240,-0.045
5.678,0.105,-0.045
5.680,0.000,-0.050
5.682,-0.195,-0.050
5.684,-0.080,-0.050
5.686,-0.100,-0.050
5.688,-0.045,-0.050
5.690,0.035,-0.050
5.692,0.090,-0.055
5.694,0.220,-0.060
5.696,0.280,-0.065
5.698,0.120,-0.065
5.700,0.010,-0.065
5.702,-0.245,-0.065
5.704,-0.125,-0.060
5.706,-0.020,-0.055
5.708,-0.035,-0.055
5.710,0.040,-0.050
5.712,0.060,-0.050
5.714,0.285,-0.050
5.716,0.270,-0.050
5.718,0.110,-0.050
5.720,-0.065,-0.050
5.722,-0.230,-0.045
5.724,-0.020,-0.045
5.726,-0.055,-0.040
5.728,-0.010,-0.040
5.730,0.105,-0.035
5.732,0.155,-0.035
5.734,0.260,-0.035
5.736,0.255,-0.035
5.738,0.105,-0.035
5.740,-0.025,-0.035
5.742,-0.155,-0.035
5.744,-0.060,-0.040
5.746,-0.055,-0.045
5.748,-0.035,-0.050
5.750,0.080,-0.055
5.752,0.115,-0.060
5.754,0.255,-0.060
5.756,0.215,-0.060
5.758,0.110,-0.060
5.760,-0.070,-0.050
5.762,-0.180,-0.045
5.764,-0.030,-0.035
5.766,-0.020,-0.030
5.768,0.015,-0.025
5.770,0.080,-0.030
5.772,0.125,-0.035
5.774,0.300,-0.040
5.776,0.245,-0.050
5.778,0.120,-0.055
5.780,-0.040,-0.055
5.782,-0.245,-0.050
5.784,-0.040,-0.045
5.786,-0.040,-0.040
5.788,0.070,-0.035
5.790,0.085,-0.030
5.792,0.170,-0.030
5.794,0.350,-0.030
5.796,0.230,-0.030
5.798,0.105,-0.030
5.800,-0.050,-0.030
5.802,-0.125,-0.030
5.804,0.020,-0.030
5.806,-0.055,-0.030
5.808,0.010,-0.030
5.810,0.120,-0.030
5.812,0.195,-0.030
5.814,0.310,-0.030
5.816,0.245,-0.035
5.818,0.070,-0.035
5.820,-0.060,-0.035
5.822,-0.165,-0.035
5.824,-0.010,-0.035
5.826,-0.010,-0.040
5.828,0.095,-0.045
5.830,0.125,-0.050
5.832,0.135,-0.055
5.834,0.230,-0.060
5.836,0.220,-0.065
5.838,0.125,-0.060
5.840,-0.080,-0.055
5.842,-0.125,-0.050
5.844,0.000,-0.045
5.846,-0.035,-0.040
5.848,0.035,-0.040
5.850,0.120,-0.045
5.852,0.095,-0.050
5.854,0.310,-0.060
5.856,0.185,-0.065
5.858,0.155,-0.070
5.860,-0.130,-0.070
5.862,-0.090,-0.065
5.864,-0.010,-0.050
5.866,-0.005,-0.040
5.868,0.045,-0.030
5.870,0.145,-0.025
5.872,0.160,-0.020
5.874,0.305,-0.025
5.876,0.260,-0.035
5.878,0.145,-0.045
5.880,-0.140,-0.055
5.882,-0.115,-0.065
5.884,-0.030,-0.065
5.886,-0.015,-0.065
5.888,0.035,-0.060
5.890,0.115,-0.055
5.892,0.195,-0.050
5.894,0.270,-0.045
5.896,0.190,-0.045
5.898,0.120,-0.045
5.900,-0.130,-0.050
5.902,-0.035,-0.050
5.904,0.030,-0.050
5.906,-0.030,-0.050
5.908,0.035,-0.045
5.910,0.125,-0.040
5.912,0.235,-0.035
5.914,0.335,-0.030
5.916,0.230,-0.025
5.918,0.125,-0.025
5.920,-0.120,-0.025
5.922,-0.025,-0.025
5.924,0.035,-0.035
5.926,0.000,-0.040
5.928,0.015,-0.050
5.930,0.140,-0.055
5.932,0.230,-0.060
5.934,0.295,-0.060
5.936,0.215,-0.055
5.938,0.135,-0.050
5.940,-0.135,-0.040
5.942,-0.015,-0.030
5.944,0.005,-0.025
5.946,-0.005,-0.025
5.948,0.065,-0.025
5.950,0.170,-0.030
5.952,0.250,-0.040
5.954,0.305,-0.045
5.956,0.200,-0.045
5.958,0.130,-0.045
5.960,-0.150,-0.035
5.962,-0.015,-0.030
5.964,0.055,-0.020
5.966,0.085,-0.010
5.968,0.060,-0.010
5.970,0.155,-0.015
5.972,0.280,-0.020
5.974,0.320,-0.025
5.976,0.205,-0.035
5.978,0.070,-0.035
5.980,-0.150,-0.035
5.982,0.015,-0.030
5.984,0.020,-0.020
5.986,0.035,-0.005
5.988,0.165,0.005
5.990,0.225,0.010
5.992,0.355,0.010
5.994,0.325,0.005
5.996,0.205,0.000
5.998,0.050,-0.005
6.000,-0.125,-0.005
6.002,0.030,0.000
6.004,0.045,0.005
6.006,0.105,0.020
6.008,0.230,0.030
6.010,0.255,0.045
6.012,0.400,0.055
6.014,0.390,0.065
6.016,0.290,0.070
6.018,0.095,0.070
6.020,-0.090,0.065
6.022,0.090,0.060
6.024,0.105,0.050
6.026,0.105,0.040
6.028,0.195,0.030
6.030,0.210,0.025
6.032,0.385,0.020
6.034,0.395,0.015
6.036,0.220,0.015
6.038,0.050,0.010
6.040,-0.065,0.010
6.042,0.025,0.005
6.044,0.040,0.000
6.046,0.110,-0.010
6.048,0.145,-0.020
6.050,0.170,-0.030
6.052,0.275,-0.040
6.054,0.300,-0.050
6.056,0.155,-0.055
6.058,-0.010,-0.055
6.060,-0.170,-0.060
6.062,-0.010,-0.065
6.064,-0.055,-0.075
6.066,-0.035,-0.085
6.068,0.090,-0.100
6.070,0.105,-0.110
6.072,0.260,-0.120
6.074,0.275,-0.125
6.076,0.085,-0.120
6.078,-0.160,-0.110
6.080,-0.205,-0.100
6.082,-0.005,-0.085
6.084,-0.025,-0.070
6.086,0.025,-0.065
6.088,0.090,-0.070
6.090,0.110,-0.075
6.092,0.280,-0.090
6.094,0.205,-0.100
6.096,0.105,-0.110
6.098,-0.115,-0.110
6.100,-0.185,-0.110
6.102,-0.035,-0.100
6.104,-0.035,-0.090
6.106,0.005,-0.085
6.108,0.090,-0.090
6.110,0.075,-0.100
6.112,0.240,-0.120
6.114,0.155,-0.150
6.116,0.015,-0.175
6.118,-0.225,-0.205
6.120,-0.295,-0.220
6.122,-0.135,-0.230
6.124,-0.180,-0.225
6.126,-0.075,-0.210
6.128,0.020,-0.170
6.130,0.055,-0.115
6.132,0.260,-0.040
6.134,0.325,0.055
6.136,0.385,0.165
6.138,0.335,0.295
6.140,0.415,0.435
6.142,0.670,0.565
6.144,0.820,0.685
6.146,0.950,0.785
6.148,1.090,0.845
6.150,1.095,0.870
6.152,1.230,0.850
6.154,1.090,0.800
6.156,0.875,0.715
6.158,0.585,0.615
6.160,0.490,0.505
6.162,0.470,0.390
6.164,0.350,0.280
6.166,0.270,0.180
6.168,0.160,0.090
6.170,0.185,0.015
6.172,0.340,-0.050
6.174,0.215,-0.100
6.176,0.035,-0.145
6.178,-0.260,-0.170
6.180,-0.245,-0.190
6.182,-0.130,-0.200
6.184,-0.140,-0.200
6.186,-0.095,-0.200
6.188,-0.035,-0.195
6.190,0.095,-0.185
6.192,0.170,-0.180
6.194,0.075,-0.175
6.196,0.055,-0.170
6.198,-0.200,-0.160
6.200,-0.165,-0.150
6.202,-0.100,-0.140
6.204,-0.030,-0.130
6.206,0.015,-0.115
6.208,0.050,-0.105
6.210,0.180,-0.100
6.212,0.280,-0.095
6.214,0.125,-0.095
6.216,0.120,-0.095
6.218,-0.185,-0.090
6.220,-0.085,-0.090
6.222,-0.015,-0.090
6.224,0.000,-0.090
6.226,0.020,-0.090
6.228,0.120,-0.090
6.230,0.185,-0.095
6.232,0.250,-0.095
6.234,0.125,-0.095
6.236,0.035,-0.095
6.238,-0.190,-0.085
6.240,-0.065,-0.075
6.242,0.030,-0.060
6.244,0.055,-0.045
6.246,0.075,-0.035
6.248,0.215,-0.030
6.250,0.290,-0.030
6.252,0.190,-0.040
6.254,0.195,-0.050
6.256,0.115,-0.060
6.258,-0.130,-0.070
6.260,-0.060,-0.070
6.262,-0.030,-0.070
6.264,0.040,-0.060
6.266,0.135,-0.050
6.268,0.135,-0.040
6.270,0.295,-0.035
6.272,0.315,-0.030
6.274,0.170,-0.030
6.276,0.055,-0.035
6.278,-0.140,-0.035
6.280,-0.025,-0.035
6.282,0.025,-0.030
6.284,0.065,-0.025
6.286,0.160,-0.015
6.288,0.190,0.000
6.290,0.345,0.010
6.292,0.325,0.015
6.294,0.220,0.020
6.296,0.090,0.020
6.298,-0.140,0.020
6.300,0.055,0.015
6.302,0.070,0.015
6.304,0.065,0.010
6.306,0.165,0.015
6.308,0.260,0.015
6.310,0.360,0.020
6.312,0.350,0.020
6.314,0.175,0.025
6.316,0.090,0.030
6.318,-0.065,0.035
6.320,0.085,0.045
6.322,0.145,0.050
6.324,0.130,0.060
6.326,0.230,0.070
6.328,0.275,0.075
6.330,0.435,0.085
6.332,0.405,0.085
6.334,0.265,0.085
6.336,0.100,0.085
6.338,-0.045,0.080
6.340,0.090,0.075
6.342,0.080,0.070
6.344,0.165,0.070
6.346,0.220,0.070
6.348,0.280,0.080
6.350,0.460,0.085
6.352,0.385,0.095
6.354,0.295,0.100
6.356,0.080,0.100
6.358,-0.055,0.100
6.360,0.140,0.090
6.362,0.120,0.080
6.364,0.220,0.075
6.366,0.195,0.065
6.368,0.315,0.065
6.370,0.405,0.075
6.372,0.445,0.090
6.374,0.355,0.110
6.376,0.135,0.130
6.378,0.005,0.150
6.380,0.145,0.165
6.382,0.170,0.170
6.384,0.255,0.175
6.386,0.335,0.170
6.388,0.380,0.160
6.390,0.490,0.155
6.392,0.450,0.150
6.394,0.335,0.150
6.396,0.145,0.155
6.398,0.090,0.165
6.400,0.225,0.170
6.402,0.185,0.175
6.404,0.235,0.170
6.406,0.295,0.165
6.408,0.325,0.150
6.410,0.510,0.135
6.412,0.385,0.120
6.414,0.280,0.110
6.416,0.110,0.105
6.418,0.035,0.105
6.420,0.135,0.105
6.422,0.150,0.105
6.424,0.160,0.105
6.426,0.235,0.095
6.428,0.255,0.080
6.430,0.400,0.060
6.432,0.320,0.040
6.434,0.175,0.020
6.436,-0.040,0.000
6.438,-0.015,-0.015
6.440,-0.055,-0.020
6.442,0.015,-0.020
6.444,0.060,-0.020
6.446,0.135,-0.015
6.448,0.155,-0.010
6.450,0.365,-0.015
6.452,0.215,-0.020
6.454,0.100,-0.025
6.456,-0.090,-0.035
6.458,-0.055,-0.050
6.460,-0.005,-0.060
6.462,-0.035,-0.065
6.464,-0.025,-0.070
6.466,0.085,-0.075
6.468,0.175,-0.070
6.470,0.280,-0.070
6.472,0.190,-0.065
6.474,0.070,-0.060
6.476,-0.135,-0.055
6.478,-0.090,-0.050
6.480,-0.030,-0.050
6.482,-0.015,-0.050
6.484,0.005,-0.055
6.486,0.125,-0.060
6.488,0.175,-0.065
6.490,0.280,-0.065
6.492,0.140,-0.070
6.494,0.115,-0.065
6.496,-0.205,-0.060
6.498,-0.055,-0.050
6.500,-0.010,-0.040
6.502,0.060,-0.025
6.504,0.070,-0.020
6.506,0.120,-0.010
6.508,0.250,-0.010
6.510,0.315,-0.010
6.512,0.180,-0.015
6.514,0.125,-0.015
6.516,-0.100,-0.020
6.518,-0.030,-0.025
6.520,0.000,-0.025
6.522,0.015,-0.025
6.524,0.020,-0.020
6.526,0.155,-0.020
6.528,0.240,-0.020
6.530,0.340,-0.020
6.532,0.195,-0.020
6.534,0.060,-0.020
6.536,-0.125,-0.015
6.538,-0.040,-0.015
6.540,-0.025,-0.010
6.542,-0.015,-0.010
6.544,0.145,-0.005
6.546,0.165,-0.005
6.548,0.320,0.000
6.550,0.335,0.000
6.552,0.170,0.000
6.554,0.030,-0.005
6.556,-0.165,-0.010
6.558,-0.045,-0.015
6.560,0.030,-0.020
6.562,-0.005,-0.025
6.564,0.055,-0.030
6.566,0.165,-0.030
6.568,0.320,-0.030
6.570,0.290,-0.030
6.572,0.090,-0.025
6.574,-0.050,-0.020
6.576,-0.180,-0.015
6.578,-0.020,-0.015
6.580,0.055,-0.015
6.582,0.015,-0.020
6.584,0.110,-0.025
6.586,0.085,-0.030
6.588,0.255,-0.040
6.590,0.295,-0.040
6.592,0.130,-0.035
6.594,-0.050,-0.025
6.596,-0.185,-0.015
6.598,-0.025,-0.005
6.600,-0.020,0.005
6.602,0.055,0.010
6.604,0.160,0.010
6.606,0.150,0.005
6.608,0.270,0.000
6.610,0.265,-0.010
6.612,0.160,-0.020
6.614,-0.065,-0.025
6.616,-0.205,-0.030
6.618,-0.030,-0.025
6.620,-0.025,-0.025
6.622,-0.010,-0.025
6.624,0.105,-0.020
6.626,0.135,-0.020
6.628,0.315,-0.025
6.630,0.225,-0.025
6.632,0.130,-0.025
6.634,-0.075,-0.025
6.636,-0.205,-0.020
6.638,-0.030,-0.020
6.640,0.000,-0.020
6.642,0.015,-0.020
6.644,0.100,-0.020
6.646,0.135,-0.025
6.648,0.265,-0.030
6.650,0.200,-0.035
6.652,0.105,-0.035
6.654,-0.070,-0.035
6.656,-0.210,-0.035
6.658,-0.055,-0.035
6.660,-0.075,-0.035
6.662,-0.040,-0.040
6.664,0.085,-0.040
6.666,0.105,-0.050
6.668,0.250,-0.055
6.670,0.220,-0.060
6.672,0.055,-0.065
6.674,-0.140,-0.065
6.676,-0.220,-0.065
6.678,-0.060,-0.060
6.680,-0.080,-0.055
6.682,-0.055,-0.055
6.684,0.090,-0.050
6.686,0.115,-0.050
6.688,0.285,-0.050
6.690,0.175,-0.050
6.692,0.060,-0.050
6.694,-0.180,-0.045
6.696,-0.150,-0.040
6.698,-0.030,-0.035
6.700,-0.050,-0.030
6.702,-0.025,-0.030
6.704,0.075,-0.030
6.706,0.105,-0.030
6.708,0.235,-0.035
6.710,0.185,-0.040
6.712,0.120,-0.040
6.714,-0.120,-0.045
6.716,-0.120,-0.045
6.718,-0.070,-0.040
6.720,-0.075,-0.040
6.722,-0.045,-0.040
6.724,0.060,-0.045
6.726,0.055,-0.045
6.728,0.255,-0.050
6.730,0.185,-0.050
6.732,0.080,-0.055
6.734,-0.170,-0.050
6.736,-0.165,-0.045
6.738,-0.070,-0.040
6.740,-0.075,-0.035
6.742,-0.015,-0.035
6.744,0.050,-0.035
6.746,0.090,-0.045
6.748,0.215,-0.050
6.750,0.135,-0.060
6.752,0.080,-0.065
6.754,-0.185,-0.065
6.756,-0.140,-0.060
6.758,-0.095,-0.050
6.760,-0.045,-0.040
6.762,0.000,-0.030
6.764,0.095,-0.025
6.766,0.120,-0.025
6.768,0.245,-0.030
6.770,0.105,-0.035
6.772,0.075,-0.040
6.774,-0.200,-0.045
6.776,-0.125,-0.045
6.778,-0.085,-0.035
6.780,0.005,-0.020
6.782,0.085,-0.005
6.784,0.120,0.010
6.786,0.195,0.020
6.788,0.260,0.020
6.790,0.145,0.020
6.792,0.105,0.015
6.794,-0.160,0.010
6.796,-0.080,0.005
6.798,-0.020,0.005
6.800,0.030,0.015
6.802,0.040,0.030
6.804,0.190,0.045
6.806,0.280,0.060
6.808,0.300,0.075
6.810,0.215,0.085
6.812,0.170,0.090
6.814,-0.095,0.090
6.816,-0.040,0.090
6.818,0.045,0.085
6.820,0.150,0.080
6.822,0.135,0.075
6.824,0.125,0.070
6.826,0.245,0.065
6.828,0.315,0.065
6.830,0.150,0.060
6.832,0.060,0.050
6.834,-0.190,0.045
6.836,-0.050,0.040
6.838,0.025,0.035
6.840,0.010,0.030
6.842,0.130,0.025
6.844,0.090,0.025
6.846,0.235,0.025
6.848,0.250,0.025
6.850,0.145,0.020
6.852,-0.065,0.015
6.854,-0.215,0.005
6.856,-0.080,-0.010
6.858,-0.095,-0.020
6.860,-0.115,-0.030
6.862,0.030,-0.040
6.864,0.080,-0.050
6.866,0.175,-0.050
6.868,0.215,-0.050
6.870,0.040,-0.050
6.872,-0.170,-0.050
6.874,-0.290,-0.045
6.876,-0.120,-0.045
6.878,-0.165,-0.050
6.880,-0.090,-0.050
6.882,0.050,-0.055
6.884,0.020,-0.060
6.886,0.165,-0.065
6.888,0.115,-0.065
6.890,0.020,-0.070
6.892,-0.130,-0.070
6.894,-0.305,-0.070
6.896,-0.220,-0.070
6.898,-0.175,-0.075
6.900,-0.115,-0.080
6.902,0.000,-0.080
6.904,0.015,-0.085
6.906,0.165,-0.090
6.908,0.140,-0.090
6.910,-0.045,-0.090
6.912,-0.205,-0.095
6.914,-0.365,-0.100
6.916,-0.220,-0.115
6.918,-0.215,-0.135
6.920,-0.250,-0.155
6.922,-0.130,-0.180
6.924,-0.110,-0.190
6.926,0.030,-0.190
6.928,0.020,-0.165
6.930,-0.085,-0.115
6.932,-0.135,-0.035
6.934,-0.170,0.070
6.936,0.100,0.200
6.938,0.230,0.340
6.940,0.470,0.480
6.942,0.730,0.615
6.944,0.885,0.730
6.946,1.095,0.820
6.948,1.135,0.885
6.950,0.935,0.910
6.952,0.775,0.900
6.954,0.640,0.860
6.956,0.695,0.785
6.958,0.545,0.685
6.960,0.520,0.565
6.962,0.490,0.435
6.964,0.395,0.300
6.966,0.375,0.175
6.968,0.125,0.065
6.970,-0.035,-0.020
6.972,-0.280,-0.085
6.974,-0.340,-0.130
6.976,-0.240,-0.155
6.978,-0.240,-0.165
6.980,-0.245,-0.170
6.982,-0.175,-0.175
6.984,-0.180,-0.180
6.986,0.010,-0.190
6.988,-0.050,-0.195
6.990,-0.160,-0.200
6.992,-0.355,-0.195
6.994,-0.405,-0.190
6.996,-0.290,-0.175
6.998,-0.245,-0.155
7.000,-0.180,-0.140
7.002,-0.095,-0.130
7.004,-0.105,-0.125
7.006,0.085,-0.125
7.008,-0.010,-0.135
7.010,-0.205,-0.140
7.012,-0.295,-0.150
7.014,-0.300,-0.150
7.016,-0.235,-0.145
7.018,-0.215,-0.130
7.020,-0.220,-0.115
7.022,-0.095,-0.105
7.024,-0.055,-0.095
7.026,0.115,-0.095
7.028,-0.005,-0.100
7.030,-0.105,-0.115
7.032,-0.335,-0.130
7.034,-0.345,-0.140
7.036,-0.300,-0.150
7.038,-0.270,-0.145
7.040,-0.165,-0.135
7.042,-0.035,-0.120
7.044,-0.015,-0.100
7.046,0.095,-0.085
7.048,-0.015,-0.075
7.050,-0.120,-0.075
7.052,-0.335,-0.080
7.054,-0.285,-0.090
7.056,-0.225,-0.100
7.058,-0.225,-0.110
7.060,-0.160,-0.115
7.062,-0.060,-0.115
7.064,-0.050,-0.110
7.066,0.070,-0.100
7.068,-0.040,-0.085
7.070,-0.085,-0.080
7.072,-0.340,-0.075
7.074,-0.265,-0.070
7.076,-0.185,-0.075
7.078,-0.200,-0.080
7.080,-0.150,-0.090
7.082,-0.065,-0.090
7.084,0.000,-0.090
7.086,0.120,-0.085
7.088,-0.025,-0.080
7.090,-0.095,-0.070
7.092,-0.365,-0.060
7.094,-0.270,-0.055
7.096,-0.180,-0.050
7.098,-0.175,-0.055
7.100,-0.125,-0.055
7.102,0.000,-0.060
7.104,0.070,-0.060
7.106,0.100,-0.060
7.108,-0.075,-0.055
7.110,-0.080,-0.045
7.112,-0.320,-0.035
7.114,-0.215,-0.025
7.116,-0.160,-0.010
7.118,-0.115,0.000
7.120,-0.060,0.005
7.122,-0.030,0.005
7.124,0.120,0.005
7.126,0.190,0.000
7.128,-0.010,0.000
7.130,-0.125,0.000
7.132,-0.305,0.005
7.134,-0.170,0.015
7.136,-0.085,0.025
7.138,-0.065,0.045
7.140,-0.010,0.060
7.142,0.015,0.075
7.144,0.185,0.085
7.146,0.175,0.095
7.148,0.110,0.095
7.150,-0.025,0.100
7.152,-0.155,0.095
7.154,-0.110,0.095
7.156,-0.045,0.095
7.158,-0.035,0.100
7.160,0.065,0.105
7.162,0.135,0.115
7.164,0.230,0.125
7.166,0.225,0.135
7.168,0.145,0.145
7.170,0.005,0.150
7.172,-0.180,0.160
7.174,-0.075,0.165
7.176,0.090,0.175
7.178,0.060,0.185
7.180,0.185,0.195
7.182,0.180,0.205
7.184,0.325,0.210
7.186,0.325,0.220
7.188,0.215,0.225
7.190,0.035,0.225
7.192,-0.115,0.225
7.194,0.040,0.220
7.196,0.085,0.215
7.198,0.045,0.210
7.200,0.125,0.210
7.202,0.195,0.205
7.204,0.360,0.205
7.206,0.280,0.205
7.208,0.135,0.205
7.210,-0.010,0.200
7.212,-0.105,0.195
7.214,-0.035,0.185
7.216,-0.045,0.170
7.218,0.045,0.155
7.220,0.105,0.140
7.222,0.070,0.130
7.224,0.240,0.120
7.226,0.195,0.110
7.228,0.075,0.105
7.230,-0.155,0.100
7.232,-0.275,0.095
7.234,-0.105,0.085
7.236,-0.120,0.080
7.238,-0.025,0.070
7.240,0.000,0.060
7.242,-0.060,0.055
7.244,0.205,0.045
7.246,0.130,0.045
7.248,0.030,0.040
7.250,-0.250,0.040
7.252,-0.350,0.035
7.254,-0.155,0.030
7.256,-0.185,0.025
7.258,-0.095,0.015
7.260,-0.025,0.005
7.262,-0.060,-0.005
7.264,0.065,-0.010
7.266,0.065,-0.010
7.268,-0.005,-0.010
7.270,-0.235,0.000
7.272,-0.270,0.010
7.274,-0.165,0.020
7.276,-0.195,0.025
7.278,-0.110,0.020
7.280,-0.030,0.015
7.282,-0.085,0.005
7.284,0.095,-0.005
7.286,0.005,-0.015
7.288,-0.025,-0.020
7.290,-0.255,-0.015
7.292,-0.300,-0.010
7.294,-0.180,-0.005
7.296,-0.200,0.005
7.298,-0.155,0.010
7.300,-0.030,0.010
7.302,-0.060,0.010
7.304,0.090,0.000
7.306,-0.005,-0.005
7.308,-0.040,-0.015
7.310,-0.280,-0.020
7.312,-0.270,-0.015
7.314,-0.200,-0.010
7.316,-0.190,0.000
7.318,-0.135,0.015
7.320,-0.010,0.025
7.322,-0.005,0.030
7.324,0.095,0.030
7.326,0.030,0.030
7.328,-0.060,0.020
7.330,-0.290,0.010
7.332,-0.265,0.005
7.334,-0.205,0.000
7.336,-0.145,0.000
7.338,-0.140,0.005
7.340,-0.030,0.010
7.342,0.035,0.020
7.344,0.130,0.025
7.346,0.000,0.030
7.348,-0.095,0.035
7.350,-0.315,0.030
7.352,-0.210,0.025
7.354,-0.190,0.020
7.356,-0.165,0.010
7.358,-0.180,0.005
7.360,-0.090,0.000
7.362,0.020,0.000
7.364,0.110,0.000
7.366,0.000,0.005
7.368,-0.060,0.010
7.370,-0.325,0.015
7.372,-0.255,0.020
7.374,-0.185,0.020
7.376,-0.175,0.020
7.378,-0.155,0.015
7.380,-0.100,0.005
7.382,0.010,0.000
7.384,0.105,-0.005
7.386,-0.035,-0.010
7.388,-0.095,-0.010
7.390,-0.360,-0.010
7.392,-0.235,-0.005
7.394,-0.225,0.005
7.396,-0.220,0.010
7.398,-0.100,0.015
7.400,-0.045,0.020
7.402,0.040,0.020
7.404,0.105,0.015
7.406,-0.050,0.010
7.408,-0.135,0.005
7.410,-0.340,0.000
7.412,-0.260,0.000
7.414,-0.220,-0.005
7.416,-0.220,-0.005
7.418,-0.180,0.000
7.420,-0.025,0.000
7.422,0.070,0.000
7.424,0.100,0.000
7.426,-0.075,0.000
7.428,-0.170,0.000
7.430,-0.395,-0.005
7.432,-0.235,-0.005
7.434,-0.215,-0.010
7.436,-0.260,-0.015
7.438,-0.135,-0.015
7.440,-0.070,-0.015
7.442,0.040,-0.015
7.444,0.090,-0.015
7.446,-0.030,-0.010
7.448,-0.225,-0.005
7.450,-0.410,0.000
7.452,-0.295,0.000
7.454,-0.225,0.005
7.456,-0.130,0.000
7.458,-0.105,0.000
7.460,-0.060,0.000
7.462,0.095,-0.005
7.464,0.030,-0.005
7.466,-0.105,0.000
7.468,-0.285,0.000
7.470,-0.395,0.000
7.472,-0.260,0.000
7.474,-0.245,0.000
7.476,-0.175,-0.005
7.478,-0.070,-0.010
7.480,-0.105,-0.015
7.482,0.040,-0.015
7.484,0.035,-0.015
7.486,-0.080,-0.005
7.488,-0.255,0.005
7.490,-0.375,0.015
7.492,-0.210,0.025
7.494,-0.195,0.030
7.496,-0.185,0.035
7.498,-0.120,0.030
7.500,-0.060,0.020
7.502,0.120,0.015
7.504,0.025,0.005
7.506,-0.065,0.000
7.508,-0.255,0.000
7.510,-0.395,0.000
7.512,-0.240,0.005
7.514,-0.275,0.010
7.516,-0.165,0.010
7.518,-0.075,0.010
7.520,-0.060,0.005
7.522,0.060,0.005
7.524,0.085,0.000
7.526,-0.050,0.000
7.528,-0.245,0.005
7.530,-0.445,0.010
7.532,-0.240,0.015
7.534,-0.240,0.020
7.536,-0.155,0.025
7.538,-0.110,0.020
7.540,-0.085,0.015
7.542,0.095,0.005
7.544,0.060,0.000
7.546,-0.080,-0.010
7.548,-0.305,-0.010
7.550,-0.345,-0.010
7.552,-0.245,-0.005
7.554,-0.255,0.000
7.556,-0.205,0.000
7.558,-0.140,0.000
7.560,-0.115,-0.005
7.562,0.075,-0.015
7.564,0.000,-0.025
7.566,-0.120,-0.035
7.568,-0.330,-0.040
7.570,-0.300,-0.045
7.572,-0.300,-0.040
7.574,-0.315,-0.040
7.576,-0.235,-0.035
7.578,-0.135,-0.030
7.580,-0.105,-0.025
7.582,0.060,-0.020
7.584,-0.005,-0.020
7.586,-0.095,-0.020
7.588,-0.350,-0.015
7.590,-0.315,-0.015
7.592,-0.275,-0.020
7.594,-0.255,-0.020
7.596,-0.215,-0.025
7.598,-0.115,-0.025
7.600,-0.075,-0.035
7.602,0.035,-0.035
7.604,-0.055,-0.040
7.606,-0.125,-0.040
7.608,-0.365,-0.035
7.610,-0.325,-0.030
7.612,-0.250,-0.025
7.614,-0.215,-0.020
7.616,-0.210,-0.015
7.618,-0.100,-0.010
7.620,-0.025,-0.010
7.622,0.050,-0.010
7.624,-0.040,-0.010
7.626,-0.075,-0.005
7.628,-0.360,0.000
7.630,-0.325,0.005
7.632,-0.190,0.015
7.634,-0.205,0.020
7.636,-0.150,0.020
7.638,-0.065,0.020
7.640,0.040,0.015
7.642,0.120,0.010
7.644,-0.060,0.010
7.646,-0.135,0.015
7.648,-0.325,0.025
7.650,-0.235,0.040
7.652,-0.150,0.065
7.654,-0.125,0.085
7.656,-0.095,0.105
7.658,0.040,0.120
7.660,0.140,0.125
7.662,0.145,0.125
7.664,0.090,0.115
7.666,0.065,0.105
7.668,-0.280,0.090
7.670,-0.210,0.085
7.672,-0.190,0.075
7.674,-0.130,0.075
7.676,-0.085,0.075
7.678,0.050,0.075
7.680,0.120,0.075
7.682,0.115,0.075
7.684,-0.030,0.075
7.686,-0.065,0.070
7.688,-0.305,0.065
7.690,-0.210,0.060
7.692,-0.225,0.055
7.694,-0.110,0.050
7.696,-0.055,0.040
7.698,-0.095,0.030
7.700,0.035,0.020
7.702,0.065,0.005
7.704,-0.075,-0.015
7.706,-0.150,-0.030
7.708,-0.425,-0.040
7.710,-0.315,-0.050
7.712,-0.290,-0.055
7.714,-0.245,-0.055
7.716,-0.105,-0.055
7.718,-0.155,-0.050
7.720,-0.010,-0.045
7.722,-0.020,-0.040
7.724,-0.155,-0.040
7.726,-0.225,-0.040
7.728,-0.420,-0.045
7.730,-0.275,-0.050
7.732,-0.230,-0.055
7.734,-0.290,-0.060
7.736,-0.150,-0.065
7.738,-0.135,-0.070
7.740,-0.030,-0.075
7.742,-0.035,-0.075
7.744,-0.185,-0.075
7.746,-0.315,-0.075
7.748,-0.465,-0.075
7.750,-0.305,-0.075
7.752,-0.310,-0.075
7.754,-0.285,-0.085
7.756,-0.195,-0.095
7.758,-0.175,-0.110
7.760,-0.120,-0.130
7.762,-0.135,-0.155
7.764,-0.250,-0.180
7.766,-0.420,-0.200
7.768,-0.605,-0.215
7.770,-0.485,-0.225
7.772,-0.465,-0.220
7.774,-0.425,-0.200
7.776,-0.290,-0.170
7.778,-0.230,-0.110
7.780,0.060,-0.035
7.782,0.090,0.065
7.784,0.125,0.190
7.786,0.105,0.325
7.788,0.160,0.475
7.790,0.430,0.625
7.792,0.605,0.760
7.794,0.745,0.875
7.796,0.890,0.955
7.798,0.915,0.995
7.800,1.100,0.985
7.802,0.990,0.940
7.804,0.790,0.855
7.806,0.510,0.740
7.808,0.225,0.610
7.810,0.270,0.475
7.812,0.140,0.345
7.814,0.055,0.225
7.816,-0.095,0.125
7.818,-0.110,0.040
7.820,0.025,-0.025
7.822,-0.050,-0.070
7.824,-0.160,-0.105
7.826,-0.390,-0.130
7.828,-0.515,-0.150
7.830,-0.370,-0.165
7.832,-0.405,-0.175
7.834,-0.425,-0.185
7.836,-0.310,-0.195
7.838,-0.290,-0.200
7.840,-0.105,-0.205
7.842,-0.145,-0.205
7.844,-0.220,-0.200
7.846,-0.455,-0.190
7.848,-0.515,-0.180
7.850,-0.420,-0.170
7.852,-0.375,-0.155
7.854,-0.310,-0.150
7.856,-0.215,-0.145
7.858,-0.165,-0.145
7.860,-0.090,-0.150
7.862,-0.170,-0.155
7.864,-0.225,-0.155
7.866,-0.415,-0.155
7.868,-0.445,-0.150
7.870,-0.370,-0.145
7.872,-0.325,-0.135
7.874,-0.265,-0.130
7.876,-0.255,-0.125
7.878,-0.215,-0.120
7.880,-0.030,-0.125
7.882,-0.130,-0.130
7.884,-0.235,-0.140
7.886,-0.440,-0.145
7.888,-0.480,-0.155
7.890,-0.365,-0.155
7.892,-0.305,-0.155
7.894,-0.280,-0.150
7.896,-0.205,-0.145
7.898,-0.145,-0.140
7.900,-0.020,-0.130
7.902,-0.175,-0.125
7.904,-0.220,-0.125
7.906,-0.465,-0.125
7.908,-0.415,-0.130
7.910,-0.305,-0.135
7.912,-0.335,-0.135
7.914,-0.300,-0.140
7.916,-0.205,-0.140
7.918,-0.145,-0.145
7.920,-0.045,-0.145
7.922,-0.140,-0.145
7.924,-0.205,-0.140
7.926,-0.490,-0.140
7.928,-0.400,-0.135
7.930,-0.370,-0.130
7.932,-0.325,-0.130
7.934,-0.295,-0.130
7.936,-0.180,-0.130
7.938,-0.140,-0.130
7.940,-0.045,-0.130
7.942,-0.150,-0.135
7.944,-0.190,-0.130
7.946,-0.430,-0.130
7.948,-0.435,-0.125
7.950,-0.345,-0.115
7.952,-0.285,-0.110
7.954,-0.210,-0.105
7.956,-0.170,-0.100
7.958,-0.065,-0.100
7.960,-0.030,-0.105
7.962,-0.135,-0.110
7.964,-0.200,-0.115
7.966,-0.480,-0.120
7.968,-0.410,-0.115
7.970,-0.290,-0.110
7.972,-0.255,-0.100
7.974,-0.180,-0.085
7.976,-0.160,-0.075
7.978,-0.005,-0.065
7.980,0.005,-0.060
7.982,-0.105,-0.055
7.984,-0.165,-0.060
7.986,-0.385,-0.060
7.988,-0.315,-0.060
7.990,-0.240,-0.055
7.992,-0.185,-0.045
7.994,-0.140,-0.030
7.996,-0.050,-0.020
7.998,0.065,-0.005
8.000,0.010,0.005
8.002,-0.035,0.010
8.004,-0.110,0.015
8.006,-0.325,0.015
8.008,-0.235,0.010
8.010,-0.150,0.010
8.012,-0.175,0.015
8.014,-0.045,0.025
8.016,-0.045,0.035
8.018,0.105,0.050
8.020,0.155,0.070
8.022,0.070,0.085
8.024,-0.085,0.100
8.026,-0.265,0.105
8.028,-0.130,0.105
8.030,-0.075,0.100
8.032,-0.085,0.095
8.034,0.040,0.090
8.036,0.050,0.085
8.038,0.170,0.085
8.040,0.165,0.090
8.042,0.105,0.100
8.044,-0.095,0.110
8.046,-0.260,0.120
8.048,-0.090,0.130
8.050,-0.080,0.135
8.052,-0.050,0.135
8.054,0.040,0.130
8.056,0.065,0.120
8.058,0.195,0.110
8.060,0.165,0.095
8.062,0.050,0.085
8.064,-0.125,0.080
8.066,-0.280,0.070
8.068,-0.130,0.065
8.070,-0.185,0.055
8.072,-0.155,0.045
8.074,-0.075,0.030
8.076,-0.040,0.015
8.078,0.130,-0.005
8.080,0.060,-0.020
8.082,-0.070,-0.040
8.084,-0.310,-0.050
8.086,-0.420,-0.060
8.088,-0.280,-0.070
8.090,-0.285,-0.075
8.092,-0.270,-0.085
8.094,-0.165,-0.095
8.096,-0.110,-0.105
8.098,0.025,-0.115
8.100,-0.075,-0.120
8.102,-0.180,-0.130
8.104,-0.380,-0.130
8.106,-0.440,-0.130
8.108,-0.325,-0.125
8.110,-0.350,-0.120
8.112,-0.280,-0.115
8.114,-0.185,-0.110
8.116,-0.135,-0.110
8.118,-0.020,-0.115
8.120,-0.055,-0.125
8.122,-0.155,-0.135
8.124,-0.380,-0.140
8.126,-0.525,-0.145
8.128,-0.350,-0.145
8.130,-0.330,-0.145
8.132,-0.315,-0.140
8.134,-0.220,-0.140
8.136,-0.170,-0.145
8.138,-0.035,-0.145
8.140,-0.085,-0.150
8.142,-0.215,-0.155
8.144,-0.390,-0.160
8.146,-0.455,-0.160
8.148,-0.365,-0.155
8.150,-0.315,-0.145
8.152,-0.240,-0.135
8.154,-0.195,-0.130
8.156,-0.180,-0.130
8.158,-0.045,-0.130
8.160,-0.085,-0.140
8.162,-0.195,-0.150
8.164,-0.465,-0.165
8.166,-0.425,-0.175
8.168,-0.370,-0.180
8.170,-0.395,-0.175
8.172,-0.230,-0.170
8.174,-0.205,-0.160
8.176,-0.140,-0.150
8.178,-0.040,-0.145
8.180,-0.130,-0.145
8.182,-0.220,-0.145
8.184,-0.415,-0.150
8.186,-0.425,-0.160
8.188,-0.370,-0.165
8.190,-0.365,-0.175
8.192,-0.295,-0.175
8.194,-0.195,-0.180
8.196,-0.150,-0.175
8.198,-0.085,-0.175
8.200,-0.150,-0.175
8.202,-0.245,-0.175
8.204,-0.490,-0.180
8.206,-0.455,-0.180
8.208,-0.410,-0.185
8.210,-0.355,-0.185
8.212,-0.265,-0.180
8.214,-0.190,-0.175
8.216,-0.140,-0.165
8.218,-0.030,-0.155
8.220,-0.150,-0.150
8.222,-0.220,-0.145
8.224,-0.440,-0.140
8.226,-0.385,-0.145
8.228,-0.310,-0.145
8.230,-0.300,-0.150
8.232,-0.290,-0.155
8.234,-0.190,-0.155
8.236,-0.075,-0.150
8.238,-0.035,-0.145
8.240,-0.130,-0.140
8.242,-0.210,-0.130
8.244,-0.435,-0.125
8.246,-0.340,-0.120
8.248,-0.270,-0.120
8.250,-0.280,-0.125
8.252,-0.275,-0.130
8.254,-0.175,-0.135
8.256,-0.070,-0.140
8.258,-0.025,-0.145
8.260,-0.140,-0.140
8.262,-0.175,-0.135
8.264,-0.445,-0.125
8.266,-0.360,-0.110
8.268,-0.255,-0.105
8.270,-0.290,-0.095
8.272,-0.195,-0.095
8.274,-0.075,-0.095
8.276,0.000,-0.100
8.278,0.020,-0.105
8.280,-0.120,-0.110
8.282,-0.200,-0.110
8.284,-0.435,-0.105
8.286,-0.310,-0.100
8.288,-0.320,-0.095
8.290,-0.270,-0.090
8.292,-0.190,-0.090
8.294,-0.130,-0.085
8.296,0.015,-0.090
8.298,-0.015,-0.090
8.300,-0.095,-0.090
8.302,-0.260,-0.090
8.304,-0.420,-0.085
8.306,-0.275,-0.080
8.308,-0.250,-0.075
8.310,-0.235,-0.070
8.312,-0.145,-0.065
8.314,-0.075,-0.070
8.316,-0.030,-0.075
8.318,-0.040,-0.085
8.320,-0.155,-0.090
8.322,-0.280,-0.100
8.324,-0.445,-0.100
8.326,-0.295,-0.100
8.328,-0.275,-0.095
8.330,-0.220,-0.090
8.332,-0.100,-0.080
8.334,-0.110,-0.075
8.336,0.015,-0.075
8.338,0.010,-0.080
8.340,-0.140,-0.085
8.342,-0.295,-0.090
8.344,-0.430,-0.095
8.346,-0.290,-0.095
8.348,-0.250,-0.095
8.350,-0.230,-0.090
8.352,-0.115,-0.085
8.354,-0.110,-0.080
8.356,0.010,-0.080
8.358,-0.035,-0.080
8.360,-0.115,-0.080
8.362,-0.300,-0.080
8.364,-0.440,-0.085
8.366,-0.295,-0.085
8.368,-0.270,-0.085
8.370,-0.220,-0.080
8.372,-0.165,-0.075
8.374,-0.100,-0.070
8.376,0.045,-0.060
8.378,0.015,-0.055
8.380,-0.115,-0.055
8.382,-0.250,-0.055
8.384,-0.405,-0.060
8.386,-0.235,-0.065
8.388,-0.330,-0.070
8.390,-0.270,-0.080
8.392,-0.115,-0.085
8.394,-0.075,-0.090
8.396,0.055,-0.090
8.398,-0.025,-0.090
8.400,-0.145,-0.090
8.402,-0.365,-0.090
8.404,-0.470,-0.090
8.406,-0.295,-0.095
8.408,-0.335,-0.100
8.410,-0.250,-0.105
8.412,-0.165,-0.110
8.414,-0.090,-0.120
8.416,-0.050,-0.125
8.418,-0.080,-0.125
8.420,-0.180,-0.125
8.422,-0.360,-0.120
8.424,-0.445,-0.110
8.426,-0.300,-0.105
8.428,-0.325,-0.100
8.430,-0.230,-0.100
8.432,-0.165,-0.100
8.434,-0.140,-0.100
8.436,-0.005,-0.105
8.438,-0.080,-0.110
8.440,-0.150,-0.105
8.442,-0.370,-0.105
8.444,-0.360,-0.095
8.446,-0.285,-0.090
8.448,-0.225,-0.080
8.450,-0.215,-0.070
8.452,-0.160,-0.065
8.454,-0.085,-0.060
8.456,0.025,-0.060
8.458,-0.055,-0.065
8.460,-0.080,-0.065
8.462,-0.350,-0.065
8.464,-0.335,-0.060
8.466,-0.240,-0.050
8.468,-0.195,-0.040
8.470,-0.165,-0.025
8.472,-0.080,-0.010
8.474,-0.020,0.010
8.476,0.180,0.020
8.478,0.035,0.030
8.480,-0.065,0.040
8.482,-0.290,0.045
8.484,-0.230,0.045
8.486,-0.170,0.045
8.488,-0.130,0.045
8.490,-0.090,0.050
8.492,-0.025,0.050
8.494,0.050,0.050
8.496,0.170,0.050
8.498,0.030,0.050
8.500,-0.065,0.050
8.502,-0.295,0.045
8.504,-0.230,0.035
8.506,-0.170,0.025
8.508,-0.175,0.015
8.510,-0.155,0.005
8.512,-0.060,-0.005
8.514,0.010,-0.005
8.516,0.085,-0.005
8.518,0.010,0.000
8.520,-0.080,0.005
8.522,-0.345,0.005
8.524,-0.265,0.005
8.526,-0.220,0.000
8.528,-0.210,-0.010
8.530,-0.190,-0.020
8.532,-0.090,-0.035
8.534,-0.005,-0.045
8.536,0.075,-0.050
8.538,-0.110,-0.050
8.540,-0.170,-0.045
8.542,-0.400,-0.040
8.544,-0.255,-0.030
8.546,-0.235,-0.025
8.548,-0.180,-0.020
8.550,-0.200,-0.020
8.552,-0.140,-0.025
8.554,0.000,-0.030
8.556,0.065,-0.035
8.558,-0.075,-0.040
8.560,-0.185,-0.045
8.562,-0.415,-0.040
8.564,-0.320,-0.040
8.566,-0.350,-0.035
8.568,-0.210,-0.030
8.570,-0.125,-0.025
8.572,-0.125,-0.030
8.574,0.040,-0.030
8.576,0.040,-0.035
8.578,-0.110,-0.045
8.580,-0.300,-0.060
8.582,-0.480,-0.070
8.584,-0.355,-0.090
8.586,-0.370,-0.110
8.588,-0.350,-0.135
8.590,-0.245,-0.155
8.592,-0.270,-0.165
8.594,-0.140,-0.165
8.596,-0.095,-0.145
8.598,-0.210,-0.105
8.600,-0.340,-0.040
8.602,-0.360,0.045
8.604,-0.070,0.155
8.606,0.105,0.285
8.608,0.225,0.425
8.610,0.465,0.565
8.612,0.655,0.700
8.614,0.915,0.825
8.616,0.985,0.930
8.618,1.010,1.010
8.620,0.850,1.050
8.622,0.680,1.055
8.624,0.780,1.020
8.626,0.690,0.945
8.628,0.605,0.835
8.630,0.610,0.700
8.632,0.430,0.550
8.634,0.435,0.405
8.636,0.265,0.270
8.638,-0.005,0.155
8.640,-0.255,0.070
8.642,-0.420,0.010
8.644,-0.265,-0.025
8.646,-0.295,-0.045
8.648,-0.290,-0.055
8.650,-0.230,-0.065
8.652,-0.200,-0.080
8.654,-0.075,-0.090
8.656,-0.090,-0.100
8.658,-0.210,-0.110
8.660,-0.375,-0.115
8.662,-0.545,-0.110
8.664,-0.375,-0.095
8.666,-0.340,-0.080
8.668,-0.260,-0.060
8.670,-0.175,-0.040
8.672,-0.140,-0.025
8.674,-0.005,-0.015
8.676,-0.020,-0.010
8.678,-0.100,-0.010
8.680,-0.315,-0.015
8.682,-0.440,-0.015
8.684,-0.285,-0.015
8.686,-0.325,-0.015
8.688,-0.225,-0.015
8.690,-0.120,-0.015
8.692,-0.140,-0.020
8.694,0.010,-0.025
8.696,-0.055,-0.030
8.698,-0.160,-0.030
8.700,-0.355,-0.035
8.702,-0.455,-0.035
8.704,-0.285,-0.030
8.706,-0.315,-0.025
8.708,-0.275,-0.020
8.710,-0.195,-0.015
8.712,-0.125,-0.015
8.714,0.055,-0.010
8.716,-0.045,-0.010
8.718,-0.185,-0.010
8.720,-0.370,-0.015
8.722,-0.375,-0.015
8.724,-0.290,-0.010
8.726,-0.290,-0.010
8.728,-0.265,-0.005
8.730,-0.150,-0.005
8.732,-0.110,0.000
8.734,0.065,0.000
8.736,-0.065,0.005
8.738,-0.145,0.005
8.740,-0.340,0.010
8.742,-0.385,0.015
8.744,-0.260,0.020
8.746,-0.235,0.020
8.748,-0.225,0.025
8.750,-0.110,0.030
8.752,-0.125,0.030
8.754,0.010,0.030
8.756,-0.035,0.035
8.758,-0.110,0.040
8.760,-0.325,0.040
8.762,-0.330,0.045
8.764,-0.255,0.050
8.766,-0.220,0.055
8.768,-0.215,0.060
8.770,-0.090,0.060
8.772,-0.050,0.055
8.774,0.090,0.055
8.776,-0.065,0.055
8.778,-0.130,0.050
8.780,-0.385,0.055
8.782,-0.230,0.055
8.784,-0.230,0.065
8.786,-0.245,0.070
8.788,-0.195,0.075
8.790,-0.090,0.080
8.792,-0.055,0.080
8.794,0.060,0.085
8.796,-0.020,0.085
8.798,-0.025,0.090
8.800,-0.335,0.090
8.802,-0.280,0.095
8.804,-0.200,0.105
8.806,-0.175,0.110
8.808,-0.180,0.120
8.810,-0.065,0.125
8.812,0.075,0.135
8.814,0.140,0.145
8.816,0.050,0.155
8.818,-0.050,0.170
8.820,-0.275,0.180
8.822,-0.185,0.195
8.824,-0.115,0.205
8.826,-0.095,0.210
8.828,-0.065,0.215
8.830,0.050,0.215
8.832,0.200,0.210
8.834,0.130,0.205
8.836,0.060,0.205
8.838,-0.010,0.205
8.840,-0.290,0.210
8.842,-0.165,0.220
8.844,-0.050,0.235
8.846,-0.080,0.245
8.848,0.040,0.255
8.850,0.080,0.260
8.852,0.195,0.265
8.854,0.220,0.265
8.856,0.100,0.265
8.858,0.005,0.265
8.860,-0.225,0.270
8.862,-0.100,0.280
8.864,-0.035,0.290
8.866,-0.030,0.295
8.868,0.055,0.300
8.870,0.085,0.300
8.872,0.235,0.295
8.874,0.235,0.280
8.876,0.100,0.265
8.878,-0.040,0.250
8.880,-0.335,0.235
8.882,-0.150,0.225
8.884,-0.110,0.215
8.886,-0.095,0.215
8.888,-0.025,0.215
8.890,0.020,0.220
8.892,0.160,0.220
8.894,0.115,0.215
8.896,-0.005,0.205
8.898,-0.160,0.190
8.900,-0.330,0.175
8.902,-0.210,0.155
8.904,-0.225,0.140
8.906,-0.210,0.125
8.908,-0.120,0.110
8.910,-0.145,0.100
8.912,0.050,0.090
8.914,-0.025,0.085
8.916,-0.160,0.080
8.918,-0.295,0.075
8.920,-0.445,0.075
8.922,-0.290,0.075
8.924,-0.280,0.075
8.926,-0.260,0.075
8.928,-0.115,0.075
8.930,-0.130,0.070
8.932,-0.015,0.070
8.934,-0.090,0.065
8.936,-0.180,0.065
8.938,-0.330,0.060
8.940,-0.445,0.060
8.942,-0.270,0.060
8.944,-0.310,0.065
8.946,-0.290,0.065
8.948,-0.225,0.070
8.950,-0.180,0.070
8.952,0.035,0.075
8.954,-0.035,0.070
8.956,-0.160,0.070
8.958,-0.320,0.065
8.960,-0.470,0.065
8.962,-0.345,0.060
8.964,-0.325,0.055
8.966,-0.250,0.055
8.968,-0.235,0.055
8.970,-0.230,0.060
8.972,-0.010,0.065
8.974,-0.050,0.070
8.976,-0.160,0.070
8.978,-0.295,0.070
8.980,-0.435,0.070
8.982,-0.350,0.065
8.984,-0.365,0.060
8.986,-0.315,0.050
8.988,-0.285,0.040
8.990,-0.120,0.035
8.992,0.015,0.035
8.994,-0.115,0.040
8.996,-0.195,0.045
8.998,-0.400,0.055
9.000,-0.455,0.065
9.002,-0.305,0.075
9.004,-0.330,0.080
9.006,-0.270,0.075
9.008,-0.180,0.070
9.010,-0.195,0.060
9.012,-0.055,0.045
9.014,-0.150,0.035
9.016,-0.210,0.025
9.018,-0.390,0.025
9.020,-0.460,0.025
9.022,-0.335,0.030
9.024,-0.315,0.040
9.026,-0.350,0.045
9.028,-0.220,0.045
9.030,-0.170,0.050
9.032,-0.035,0.045
9.034,-0.175,0.040
9.036,-0.265,0.035
9.038,-0.470,0.035
9.040,-0.405,0.030
9.042,-0.350,0.030
9.044,-0.400,0.025
9.046,-0.340,0.025
9.048,-0.205,0.025
9.050,-0.190,0.025
9.052,-0.105,0.030
9.054,-0.130,0.030
9.056,-0.260,0.035
9.058,-0.495,0.040
9.060,-0.410,0.045
9.062,-0.355,0.050
9.064,-0.360,0.050
9.066,-0.300,0.045
9.068,-0.250,0.040
9.070,-0.160,0.030
9.072,-0.115,0.020
9.074,-0.235,0.015
9.076,-0.225,0.010
9.078,-0.495,0.015
9.080,-0.455,0.020
9.082,-0.385,0.025
9.084,-0.355,0.035
9.086,-0.325,0.040
9.088,-0.220,0.040
9.090,-0.115,0.040
9.092,-0.075,0.035
9.094,-0.230,0.030
9.096,-0.290,0.025
9.098,-0.525,0.025
9.100,-0.420,0.025
9.102,-0.395,0.030
9.104,-0.390,0.035
9.106,-0.295,0.040
9.108,-0.195,0.040
9.110,-0.175,0.040
9.112,-0.080,0.040
9.114,-0.235,0.035
9.116,-0.280,0.035
9.118,-0.535,0.035
9.120,-0.460,0.035
9.122,-0.370,0.040
9.124,-0.360,0.045
9.126,-0.320,0.045
9.128,-0.260,0.045
9.130,-0.155,0.045
9.132,-0.095,0.040
9.134,-0.240,0.035
9.136,-0.340,0.030
9.138,-0.555,0.030
9.140,-0.425,0.035
9.142,-0.400,0.045
9.144,-0.335,0.050
9.146,-0.265,0.060
9.148,-0.230,0.065
9.150,-0.120,0.065
9.152,-0.085,0.060
9.154,-0.255,0.055
9.156,-0.375,0.045
9.158,-0.560,0.035
9.160,-0.450,0.025
9.162,-0.405,0.020
9.164,-0.395,0.020
9.166,-0.260,0.020
9.168,-0.280,0.025
9.170,-0.145,0.030
9.172,-0.130,0.035
9.174,-0.275,0.040
9.176,-0.435,0.040
9.178,-0.580,0.040
9.180,-0.385,0.040
9.182,-0.365,0.040
9.184,-0.400,0.040
9.186,-0.280,0.035
9.188,-0.225,0.035
9.190,-0.175,0.035
9.192,-0.195,0.035
9.194,-0.275,0.035
9.196,-0.420,0.035
9.198,-0.625,0.035
9.200,-0.430,0.030
9.202,-0.425,0.030
9.204,-0.425,0.025
9.206,-0.275,0.020
9.208,-0.270,0.015
9.210,-0.150,0.015
9.212,-0.140,0.015
9.214,-0.325,0.015
9.216,-0.460,0.020
9.218,-0.615,0.025
9.220,-0.440,0.030
9.222,-0.490,0.030
9.224,-0.405,0.025
9.226,-0.290,0.020
9.228,-0.375,0.010
9.230,-0.150,0.000
9.232,-0.225,-0.010
9.234,-0.305,-0.015
9.236,-0.510,-0.015
9.238,-0.575,-0.015
9.240,-0.505,-0.005
9.242,-0.465,0.000
9.244,-0.450,0.005
9.246,-0.345,0.010
9.248,-0.340,0.010
9.250,-0.150,0.005
9.252,-0.200,0.000
9.254,-0.265,-0.005
9.256,-0.545,-0.010
9.258,-0.650,-0.005
9.260,-0.490,-0.005
9.262,-0.485,0.000
9.264,-0.440,0.010
9.266,-0.330,0.015
9.268,-0.300,0.015
9.270,-0.140,0.015
9.272,-0.185,0.010
9.274,-0.350,0.005
9.276,-0.535,0.005
9.278,-0.605,0.005
9.280,-0.450,0.005
9.282,-0.485,0.010
9.284,-0.430,0.020
9.286,-0.325,0.030
9.288,-0.275,0.035
9.290,-0.115,0.045
9.292,-0.185,0.050
9.294,-0.300,0.055
9.296,-0.485,0.060
9.298,-0.545,0.065
9.300,-0.405,0.070
9.302,-0.400,0.080
9.304,-0.310,0.085
9.306,-0.265,0.090
9.308,-0.235,0.100
9.310,-0.095,0.105
9.312,-0.145,0.110
9.314,-0.235,0.120
9.316,-0.440,0.125
9.318,-0.450,0.130
9.320,-0.345,0.130
9.322,-0.350,0.135
9.324,-0.300,0.130
9.326,-0.240,0.125
9.328,-0.215,0.120
9.330,-0.100,0.110
9.332,-0.160,0.095
9.334,-0.235,0.085
9.336,-0.490,0.075
9.338,-0.500,0.065
9.340,-0.440,0.060
9.342,-0.420,0.060
9.344,-0.380,0.060
9.346,-0.295,0.055
9.348,-0.255,0.055
9.350,-0.115,0.050
9.352,-0.265,0.045
9.354,-0.360,0.030
9.356,-0.575,0.015
9.358,-0.530,0.000
9.360,-0.555,-0.015
9.362,-0.565,-0.035
9.364,-0.445,-0.045
9.366,-0.340,-0.055
9.368,-0.305,-0.060
9.370,-0.280,-0.065
9.372,-0.415,-0.060
9.374,-0.425,-0.055
9.376,-0.680,-0.050
9.378,-0.605,-0.045
9.380,-0.475,-0.045
9.382,-0.515,-0.045
9.384,-0.490,-0.050
9.386,-0.405,-0.055
9.388,-0.305,-0.065
9.390,-0.235,-0.070
9.392,-0.410,-0.075
9.394,-0.475,-0.075
9.396,-0.700,-0.075
9.398,-0.615,-0.075
9.400,-0.585,-0.075
9.402,-0.520,-0.070
9.404,-0.465,-0.075
9.406,-0.410,-0.080
9.408,-0.340,-0.085
9.410,-0.280,-0.090
9.412,-0.465,-0.100
9.414,-0.565,-0.115
9.416,-0.790,-0.125
9.418,-0.650,-0.145
9.420,-0.635,-0.160
9.422,-0.660,-0.175
9.424,-0.570,-0.185
9.426,-0.525,-0.185
9.428,-0.420,-0.160
9.430,-0.370,-0.115
9.432,-0.370,-0.040
9.434,-0.405,0.070
9.436,-0.445,0.200
9.438,-0.155,0.355
9.440,0.055,0.510
9.442,0.240,0.665
9.444,0.495,0.795
9.446,0.600,0.895
9.448,0.860,0.960
9.450,0.670,0.975
9.452,0.600,0.955
9.454,0.435,0.890
9.456,0.200,0.800
9.458,0.085,0.685
9.460,0.070,0.555
9.462,-0.050,0.425
9.464,-0.090,0.300
9.466,-0.185,0.180
9.468,-0.195,0.080
9.470,-0.305,-0.005
9.472,-0.480,-0.075
9.474,-0.610,-0.125
9.476,-0.800,-0.165
9.478,-0.720,-0.190
9.480,-0.690,-0.210
9.482,-0.700,-0.225
9.484,-0.600,-0.230
9.486,-0.605,-0.235
9.488,-0.470,-0.240
9.490,-0.500,-0.235
9.492,-0.570,-0.225
9.494,-0.705,-0.210
9.496,-0.840,-0.190
9.498,-0.670,-0.170
9.500,-0.620,-0.150
9.502,-0.590,-0.135
9.504,-0.500,-0.130
9.506,-0.475,-0.130
9.508,-0.340,-0.135
9.510,-0.450,-0.150
9.512,-0.545,-0.160
9.514,-0.660,-0.165
9.516,-0.830,-0.170
9.518,-0.670,-0.165
9.520,-0.665,-0.160
9.522,-0.605,-0.155
9.524,-0.545,-0.145
9.526,-0.510,-0.140
9.528,-0.335,-0.145
9.530,-0.395,-0.150
9.532,-0.485,-0.160
9.534,-0.695,-0.165
9.536,-0.870,-0.175
9.538,-0.695,-0.180
9.540,-0.675,-0.185
9.542,-0.665,-0.185
9.544,-0.540,-0.180
9.546,-0.485,-0.180
9.548,-0.335,-0.180
9.550,-0.435,-0.180
9.552,-0.555,-0.180
9.554,-0.745,-0.180
9.556,-0.840,-0.185
9.558,-0.700,-0.185
9.560,-0.670,-0.185
9.562,-0.670,-0.185
9.564,-0.575,-0.190
9.566,-0.545,-0.190
9.568,-0.335,-0.195
9.570,-0.445,-0.200
9.572,-0.540,-0.200
9.574,-0.740,-0.200
9.576,-0.825,-0.195
9.578,-0.720,-0.190
9.580,-0.680,-0.180
9.582,-0.610,-0.175
9.584,-0.555,-0.170
9.586,-0.515,-0.170
9.588,-0.345,-0.170
9.590,-0.415,-0.175
9.592,-0.470,-0.180
9.594,-0.755,-0.185
9.596,-0.780,-0.185
9.598,-0.670,-0.180
9.600,-0.660,-0.175
9.602,-0.580,-0.165
9.604,-0.515,-0.155
9.606,-0.495,-0.145
9.608,-0.350,-0.140
9.610,-0.380,-0.140
9.612,-0.480,-0.140
9.614,-0.750,-0.145
9.616,-0.730,-0.150
9.618,-0.640,-0.155
9.620,-0.595,-0.150
9.622,-0.575,-0.140
9.624,-0.475,-0.125
9.626,-0.350,-0.110
9.628,-0.295,-0.095
9.630,-0.340,-0.080
9.632,-0.450,-0.075
9.634,-0.710,-0.070
9.636,-0.605,-0.075
9.638,-0.545,-0.075
9.640,-0.565,-0.080
9.642,-0.475,-0.080
9.644,-0.355,-0.070
9.646,-0.275,-0.055
9.648,-0.185,-0.040
9.650,-0.355,-0.020
9.652,-0.390,0.000
9.654,-0.580,0.015
9.656,-0.475,0.025
9.658,-0.480,0.025
9.660,-0.490,0.025
9.662,-0.410,0.020
9.664,-0.305,0.020
9.666,-0.210,0.025
9.668,-0.060,0.035
9.670,-0.195,0.055
9.672,-0.280,0.075
9.674,-0.525,0.100
9.676,-0.425,0.120
9.678,-0.365,0.130
9.680,-0.330,0.135
9.682,-0.265,0.135
9.684,-0.200,0.125
9.686,-0.115,0.115
9.688,-0.060,0.115
9.690,-0.150,0.115
9.692,-0.225,0.125
9.694,-0.470,0.135
9.696,-0.345,0.155
9.698,-0.285,0.165
9.700,-0.295,0.170
9.702,-0.220,0.170
9.704,-0.210,0.160
9.706,-0.080,0.140
9.708,-0.080,0.120
9.710,-0.190,0.105
9.712,-0.285,0.095
9.714,-0.530,0.095
9.716,-0.355,0.095
9.718,-0.355,0.100
9.720,-0.340,0.105
9.722,-0.265,0.100
9.724,-0.240,0.090
9.726,-0.170,0.070
9.728,-0.145,0.050
9.730,-0.270,0.020
9.732,-0.425,0.000
9.734,-0.595,-0.020
9.736,-0.520,-0.035
9.738,-0.490,-0.040
9.740,-0.495,-0.045
9.742,-0.340,-0.045
9.744,-0.365,-0.050
9.746,-0.240,-0.060
9.748,-0.230,-0.070
9.750,-0.385,-0.080
9.752,-0.550,-0.090
9.754,-0.710,-0.100
9.756,-0.555,-0.100
9.758,-0.515,-0.100
9.760,-0.520,-0.090
9.762,-0.435,-0.085
9.764,-0.485,-0.075
9.766,-0.135,-0.075
9.768,-0.270,-0.070
9.770,-0.365,-0.075
9.772,-0.550,-0.080
9.774,-0.700,-0.085
9.776,-0.500,-0.090
9.778,-0.565,-0.100
9.780,-0.585,-0.100
9.782,-0.390,-0.105
9.784,-0.365,-0.105
9.786,-0.255,-0.105
9.788,-0.300,-0.105
9.790,-0.395,-0.100
9.792,-0.545,-0.095
9.794,-0.690,-0.090
9.796,-0.555,-0.090
9.798,-0.555,-0.085
9.800,-0.475,-0.085
9.802,-0.425,-0.090
9.804,-0.405,-0.095
9.806,-0.230,-0.100
9.808,-0.245,-0.105
9.810,-0.380,-0.105
9.812,-0.590,-0.105
9.814,-0.685,-0.100
9.816,-0.470,-0.095
9.818,-0.550,-0.090
9.820,-0.460,-0.080
9.822,-0.400,-0.080
9.824,-0.370,-0.080
9.826,-0.215,-0.090
9.828,-0.265,-0.100
9.830,-0.390,-0.105
9.832,-0.590,-0.115
9.834,-0.670,-0.115
9.836,-0.550,-0.115
9.838,-0.535,-0.105
9.840,-0.440,-0.095
9.842,-0.365,-0.085
9.844,-0.370,-0.075
9.846,-0.190,-0.065
9.848,-0.255,-0.065
9.850,-0.345,-0.065
9.852,-0.560,-0.075
9.854,-0.640,-0.080
9.856,-0.490,-0.085
9.858,-0.515,-0.090
9.860,-0.470,-0.090
9.862,-0.380,-0.085
9.864,-0.380,-0.080
9.866,-0.170,-0.080
9.868,-0.260,-0.075
9.870,-0.345,-0.075
9.872,-0.565,-0.075
9.874,-0.580,-0.075
9.876,-0.470,-0.075
9.878,-0.455,-0.075
9.880,-0.425,-0.070
9.882,-0.410,-0.065
9.884,-0.390,-0.065
9.886,-0.135,-0.060
9.888,-0.215,-0.060
9.890,-0.310,-0.060
9.892,-0.570,-0.065
9.894,-0.570,-0.065
9.896,-0.475,-0.070
9.898,-0.450,-0.065
9.900,-0.345,-0.060
9.902,-0.345,-0.050
9.904,-0.255,-0.040
9.906,-0.115,-0.030
9.908,-0.230,-0.025
9.910,-0.335,-0.020
9.912,-0.495,-0.020
9.914,-0.495,-0.030
9.916,-0.420,-0.035
9.918,-0.430,-0.045
9.920,-0.405,-0.055
9.922,-0.310,-0.060
9.924,-0.230,-0.060
9.926,-0.085,-0.055
9.928,-0.260,-0.050
9.930,-0.325,-0.045
9.932,-0.530,-0.040
9.934,-0.505,-0.045
9.936,-0.435,-0.050
9.938,-0.465,-0.065
9.940,-0.425,-0.075
9.942,-0.305,-0.090
9.944,-0.195,-0.095
9.946,-0.170,-0.095
9.948,-0.310,-0.095
9.950,-0.385,-0.085
9.952,-0.595,-0.070
9.954,-0.455,-0.065
9.956,-0.450,-0.060
9.958,-0.410,-0.060
9.960,-0.380,-0.065
9.962,-0.340,-0.075
9.964,-0.275,-0.090
9.966,-0.155,-0.100
9.968,-0.310,-0.105
9.970,-0.350,-0.105
9.972,-0.575,-0.100
9.974,-0.505,-0.090
9.976,-0.455,-0.080
9.978,-0.480,-0.075
9.980,-0.340,-0.070
9.982,-0.280,-0.070
9.984,-0.190,-0.080
9.986,-0.225,-0.090
9.988,-0.290,-0.100
9.990,-0.385,-0.105
9.992,-0.705,-0.110
9.994,-0.510,-0.110
9.996,-0.460,-0.110
9.998,-0.445,-0.105
