'Elapsed time','ECG I','ECG I filtered'
'seconds','mV','mV'
0.000,-0.015,-0.030
0.002,-0.055,-0.005
0.004,-0.040,0.010
0.006,0.040,0.025
0.008,0.045,0.035
0.010,0.075,0.035
0.012,0.140,0.030
0.014,0.090,0.020
0.016,0.030,0.010
0.018,-0.045,0.000
0.020,-0.075,-0.010
0.022,-0.140,-0.015
0.024,-0.035,-0.015
0.026,0.020,-0.010
0.028,0.100,0.000
0.030,0.070,0.010
0.032,0.150,0.020
0.034,0.105,0.025
0.036,0.000,0.030
0.038,-0.070,0.030
0.040,-0.010,0.025
0.042,-0.085,0.020
0.044,-0.050,0.015
0.046,0.005,0.010
0.048,0.090,0.005
0.050,0.105,0.005
0.052,0.140,0.010
0.054,0.080,0.010
0.056,0.025,0.015
0.058,-0.015,0.020
0.060,-0.030,0.020
0.062,-0.040,0.020
0.064,-0.025,0.015
0.066,-0.015,0.015
0.068,0.055,0.015
0.070,0.060,0.020
0.072,0.150,0.020
0.074,0.105,0.030
0.076,0.040,0.035
0.078,0.000,0.045
0.080,0.045,0.050
0.082,0.005,0.050
0.084,-0.005,0.050
0.086,0.015,0.045
0.088,0.065,0.035
0.090,0.075,0.030
0.092,0.180,0.020
0.094,0.050,0.015
0.096,0.005,0.010
0.098,-0.045,0.010
0.100,-0.030,0.010
0.102,-0.040,0.010
0.104,-0.035,0.010
0.106,0.045,0.010
0.108,0.020,0.010
0.110,0.035,0.005
0.112,0.115,0.005
0.114,0.075,0.000
0.116,-0.005,0.000
0.118,-0.040,0.000
0.120,0.010,0.005
0.122,-0.030,0.010
0.124,-0.015,0.015
0.126,0.045,0.020
0.128,0.060,0.025
0.130,0.120,0.025
0.132,0.135,0.020
0.134,0.070,0.015
0.136,-0.035,0.010
0.138,-0.005,0.005
0.140,-0.050,0.000
0.142,-0.075,-0.005
0.144,-0.050,-0.010
0.146,0.005,-0.010
0.148,0.055,-0.015
0.150,0.075,-0.015
0.152,0.065,-0.010
0.154,-0.010,-0.010
0.156,-0.030,-0.010
0.158,0.005,-0.005
0.160,-0.050,0.000
0.162,-0.040,0.005
0.164,-0.010,0.010
0.166,0.045,0.015
0.168,0.085,0.015
0.170,0.080,0.015
0.172,0.095,0.015
0.174,0.055,0.010
0.176,-0.005,0.010
0.178,-0.035,0.005
0.180,-0.010,0.005
0.182,-0.065,0.010
0.184,-0.060,0.010
0.186,0.075,0.015
0.188,0.105,0.020
0.190,0.135,0.025
0.192,0.140,0.030
0.194,0.080,0.030
0.196,-0.025,0.030
0.198,-0.010,0.030
0.200,0.010,0.030
0.202,-0.075,0.030
0.204,0.040,0.035
0.206,0.075,0.035
0.208,0.145,0.040
0.210,0.205,0.045
0.212,0.080,0.050
0.214,0.080,0.050
0.216,0.065,0.045
0.218,0.000,0.040
0.220,-0.065,0.035
0.222,-0.030,0.025
0.224,0.030,0.020
0.226,0.095,0.020
0.228,0.105,0.015
0.230,0.120,0.015
0.232,0.100,0.020
0.234,0.015,0.020
0.236,0.010,0.020
0.238,-0.020,0.020
0.240,-0.065,0.015
0.242,-0.010,0.010
0.244,0.005,0.005
0.246,0.055,-0.005
0.248,0.060,-0.015
0.250,0.085,-0.025
0.252,0.070,-0.030
0.254,-0.015,-0.035
0.256,-0.055,-0.035
0.258,-0.080,-0.040
0.260,-0.135,-0.040
0.262,-0.040,-0.035
0.264,-0.045,-0.035
0.266,0.015,-0.030
0.268,0.045,-0.030
0.270,0.080,-0.025
0.272,0.045,-0.015
0.274,-0.015,-0.010
0.276,0.000,-0.005
0.278,-0.040,0.000
0.280,-0.095,0.005
0.282,-0.080,0.005
0.284,0.010,0.005
0.286,0.085,-0.005
0.288,0.090,-0.010
0.290,0.090,-0.020
0.292,0.060,-0.030
0.294,-0.060,-0.040
0.296,-0.085,-0.045
0.298,-0.065,-0.050
0.300,-0.140,-0.050
0.302,-0.050,-0.050
0.304,-0.070,-0.050
0.306,0.020,-0.055
0.308,0.015,-0.055
0.310,0.015,-0.060
0.312,-0.025,-0.060
0.314,-0.045,-0.055
0.316,-0.065,-0.035
0.318,-0.040,-0.005
0.320,-0.070,0.035
0.322,0.095,0.095
0.324,0.250,0.165
0.326,0.330,0.235
0.328,0.370,0.300
0.330,0.475,0.350
0.332,0.490,0.380
0.334,0.440,0.385
0.336,0.345,0.360
0.338,0.235,0.310
0.340,0.100,0.235
0.342,0.095,0.150
0.344,0.110,0.055
0.346,-0.030,-0.030
0.348,-0.045,-0.105
0.350,-0.135,-0.165
0.352,-0.170,-0.205
0.354,-0.230,-0.230
0.356,-0.235,-0.235
0.358,-0.295,-0.230
0.360,-0.295,-0.220
0.362,-0.220,-0.205
0.364,-0.165,-0.190
0.366,-0.100,-0.175
0.368,-0.100,-0.160
0.370,-0.025,-0.145
0.372,-0.035,-0.125
0.374,-0.080,-0.110
0.376,-0.110,-0.095
0.378,-0.140,-0.075
0.380,-0.105,-0.065
0.382,-0.040,-0.050
0.384,-0.025,-0.045
0.386,-0.010,-0.040
0.388,0.005,-0.040
0.390,0.015,-0.040
0.392,0.035,-0.035
0.394,0.010,-0.035
0.396,-0.060,-0.030
0.398,-0.075,-0.025
0.400,-0.100,-0.020
0.402,0.010,-0.020
0.404,0.005,-0.020
0.406,0.040,-0.020
0.408,0.035,-0.020
0.410,0.040,-0.025
0.412,0.025,-0.030
0.414,-0.045,-0.030
0.416,-0.095,-0.035
0.418,-0.055,-0.030
0.420,-0.045,-0.030
0.422,-0.045,-0.025
0.424,0.010,-0.020
0.426,0.045,-0.020
0.428,0.060,-0.015
0.430,0.095,-0.010
0.432,0.045,-0.010
0.434,0.000,-0.005
0.436,-0.015,-0.005
0.438,-0.060,0.000
0.440,-0.035,0.000
0.442,-0.025,0.000
0.444,0.005,0.000
0.446,0.030,0.000
0.448,0.045,-0.005
0.450,0.030,-0.010
0.452,0.035,-0.015
0.454,-0.015,-0.015
0.456,-0.035,-0.015
0.458,-0.090,-0.015
0.460,-0.035,-0.010
0.462,0.030,0.000
0.464,0.025,0.005
0.466,0.080,0.015
0.468,0.130,0.020
0.470,0.095,0.025
0.472,0.065,0.025
0.474,0.020,0.025
0.476,-0.025,0.020
0.478,-0.050,0.015
0.480,-0.035,0.010
0.482,-0.025,0.010
0.484,0.010,0.010
0.486,0.060,0.010
0.488,0.140,0.015
0.490,0.140,0.020
0.492,0.130,0.025
0.494,0.025,0.030
0.496,-0.045,0.030
0.498,-0.050,0.030
0.500,-0.075,0.030
0.502,0.010,0.030
0.504,0.095,0.030
0.506,0.135,0.030
0.508,0.125,0.030
0.510,0.140,0.030
0.512,0.055,0.030
0.514,0.030,0.035
0.516,-0.035,0.040
0.518,-0.025,0.045
0.520,0.025,0.045
0.522,0.090,0.050
0.524,0.105,0.055
0.526,0.090,0.065
0.528,0.135,0.070
0.530,0.200,0.080
0.532,0.150,0.090
0.534,0.085,0.105
0.536,0.095,0.115
0.538,0.025,0.125
0.540,0.055,0.135
0.542,0.140,0.140
0.544,0.205,0.140
0.546,0.220,0.140
0.548,0.300,0.140
0.550,0.215,0.140
0.552,0.165,0.140
0.554,0.115,0.145
0.556,0.090,0.150
0.558,0.105,0.155
0.560,0.185,0.170
0.562,0.215,0.180
0.564,0.265,0.185
0.566,0.215,0.195
0.568,0.300,0.195
0.570,0.240,0.195
0.572,0.205,0.195
0.574,0.190,0.190
0.576,0.145,0.190
0.578,0.130,0.185
0.580,0.170,0.185
0.582,0.200,0.185
0.584,0.255,0.190
0.586,0.215,0.190
0.588,0.285,0.190
0.590,0.240,0.185
0.592,0.180,0.175
0.594,0.130,0.165
0.596,0.115,0.155
0.598,0.090,0.145
0.600,0.105,0.135
0.602,0.075,0.125
0.604,0.145,0.120
0.606,0.240,0.115
0.608,0.215,0.105
0.610,0.170,0.100
0.612,0.085,0.090
0.614,0.045,0.075
0.616,0.025,0.060
0.618,-0.045,0.045
0.620,-0.020,0.030
0.622,0.035,0.015
0.624,0.100,0.005
0.626,0.055,-0.005
0.628,0.130,-0.010
0.630,0.045,-0.010
0.632,-0.025,-0.015
0.634,-0.080,-0.020
0.636,-0.125,-0.025
0.638,-0.105,-0.035
0.640,-0.045,-0.040
0.642,0.050,-0.050
0.644,0.065,-0.050
0.646,0.015,-0.055
0.648,0.000,-0.055
0.650,-0.005,-0.050
0.652,-0.030,-0.050
0.654,-0.090,-0.050
0.656,-0.120,-0.050
0.658,-0.155,-0.055
0.660,-0.130,-0.065
0.662,-0.045,-0.075
0.664,0.030,-0.080
0.666,-0.005,-0.085
0.668,0.020,-0.085
0.670,0.010,-0.080
0.672,-0.040,-0.075
0.674,-0.090,-0.065
0.676,-0.065,-0.055
0.678,-0.120,-0.050
0.680,-0.100,-0.050
0.682,-0.060,-0.050
0.684,-0.035,-0.055
0.686,-0.020,-0.060
0.688,0.030,-0.065
0.690,-0.010,-0.070
0.692,-0.030,-0.070
0.694,-0.040,-0.065
0.696,-0.095,-0.055
0.698,-0.120,-0.050
0.700,-0.090,-0.045
0.702,-0.045,-0.040
0.704,0.050,-0.040
0.706,0.025,-0.045
0.708,0.030,-0.050
0.710,-0.045,-0.050
0.712,-0.045,-0.055
0.714,-0.065,-0.050
0.716,-0.090,-0.050
0.718,-0.110,-0.045
0.720,-0.035,-0.035
0.722,-0.020,-0.035
0.724,-0.020,-0.035
0.726,0.035,-0.035
0.728,0.055,-0.045
0.730,-0.025,-0.050
0.732,-0.065,-0.060
0.734,-0.065,-0.070
0.736,-0.080,-0.075
0.738,-0.140,-0.080
0.740,-0.120,-0.080
0.742,-0.040,-0.075
0.744,0.000,-0.075
0.746,-0.015,-0.070
0.748,0.020,-0.060
0.750,-0.025,-0.055
0.752,-0.035,-0.050
0.754,-0.075,-0.045
0.756,-0.075,-0.040
0.758,-0.105,-0.035
0.760,-0.050,-0.035
0.762,-0.020,-0.030
0.764,0.020,-0.030
0.766,0.050,-0.035
0.768,0.010,-0.035
0.770,0.010,-0.040
0.772,-0.025,-0.040
0.774,-0.055,-0.045
0.776,-0.155,-0.045
0.778,-0.080,-0.040
0.780,-0.035,-0.040
0.782,-0.015,-0.035
0.784,0.050,-0.035
0.786,0.050,-0.035
0.788,-0.005,-0.035
0.790,-0.015,-0.040
0.792,-0.030,-0.045
0.794,-0.110,-0.050
0.796,-0.100,-0.055
0.798,-0.070,-0.055
0.800,-0.050,-0.055
0.802,-0.015,-0.050
0.804,0.025,-0.050
0.806,0.050,-0.045
0.808,0.050,-0.040
0.810,-0.010,-0.040
0.812,-0.045,-0.040
0.814,-0.060,-0.040
0.816,-0.130,-0.040
0.818,-0.135,-0.045
0.820,-0.070,-0.050
0.822,0.015,-0.055
0.824,0.015,-0.055
0.826,0.070,-0.055
0.828,-0.030,-0.050
0.830,-0.050,-0.050
0.832,-0.015,-0.045
0.834,-0.055,-0.040
0.836,-0.110,-0.035
0.838,-0.100,-0.035
0.840,-0.095,-0.035
0.842,-0.015,-0.040
0.844,0.015,-0.045
0.846,0.060,-0.050
0.848,0.030,-0.055
0.850,-0.045,-0.055
0.852,-0.095,-0.055
0.854,-0.105,-0.050
0.856,-0.065,-0.045
0.858,-0.070,-0.035
0.860,-0.035,-0.025
0.862,0.030,-0.020
0.864,0.045,-0.015
0.866,0.045,-0.010
0.868,0.010,-0.015
0.870,-0.005,-0.020
0.872,-0.065,-0.030
0.874,-0.120,-0.040
0.876,-0.135,-0.050
0.878,-0.120,-0.060
0.880,-0.050,-0.065
0.882,-0.035,-0.065
0.884,-0.050,-0.065
0.886,0.010,-0.055
0.888,0.050,-0.050
0.890,0.000,-0.045
0.892,-0.045,-0.035
0.894,-0.055,-0.035
0.896,-0.120,-0.040
0.898,-0.120,-0.045
0.900,-0.090,-0.055
0.902,-0.010,-0.065
0.904,-0.015,-0.070
0.906,0.005,-0.080
0.908,-0.030,-0.080
0.910,-0.030,-0.075
0.912,-0.105,-0.070
0.914,-0.100,-0.060
0.916,-0.115,-0.050
0.918,-0.120,-0.040
0.920,-0.020,-0.030
0.922,0.025,-0.030
0.924,0.050,-0.030
0.926,0.060,-0.035
0.928,0.000,-0.035
0.930,-0.025,-0.040
0.932,-0.090,-0.040
0.934,-0.095,-0.035
0.936,-0.090,-0.035
0.938,-0.090,-0.025
0.940,-0.060,-0.020
0.942,0.065,-0.015
0.944,0.040,-0.015
0.946,0.020,-0.015
0.948,0.050,-0.020
0.950,-0.040,-0.020
0.952,-0.045,-0.025
0.954,-0.110,-0.025
0.956,-0.090,-0.030
0.958,-0.035,-0.025
0.960,-0.030,-0.025
0.962,0.035,-0.025
0.964,0.040,-0.020
0.966,0.040,-0.020
0.968,0.025,-0.020
0.970,0.005,-0.020
0.972,-0.085,-0.020
0.974,-0.060,-0.020
0.976,-0.095,-0.020
0.978,-0.045,-0.020
0.980,-0.040,-0.025
0.982,0.005,-0.025
0.984,0.050,-0.030
0.986,0.090,-0.030
0.988,-0.015,-0.035
0.990,-0.080,-0.035
0.992,-0.085,-0.035
0.994,-0.075,-0.030
0.996,-0.100,-0.025
0.998,-0.045,-0.025
1.000,-0.015,-0.020
1.002,-0.010,-0.020
1.004,0.025,-0.020
1.006,0.020,-0.025
1.008,-0.025,-0.030
1.010,-0.065,-0.040
1.012,-0.120,-0.045
1.014,-0.090,-0.055
1.016,-0.130,-0.060
1.018,-0.135,-0.060
1.020,-0.055,-0.060
1.022,-0.020,-0.055
1.024,-0.020,-0.055
1.026,0.020,-0.050
1.028,-0.030,-0.050
1.030,-0.085,-0.045
1.032,-0.125,-0.045
1.034,-0.085,-0.045
1.036,-0.140,-0.045
1.038,-0.120,-0.050
1.040,-0.030,-0.050
1.042,0.005,-0.055
1.044,-0.050,-0.060
1.046,-0.020,-0.070
1.048,-0.035,-0.075
1.050,-0.070,-0.080
1.052,-0.065,-0.080
1.054,-0.205,-0.085
1.056,-0.225,-0.085
1.058,-0.145,-0.080
1.060,-0.050,-0.085
1.062,0.005,-0.085
1.064,-0.035,-0.090
1.066,-0.065,-0.100
1.068,-0.085,-0.105
1.070,-0.125,-0.110
1.072,-0.145,-0.110
1.074,-0.150,-0.095
1.076,-0.130,-0.070
1.078,-0.065,-0.030
1.080,0.010,0.025
1.082,0.105,0.090
1.084,0.260,0.165
1.086,0.310,0.240
1.088,0.345,0.305
1.090,0.400,0.360
1.092,0.380,0.390
1.094,0.380,0.390
1.096,0.330,0.365
1.098,0.260,0.310
1.100,0.150,0.235
1.102,0.060,0.140
1.104,0.060,0.040
1.106,0.040,-0.065
1.108,-0.150,-0.155
1.110,-0.255,-0.230
1.112,-0.420,-0.280
1.114,-0.505,-0.315
1.116,-0.415,-0.325
1.118,-0.325,-0.320
1.120,-0.220,-0.300
1.122,-0.190,-0.275
1.124,-0.205,-0.250
1.126,-0.205,-0.225
1.128,-0.195,-0.200
1.130,-0.255,-0.180
1.132,-0.255,-0.160
1.134,-0.200,-0.140
1.136,-0.150,-0.120
1.138,-0.090,-0.105
1.140,-0.075,-0.085
1.142,-0.020,-0.075
1.144,0.020,-0.065
1.146,-0.040,-0.060
1.148,-0.135,-0.060
1.150,-0.150,-0.055
1.152,-0.115,-0.055
1.154,-0.140,-0.055
1.156,-0.125,-0.050
1.158,-0.030,-0.045
1.160,-0.015,-0.035
1.162,-0.060,-0.035
1.164,0.030,-0.030
1.166,-0.005,-0.030
1.168,-0.095,-0.035
1.170,-0.110,-0.045
1.172,-0.160,-0.050
1.174,-0.155,-0.055
1.176,-0.115,-0.055
1.178,-0.030,-0.050
1.180,-0.025,-0.040
1.182,0.005,-0.025
1.184,0.075,-0.015
1.186,-0.005,-0.005
1.188,-0.060,0.000
1.190,-0.075,-0.005
1.192,-0.110,-0.010
1.194,-0.165,-0.025
1.196,-0.120,-0.035
1.198,-0.085,-0.040
1.200,0.010,-0.045
1.202,0.025,-0.040
1.204,0.035,-0.035
1.206,0.010,-0.025
1.208,-0.080,-0.015
1.210,-0.140,-0.005
1.212,-0.070,-0.005
1.214,-0.170,-0.010
1.216,-0.070,-0.015
1.218,-0.045,-0.020
1.220,-0.015,-0.030
1.222,0.020,-0.030
1.224,0.035,-0.025
1.226,-0.010,-0.015
1.228,-0.085,-0.005
1.230,-0.070,0.010
1.232,-0.050,0.020
1.234,-0.090,0.025
1.236,-0.035,0.020
1.238,-0.025,0.015
1.240,-0.015,0.005
1.242,-0.020,-0.005
1.244,0.030,-0.015
1.246,0.015,-0.015
1.248,-0.020,-0.010
1.250,-0.035,0.000
1.252,-0.110,0.015
1.254,-0.135,0.025
1.256,0.005,0.035
1.258,0.025,0.035
1.260,-0.015,0.035
1.262,-0.020,0.030
1.264,0.020,0.020
1.266,0.020,0.015
1.268,-0.035,0.010
1.270,-0.090,0.005
1.272,-0.040,0.010
1.274,-0.090,0.015
1.276,-0.085,0.025
1.278,0.025,0.030
1.280,0.070,0.040
1.282,0.040,0.045
1.284,0.070,0.050
1.286,0.035,0.050
1.288,0.005,0.055
1.290,-0.005,0.065
1.292,-0.040,0.070
1.294,-0.015,0.075
1.296,0.015,0.080
1.298,0.065,0.085
1.300,0.080,0.085
1.302,0.120,0.090
1.304,0.130,0.090
1.306,0.070,0.090
1.308,0.030,0.100
1.310,0.005,0.105
1.312,0.040,0.120
1.314,0.010,0.130
1.316,0.085,0.145
1.318,0.105,0.155
1.320,0.160,0.160
1.322,0.165,0.165
1.324,0.190,0.160
1.326,0.155,0.160
1.328,0.035,0.155
1.330,0.020,0.155
1.332,0.075,0.160
1.334,0.090,0.170
1.336,0.095,0.180
1.338,0.180,0.190
1.340,0.235,0.195
1.342,0.220,0.200
1.344,0.215,0.200
1.346,0.095,0.195
1.348,0.045,0.185
1.350,0.065,0.175
1.352,0.085,0.165
1.354,0.060,0.155
1.356,0.105,0.145
1.358,0.075,0.140
1.360,0.145,0.135
1.362,0.140,0.130
1.364,0.135,0.120
1.366,0.025,0.105
1.368,-0.025,0.090
1.370,-0.115,0.070
1.372,-0.035,0.050
1.374,-0.115,0.035
1.376,-0.075,0.020
1.378,-0.040,0.010
1.380,0.020,0.000
1.382,0.030,-0.005
1.384,0.025,-0.010
1.386,-0.065,-0.015
1.388,-0.115,-0.020
1.390,-0.130,-0.025
1.392,-0.160,-0.025
1.394,-0.195,-0.030
1.396,-0.140,-0.035
1.398,-0.085,-0.035
1.400,-0.060,-0.030
1.402,0.035,-0.030
1.404,-0.015,-0.030
1.406,-0.085,-0.030
1.408,-0.135,-0.030
1.410,-0.180,-0.035
1.412,-0.205,-0.045
1.414,-0.250,-0.050
1.416,-0.170,-0.060
1.418,-0.080,-0.070
1.420,-0.065,-0.075
1.422,-0.065,-0.075
1.424,-0.095,-0.075
1.426,-0.160,-0.075
1.428,-0.185,-0.075
1.430,-0.200,-0.070
1.432,-0.260,-0.070
1.434,-0.175,-0.065
1.436,-0.110,-0.060
1.438,-0.095,-0.060
1.440,-0.080,-0.055
1.442,-0.040,-0.050
1.444,-0.080,-0.050
1.446,-0.140,-0.050
1.448,-0.165,-0.050
1.450,-0.245,-0.055
1.452,-0.250,-0.065
1.454,-0.225,-0.075
1.456,-0.175,-0.080
1.458,-0.135,-0.085
1.460,-0.115,-0.085
1.462,-0.090,-0.080
1.464,-0.115,-0.075
1.466,-0.180,-0.065
1.468,-0.155,-0.055
1.470,-0.150,-0.045
1.472,-0.215,-0.045
1.474,-0.195,-0.045
1.476,-0.115,-0.050
1.478,-0.070,-0.055
1.480,-0.100,-0.065
1.482,-0.095,-0.070
1.484,-0.105,-0.075
1.486,-0.155,-0.080
1.488,-0.220,-0.080
1.490,-0.210,-0.075
1.492,-0.275,-0.075
1.494,-0.240,-0.075
1.496,-0.130,-0.075
1.498,-0.095,-0.075
1.500,-0.110,-0.080
1.502,-0.095,-0.080
1.504,-0.155,-0.085
1.506,-0.170,-0.085
1.508,-0.210,-0.080
1.510,-0.200,-0.075
1.512,-0.225,-0.065
1.514,-0.200,-0.060
1.516,-0.115,-0.055
1.518,-0.110,-0.055
1.520,-0.110,-0.055
1.522,-0.095,-0.055
1.524,-0.140,-0.055
1.526,-0.140,-0.055
1.528,-0.185,-0.050
1.530,-0.215,-0.050
1.532,-0.250,-0.045
1.534,-0.230,-0.040
1.536,-0.130,-0.040
1.538,-0.085,-0.035
1.540,-0.060,-0.040
1.542,-0.110,-0.045
1.544,-0.115,-0.045
1.546,-0.125,-0.050
1.548,-0.150,-0.050
1.550,-0.165,-0.045
1.552,-0.205,-0.040
1.554,-0.235,-0.035
1.556,-0.140,-0.030
1.558,-0.070,-0.025
1.560,-0.115,-0.020
1.562,-0.045,-0.020
1.564,-0.040,-0.025
1.566,-0.105,-0.030
1.568,-0.205,-0.035
1.570,-0.190,-0.040
1.572,-0.270,-0.040
1.574,-0.155,-0.045
1.576,-0.190,-0.045
1.578,-0.140,-0.050
1.580,-0.120,-0.050
1.582,-0.050,-0.050
1.584,-0.090,-0.055
1.586,-0.210,-0.055
1.588,-0.235,-0.055
1.590,-0.175,-0.050
1.592,-0.230,-0.040
1.594,-0.200,-0.035
1.596,-0.105,-0.025
1.598,-0.045,-0.020
1.600,-0.075,-0.015
1.602,-0.055,-0.015
1.604,-0.095,-0.015
1.606,-0.175,-0.020
1.608,-0.210,-0.020
1.610,-0.230,-0.025
1.612,-0.200,-0.025
1.614,-0.155,-0.025
1.616,-0.075,-0.020
1.618,-0.045,-0.015
1.620,-0.105,-0.010
1.622,-0.045,-0.010
1.624,-0.115,-0.010
1.626,-0.195,-0.010
1.628,-0.220,-0.020
1.630,-0.250,-0.025
1.632,-0.240,-0.030
1.634,-0.155,-0.035
1.636,-0.085,-0.035
1.638,-0.075,-0.030
1.640,-0.045,-0.030
1.642,-0.095,-0.025
1.644,-0.180,-0.020
1.646,-0.195,-0.015
1.648,-0.235,-0.015
1.650,-0.205,-0.020
1.652,-0.220,-0.020
1.654,-0.175,-0.020
1.656,-0.130,-0.020
1.658,-0.100,-0.020
1.660,-0.100,-0.015
1.662,-0.060,-0.015
1.664,-0.150,-0.010
1.666,-0.195,-0.010
1.668,-0.180,-0.010
1.670,-0.180,-0.015
1.672,-0.215,-0.020
1.674,-0.190,-0.020
1.676,-0.135,-0.020
1.678,-0.090,-0.015
1.680,-0.070,-0.005
1.682,-0.045,0.005
1.684,-0.090,0.020
1.686,-0.145,0.025
1.688,-0.205,0.030
1.690,-0.155,0.025
1.692,-0.130,0.015
1.694,-0.160,0.000
1.696,-0.190,-0.015
1.698,-0.125,-0.025
1.700,-0.120,-0.035
1.702,-0.095,-0.035
1.704,-0.120,-0.030
1.706,-0.185,-0.015
1.708,-0.165,-0.005
1.710,-0.200,0.010
1.712,-0.195,0.025
1.714,-0.135,0.030
1.716,-0.110,0.030
1.718,-0.040,0.030
1.720,-0.055,0.025
1.722,-0.070,0.020
1.724,-0.115,0.015
1.726,-0.170,0.015
1.728,-0.160,0.015
1.730,-0.245,0.020
1.732,-0.180,0.020
1.734,-0.115,0.025
1.736,-0.040,0.025
1.738,-0.090,0.020
1.740,-0.040,0.020
1.742,-0.040,0.025
1.744,-0.085,0.030
1.746,-0.145,0.035
1.748,-0.155,0.045
1.750,-0.135,0.060
1.752,-0.095,0.075
1.754,-0.095,0.090
1.756,-0.070,0.100
1.758,0.020,0.105
1.760,0.040,0.105
1.762,-0.005,0.105
1.764,-0.045,0.105
1.766,-0.110,0.100
1.768,-0.120,0.100
1.770,-0.120,0.100
1.772,-0.065,0.095
1.774,-0.030,0.095
1.776,-0.045,0.095
1.778,-0.030,0.095
1.780,-0.005,0.090
1.782,-0.070,0.085
1.784,-0.040,0.085
1.786,-0.055,0.085
1.788,-0.070,0.085
1.790,-0.180,0.090
1.792,-0.110,0.095
1.794,-0.050,0.100
1.796,0.000,0.105
1.798,0.000,0.105
1.800,0.035,0.100
1.802,-0.060,0.090
1.804,-0.075,0.080
1.806,-0.155,0.070
1.808,-0.170,0.060
1.810,-0.145,0.060
1.812,-0.140,0.060
1.814,-0.080,0.060
1.816,-0.050,0.070
1.818,-0.040,0.075
1.820,-0.010,0.075
1.822,-0.045,0.075
1.824,-0.135,0.070
1.826,-0.225,0.060
1.828,-0.210,0.045
1.830,-0.190,0.035
1.832,-0.225,0.030
1.834,-0.080,0.030
1.836,-0.015,0.040
1.838,-0.065,0.055
1.840,-0.025,0.065
1.842,-0.090,0.080
1.844,-0.095,0.085
1.846,-0.145,0.085
1.848,-0.165,0.080
1.850,-0.200,0.065
1.852,-0.170,0.050
1.854,-0.095,0.040
1.856,-0.110,0.030
1.858,-0.100,0.025
1.860,-0.080,0.030
1.862,-0.140,0.040
1.864,-0.105,0.050
1.866,-0.165,0.060
1.868,-0.215,0.065
1.870,-0.225,0.060
1.872,-0.140,0.055
1.874,-0.135,0.050
1.876,-0.045,0.035
1.878,-0.110,0.025
1.880,-0.070,0.020
1.882,-0.125,0.015
1.884,-0.180,0.010
1.886,-0.200,0.015
1.888,-0.255,0.020
1.890,-0.305,0.030
1.892,-0.185,0.050
1.894,-0.040,0.080
1.896,0.030,0.125
1.898,0.075,0.180
1.900,0.170,0.245
1.902,0.185,0.315
1.904,0.210,0.385
1.906,0.230,0.440
1.908,0.275,0.480
1.910,0.275,0.490
1.912,0.325,0.470
1.914,0.305,0.420
1.916,0.175,0.350
1.918,0.000,0.260
1.920,-0.020,0.165
1.922,-0.020,0.070
1.924,-0.185,-0.015
1.926,-0.305,-0.080
1.928,-0.450,-0.135
1.930,-0.510,-0.170
1.932,-0.440,-0.185
1.934,-0.370,-0.190
1.936,-0.295,-0.185
1.938,-0.245,-0.170
1.940,-0.240,-0.150
1.942,-0.220,-0.125
1.944,-0.295,-0.100
1.946,-0.280,-0.070
1.948,-0.320,-0.045
1.950,-0.295,-0.020
1.952,-0.225,0.000
1.954,-0.175,0.010
1.956,-0.145,0.020
1.958,-0.145,0.020
1.960,-0.085,0.020
1.962,-0.140,0.015
1.964,-0.215,0.015
1.966,-0.215,0.015
1.968,-0.240,0.015
1.970,-0.220,0.020
1.972,-0.185,0.020
1.974,-0.150,0.025
1.976,-0.095,0.025
1.978,-0.125,0.025
1.980,-0.115,0.025
1.982,-0.145,0.020
1.984,-0.240,0.015
1.986,-0.235,0.015
1.988,-0.240,0.010
1.990,-0.205,0.010
1.992,-0.190,0.010
1.994,-0.160,0.010
1.996,-0.130,0.010
1.998,-0.110,0.010
2.000,-0.110,0.010
2.002,-0.135,0.010
2.004,-0.245,0.010
2.006,-0.255,0.010
2.008,-0.280,0.010
2.010,-0.275,0.015
2.012,-0.170,0.020
2.014,-0.140,0.025
2.016,-0.140,0.035
2.018,-0.085,0.040
2.020,-0.085,0.045
2.022,-0.125,0.050
2.024,-0.215,0.050
2.026,-0.205,0.050
2.028,-0.240,0.045
2.030,-0.265,0.040
2.032,-0.180,0.030
2.034,-0.115,0.025
2.036,-0.160,0.015
2.038,-0.105,0.010
2.040,-0.140,0.010
2.042,-0.210,0.010
2.044,-0.230,0.015
2.046,-0.215,0.020
2.048,-0.280,0.030
2.050,-0.230,0.035
2.052,-0.185,0.040
2.054,-0.145,0.045
2.056,-0.105,0.045
2.058,-0.105,0.045
2.060,-0.095,0.045
2.062,-0.165,0.040
2.064,-0.195,0.040
2.066,-0.200,0.040
2.068,-0.230,0.040
2.070,-0.225,0.045
2.072,-0.175,0.050
2.074,-0.105,0.055
2.076,-0.080,0.065
2.078,-0.055,0.070
2.080,-0.110,0.070
2.082,-0.135,0.075
2.084,-0.200,0.075
2.086,-0.170,0.075
2.088,-0.235,0.070
2.090,-0.190,0.070
2.092,-0.130,0.070
2.094,-0.070,0.070
2.096,-0.050,0.075
2.098,-0.095,0.080
2.100,-0.090,0.085
2.102,-0.120,0.090
2.104,-0.195,0.095
2.106,-0.150,0.100
2.108,-0.220,0.100
2.110,-0.125,0.105
2.112,-0.115,0.105
2.114,-0.075,0.105
2.116,-0.050,0.110
2.118,-0.010,0.115
2.120,-0.040,0.120
2.122,-0.145,0.125
2.124,-0.130,0.130
2.126,-0.100,0.140
2.128,-0.175,0.145
2.130,-0.085,0.150
2.132,-0.030,0.150
2.134,0.000,0.155
2.136,-0.030,0.155
2.138,0.010,0.160
2.140,-0.020,0.165
2.142,-0.050,0.170
2.144,-0.090,0.180
2.146,-0.065,0.185
2.148,-0.070,0.190
2.150,-0.065,0.195
2.152,-0.030,0.195
2.154,-0.020,0.190
2.156,-0.010,0.180
2.158,0.000,0.170
2.160,-0.030,0.160
2.162,-0.065,0.155
2.164,-0.085,0.145
2.166,-0.135,0.140
2.168,-0.180,0.140
2.170,-0.095,0.145
2.172,-0.030,0.145
2.174,-0.050,0.145
2.176,-0.085,0.145
2.178,-0.010,0.140
2.180,-0.035,0.130
2.182,-0.085,0.120
2.184,-0.200,0.105
2.186,-0.195,0.090
2.188,-0.200,0.080
2.190,-0.230,0.070
2.192,-0.190,0.060
2.194,-0.115,0.055
2.196,-0.085,0.055
2.198,-0.090,0.050
2.200,-0.155,0.050
2.202,-0.230,0.040
2.204,-0.270,0.030
2.206,-0.300,0.015
2.208,-0.310,0.000
2.210,-0.265,-0.025
2.212,-0.235,-0.040
2.214,-0.250,-0.060
2.216,-0.200,-0.070
2.218,-0.200,-0.075
2.220,-0.225,-0.070
2.222,-0.290,-0.065
2.224,-0.325,-0.055
2.226,-0.340,-0.045
2.228,-0.345,-0.040
2.230,-0.290,-0.040
2.232,-0.270,-0.040
2.234,-0.235,-0.045
2.236,-0.215,-0.050
2.238,-0.175,-0.055
2.240,-0.300,-0.055
2.242,-0.255,-0.055
2.244,-0.295,-0.050
2.246,-0.380,-0.045
2.248,-0.320,-0.040
2.250,-0.255,-0.035
2.252,-0.215,-0.035
2.254,-0.240,-0.035
2.256,-0.215,-0.045
2.258,-0.185,-0.050
2.260,-0.240,-0.055
2.262,-0.270,-0.060
2.264,-0.320,-0.055
2.266,-0.340,-0.055
2.268,-0.290,-0.050
2.270,-0.305,-0.045
2.272,-0.305,-0.040
2.274,-0.205,-0.040
2.276,-0.150,-0.040
2.278,-0.225,-0.050
2.280,-0.245,-0.055
2.282,-0.275,-0.060
2.284,-0.325,-0.065
2.286,-0.350,-0.065
2.288,-0.375,-0.060
2.290,-0.280,-0.050
2.292,-0.230,-0.040
2.294,-0.195,-0.035
2.296,-0.180,-0.030
2.298,-0.195,-0.030
2.300,-0.270,-0.035
2.302,-0.280,-0.040
2.304,-0.330,-0.050
2.306,-0.365,-0.060
2.308,-0.330,-0.065
2.310,-0.290,-0.065
2.312,-0.225,-0.060
2.314,-0.230,-0.060
2.316,-0.235,-0.055
2.318,-0.205,-0.055
2.320,-0.220,-0.055
2.322,-0.295,-0.055
2.324,-0.315,-0.065
2.326,-0.375,-0.070
2.328,-0.345,-0.075
2.330,-0.295,-0.080
2.332,-0.230,-0.075
2.334,-0.215,-0.075
2.336,-0.190,-0.065
2.338,-0.210,-0.055
2.340,-0.240,-0.050
2.342,-0.290,-0.045
2.344,-0.285,-0.040
2.346,-0.345,-0.040
2.348,-0.305,-0.045
2.350,-0.280,-0.050
2.352,-0.260,-0.050
2.354,-0.200,-0.055
2.356,-0.185,-0.055
2.358,-0.235,-0.055
2.360,-0.285,-0.055
2.362,-0.295,-0.055
2.364,-0.335,-0.060
2.366,-0.360,-0.065
2.368,-0.350,-0.070
2.370,-0.290,-0.080
2.372,-0.205,-0.085
2.374,-0.260,-0.090
2.376,-0.215,-0.090
2.378,-0.195,-0.085
2.380,-0.330,-0.080
2.382,-0.285,-0.065
2.384,-0.310,-0.050
2.386,-0.335,-0.040
2.388,-0.270,-0.030
2.390,-0.190,-0.030
2.392,-0.170,-0.035
2.394,-0.245,-0.040
2.396,-0.215,-0.045
2.398,-0.195,-0.055
2.400,-0.225,-0.055
2.402,-0.305,-0.055
2.404,-0.305,-0.050
2.406,-0.330,-0.045
2.408,-0.285,-0.035
2.410,-0.245,-0.030
2.412,-0.220,-0.025
2.414,-0.190,-0.025
2.416,-0.140,-0.030
2.418,-0.205,-0.035
2.420,-0.235,-0.045
2.422,-0.305,-0.050
2.424,-0.290,-0.050
2.426,-0.345,-0.050
2.428,-0.295,-0.050
2.430,-0.235,-0.045
2.432,-0.185,-0.045
2.434,-0.175,-0.045
2.436,-0.190,-0.045
2.438,-0.210,-0.050
2.440,-0.230,-0.055
2.442,-0.315,-0.060
2.444,-0.345,-0.065
2.446,-0.340,-0.065
2.448,-0.275,-0.065
2.450,-0.235,-0.065
2.452,-0.195,-0.065
2.454,-0.170,-0.060
2.456,-0.175,-0.060
2.458,-0.200,-0.060
2.460,-0.235,-0.060
2.462,-0.360,-0.065
2.464,-0.300,-0.065
2.466,-0.325,-0.070
2.468,-0.285,-0.070
2.470,-0.235,-0.070
2.472,-0.210,-0.065
2.474,-0.215,-0.065
2.476,-0.175,-0.065
2.478,-0.215,-0.065
2.480,-0.240,-0.065
2.482,-0.310,-0.065
2.484,-0.315,-0.070
2.486,-0.320,-0.070
2.488,-0.290,-0.070
2.490,-0.270,-0.070
2.492,-0.240,-0.070
2.494,-0.155,-0.070
2.496,-0.140,-0.065
2.498,-0.195,-0.065
2.500,-0.285,-0.065
2.502,-0.320,-0.065
2.504,-0.345,-0.070
2.506,-0.350,-0.070
2.508,-0.260,-0.070
2.510,-0.190,-0.070
2.512,-0.175,-0.075
2.514,-0.220,-0.075
2.516,-0.195,-0.080
2.518,-0.220,-0.085
2.520,-0.280,-0.090
2.522,-0.325,-0.095
2.524,-0.355,-0.100
2.526,-0.335,-0.105
2.528,-0.315,-0.110
2.530,-0.260,-0.110
2.532,-0.195,-0.105
2.534,-0.215,-0.105
2.536,-0.190,-0.100
2.538,-0.235,-0.095
2.540,-0.315,-0.090
2.542,-0.310,-0.090
2.544,-0.345,-0.095
2.546,-0.390,-0.100
2.548,-0.295,-0.110
2.550,-0.260,-0.115
2.552,-0.190,-0.115
2.554,-0.195,-0.115
2.556,-0.220,-0.110
2.558,-0.305,-0.105
2.560,-0.305,-0.100
2.562,-0.280,-0.090
2.564,-0.335,-0.085
2.566,-0.315,-0.085
2.568,-0.215,-0.090
2.570,-0.230,-0.095
2.572,-0.260,-0.100
2.574,-0.270,-0.110
2.576,-0.175,-0.115
2.578,-0.250,-0.115
2.580,-0.285,-0.110
2.582,-0.315,-0.105
2.584,-0.350,-0.095
2.586,-0.280,-0.090
2.588,-0.270,-0.085
2.590,-0.235,-0.080
2.592,-0.215,-0.080
2.594,-0.205,-0.085
2.596,-0.180,-0.090
2.598,-0.210,-0.100
2.600,-0.300,-0.110
2.602,-0.300,-0.120
2.604,-0.350,-0.130
2.606,-0.375,-0.135
2.608,-0.310,-0.135
2.610,-0.240,-0.135
2.612,-0.245,-0.135
2.614,-0.180,-0.135
2.616,-0.190,-0.135
2.618,-0.260,-0.130
2.620,-0.320,-0.130
2.622,-0.355,-0.130
2.624,-0.330,-0.135
2.626,-0.355,-0.135
2.628,-0.290,-0.135
2.630,-0.210,-0.140
2.632,-0.210,-0.140
2.634,-0.200,-0.140
2.636,-0.215,-0.140
2.638,-0.270,-0.135
2.640,-0.285,-0.130
2.642,-0.315,-0.125
2.644,-0.310,-0.120
2.646,-0.280,-0.115
2.648,-0.260,-0.110
2.650,-0.225,-0.110
2.652,-0.220,-0.110
2.654,-0.175,-0.115
2.656,-0.220,-0.115
2.658,-0.280,-0.120
2.660,-0.325,-0.120
2.662,-0.295,-0.125
2.664,-0.300,-0.120
2.666,-0.290,-0.120
2.668,-0.265,-0.120
2.670,-0.215,-0.120
2.672,-0.210,-0.120
2.674,-0.170,-0.120
2.676,-0.205,-0.130
2.678,-0.270,-0.135
2.680,-0.355,-0.150
2.682,-0.340,-0.155
2.684,-0.360,-0.165
2.686,-0.315,-0.160
2.688,-0.255,-0.150
2.690,-0.185,-0.130
2.692,-0.145,-0.095
2.694,-0.065,-0.055
2.696,-0.060,0.000
2.698,-0.070,0.060
2.700,-0.025,0.120
2.702,0.030,0.175
2.704,0.060,0.220
2.706,0.145,0.250
2.708,0.175,0.265
2.710,0.225,0.260
2.712,0.175,0.235
2.714,0.080,0.190
2.716,0.020,0.130
2.718,-0.035,0.060
2.720,-0.170,-0.015
2.722,-0.255,-0.090
2.724,-0.380,-0.155
2.726,-0.445,-0.210
2.728,-0.415,-0.250
2.730,-0.325,-0.275
2.732,-0.290,-0.280
2.734,-0.300,-0.275
2.736,-0.345,-0.265
2.738,-0.380,-0.250
2.740,-0.395,-0.230
2.742,-0.350,-0.210
2.744,-0.355,-0.195
2.746,-0.285,-0.185
2.748,-0.230,-0.170
2.750,-0.175,-0.155
2.752,-0.195,-0.140
2.754,-0.160,-0.125
2.756,-0.150,-0.105
2.758,-0.175,-0.090
2.760,-0.185,-0.075
2.762,-0.255,-0.065
2.764,-0.195,-0.060
2.766,-0.145,-0.055
2.768,-0.130,-0.055
2.770,-0.095,-0.050
2.772,-0.095,-0.050
2.774,-0.075,-0.050
2.776,-0.120,-0.045
2.778,-0.130,-0.040
2.780,-0.135,-0.035
2.782,-0.185,-0.030
2.784,-0.190,-0.025
2.786,-0.135,-0.020
2.788,-0.100,-0.020
2.790,-0.035,-0.020
2.792,-0.015,-0.020
2.794,-0.010,-0.015
2.796,-0.025,-0.015
2.798,-0.100,-0.010
2.800,-0.165,-0.010
2.802,-0.170,-0.010
2.804,-0.160,-0.010
2.806,-0.090,-0.015
2.808,-0.080,-0.020
2.810,-0.025,-0.020
2.812,-0.045,-0.020
2.814,-0.030,-0.020
2.816,-0.025,-0.010
2.818,-0.040,0.000
2.820,-0.115,0.010
2.822,-0.150,0.020
2.824,-0.085,0.030
2.826,-0.060,0.040
2.828,0.005,0.040
2.830,0.040,0.040
2.832,0.005,0.035
2.834,0.010,0.025
2.836,-0.045,0.020
2.838,-0.050,0.020
2.840,-0.085,0.020
2.842,-0.125,0.020
2.844,-0.090,0.025
2.846,-0.030,0.030
2.848,-0.010,0.035
2.850,0.040,0.040
2.852,0.055,0.045
2.854,0.030,0.045
2.856,-0.005,0.045
2.858,-0.040,0.040
2.860,-0.030,0.040
2.862,-0.065,0.045
2.864,-0.025,0.045
2.866,0.000,0.045
2.868,-0.005,0.050
2.870,0.060,0.050
2.872,0.080,0.050
2.874,0.035,0.050
2.876,0.020,0.050
2.878,-0.010,0.050
2.880,-0.035,0.050
2.882,-0.075,0.050
2.884,-0.045,0.055
2.886,-0.005,0.060
2.888,0.080,0.070
2.890,0.135,0.080
2.892,0.135,0.090
2.894,0.075,0.100
2.896,0.075,0.105
2.898,0.025,0.110
2.900,0.020,0.110
2.902,-0.015,0.110
2.904,0.040,0.110
2.906,0.070,0.110
2.908,0.090,0.110
2.910,0.120,0.110
2.912,0.180,0.110
2.914,0.150,0.120
2.916,0.085,0.125
2.918,0.055,0.135
2.920,0.075,0.145
2.922,0.035,0.155
2.924,0.100,0.165
2.926,0.180,0.170
2.928,0.185,0.175
2.930,0.185,0.180
2.932,0.190,0.180
2.934,0.245,0.185
2.936,0.215,0.185
2.938,0.140,0.185
2.940,0.110,0.190
2.942,0.105,0.195
2.944,0.160,0.200
2.946,0.200,0.205
2.948,0.285,0.210
2.950,0.215,0.210
2.952,0.265,0.215
2.954,0.265,0.215
2.956,0.235,0.210
2.958,0.145,0.210
2.960,0.150,0.210
2.962,0.110,0.205
2.964,0.150,0.205
2.966,0.170,0.205
2.968,0.220,0.200
2.970,0.230,0.195
2.972,0.305,0.190
2.974,0.230,0.180
2.976,0.160,0.170
2.978,0.055,0.155
2.980,0.055,0.145
2.982,0.085,0.135
2.984,0.070,0.125
2.986,0.105,0.115
2.988,0.135,0.110
2.990,0.125,0.105
2.992,0.215,0.100
2.994,0.130,0.095
2.996,0.045,0.085
2.998,-0.010,0.075
3.000,0.020,0.065
3.002,-0.025,0.055
3.004,0.010,0.040
3.006,0.040,0.030
3.008,0.095,0.020
3.010,0.055,0.010
3.012,0.065,0.000
3.014,0.040,-0.005
3.016,0.005,-0.005
3.018,-0.060,-0.010
3.020,-0.035,-0.005
3.022,-0.055,-0.005
3.024,-0.010,0.000
3.026,0.055,0.005
3.028,0.065,0.010
3.030,0.060,0.015
3.032,0.110,0.020
3.034,0.050,0.025
3.036,0.005,0.020
3.038,0.005,0.020
3.040,-0.015,0.010
3.042,-0.045,0.005
3.044,-0.010,-0.005
3.046,0.005,-0.010
3.048,0.060,-0.015
3.050,0.055,-0.020
3.052,0.095,-0.020
3.054,0.040,-0.020
3.056,0.000,-0.020
3.058,-0.075,-0.020
3.060,-0.035,-0.020
3.062,-0.080,-0.025
3.064,0.000,-0.030
3.066,0.005,-0.030
3.068,0.075,-0.035
3.070,0.040,-0.035
3.072,0.060,-0.030
3.074,0.035,-0.025
3.076,0.065,-0.015
3.078,-0.010,-0.010
3.080,-0.045,-0.005
3.082,-0.050,-0.005
3.084,0.010,-0.005
3.086,0.065,-0.010
3.088,0.080,-0.010
3.090,0.080,-0.015
3.092,0.090,-0.015
3.094,0.045,-0.015
3.096,0.020,-0.010
3.098,-0.020,-0.005
3.100,-0.060,0.000
3.102,-0.010,0.000
3.104,0.015,0.005
3.106,0.045,0.000
3.108,0.130,0.000
3.110,0.120,-0.005
3.112,0.075,-0.010
3.114,0.015,-0.015
3.116,0.010,-0.015
3.118,0.005,-0.010
3.120,0.000,-0.005
3.122,-0.010,-0.005
3.124,0.035,0.000
3.126,0.065,0.000
3.128,0.085,0.000
3.130,0.105,-0.005
3.132,0.130,-0.010
3.134,0.085,-0.015
3.136,0.010,-0.020
3.138,-0.020,-0.020
3.140,-0.020,-0.020
3.142,0.010,-0.015
3.144,0.075,-0.005
3.146,0.110,0.000
3.148,0.140,0.010
3.150,0.145,0.015
3.152,0.140,0.020
3.154,0.105,0.020
3.156,0.030,0.020
3.158,0.030,0.015
3.160,0.000,0.015
3.162,0.040,0.015
3.164,0.055,0.010
3.166,0.090,0.010
3.168,0.090,0.005
3.170,0.185,0.000
3.172,0.115,0.000
3.174,0.015,-0.005
3.176,0.080,-0.005
3.178,0.015,-0.005
3.180,-0.015,-0.005
3.182,0.015,0.000
3.184,0.095,0.005
3.186,0.125,0.010
3.188,0.125,0.015
3.190,0.165,0.015
3.192,0.145,0.015
3.194,0.090,0.010
3.196,0.060,0.005
3.198,0.015,0.000
3.200,-0.030,-0.010
3.202,0.025,-0.010
3.204,0.085,-0.015
3.206,0.085,-0.015
3.208,0.140,-0.010
3.210,0.200,-0.010
3.212,0.150,-0.005
3.214,0.095,-0.005
3.216,0.055,-0.005
3.218,0.035,-0.010
3.220,-0.035,-0.010
3.222,0.030,-0.010
3.224,0.110,-0.010
3.226,0.115,-0.010
3.228,0.135,-0.010
3.230,0.100,-0.005
3.232,0.115,-0.005
3.234,0.130,-0.005
3.236,0.095,-0.010
3.238,-0.005,-0.015
3.240,-0.020,-0.020
3.242,0.020,-0.025
3.244,0.030,-0.025
3.246,0.130,-0.030
3.248,0.100,-0.025
3.250,0.175,-0.025
3.252,0.130,-0.020
3.254,0.105,-0.015
3.256,0.070,-0.010
3.258,0.045,-0.010
3.260,0.000,-0.005
3.262,0.050,-0.005
3.264,0.035,0.000
3.266,0.145,0.000
3.268,0.190,0.000
3.270,0.195,0.000
3.272,0.155,0.000
3.274,0.100,0.000
3.276,0.055,-0.005
3.278,0.040,-0.005
3.280,-0.005,-0.010
3.282,0.075,-0.010
3.284,0.145,-0.010
3.286,0.110,-0.010
3.288,0.145,-0.005
3.290,0.245,0.000
3.292,0.170,0.005
3.294,0.120,0.015
3.296,0.065,0.020
3.298,0.060,0.020
3.300,0.045,0.020
3.302,0.075,0.015
3.304,0.080,0.010
3.306,0.170,0.000
3.308,0.175,-0.010
3.310,0.155,-0.025
3.312,0.135,-0.035
3.314,0.060,-0.045
3.316,0.040,-0.050
3.318,0.050,-0.055
3.320,-0.045,-0.060
3.322,-0.035,-0.060
3.324,0.055,-0.060
3.326,0.105,-0.060
3.328,0.135,-0.055
3.330,0.175,-0.050
3.332,0.120,-0.050
3.334,0.030,-0.045
3.336,0.045,-0.040
3.338,0.035,-0.035
3.340,0.025,-0.035
3.342,0.035,-0.040
3.344,0.100,-0.040
3.346,0.080,-0.045
3.348,0.085,-0.055
3.350,0.155,-0.060
3.352,0.105,-0.065
3.354,0.030,-0.070
3.356,0.025,-0.070
3.358,0.045,-0.060
3.360,-0.025,-0.055
3.362,0.065,-0.040
3.364,0.095,-0.030
3.366,0.160,-0.020
3.368,0.170,-0.015
3.370,0.160,-0.015
3.372,0.120,-0.020
3.374,0.065,-0.030
3.376,0.070,-0.040
3.378,-0.005,-0.055
3.380,-0.025,-0.070
3.382,0.025,-0.080
3.384,0.050,-0.080
3.386,0.120,-0.075
3.388,0.125,-0.060
3.390,0.175,-0.035
3.392,0.175,0.005
3.394,0.175,0.050
3.396,0.195,0.100
3.398,0.265,0.155
3.400,0.300,0.210
3.402,0.360,0.255
3.404,0.500,0.295
3.406,0.570,0.315
3.408,0.595,0.320
3.410,0.575,0.300
3.412,0.385,0.260
3.414,0.230,0.205
3.416,0.215,0.135
3.418,0.135,0.060
3.420,0.060,-0.015
3.422,0.025,-0.090
3.424,-0.035,-0.150
3.426,-0.065,-0.195
3.428,-0.025,-0.220
3.430,-0.015,-0.235
3.432,-0.025,-0.230
3.434,-0.080,-0.220
3.436,-0.100,-0.195
3.438,-0.090,-0.175
3.440,-0.055,-0.150
3.442,0.005,-0.130
3.444,0.065,-0.110
3.446,0.125,-0.095
3.448,0.150,-0.085
3.450,0.190,-0.080
3.452,0.080,-0.070
3.454,0.055,-0.060
3.456,0.040,-0.050
3.458,0.030,-0.040
3.460,0.095,-0.025
3.462,0.120,-0.020
3.464,0.140,-0.010
3.466,0.205,-0.010
3.468,0.220,-0.010
3.470,0.160,-0.015
3.472,0.145,-0.015
3.474,0.110,-0.020
3.476,0.095,-0.015
3.478,0.065,-0.010
3.480,0.110,0.000
3.482,0.160,0.010
3.484,0.180,0.025
3.486,0.195,0.035
3.488,0.290,0.040
3.490,0.235,0.045
3.492,0.180,0.040
3.494,0.115,0.030
3.496,0.150,0.020
3.498,0.110,0.010
3.500,0.055,0.005
3.502,0.135,0.000
3.504,0.210,0.000
3.506,0.220,0.000
3.508,0.245,0.000
3.510,0.180,0.005
3.512,0.170,0.010
3.514,0.165,0.015
3.516,0.135,0.015
3.518,0.050,0.015
3.520,0.075,0.015
3.522,0.185,0.015
3.524,0.260,0.015
3.526,0.245,0.020
3.528,0.230,0.020
3.530,0.200,0.025
3.532,0.215,0.025
3.534,0.165,0.025
3.536,0.135,0.025
3.538,0.035,0.020
3.540,0.135,0.020
3.542,0.190,0.015
3.544,0.260,0.015
3.546,0.210,0.015
3.548,0.255,0.015
3.550,0.265,0.020
3.552,0.210,0.025
3.554,0.080,0.030
3.556,0.080,0.035
3.558,0.140,0.040
3.560,0.155,0.050
3.562,0.225,0.055
3.564,0.270,0.055
3.566,0.295,0.060
3.568,0.270,0.060
3.570,0.225,0.055
3.572,0.180,0.055
3.574,0.190,0.050
3.576,0.130,0.045
3.578,0.110,0.040
3.580,0.165,0.040
3.582,0.215,0.045
3.584,0.260,0.050
3.586,0.275,0.060
3.588,0.315,0.070
3.590,0.300,0.080
3.592,0.210,0.090
3.594,0.245,0.100
3.596,0.185,0.105
3.598,0.155,0.110
3.600,0.280,0.110
3.602,0.250,0.110
3.604,0.280,0.110
3.606,0.285,0.105
3.608,0.365,0.110
3.610,0.310,0.110
3.612,0.285,0.115
3.614,0.255,0.120
3.616,0.240,0.125
3.618,0.165,0.130
3.620,0.280,0.135
3.622,0.340,0.145
3.624,0.380,0.150
3.626,0.380,0.155
3.628,0.325,0.165
3.630,0.355,0.175
3.632,0.380,0.180
3.634,0.320,0.190
3.636,0.295,0.195
3.638,0.275,0.195
3.640,0.300,0.195
3.642,0.325,0.190
3.644,0.385,0.185
3.646,0.435,0.180
3.648,0.440,0.175
3.650,0.370,0.170
3.652,0.330,0.170
3.654,0.300,0.170
3.656,0.250,0.170
3.658,0.270,0.170
3.660,0.260,0.170
3.662,0.340,0.170
3.664,0.375,0.165
3.666,0.350,0.155
3.668,0.400,0.150
3.670,0.350,0.140
3.672,0.280,0.135
3.674,0.245,0.130
3.676,0.230,0.120
3.678,0.215,0.115
3.680,0.265,0.110
3.682,0.255,0.100
3.684,0.255,0.085
3.686,0.245,0.070
3.688,0.325,0.050
3.690,0.240,0.030
3.692,0.100,0.010
3.694,0.105,-0.005
3.696,0.080,-0.015
3.698,0.080,-0.020
3.700,0.085,-0.020
3.702,0.190,-0.020
3.704,0.175,-0.015
3.706,0.215,-0.015
3.708,0.190,-0.015
3.710,0.165,-0.020
3.712,0.105,-0.030
3.714,0.075,-0.035
3.716,0.060,-0.045
3.718,0.040,-0.050
3.720,0.075,-0.050
3.722,0.115,-0.050
3.724,0.195,-0.050
3.726,0.185,-0.045
3.728,0.175,-0.045
3.730,0.105,-0.045
3.732,0.060,-0.050
3.734,0.045,-0.055
3.736,0.060,-0.065
3.738,0.045,-0.070
3.740,0.100,-0.075
3.742,0.150,-0.075
3.744,0.195,-0.070
3.746,0.165,-0.065
3.748,0.170,-0.055
3.750,0.120,-0.050
3.752,0.070,-0.050
3.754,0.020,-0.050
3.756,0.040,-0.050
3.758,0.045,-0.060
3.760,0.135,-0.065
3.762,0.105,-0.075
3.764,0.120,-0.080
3.766,0.175,-0.085
3.768,0.145,-0.085
3.770,0.105,-0.085
3.772,0.010,-0.085
3.774,0.025,-0.085
3.776,0.035,-0.085
3.778,0.030,-0.090
3.780,0.030,-0.095
3.782,0.125,-0.095
3.784,0.105,-0.100
3.786,0.125,-0.100
3.788,0.150,-0.100
3.790,0.100,-0.095
3.792,0.055,-0.090
3.794,0.015,-0.085
3.796,-0.030,-0.080
3.798,0.030,-0.080
3.800,0.060,-0.080
3.802,0.110,-0.080
3.804,0.155,-0.080
3.806,0.160,-0.080
3.808,0.150,-0.075
3.810,0.110,-0.075
3.812,0.055,-0.070
3.814,0.060,-0.060
3.816,-0.025,-0.055
3.818,0.060,-0.050
3.820,0.110,-0.050
3.822,0.170,-0.055
3.824,0.150,-0.060
3.826,0.235,-0.065
3.828,0.165,-0.070
3.830,0.120,-0.080
3.832,-0.025,-0.085
3.834,-0.005,-0.085
3.836,0.025,-0.080
3.838,0.065,-0.080
3.840,0.080,-0.075
3.842,0.210,-0.065
3.844,0.165,-0.065
3.846,0.170,-0.060
3.848,0.165,-0.060
3.850,0.070,-0.060
3.852,0.070,-0.065
3.854,0.065,-0.065
3.856,0.040,-0.065
3.858,0.050,-0.065
3.860,0.090,-0.065
3.862,0.160,-0.065
3.864,0.145,-0.065
3.866,0.175,-0.065
3.868,0.180,-0.070
3.870,0.145,-0.070
3.872,0.045,-0.075
3.874,0.045,-0.075
3.876,0.040,-0.075
3.878,0.070,-0.070
3.880,0.120,-0.060
3.882,0.130,-0.050
3.884,0.120,-0.040
3.886,0.215,-0.030
3.888,0.190,-0.030
3.890,0.150,-0.035
3.892,0.065,-0.040
3.894,0.085,-0.055
3.896,-0.055,-0.065
3.898,0.045,-0.080
3.900,0.130,-0.090
3.902,0.185,-0.090
3.904,0.150,-0.090
3.906,0.165,-0.085
3.908,0.115,-0.075
3.910,0.100,-0.065
3.912,0.050,-0.060
3.914,0.040,-0.060
3.916,0.015,-0.060
3.918,0.095,-0.065
3.920,0.085,-0.070
3.922,0.140,-0.075
3.924,0.130,-0.080
3.926,0.180,-0.080
3.928,0.140,-0.075
3.930,0.095,-0.070
3.932,0.070,-0.065
3.934,0.020,-0.060
3.936,0.020,-0.055
3.938,0.070,-0.050
3.940,0.155,-0.050
3.942,0.160,-0.050
3.944,0.165,-0.050
3.946,0.150,-0.050
3.948,0.180,-0.050
3.950,0.095,-0.045
3.952,0.095,-0.045
3.954,0.015,-0.045
3.956,0.015,-0.045
3.958,0.115,-0.045
3.960,0.135,-0.040
3.962,0.165,-0.040
3.964,0.190,-0.040
3.966,0.200,-0.040
3.968,0.170,-0.035
3.970,0.115,-0.040
3.972,0.030,-0.040
3.974,0.035,-0.045
3.976,0.035,-0.045
3.978,0.135,-0.055
3.980,0.100,-0.060
3.982,0.115,-0.060
3.984,0.180,-0.065
3.986,0.155,-0.065
3.988,0.125,-0.065
3.990,0.125,-0.060
3.992,0.115,-0.055
3.994,0.045,-0.050
3.996,0.050,-0.050
3.998,0.050,-0.045
4.000,0.120,-0.040
4.002,0.185,-0.040
4.004,0.225,-0.035
4.006,0.245,-0.025
4.008,0.180,-0.020
4.010,0.170,-0.010
4.012,0.070,-0.005
4.014,0.090,-0.005
4.016,0.070,-0.005
4.018,0.140,-0.005
4.020,0.115,-0.010
4.022,0.210,-0.015
4.024,0.220,-0.020
4.026,0.180,-0.020
4.028,0.190,-0.015
4.030,0.140,-0.010
4.032,0.150,0.000
4.034,0.075,0.005
4.036,0.085,0.010
4.038,0.155,0.015
4.040,0.170,0.010
4.042,0.210,0.005
4.044,0.245,0.000
4.046,0.280,-0.010
4.048,0.170,-0.010
4.050,0.120,-0.015
4.052,0.090,-0.015
4.054,0.105,-0.010
4.056,0.075,-0.005
4.058,0.155,-0.005
4.060,0.180,-0.005
4.062,0.160,-0.005
4.064,0.205,-0.010
4.066,0.190,-0.015
4.068,0.175,-0.020
4.070,0.075,-0.020
4.072,0.015,-0.015
4.074,0.105,-0.015
4.076,0.110,-0.010
4.078,0.135,-0.010
4.080,0.165,-0.010
4.082,0.155,-0.015
4.084,0.205,-0.025
4.086,0.155,-0.035
4.088,0.115,-0.040
4.090,0.050,-0.050
4.092,0.070,-0.050
4.094,0.045,-0.050
4.096,0.070,-0.050
4.098,0.115,-0.045
4.100,0.170,-0.040
4.102,0.175,-0.040
4.104,0.220,-0.040
4.106,0.135,-0.040
4.108,0.100,-0.045
4.110,0.105,-0.045
4.112,0.090,-0.040
4.114,0.050,-0.035
4.116,0.090,-0.025
4.118,0.115,-0.020
4.120,0.115,-0.015
4.122,0.230,-0.010
4.124,0.215,-0.010
4.126,0.205,-0.015
4.128,0.145,-0.020
4.130,0.050,-0.025
4.132,0.070,-0.030
4.134,0.055,-0.030
4.136,0.080,-0.030
4.138,0.170,-0.025
4.140,0.170,-0.020
4.142,0.175,-0.020
4.144,0.155,-0.015
4.146,0.145,-0.015
4.148,0.170,-0.015
4.150,0.125,-0.010
4.152,0.090,0.010
4.154,0.130,0.035
4.156,0.190,0.080
4.158,0.275,0.135
4.160,0.410,0.205
4.162,0.525,0.270
4.164,0.610,0.335
4.166,0.620,0.385
4.168,0.620,0.410
4.170,0.585,0.415
4.172,0.505,0.390
4.174,0.445,0.340
4.176,0.305,0.270
4.178,0.235,0.180
4.180,0.240,0.085
4.182,0.165,-0.010
4.184,0.170,-0.095
4.186,0.030,-0.170
4.188,-0.115,-0.225
4.190,-0.195,-0.260
4.192,-0.210,-0.270
4.194,-0.175,-0.265
4.196,-0.125,-0.245
4.198,-0.005,-0.215
4.200,0.035,-0.180
4.202,0.085,-0.140
4.204,0.155,-0.110
4.206,0.100,-0.080
4.208,0.075,-0.060
4.210,0.070,-0.045
4.212,0.075,-0.035
4.214,0.050,-0.025
4.216,0.105,-0.020
4.218,0.160,-0.015
4.220,0.180,-0.005
4.222,0.245,0.005
4.224,0.230,0.015
4.226,0.200,0.025
4.228,0.205,0.035
4.230,0.130,0.040
4.232,0.105,0.040
4.234,0.130,0.040
4.236,0.130,0.040
4.238,0.195,0.035
4.240,0.235,0.035
4.242,0.260,0.035
4.244,0.290,0.035
4.246,0.280,0.040
4.248,0.165,0.045
4.250,0.110,0.045
4.252,0.085,0.050
4.254,0.155,0.055
4.256,0.215,0.055
4.258,0.220,0.055
4.260,0.215,0.055
4.262,0.260,0.055
4.264,0.315,0.055
4.266,0.225,0.055
4.268,0.195,0.055
4.270,0.150,0.055
4.272,0.150,0.055
4.274,0.105,0.055
4.276,0.130,0.060
4.278,0.235,0.060
4.280,0.245,0.060
4.282,0.240,0.060
4.284,0.280,0.060
4.286,0.230,0.060
4.288,0.225,0.060
4.290,0.175,0.060
4.292,0.110,0.060
4.294,0.125,0.065
4.296,0.185,0.065
4.298,0.230,0.070
4.300,0.275,0.075
4.302,0.280,0.080
4.304,0.310,0.085
4.306,0.270,0.090
4.308,0.210,0.090
4.310,0.160,0.090
4.312,0.120,0.090
4.314,0.135,0.090
4.316,0.235,0.085
4.318,0.255,0.080
4.320,0.270,0.075
4.322,0.275,0.075
4.324,0.285,0.075
4.326,0.240,0.075
4.328,0.200,0.080
4.330,0.180,0.090
4.332,0.190,0.095
4.334,0.200,0.105
4.336,0.250,0.110
4.338,0.275,0.115
4.340,0.320,0.115
4.342,0.295,0.115
4.344,0.310,0.110
4.346,0.270,0.105
4.348,0.240,0.100
4.350,0.200,0.095
4.352,0.130,0.090
4.354,0.145,0.085
4.356,0.165,0.085
4.358,0.260,0.090
4.360,0.330,0.095
4.362,0.380,0.100
4.364,0.320,0.105
4.366,0.270,0.115
4.368,0.255,0.130
4.370,0.240,0.140
4.372,0.250,0.150
4.374,0.220,0.160
4.376,0.285,0.170
4.378,0.340,0.170
4.380,0.375,0.175
4.382,0.390,0.170
4.384,0.395,0.170
4.386,0.350,0.170
4.388,0.305,0.175
4.390,0.270,0.180
4.392,0.270,0.190
4.394,0.290,0.200
4.396,0.375,0.215
4.398,0.375,0.220
4.400,0.380,0.225
4.402,0.445,0.225
4.404,0.415,0.220
4.406,0.335,0.215
4.408,0.320,0.205
4.410,0.315,0.200
4.412,0.235,0.200
4.414,0.315,0.205
4.416,0.405,0.220
4.418,0.410,0.230
4.420,0.405,0.245
4.422,0.465,0.250
4.424,0.410,0.250
4.426,0.355,0.245
4.428,0.270,0.230
4.430,0.305,0.210
4.432,0.275,0.195
4.434,0.300,0.175
4.436,0.305,0.165
4.438,0.325,0.160
4.440,0.310,0.155
4.442,0.390,0.155
4.444,0.325,0.155
4.446,0.280,0.150
4.448,0.185,0.135
4.450,0.175,0.115
4.452,0.140,0.095
4.454,0.125,0.070
4.456,0.160,0.050
4.458,0.215,0.030
4.460,0.280,0.025
4.462,0.300,0.020
4.464,0.190,0.025
4.466,0.180,0.030
4.468,0.115,0.035
4.470,0.085,0.035
4.472,0.070,0.030
4.474,0.115,0.025
4.476,0.125,0.010
4.478,0.170,-0.005
4.480,0.170,-0.015
4.482,0.220,-0.020
4.484,0.165,-0.025
4.486,0.060,-0.025
4.488,0.080,-0.020
4.490,0.050,-0.015
4.492,0.035,-0.010
4.494,0.040,-0.015
4.496,0.140,-0.020
4.498,0.140,-0.030
4.500,0.140,-0.040
4.502,0.170,-0.045
4.504,0.160,-0.050
4.506,0.095,-0.055
4.508,0.045,-0.050
4.510,0.050,-0.045
4.512,0.020,-0.035
4.514,0.085,-0.025
4.516,0.125,-0.020
4.518,0.160,-0.020
4.520,0.085,-0.020
4.522,0.165,-0.025
4.524,0.215,-0.030
4.526,0.135,-0.035
4.528,0.035,-0.035
4.530,0.035,-0.030
4.532,0.055,-0.025
4.534,0.115,-0.020
4.536,0.125,-0.015
4.538,0.125,-0.010
4.540,0.140,-0.010
4.542,0.190,-0.015
4.544,0.165,-0.020
4.546,0.060,-0.030
4.548,0.060,-0.040
4.550,0.035,-0.045
4.552,0.040,-0.045
4.554,0.130,-0.045
4.556,0.085,-0.040
4.558,0.090,-0.035
4.560,0.170,-0.030
4.562,0.165,-0.030
4.564,0.135,-0.030
4.566,0.120,-0.040
4.568,0.030,-0.050
4.570,-0.015,-0.060
4.572,-0.010,-0.065
4.574,0.065,-0.070
4.576,0.130,-0.065
4.578,0.125,-0.060
4.580,0.155,-0.045
4.582,0.195,-0.035
4.584,0.145,-0.025
4.586,0.055,-0.020
4.588,-0.050,-0.025
4.590,-0.010,-0.035
4.592,0.065,-0.055
4.594,0.120,-0.070
4.596,0.130,-0.085
4.598,0.170,-0.090
4.600,0.015,-0.085
4.602,0.025,-0.070
4.604,0.070,-0.050
4.606,0.095,-0.025
4.608,0.145,-0.005
4.610,0.170,0.005
4.612,0.175,0.010
4.614,0.130,0.005
4.616,0.115,-0.010
4.618,0.055,-0.030
4.620,0.030,-0.045
4.622,0.030,-0.060
4.624,0.015,-0.070
4.626,0.085,-0.070
4.628,0.110,-0.065
4.630,0.130,-0.060
4.632,0.150,-0.050
4.634,0.120,-0.050
4.636,0.085,-0.045
4.638,0.060,-0.045
4.640,0.030,-0.050
4.642,-0.055,-0.050
4.644,0.065,-0.050
4.646,0.105,-0.050
4.648,0.155,-0.045
4.650,0.135,-0.045
4.652,0.185,-0.040
4.654,0.135,-0.040
4.656,0.085,-0.040
4.658,0.040,-0.045
4.660,0.030,-0.050
4.662,-0.010,-0.055
4.664,-0.015,-0.060
4.666,0.080,-0.060
4.668,0.115,-0.060
4.670,0.130,-0.060
4.672,0.175,-0.055
4.674,0.110,-0.055
4.676,0.035,-0.055
4.678,0.030,-0.055
4.680,0.010,-0.055
4.682,-0.010,-0.055
4.684,0.045,-0.055
4.686,0.085,-0.055
4.688,0.125,-0.055
4.690,0.115,-0.050
4.692,0.125,-0.050
4.694,0.205,-0.045
4.696,0.125,-0.045
4.698,0.035,-0.040
4.700,0.010,-0.045
4.702,-0.040,-0.050
4.704,-0.025,-0.055
4.706,0.070,-0.065
4.708,0.130,-0.070
4.710,0.140,-0.075
4.712,0.155,-0.080
4.714,0.115,-0.085
4.716,0.070,-0.080
4.718,0.020,-0.080
4.720,-0.045,-0.075
4.722,-0.055,-0.065
4.724,0.050,-0.060
4.726,0.060,-0.055
4.728,0.140,-0.055
4.730,0.150,-0.055
4.732,0.195,-0.055
4.734,0.100,-0.055
4.736,0.060,-0.060
4.738,0.015,-0.060
4.740,0.020,-0.060
4.742,-0.015,-0.055
4.744,-0.035,-0.050
4.746,0.085,-0.045
4.748,0.130,-0.040
4.750,0.155,-0.035
4.752,0.215,-0.035
4.754,0.110,-0.035
4.756,0.065,-0.035
4.758,0.065,-0.040
4.760,0.045,-0.040
4.762,0.015,-0.045
4.764,0.045,-0.050
4.766,0.070,-0.055
4.768,0.115,-0.055
4.770,0.110,-0.060
4.772,0.135,-0.060
4.774,0.105,-0.060
4.776,0.095,-0.060
4.778,-0.015,-0.055
4.780,0.030,-0.055
4.782,0.010,-0.045
4.784,0.065,-0.040
4.786,0.125,-0.035
4.788,0.125,-0.030
4.790,0.135,-0.025
4.792,0.175,-0.020
4.794,0.130,-0.020
4.796,0.110,-0.025
4.798,0.055,-0.025
4.800,0.010,-0.030
4.802,0.030,-0.030
4.804,0.065,-0.035
4.806,0.140,-0.030
4.808,0.180,-0.030
4.810,0.140,-0.025
4.812,0.145,-0.025
4.814,0.085,-0.025
4.816,0.095,-0.025
4.818,0.065,-0.025
4.820,0.060,-0.025
4.822,0.015,-0.030
4.824,0.025,-0.030
4.826,0.120,-0.035
4.828,0.170,-0.035
4.830,0.155,-0.035
4.832,0.165,-0.035
4.834,0.115,-0.040
4.836,0.065,-0.040
4.838,0.015,-0.040
4.840,0.010,-0.040
4.842,0.005,-0.040
4.844,0.065,-0.040
4.846,0.095,-0.040
4.848,0.130,-0.040
4.850,0.125,-0.040
4.852,0.155,-0.040
4.854,0.100,-0.045
4.856,0.030,-0.055
4.858,-0.035,-0.065
4.860,-0.055,-0.075
4.862,-0.015,-0.090
4.864,0.010,-0.100
4.866,0.025,-0.105
4.868,0.075,-0.110
4.870,0.050,-0.105
4.872,0.105,-0.100
4.874,0.040,-0.095
4.876,0.025,-0.095
4.878,-0.015,-0.090
4.880,-0.050,-0.095
4.882,-0.100,-0.105
4.884,-0.045,-0.110
4.886,0.040,-0.120
4.888,0.055,-0.125
4.890,0.035,-0.130
4.892,0.100,-0.125
4.894,0.075,-0.120
4.896,0.025,-0.110
4.898,-0.050,-0.100
4.900,-0.055,-0.090
4.902,-0.055,-0.085
4.904,-0.030,-0.085
4.906,0.010,-0.095
4.908,0.045,-0.105
4.910,0.065,-0.115
4.912,0.090,-0.130
4.914,-0.030,-0.140
4.916,-0.070,-0.145
4.918,-0.045,-0.150
4.920,-0.065,-0.140
4.922,-0.040,-0.130
4.924,-0.010,-0.110
4.926,0.050,-0.080
4.928,0.130,-0.040
4.930,0.230,0.010
4.932,0.270,0.065
4.934,0.260,0.130
4.936,0.305,0.190
4.938,0.330,0.250
4.940,0.370,0.290
4.942,0.425,0.315
4.944,0.515,0.315
4.946,0.480,0.285
4.948,0.395,0.225
4.950,0.235,0.140
4.952,0.140,0.040
4.954,0.020,-0.065
4.956,-0.080,-0.170
4.958,-0.195,-0.260
4.960,-0.360,-0.330
4.962,-0.360,-0.380
4.964,-0.315,-0.405
4.966,-0.220,-0.410
4.968,-0.160,-0.400
4.970,-0.150,-0.375
4.972,-0.220,-0.345
4.974,-0.230,-0.315
4.976,-0.185,-0.285
4.978,-0.210,-0.260
4.980,-0.170,-0.235
4.982,-0.105,-0.210
4.984,-0.080,-0.190
4.986,-0.005,-0.170
4.988,0.060,-0.155
4.990,0.075,-0.140
4.992,0.050,-0.125
4.994,0.010,-0.115
4.996,-0.025,-0.110
4.998,-0.035,-0.105
5.000,-0.045,-0.105
5.002,-0.050,-0.105
5.004,-0.030,-0.105
5.006,0.040,-0.110
5.008,0.040,-0.110
5.010,0.075,-0.110
5.012,0.070,-0.110
5.014,0.010,-0.110
5.016,-0.015,-0.105
5.018,-0.020,-0.105
5.020,-0.095,-0.105
5.022,-0.040,-0.105
5.024,-0.045,-0.105
5.026,0.050,-0.105
5.028,0.105,-0.100
5.030,0.140,-0.095
5.032,0.095,-0.090
5.034,-0.020,-0.085
5.036,-0.045,-0.085
5.038,0.020,-0.080
5.040,-0.065,-0.080
5.042,-0.010,-0.080
5.044,-0.005,-0.085
5.046,0.085,-0.085
5.048,0.090,-0.090
5.050,0.115,-0.095
5.052,0.030,-0.090
5.054,0.030,-0.090
5.056,0.000,-0.080
5.058,0.005,-0.070
5.060,-0.015,-0.060
5.062,0.035,-0.050
5.064,0.060,-0.045
5.066,0.070,-0.045
5.068,0.075,-0.045
5.070,0.095,-0.050
5.072,0.075,-0.060
5.074,0.080,-0.065
5.076,0.025,-0.070
5.078,0.010,-0.065
5.080,-0.045,-0.060
5.082,0.020,-0.050
5.084,0.125,-0.040
5.086,0.105,-0.025
5.088,0.100,-0.020
5.090,0.150,-0.015
5.092,0.095,-0.010
5.094,0.065,-0.015
5.096,0.045,-0.020
5.098,0.070,-0.025
5.100,-0.030,-0.025
5.102,0.085,-0.025
5.104,0.130,-0.020
5.106,0.140,-0.010
5.108,0.145,0.000
5.110,0.210,0.010
5.112,0.180,0.020
5.114,0.080,0.030
5.116,-0.005,0.035
5.118,0.110,0.035
5.120,0.075,0.035
5.122,0.090,0.030
5.124,0.175,0.030
5.126,0.170,0.025
5.128,0.235,0.020
5.130,0.200,0.020
5.132,0.125,0.020
5.134,0.080,0.020
5.136,0.065,0.020
5.138,0.085,0.025
5.140,0.065,0.030
5.142,0.155,0.035
5.144,0.165,0.045
5.146,0.225,0.055
5.148,0.230,0.065
5.150,0.255,0.075
5.152,0.245,0.085
5.154,0.215,0.090
5.156,0.195,0.100
5.158,0.095,0.110
5.160,0.165,0.115
5.162,0.220,0.125
5.164,0.280,0.135
5.166,0.315,0.140
5.168,0.340,0.150
5.170,0.360,0.160
5.172,0.305,0.165
5.174,0.230,0.170
5.176,0.200,0.175
5.178,0.210,0.180
5.180,0.215,0.180
5.182,0.280,0.180
5.184,0.295,0.180
5.186,0.320,0.180
5.188,0.365,0.180
5.190,0.365,0.180
5.192,0.295,0.180
5.194,0.275,0.175
5.196,0.230,0.175
5.198,0.225,0.175
5.200,0.235,0.170
5.202,0.285,0.170
5.204,0.240,0.165
5.206,0.265,0.160
5.208,0.325,0.155
5.210,0.305,0.145
5.212,0.295,0.140
5.214,0.225,0.130
5.216,0.200,0.115
5.218,0.105,0.105
5.220,0.130,0.095
5.222,0.140,0.085
5.224,0.200,0.080
5.226,0.260,0.075
5.228,0.260,0.070
5.230,0.215,0.065
5.232,0.190,0.060
5.234,0.155,0.055
5.236,0.065,0.045
5.238,0.040,0.035
5.240,0.045,0.025
5.242,0.100,0.010
5.244,0.110,0.000
5.246,0.105,-0.005
5.248,0.180,-0.010
5.250,0.185,-0.005
5.252,0.150,0.000
5.254,0.110,0.005
5.256,0.040,0.015
5.258,0.005,0.020
5.260,0.030,0.020
5.262,0.130,0.020
5.264,0.155,0.010
5.266,0.145,0.000
5.268,0.155,-0.010
5.270,0.100,-0.015
5.272,0.090,-0.025
5.274,0.055,-0.025
5.276,-0.045,-0.025
5.278,0.020,-0.025
5.280,0.065,-0.020
5.282,0.095,-0.020
5.284,0.140,-0.015
5.286,0.140,-0.020
5.288,0.145,-0.020
5.290,0.130,-0.025
5.292,0.065,-0.030
5.294,0.030,-0.035
5.296,0.000,-0.035
5.298,-0.020,-0.035
5.300,0.040,-0.030
5.302,0.080,-0.025
5.304,0.135,-0.015
5.306,0.145,-0.010
5.308,0.220,0.000
5.310,0.145,0.005
5.312,0.080,0.005
5.314,0.060,0.010
5.316,0.070,0.010
5.318,0.015,0.010
5.320,0.075,0.010
5.322,0.140,0.005
5.324,0.165,0.005
5.326,0.165,0.005
5.328,0.170,0.000
5.330,0.145,-0.005
5.332,0.100,-0.005
5.334,0.020,-0.005
5.336,0.030,-0.010
5.338,-0.005,-0.010
5.340,0.035,-0.010
5.342,0.125,-0.010
5.344,0.170,-0.005
5.346,0.160,-0.005
5.348,0.180,0.000
5.350,0.175,0.005
5.352,0.130,0.005
5.354,0.045,0.005
5.356,0.040,0.005
5.358,0.025,0.005
5.360,0.060,0.000
5.362,0.080,-0.005
5.364,0.120,-0.005
5.366,0.165,-0.010
5.368,0.150,-0.010
5.370,0.165,-0.005
5.372,0.145,0.000
5.374,0.050,0.010
5.376,0.060,0.015
5.378,0.045,0.025
5.380,0.125,0.035
5.382,0.130,0.040
5.384,0.180,0.040
5.386,0.170,0.040
5.388,0.205,0.035
5.390,0.190,0.025
5.392,0.175,0.015
5.394,0.040,0.010
5.396,0.055,0.005
5.398,0.050,0.000
5.400,0.090,0.000
5.402,0.095,0.000
5.404,0.135,0.000
5.406,0.185,0.000
5.408,0.200,0.000
5.410,0.135,0.000
5.412,0.075,0.000
5.414,0.065,-0.005
5.416,0.045,-0.005
5.418,0.065,-0.005
5.420,0.085,-0.005
5.422,0.045,-0.005
5.424,0.155,-0.005
5.426,0.150,-0.005
5.428,0.165,0.000
5.430,0.140,0.000
5.432,0.105,0.005
5.434,0.065,0.010
5.436,0.095,0.015
5.438,0.050,0.020
5.440,0.120,0.025
5.442,0.160,0.025
5.444,0.175,0.025
5.446,0.155,0.025
5.448,0.180,0.020
5.450,0.150,0.015
5.452,0.075,0.005
5.454,0.060,0.000
5.456,0.060,-0.010
5.458,0.045,-0.010
5.460,0.075,-0.010
5.462,0.160,-0.005
5.464,0.165,0.000
5.466,0.165,0.005
5.468,0.175,0.010
5.470,0.135,0.010
5.472,0.105,0.005
5.474,0.030,0.000
5.476,0.020,-0.010
5.478,0.040,-0.015
5.480,0.085,-0.025
5.482,0.105,-0.025
5.484,0.155,-0.020
5.486,0.195,-0.015
5.488,0.165,0.000
5.490,0.065,0.010
5.492,0.100,0.020
5.494,0.145,0.025
5.496,0.055,0.030
5.498,0.055,0.025
5.500,0.100,0.020
5.502,0.125,0.010
5.504,0.200,0.000
5.506,0.220,-0.005
5.508,0.170,-0.010
5.510,0.090,-0.005
5.512,0.020,0.000
5.514,0.060,0.000
5.516,0.020,0.005
5.518,0.030,0.005
5.520,0.075,0.005
5.522,0.135,0.000
5.524,0.135,-0.005
5.526,0.140,-0.015
5.528,0.185,-0.015
5.530,0.160,-0.020
5.532,0.080,-0.015
5.534,0.040,-0.015
5.536,0.025,-0.010
5.538,0.090,-0.005
5.540,0.095,0.000
5.542,0.110,0.000
5.544,0.145,-0.005
5.546,0.180,-0.005
5.548,0.140,-0.010
5.550,0.150,-0.010
5.552,0.085,-0.010
5.554,0.065,-0.005
5.556,0.070,0.000
5.558,0.075,0.005
5.560,0.110,0.010
5.562,0.125,0.020
5.564,0.130,0.025
5.566,0.225,0.025
5.568,0.195,0.030
5.570,0.150,0.030
5.572,0.090,0.030
5.574,0.060,0.030
5.576,0.095,0.035
5.578,0.120,0.035
5.580,0.130,0.040
5.582,0.155,0.040
5.584,0.155,0.040
5.586,0.240,0.040
5.588,0.215,0.035
5.590,0.200,0.030
5.592,0.100,0.025
5.594,0.055,0.020
5.596,0.055,0.015
5.598,0.045,0.010
5.600,0.145,0.005
5.602,0.190,0.005
5.604,0.225,0.005
5.606,0.165,0.005
5.608,0.170,0.005
5.610,0.125,0.005
5.612,0.085,0.005
5.614,0.045,0.000
5.616,0.020,0.000
5.618,0.060,-0.005
5.620,0.090,-0.010
5.622,0.130,-0.015
5.624,0.170,-0.015
5.626,0.205,-0.020
5.628,0.155,-0.020
5.630,0.105,-0.020
5.632,0.075,-0.020
5.634,0.045,-0.020
5.636,-0.025,-0.020
5.638,0.085,-0.020
5.640,0.100,-0.025
5.642,0.145,-0.025
5.644,0.100,-0.030
5.646,0.175,-0.030
5.648,0.140,-0.030
5.650,0.095,-0.030
5.652,0.030,-0.030
5.654,0.055,-0.025
5.656,-0.010,-0.025
5.658,0.060,-0.025
5.660,0.130,-0.025
5.662,0.130,-0.025
5.664,0.145,-0.030
5.666,0.165,-0.035
5.668,0.160,-0.035
5.670,0.120,-0.040
5.672,0.050,-0.040
5.674,0.025,-0.035
5.676,0.010,-0.030
5.678,0.040,-0.030
5.680,0.075,-0.030
5.682,0.110,-0.030
5.684,0.130,-0.035
5.686,0.125,-0.045
5.688,0.085,-0.050
5.690,0.075,-0.050
5.692,0.025,-0.040
5.694,0.080,-0.020
5.696,0.100,0.020
5.698,0.190,0.075
5.700,0.295,0.140
5.702,0.340,0.205
5.704,0.530,0.265
5.706,0.570,0.315
5.708,0.515,0.340
5.710,0.450,0.340
5.712,0.385,0.310
5.714,0.275,0.250
5.716,0.160,0.175
5.718,0.170,0.090
5.720,0.165,0.000
5.722,0.135,-0.080
5.724,0.030,-0.150
5.726,-0.065,-0.205
5.728,-0.170,-0.240
5.730,-0.160,-0.260
5.732,-0.205,-0.270
5.734,-0.160,-0.265
5.736,-0.180,-0.260
5.738,-0.135,-0.250
5.740,-0.110,-0.240
5.742,-0.035,-0.220
5.744,-0.010,-0.205
5.746,0.035,-0.180
5.748,0.075,-0.155
5.750,0.025,-0.130
5.752,-0.045,-0.105
5.754,0.000,-0.085
5.756,0.010,-0.065
5.758,0.060,-0.055
5.760,0.095,-0.050
5.762,0.130,-0.045
5.764,0.165,-0.040
5.766,0.165,-0.040
5.768,0.125,-0.030
5.770,0.105,-0.025
5.772,0.135,-0.010
5.774,0.075,0.000
5.776,0.060,0.015
5.778,0.125,0.020
5.780,0.175,0.025
5.782,0.210,0.025
5.784,0.250,0.020
5.786,0.200,0.015
5.788,0.165,0.010
5.790,0.145,0.005
5.792,0.120,0.000
5.794,0.115,0.000
5.796,0.070,0.000
5.798,0.110,0.000
5.800,0.160,0.000
5.802,0.225,0.000
5.804,0.210,-0.005
5.806,0.205,-0.005
5.808,0.175,-0.010
5.810,0.135,-0.005
5.812,0.110,-0.005
5.814,0.085,0.000
5.816,0.095,0.010
5.818,0.105,0.015
5.820,0.185,0.020
5.822,0.200,0.020
5.824,0.230,0.020
5.826,0.225,0.015
5.828,0.215,0.010
5.830,0.130,0.010
5.832,0.105,0.005
5.834,0.060,0.010
5.836,0.115,0.015
5.838,0.190,0.025
5.840,0.245,0.035
5.842,0.230,0.045
5.844,0.230,0.055
5.846,0.260,0.060
5.848,0.215,0.060
5.850,0.165,0.060
5.852,0.125,0.055
5.854,0.145,0.050
5.856,0.190,0.045
5.858,0.160,0.045
5.860,0.235,0.045
5.862,0.240,0.055
5.864,0.320,0.060
5.866,0.305,0.070
5.868,0.245,0.080
5.870,0.170,0.085
5.872,0.180,0.085
5.874,0.130,0.085
5.876,0.150,0.085
5.878,0.230,0.080
5.880,0.265,0.075
5.882,0.330,0.070
5.884,0.305,0.065
5.886,0.290,0.065
5.888,0.220,0.070
5.890,0.190,0.070
5.892,0.175,0.080
5.894,0.170,0.085
5.896,0.195,0.090
5.898,0.265,0.100
5.900,0.315,0.105
5.902,0.345,0.110
5.904,0.365,0.115
5.906,0.350,0.120
5.908,0.310,0.130
5.910,0.245,0.135
5.912,0.240,0.140
5.914,0.215,0.145
5.916,0.255,0.145
5.918,0.310,0.145
5.920,0.355,0.150
5.922,0.375,0.150
5.924,0.395,0.150
5.926,0.350,0.155
5.928,0.285,0.160
5.930,0.265,0.170
5.932,0.335,0.180
5.934,0.290,0.190
5.936,0.345,0.200
5.938,0.360,0.210
5.940,0.425,0.215
5.942,0.435,0.215
5.944,0.475,0.215
5.946,0.465,0.215
5.948,0.340,0.210
5.950,0.310,0.205
5.952,0.330,0.200
5.954,0.325,0.195
5.956,0.345,0.190
5.958,0.340,0.190
5.960,0.370,0.185
5.962,0.420,0.185
5.964,0.460,0.185
5.966,0.410,0.185
5.968,0.380,0.185
5.970,0.280,0.185
5.972,0.315,0.180
5.974,0.245,0.175
5.976,0.315,0.170
5.978,0.375,0.160
5.980,0.355,0.145
5.982,0.335,0.130
5.984,0.360,0.110
5.986,0.315,0.090
5.988,0.215,0.075
5.990,0.185,0.060
5.992,0.165,0.050
5.994,0.165,0.040
5.996,0.205,0.040
5.998,0.210,0.040
6.000,0.235,0.040
6.002,0.230,0.045
6.004,0.285,0.045
6.006,0.240,0.045
6.008,0.195,0.035
6.010,0.215,0.030
6.012,0.130,0.020
6.014,0.115,0.010
6.016,0.155,0.000
6.018,0.155,-0.005
6.020,0.225,-0.010
6.022,0.230,-0.010
6.024,0.235,-0.005
6.026,0.210,0.000
6.028,0.195,0.005
6.030,0.145,0.005
6.032,0.105,0.005
6.034,0.090,0.000
6.036,0.150,-0.005
6.038,0.175,-0.015
6.040,0.185,-0.025
6.042,0.185,-0.030
6.044,0.215,-0.040
6.046,0.195,-0.045
6.048,0.175,-0.045
6.050,0.070,-0.045
6.052,0.095,-0.040
6.054,0.055,-0.040
6.056,0.120,-0.040
6.058,0.195,-0.040
6.060,0.195,-0.040
6.062,0.210,-0.045
6.064,0.215,-0.045
6.066,0.125,-0.045
6.068,0.135,-0.040
6.070,0.125,-0.035
6.072,0.100,-0.025
6.074,0.100,-0.020
6.076,0.190,-0.010
6.078,0.215,-0.010
6.080,0.200,-0.010
6.082,0.220,-0.020
6.084,0.250,-0.030
6.086,0.150,-0.045
6.088,0.085,-0.055
6.090,0.095,-0.065
6.092,0.110,-0.065
6.094,0.110,-0.060
6.096,0.135,-0.050
6.098,0.200,-0.035
6.100,0.225,-0.020
6.102,0.240,-0.015
6.104,0.210,-0.010
6.106,0.170,-0.010
6.108,0.125,-0.020
6.110,0.100,-0.030
6.112,0.065,-0.045
6.114,0.105,-0.055
6.116,0.180,-0.060
6.118,0.165,-0.060
6.120,0.215,-0.055
6.122,0.245,-0.050
6.124,0.240,-0.040
6.126,0.220,-0.030
6.128,0.140,-0.025
6.130,0.135,-0.020
6.132,0.125,-0.020
6.134,0.150,-0.020
6.136,0.125,-0.025
6.138,0.215,-0.030
6.140,0.220,-0.035
6.142,0.220,-0.040
6.144,0.245,-0.040
6.146,0.165,-0.040
6.148,0.130,-0.040
6.150,0.120,-0.035
6.152,0.145,-0.025
6.154,0.160,-0.020
6.156,0.165,-0.015
6.158,0.225,-0.010
6.160,0.240,-0.010
6.162,0.280,-0.010
6.164,0.240,-0.010
6.166,0.165,-0.020
6.168,0.165,-0.025
6.170,0.140,-0.030
6.172,0.025,-0.040
6.174,0.165,-0.040
6.176,0.225,-0.040
6.178,0.220,-0.035
6.180,0.215,-0.030
6.182,0.260,-0.020
6.184,0.185,-0.015
6.186,0.205,-0.010
6.188,0.175,-0.010
6.190,0.145,-0.015
6.192,0.175,-0.025
6.194,0.120,-0.030
6.196,0.165,-0.040
6.198,0.240,-0.045
6.200,0.210,-0.045
6.202,0.265,-0.045
6.204,0.200,-0.040
6.206,0.190,-0.030
6.208,0.180,-0.025
6.210,0.140,-0.015
6.212,0.120,-0.015
6.214,0.180,-0.010
6.216,0.170,-0.015
6.218,0.210,-0.015
6.220,0.260,-0.015
6.222,0.305,-0.020
6.224,0.305,-0.015
6.226,0.240,-0.015
6.228,0.190,-0.010
6.230,0.155,-0.005
6.232,0.135,0.000
6.234,0.180,0.005
6.236,0.255,0.005
6.238,0.255,0.005
6.240,0.230,0.000
6.242,0.300,-0.010
6.244,0.315,-0.015
6.246,0.195,-0.025
6.248,0.145,-0.030
6.250,0.115,-0.035
6.252,0.135,-0.035
6.254,0.175,-0.030
6.256,0.235,-0.020
6.258,0.310,-0.010
6.260,0.265,-0.005
6.262,0.310,0.000
6.264,0.255,0.000
6.266,0.240,-0.005
6.268,0.150,-0.015
6.270,0.150,-0.030
6.272,0.080,-0.045
6.274,0.105,-0.065
6.276,0.140,-0.075
6.278,0.190,-0.080
6.280,0.245,-0.080
6.282,0.225,-0.075
6.284,0.215,-0.065
6.286,0.220,-0.055
6.288,0.155,-0.040
6.290,0.125,-0.035
6.292,0.105,-0.030
6.294,0.135,-0.030
6.296,0.230,-0.030
6.298,0.280,-0.035
6.300,0.270,-0.035
6.302,0.240,-0.040
6.304,0.215,-0.035
6.306,0.160,-0.035
6.308,0.115,-0.030
6.310,0.165,-0.030
6.312,0.160,-0.030
6.314,0.180,-0.030
6.316,0.160,-0.040
6.318,0.260,-0.050
6.320,0.195,-0.060
6.322,0.240,-0.070
6.324,0.230,-0.080
6.326,0.200,-0.085
6.328,0.100,-0.085
6.330,0.110,-0.085
6.332,0.095,-0.080
6.334,0.140,-0.075
6.336,0.145,-0.065
6.338,0.235,-0.045
6.340,0.225,-0.025
6.342,0.325,0.005
6.344,0.360,0.045
6.346,0.350,0.090
6.348,0.305,0.135
6.350,0.380,0.180
6.352,0.465,0.220
6.354,0.490,0.245
6.356,0.560,0.255
6.358,0.535,0.245
6.360,0.460,0.210
6.362,0.460,0.160
6.364,0.355,0.095
6.366,0.265,0.025
6.368,0.145,-0.050
6.370,0.050,-0.115
6.372,-0.055,-0.165
6.374,-0.025,-0.205
6.376,0.030,-0.230
6.378,0.090,-0.240
6.380,0.150,-0.240
6.382,0.090,-0.230
6.384,0.065,-0.225
6.386,0.025,-0.215
6.388,-0.020,-0.205
6.390,-0.035,-0.200
6.392,-0.010,-0.190
6.394,0.075,-0.180
6.396,0.135,-0.170
6.398,0.185,-0.155
6.400,0.215,-0.135
6.402,0.185,-0.115
6.404,0.175,-0.095
6.406,0.160,-0.075
6.408,0.140,-0.060
6.410,0.120,-0.045
6.412,0.125,-0.035
6.414,0.200,-0.030
6.416,0.235,-0.030
6.418,0.265,-0.030
6.420,0.265,-0.030
6.422,0.270,-0.035
6.424,0.240,-0.040
6.426,0.210,-0.040
6.428,0.150,-0.045
6.430,0.140,-0.045
6.432,0.160,-0.045
6.434,0.205,-0.045
6.436,0.250,-0.040
6.438,0.280,-0.035
6.440,0.305,-0.025
6.442,0.275,-0.020
6.444,0.225,-0.015
6.446,0.205,-0.010
6.448,0.190,-0.005
6.450,0.190,-0.010
6.452,0.190,-0.015
6.454,0.200,-0.020
6.456,0.250,-0.025
6.458,0.290,-0.030
6.460,0.290,-0.035
6.462,0.260,-0.035
6.464,0.240,-0.030
6.466,0.205,-0.025
6.468,0.165,-0.020
6.470,0.185,-0.010
6.472,0.205,-0.005
6.474,0.235,0.000
6.476,0.275,0.000
6.478,0.280,0.000
6.480,0.325,0.000
6.482,0.315,0.000
6.484,0.260,0.000
6.486,0.200,0.000
6.488,0.210,0.000
6.490,0.175,0.000
6.492,0.195,-0.005
6.494,0.190,-0.010
6.496,0.290,-0.010
6.498,0.270,-0.015
6.500,0.335,-0.020
6.502,0.285,-0.020
6.504,0.260,-0.020
6.506,0.240,-0.020
6.508,0.185,-0.020
6.510,0.175,-0.015
6.512,0.195,-0.015
6.514,0.245,-0.010
6.516,0.305,-0.005
6.518,0.325,-0.005
6.520,0.335,0.000
6.522,0.320,0.005
6.524,0.280,0.010
6.526,0.215,0.015
6.528,0.190,0.025
6.530,0.235,0.025
6.532,0.275,0.030
6.534,0.295,0.030
6.536,0.350,0.035
6.538,0.385,0.035
6.540,0.395,0.035
6.542,0.350,0.035
6.544,0.290,0.040
6.546,0.255,0.045
6.548,0.260,0.050
6.550,0.255,0.060
6.552,0.225,0.070
6.554,0.355,0.080
6.556,0.370,0.090
6.558,0.435,0.100
6.560,0.475,0.110
6.562,0.450,0.115
6.564,0.375,0.120
6.566,0.345,0.125
6.568,0.295,0.125
6.570,0.260,0.120
6.572,0.325,0.115
6.574,0.360,0.110
6.576,0.385,0.105
6.578,0.445,0.100
6.580,0.510,0.105
6.582,0.405,0.115
6.584,0.345,0.135
6.586,0.345,0.150
6.588,0.450,0.170
6.590,0.415,0.185
6.592,0.370,0.195
6.594,0.390,0.195
6.596,0.430,0.190
6.598,0.475,0.175
6.600,0.510,0.160
6.602,0.485,0.145
6.604,0.425,0.135
6.606,0.355,0.130
6.608,0.350,0.130
6.610,0.265,0.135
6.612,0.375,0.145
6.614,0.385,0.150
6.616,0.420,0.150
6.618,0.450,0.145
6.620,0.450,0.130
6.622,0.405,0.115
6.624,0.365,0.095
6.626,0.280,0.070
6.628,0.260,0.055
6.630,0.270,0.035
6.632,0.235,0.025
6.634,0.285,0.015
6.636,0.330,0.010
6.638,0.340,0.005
6.640,0.340,-0.005
6.642,0.270,-0.010
6.644,0.235,-0.020
6.646,0.215,-0.025
6.648,0.160,-0.035
6.650,0.135,-0.040
6.652,0.205,-0.045
6.654,0.220,-0.050
6.656,0.190,-0.050
6.658,0.265,-0.055
6.660,0.300,-0.055
6.662,0.280,-0.055
6.664,0.215,-0.055
6.666,0.170,-0.060
6.668,0.090,-0.060
6.670,0.135,-0.065
6.672,0.180,-0.065
6.674,0.240,-0.065
6.676,0.280,-0.060
6.678,0.255,-0.060
6.680,0.245,-0.060
6.682,0.205,-0.060
6.684,0.215,-0.060
6.686,0.150,-0.065
6.688,0.155,-0.065
6.690,0.115,-0.070
6.692,0.175,-0.070
6.694,0.210,-0.070
6.696,0.255,-0.070
6.698,0.240,-0.065
6.700,0.290,-0.060
6.702,0.245,-0.055
6.704,0.175,-0.050
6.706,0.155,-0.050
6.708,0.135,-0.050
6.710,0.175,-0.050
6.712,0.170,-0.055
6.714,0.210,-0.055
6.716,0.255,-0.055
6.718,0.325,-0.055
6.720,0.300,-0.055
6.722,0.205,-0.050
6.724,0.195,-0.050
6.726,0.190,-0.045
6.728,0.115,-0.040
6.730,0.180,-0.040
6.732,0.205,-0.045
6.734,0.235,-0.045
6.736,0.270,-0.050
6.738,0.300,-0.055
6.740,0.300,-0.060
6.742,0.230,-0.060
6.744,0.200,-0.060
6.746,0.160,-0.060
6.748,0.115,-0.050
6.750,0.170,-0.045
6.752,0.225,-0.040
6.754,0.250,-0.035
6.756,0.305,-0.030
6.758,0.320,-0.030
6.760,0.260,-0.030
6.762,0.245,-0.035
6.764,0.205,-0.040
6.766,0.140,-0.045
6.768,0.105,-0.050
6.770,0.165,-0.050
6.772,0.210,-0.050
6.774,0.265,-0.050
6.776,0.310,-0.045
6.778,0.370,-0.040
6.780,0.285,-0.035
6.782,0.240,-0.035
6.784,0.170,-0.030
6.786,0.160,-0.035
6.788,0.140,-0.040
6.790,0.125,-0.050
6.792,0.190,-0.055
6.794,0.290,-0.065
6.796,0.265,-0.070
6.798,0.305,-0.075
6.800,0.295,-0.070
6.802,0.195,-0.065
6.804,0.165,-0.055
6.806,0.165,-0.045
6.808,0.130,-0.035
6.810,0.190,-0.030
6.812,0.230,-0.030
6.814,0.250,-0.035
6.816,0.235,-0.040
6.818,0.330,-0.045
6.820,0.255,-0.050
6.822,0.250,-0.055
6.824,0.190,-0.055
6.826,0.195,-0.050
6.828,0.145,-0.045
6.830,0.170,-0.040
6.832,0.215,-0.035
6.834,0.260,-0.030
6.836,0.255,-0.030
6.838,0.340,-0.035
6.840,0.310,-0.035
6.842,0.200,-0.040
6.844,0.170,-0.040
6.846,0.195,-0.040
6.848,0.165,-0.040
6.850,0.215,-0.035
6.852,0.230,-0.035
6.854,0.280,-0.035
6.856,0.255,-0.035
6.858,0.300,-0.035
6.860,0.265,-0.040
6.862,0.240,-0.040
6.864,0.180,-0.045
6.866,0.205,-0.045
6.868,0.160,-0.045
6.870,0.190,-0.045
6.872,0.210,-0.040
6.874,0.250,-0.040
6.876,0.265,-0.045
6.878,0.320,-0.045
6.880,0.255,-0.045
6.882,0.220,-0.045
6.884,0.155,-0.040
6.886,0.195,-0.040
6.888,0.140,-0.035
6.890,0.175,-0.030
6.892,0.275,-0.025
6.894,0.315,-0.020
6.896,0.375,-0.015
6.898,0.390,-0.015
6.900,0.230,-0.015
6.902,0.230,-0.015
6.904,0.240,-0.010
6.906,0.225,-0.010
6.908,0.185,-0.005
6.910,0.255,-0.005
6.912,0.250,0.000
6.914,0.310,0.000
6.916,0.325,0.005
6.918,0.355,0.000
6.920,0.310,-0.005
6.922,0.250,-0.005
6.924,0.205,-0.010
6.926,0.190,-0.015
6.928,0.190,-0.015
6.930,0.240,-0.020
6.932,0.295,-0.020
6.934,0.305,-0.020
6.936,0.270,-0.020
6.938,0.310,-0.025
6.940,0.255,-0.030
6.942,0.215,-0.040
6.944,0.170,-0.050
6.946,0.160,-0.055
6.948,0.160,-0.060
6.950,0.190,-0.065
6.952,0.225,-0.060
6.954,0.255,-0.055
6.956,0.245,-0.045
6.958,0.320,-0.035
6.960,0.275,-0.030
6.962,0.230,-0.025
6.964,0.160,-0.025
6.966,0.145,-0.030
6.968,0.140,-0.040
6.970,0.205,-0.055
6.972,0.190,-0.065
6.974,0.225,-0.075
6.976,0.285,-0.085
6.978,0.305,-0.085
6.980,0.240,-0.075
6.982,0.185,-0.065
6.984,0.120,-0.055
6.986,0.165,-0.040
6.988,0.165,-0.030
6.990,0.225,-0.030
6.992,0.235,-0.030
6.994,0.265,-0.040
6.996,0.280,-0.055
6.998,0.235,-0.075
7.000,0.210,-0.095
7.002,0.180,-0.110
7.004,0.105,-0.115
7.006,0.095,-0.110
7.008,0.105,-0.095
7.010,0.210,-0.070
7.012,0.265,-0.030
7.014,0.310,0.020
7.016,0.450,0.075
7.018,0.510,0.130
7.020,0.510,0.185
7.022,0.505,0.230
7.024,0.535,0.270
7.026,0.545,0.290
7.028,0.535,0.295
7.030,0.505,0.280
7.032,0.430,0.245
7.034,0.440,0.195
7.036,0.460,0.130
7.038,0.440,0.060
7.040,0.315,-0.015
7.042,0.150,-0.085
7.044,0.030,-0.145
7.046,-0.085,-0.190
7.048,-0.010,-0.225
7.050,0.035,-0.245
7.052,0.055,-0.250
7.054,0.090,-0.245
7.056,0.115,-0.235
7.058,0.085,-0.220
7.060,0.105,-0.205
7.062,0.075,-0.190
7.064,0.090,-0.175
7.066,0.000,-0.155
7.068,0.055,-0.135
7.070,0.165,-0.115
7.072,0.250,-0.095
7.074,0.260,-0.075
7.076,0.310,-0.055
7.078,0.270,-0.040
7.080,0.205,-0.030
7.082,0.155,-0.025
7.084,0.180,-0.025
7.086,0.170,-0.030
7.088,0.220,-0.030
7.090,0.250,-0.035
7.092,0.300,-0.035
7.094,0.300,-0.035
7.096,0.310,-0.030
7.098,0.290,-0.030
7.100,0.235,-0.030
7.102,0.175,-0.025
7.104,0.170,-0.030
7.106,0.180,-0.030
7.108,0.260,-0.030
7.110,0.240,-0.030
7.112,0.285,-0.030
7.114,0.320,-0.030
7.116,0.290,-0.025
7.118,0.330,-0.020
7.120,0.280,-0.015
7.122,0.190,-0.010
7.124,0.215,-0.005
7.126,0.170,-0.005
7.128,0.220,0.000
7.130,0.265,0.000
7.132,0.310,0.000
7.134,0.305,0.000
7.136,0.345,0.000
7.138,0.315,0.000
7.140,0.260,0.000
7.142,0.225,-0.005
7.144,0.195,-0.005
7.146,0.210,-0.010
7.148,0.225,-0.010
7.150,0.205,-0.010
7.152,0.300,-0.010
7.154,0.355,-0.005
7.156,0.380,0.000
7.158,0.350,0.005
7.160,0.275,0.010
7.162,0.185,0.015
7.164,0.190,0.020
7.166,0.220,0.020
7.168,0.250,0.025
7.170,0.300,0.030
7.172,0.345,0.030
7.174,0.345,0.030
7.176,0.390,0.035
7.178,0.305,0.035
7.180,0.320,0.030
7.182,0.245,0.025
7.184,0.255,0.025
7.186,0.225,0.020
7.188,0.270,0.020
7.190,0.255,0.025
7.192,0.330,0.030
7.194,0.380,0.035
7.196,0.435,0.045
7.198,0.395,0.055
7.200,0.315,0.060
7.202,0.250,0.065
7.204,0.210,0.065
7.206,0.235,0.060
7.208,0.320,0.055
7.210,0.295,0.050
7.212,0.415,0.045
7.214,0.400,0.045
7.216,0.410,0.050
7.218,0.395,0.060
7.220,0.370,0.070
7.222,0.330,0.085
7.224,0.270,0.095
7.226,0.270,0.105
7.228,0.325,0.115
7.230,0.380,0.120
7.232,0.465,0.120
7.234,0.540,0.125
7.236,0.465,0.125
7.238,0.445,0.130
7.240,0.430,0.130
7.242,0.375,0.140
7.244,0.355,0.145
7.246,0.315,0.155
7.248,0.395,0.165
7.250,0.460,0.175
7.252,0.510,0.180
7.254,0.545,0.180
7.256,0.510,0.180
7.258,0.465,0.175
7.260,0.420,0.170
7.262,0.430,0.160
7.264,0.335,0.155
7.266,0.350,0.145
7.268,0.395,0.145
7.270,0.425,0.150
7.272,0.450,0.155
7.274,0.505,0.165
7.276,0.530,0.175
7.278,0.490,0.185
7.280,0.455,0.195
7.282,0.385,0.195
7.284,0.440,0.190
7.286,0.380,0.180
7.288,0.460,0.170
7.290,0.415,0.150
7.292,0.395,0.135
7.294,0.455,0.120
7.296,0.440,0.105
7.298,0.360,0.095
7.300,0.310,0.085
7.302,0.275,0.080
7.304,0.295,0.075
7.306,0.265,0.070
7.308,0.310,0.060
7.310,0.360,0.050
7.312,0.395,0.045
7.314,0.390,0.035
7.316,0.365,0.030
7.318,0.260,0.020
7.320,0.265,0.015
7.322,0.205,0.010
7.324,0.220,0.010
7.326,0.205,0.005
7.328,0.285,0.000
7.330,0.295,-0.010
7.332,0.290,-0.020
7.334,0.315,-0.030
7.336,0.255,-0.040
7.338,0.230,-0.045
7.340,0.235,-0.055
7.342,0.175,-0.060
7.344,0.100,-0.060
7.346,0.165,-0.055
7.348,0.190,-0.055
7.350,0.255,-0.050
7.352,0.225,-0.045
7.354,0.350,-0.035
7.356,0.290,-0.030
7.358,0.285,-0.025
7.360,0.195,-0.020
7.362,0.255,-0.020
7.364,0.155,-0.015
7.366,0.200,-0.015
7.368,0.255,-0.015
7.370,0.280,-0.015
7.372,0.310,-0.020
7.374,0.320,-0.025
7.376,0.250,-0.030
7.378,0.265,-0.040
7.380,0.200,-0.045
7.382,0.125,-0.050
7.384,0.180,-0.055
7.386,0.205,-0.050
7.388,0.160,-0.050
7.390,0.275,-0.045
7.392,0.300,-0.035
7.394,0.295,-0.025
7.396,0.300,-0.020
7.398,0.255,-0.015
7.400,0.200,-0.010
7.402,0.235,-0.005
7.404,0.165,-0.005
7.406,0.215,-0.005
7.408,0.315,-0.005
7.410,0.340,-0.010
7.412,0.305,-0.010
7.414,0.315,-0.015
7.416,0.270,-0.020
7.418,0.240,-0.025
7.420,0.215,-0.030
7.422,0.195,-0.035
7.424,0.130,-0.035
7.426,0.190,-0.035
7.428,0.265,-0.035
7.430,0.300,-0.035
7.432,0.330,-0.030
7.434,0.325,-0.025
7.436,0.315,-0.020
7.438,0.230,-0.015
7.440,0.230,-0.010
7.442,0.240,-0.010
7.444,0.180,-0.010
7.446,0.230,-0.010
7.448,0.265,-0.015
7.450,0.235,-0.015
7.452,0.285,-0.015
7.454,0.375,-0.015
7.456,0.320,-0.015
7.458,0.265,-0.010
7.460,0.220,-0.005
7.462,0.235,-0.005
7.464,0.205,0.000
7.466,0.205,0.000
7.468,0.260,0.005
7.470,0.320,0.005
7.472,0.350,0.010
7.474,0.375,0.010
7.476,0.335,0.005
7.478,0.285,0.005
7.480,0.240,0.005
7.482,0.150,0.000
7.484,0.195,0.000
7.486,0.265,0.000
7.488,0.295,0.000
7.490,0.300,0.000
7.492,0.345,0.005
7.494,0.335,0.005
7.496,0.335,0.005
7.498,0.310,0.010
7.500,0.235,0.010
7.502,0.200,0.010
7.504,0.200,0.010
7.506,0.260,0.010
7.508,0.305,0.010
7.510,0.305,0.010
7.512,0.370,0.015
7.514,0.360,0.015
7.516,0.305,0.015
7.518,0.285,0.015
7.520,0.205,0.015
7.522,0.190,0.010
7.524,0.230,0.005
7.526,0.255,0.000
7.528,0.340,-0.005
7.530,0.295,-0.005
7.532,0.310,-0.005
7.534,0.360,-0.005
7.536,0.320,0.000
7.538,0.285,0.010
7.540,0.260,0.015
7.542,0.225,0.025
7.544,0.210,0.030
7.546,0.295,0.035
7.548,0.300,0.035
7.550,0.365,0.035
7.552,0.360,0.030
7.554,0.385,0.030
7.556,0.355,0.025
7.558,0.290,0.020
7.560,0.210,0.020
7.562,0.200,0.015
7.564,0.240,0.015
7.566,0.255,0.010
7.568,0.320,0.010
7.570,0.340,0.010
7.572,0.340,0.010
7.574,0.350,0.015
7.576,0.345,0.020
7.578,0.350,0.020
7.580,0.255,0.025
7.582,0.230,0.030
7.584,0.225,0.030
7.586,0.230,0.030
7.588,0.325,0.025
7.590,0.375,0.020
7.592,0.365,0.010
7.594,0.350,0.000
7.596,0.275,-0.005
7.598,0.230,-0.015
7.600,0.190,-0.025
7.602,0.210,-0.035
7.604,0.175,-0.045
7.606,0.160,-0.050
7.608,0.230,-0.055
7.610,0.295,-0.055
7.612,0.310,-0.055
7.614,0.290,-0.055
7.616,0.250,-0.050
7.618,0.210,-0.045
7.620,0.240,-0.040
7.622,0.185,-0.035
7.624,0.205,-0.035
7.626,0.235,-0.035
7.628,0.260,-0.035
7.630,0.270,-0.040
7.632,0.280,-0.045
7.634,0.295,-0.055
7.636,0.240,-0.060
7.638,0.210,-0.060
7.640,0.225,-0.060
7.642,0.160,-0.060
7.644,0.190,-0.055
7.646,0.220,-0.055
7.648,0.240,-0.055
7.650,0.260,-0.055
7.652,0.325,-0.060
7.654,0.260,-0.065
7.656,0.205,-0.075
7.658,0.130,-0.080
7.660,0.140,-0.080
7.662,0.115,-0.070
7.664,0.205,-0.050
7.666,0.290,-0.010
7.668,0.375,0.035
7.670,0.455,0.100
7.672,0.550,0.165
7.674,0.605,0.235
7.676,0.610,0.295
7.678,0.630,0.335
7.680,0.630,0.355
7.682,0.585,0.350
7.684,0.570,0.315
7.686,0.475,0.255
7.688,0.400,0.180
7.690,0.400,0.090
7.692,0.440,0.005
7.694,0.300,-0.080
7.696,0.130,-0.145
7.698,0.010,-0.195
7.700,-0.070,-0.230
7.702,-0.115,-0.245
7.704,0.000,-0.255
7.706,0.015,-0.250
7.708,0.075,-0.245
7.710,0.130,-0.235
7.712,0.175,-0.225
7.714,0.105,-0.215
7.716,0.085,-0.200
7.718,0.080,-0.185
7.720,0.100,-0.165
7.722,0.120,-0.145
7.724,0.140,-0.120
7.726,0.190,-0.100
7.728,0.240,-0.085
7.730,0.260,-0.070
7.732,0.320,-0.060
7.734,0.280,-0.050
7.736,0.230,-0.045
7.738,0.165,-0.045
7.740,0.205,-0.045
7.742,0.150,-0.045
7.744,0.170,-0.045
7.746,0.215,-0.045
7.748,0.300,-0.050
7.750,0.305,-0.050
7.752,0.330,-0.055
7.754,0.285,-0.055
7.756,0.245,-0.055
7.758,0.225,-0.050
7.760,0.205,-0.045
7.762,0.145,-0.035
7.764,0.250,-0.025
7.766,0.250,-0.020
7.768,0.300,-0.015
7.770,0.330,-0.015
7.772,0.355,-0.020
7.774,0.310,-0.020
7.776,0.255,-0.025
7.778,0.230,-0.030
7.780,0.210,-0.030
7.782,0.185,-0.025
7.784,0.250,-0.025
7.786,0.270,-0.020
7.788,0.335,-0.015
7.790,0.310,-0.010
7.792,0.345,-0.010
7.794,0.310,-0.010
7.796,0.305,-0.015
7.798,0.225,-0.020
7.800,0.205,-0.020
7.802,0.235,-0.020
7.804,0.280,-0.015
7.806,0.295,-0.010
7.808,0.340,-0.005
7.810,0.315,0.005
7.812,0.375,0.015
7.814,0.345,0.020
7.816,0.265,0.025
7.818,0.205,0.025
7.820,0.275,0.020
7.822,0.275,0.010
7.824,0.275,0.005
7.826,0.315,-0.005
7.828,0.365,-0.010
7.830,0.310,-0.015
7.832,0.300,-0.015
7.834,0.350,-0.015
7.836,0.280,-0.010
7.838,0.245,0.000
7.840,0.250,0.005
7.842,0.250,0.015
7.844,0.295,0.025
7.846,0.355,0.030
7.848,0.400,0.035
7.850,0.395,0.040
7.852,0.400,0.040
7.854,0.420,0.045
7.856,0.310,0.045
7.858,0.295,0.045
7.860,0.275,0.045
7.862,0.270,0.050
7.864,0.320,0.050
7.866,0.385,0.055
7.868,0.400,0.060
7.870,0.445,0.065
7.872,0.425,0.070
7.874,0.420,0.075
7.876,0.340,0.080
7.878,0.335,0.085
7.880,0.330,0.090
7.882,0.310,0.095
7.884,0.380,0.100
7.886,0.475,0.105
7.888,0.440,0.105
7.890,0.475,0.105
7.892,0.485,0.110
7.894,0.430,0.110
7.896,0.390,0.110
7.898,0.360,0.110
7.900,0.350,0.115
7.902,0.345,0.115
7.904,0.390,0.120
7.906,0.480,0.130
7.908,0.520,0.140
7.910,0.545,0.150
7.912,0.535,0.160
7.914,0.505,0.165
7.916,0.475,0.175
7.918,0.470,0.180
7.920,0.375,0.185
7.922,0.420,0.180
7.924,0.465,0.180
7.926,0.460,0.170
7.928,0.495,0.165
7.930,0.530,0.155
7.932,0.490,0.150
7.934,0.450,0.140
7.936,0.420,0.135
7.938,0.435,0.135
7.940,0.350,0.130
7.942,0.370,0.125
7.944,0.405,0.125
7.946,0.430,0.120
7.948,0.450,0.110
7.950,0.495,0.105
7.952,0.430,0.090
7.954,0.375,0.080
7.956,0.270,0.065
7.958,0.285,0.050
7.960,0.255,0.035
7.962,0.280,0.025
7.964,0.320,0.010
7.966,0.340,0.005
7.968,0.370,-0.005
7.970,0.385,-0.005
7.972,0.315,-0.010
7.974,0.295,-0.015
7.976,0.235,-0.015
7.978,0.230,-0.020
7.980,0.150,-0.030
7.982,0.225,-0.035
7.984,0.255,-0.045
7.986,0.320,-0.050
7.988,0.290,-0.055
7.990,0.305,-0.055
7.992,0.305,-0.055
7.994,0.280,-0.055
7.996,0.220,-0.050
7.998,0.195,-0.045
8.000,0.160,-0.040
8.002,0.245,-0.040
8.004,0.235,-0.040
8.006,0.280,-0.045
8.008,0.285,-0.050
8.010,0.325,-0.055
8.012,0.280,-0.055
8.014,0.275,-0.055
8.016,0.185,-0.050
8.018,0.250,-0.045
8.020,0.190,-0.040
8.022,0.210,-0.035
8.024,0.245,-0.035
8.026,0.305,-0.040
8.028,0.260,-0.050
8.030,0.280,-0.060
8.032,0.280,-0.070
8.034,0.275,-0.080
8.036,0.190,-0.085
8.038,0.185,-0.090
8.040,0.170,-0.085
8.042,0.185,-0.075
8.044,0.225,-0.060
8.046,0.315,-0.050
8.048,0.310,-0.035
8.050,0.355,-0.025
8.052,0.310,-0.015
8.054,0.295,-0.010
8.056,0.255,-0.005
8.058,0.215,-0.010
8.060,0.200,-0.010
8.062,0.210,-0.020
8.064,0.280,-0.025
8.066,0.285,-0.030
8.068,0.315,-0.035
8.070,0.325,-0.040
8.072,0.300,-0.045
8.074,0.205,-0.050
8.076,0.165,-0.050
8.078,0.230,-0.045
8.080,0.215,-0.045
8.082,0.250,-0.040
8.084,0.275,-0.030
8.086,0.340,-0.025
8.088,0.300,-0.020
8.090,0.355,-0.015
8.092,0.325,-0.015
8.094,0.255,-0.015
8.096,0.220,-0.020
8.098,0.200,-0.025
8.100,0.190,-0.030
8.102,0.260,-0.035
8.104,0.270,-0.035
8.106,0.305,-0.035
8.108,0.360,-0.030
8.110,0.315,-0.025
8.112,0.255,-0.015
8.114,0.285,-0.010
8.116,0.245,-0.005
8.118,0.225,-0.005
8.120,0.215,-0.005
8.122,0.275,-0.010
8.124,0.295,-0.020
8.126,0.355,-0.030
8.128,0.295,-0.035
8.130,0.345,-0.040
8.132,0.315,-0.040
8.134,0.220,-0.040
8.136,0.235,-0.035
8.138,0.235,-0.030
8.140,0.210,-0.025
8.142,0.220,-0.020
8.144,0.305,-0.020
8.146,0.300,-0.020
8.148,0.345,-0.020
8.150,0.330,-0.025
8.152,0.295,-0.025
8.154,0.245,-0.030
8.156,0.245,-0.030
8.158,0.200,-0.030
8.160,0.215,-0.030
8.162,0.225,-0.035
8.164,0.285,-0.035
8.166,0.300,-0.040
8.168,0.295,-0.045
8.170,0.295,-0.055
8.172,0.325,-0.055
8.174,0.230,-0.060
8.176,0.165,-0.060
8.178,0.170,-0.055
8.180,0.190,-0.050
8.182,0.250,-0.045
8.184,0.320,-0.040
8.186,0.340,-0.035
8.188,0.330,-0.030
8.190,0.330,-0.025
8.192,0.240,-0.025
8.194,0.260,-0.030
8.196,0.245,-0.030
8.198,0.195,-0.035
8.200,0.210,-0.035
8.202,0.220,-0.040
8.204,0.235,-0.040
8.206,0.315,-0.040
8.208,0.320,-0.040
8.210,0.340,-0.040
8.212,0.245,-0.040
8.214,0.280,-0.045
8.216,0.205,-0.045
8.218,0.175,-0.050
8.220,0.190,-0.050
8.222,0.245,-0.045
8.224,0.300,-0.045
8.226,0.300,-0.040
8.228,0.330,-0.035
8.230,0.360,-0.030
8.232,0.310,-0.025
8.234,0.280,-0.020
8.236,0.250,-0.020
8.238,0.190,-0.020
8.240,0.225,-0.020
8.242,0.240,-0.020
8.244,0.285,-0.025
8.246,0.360,-0.025
8.248,0.390,-0.020
8.250,0.360,-0.020
8.252,0.280,-0.015
8.254,0.245,-0.010
8.256,0.270,-0.010
8.258,0.205,-0.010
8.260,0.235,-0.010
8.262,0.255,-0.010
8.264,0.325,-0.015
8.266,0.330,-0.020
8.268,0.340,-0.025
8.270,0.300,-0.025
8.272,0.285,-0.030
8.274,0.235,-0.030
8.276,0.195,-0.030
8.278,0.180,-0.030
8.280,0.225,-0.030
8.282,0.235,-0.035
8.284,0.275,-0.035
8.286,0.350,-0.040
8.288,0.320,-0.045
8.290,0.300,-0.050
8.292,0.270,-0.055
8.294,0.195,-0.060
8.296,0.170,-0.065
8.298,0.150,-0.070
8.300,0.180,-0.075
8.302,0.225,-0.080
8.304,0.230,-0.080
8.306,0.285,-0.080
8.308,0.245,-0.080
8.310,0.300,-0.075
8.312,0.285,-0.065
8.314,0.205,-0.055
8.316,0.205,-0.050
8.318,0.180,-0.045
8.320,0.230,-0.040
8.322,0.245,-0.040
8.324,0.290,-0.040
8.326,0.290,-0.045
8.328,0.325,-0.050
8.330,0.285,-0.055
8.332,0.220,-0.060
8.334,0.225,-0.060
8.336,0.225,-0.060
8.338,0.165,-0.055
8.340,0.215,-0.055
8.342,0.240,-0.060
8.344,0.250,-0.065
8.346,0.225,-0.070
8.348,0.280,-0.080
8.350,0.235,-0.085
8.352,0.215,-0.085
8.354,0.165,-0.080
8.356,0.145,-0.065
8.358,0.140,-0.040
8.360,0.275,0.000
8.362,0.345,0.045
8.364,0.465,0.095
8.366,0.530,0.145
8.368,0.645,0.190
8.370,0.615,0.230
8.372,0.625,0.260
8.374,0.565,0.270
8.376,0.520,0.260
8.378,0.400,0.235
8.380,0.420,0.195
8.382,0.445,0.140
8.384,0.440,0.075
8.386,0.360,0.010
8.388,0.325,-0.055
8.390,0.160,-0.115
8.392,0.050,-0.160
8.394,0.035,-0.195
8.396,0.045,-0.215
8.398,0.045,-0.225
8.400,0.110,-0.220
8.402,0.090,-0.210
8.404,0.125,-0.195
8.406,0.155,-0.175
8.408,0.225,-0.155
8.410,0.185,-0.135
8.412,0.210,-0.115
8.414,0.145,-0.100
8.416,0.175,-0.085
8.418,0.190,-0.075
8.420,0.205,-0.065
8.422,0.240,-0.065
8.424,0.285,-0.060
8.426,0.325,-0.060
8.428,0.355,-0.065
8.430,0.270,-0.065
8.432,0.220,-0.065
8.434,0.200,-0.060
8.436,0.190,-0.055
8.438,0.185,-0.050
8.440,0.220,-0.050
8.442,0.255,-0.045
8.444,0.295,-0.045
8.446,0.310,-0.050
8.448,0.325,-0.055
8.450,0.245,-0.060
8.452,0.230,-0.060
8.454,0.225,-0.065
8.456,0.215,-0.060
8.458,0.215,-0.050
8.460,0.260,-0.040
8.462,0.300,-0.025
8.464,0.350,-0.015
8.466,0.370,-0.005
8.468,0.375,0.000
8.470,0.325,0.000
8.472,0.285,-0.005
8.474,0.205,-0.010
8.476,0.220,-0.020
8.478,0.250,-0.030
8.480,0.235,-0.035
8.482,0.275,-0.030
8.484,0.340,-0.025
8.486,0.380,-0.015
8.488,0.405,0.000
8.490,0.340,0.015
8.492,0.260,0.025
8.494,0.255,0.030
8.496,0.230,0.035
8.498,0.275,0.030
8.500,0.325,0.025
8.502,0.310,0.015
8.504,0.330,0.010
8.506,0.375,0.005
8.508,0.355,0.000
8.510,0.315,0.005
8.512,0.260,0.010
8.514,0.270,0.015
8.516,0.230,0.025
8.518,0.265,0.030
8.520,0.305,0.035
8.522,0.355,0.035
8.524,0.370,0.030
8.526,0.370,0.025
8.528,0.360,0.020
8.530,0.315,0.020
8.532,0.315,0.020
8.534,0.305,0.020
8.536,0.250,0.025
8.538,0.290,0.025
8.540,0.325,0.035
8.542,0.350,0.040
8.544,0.395,0.045
8.546,0.435,0.050
8.548,0.390,0.055
8.550,0.360,0.060
8.552,0.320,0.065
8.554,0.310,0.070
8.556,0.300,0.075
8.558,0.365,0.085
8.560,0.380,0.090
8.562,0.415,0.095
8.564,0.450,0.100
8.566,0.495,0.105
8.568,0.465,0.105
8.570,0.440,0.105
8.572,0.375,0.110
8.574,0.330,0.110
8.576,0.330,0.115
8.578,0.380,0.120
8.580,0.410,0.120
8.582,0.445,0.130
8.584,0.490,0.135
8.586,0.485,0.140
8.588,0.490,0.140
8.590,0.470,0.145
8.592,0.415,0.150
8.594,0.400,0.155
8.596,0.390,0.160
8.598,0.430,0.165
8.600,0.430,0.170
8.602,0.495,0.170
8.604,0.535,0.175
8.606,0.530,0.180
8.608,0.510,0.180
8.610,0.490,0.180
8.612,0.440,0.175
8.614,0.395,0.175
8.616,0.395,0.175
8.618,0.445,0.170
8.620,0.445,0.170
8.622,0.470,0.170
8.624,0.490,0.165
8.626,0.530,0.160
8.628,0.500,0.155
8.630,0.475,0.150
8.632,0.375,0.145
8.634,0.380,0.135
8.636,0.355,0.130
8.638,0.355,0.120
8.640,0.400,0.115
8.642,0.450,0.105
8.644,0.455,0.100
8.646,0.440,0.090
8.648,0.385,0.085
8.650,0.320,0.070
8.652,0.305,0.060
8.654,0.290,0.045
8.656,0.250,0.035
8.658,0.255,0.025
8.660,0.315,0.015
8.662,0.350,0.010
8.664,0.320,0.000
8.666,0.350,0.000
8.668,0.320,-0.005
8.670,0.295,-0.010
8.672,0.225,-0.010
8.674,0.255,-0.015
8.676,0.195,-0.020
8.678,0.230,-0.020
8.680,0.235,-0.025
8.682,0.320,-0.025
8.684,0.350,-0.025
8.686,0.335,-0.025
8.688,0.330,-0.025
8.690,0.235,-0.020
8.692,0.220,-0.020
8.694,0.210,-0.020
8.696,0.245,-0.020
8.698,0.255,-0.020
8.700,0.275,-0.020
8.702,0.265,-0.025
8.704,0.290,-0.025
8.706,0.330,-0.025
8.708,0.300,-0.025
8.710,0.250,-0.030
8.712,0.195,-0.030
8.714,0.210,-0.030
8.716,0.190,-0.035
8.718,0.225,-0.035
8.720,0.275,-0.040
8.722,0.335,-0.045
8.724,0.305,-0.045
8.726,0.315,-0.045
8.728,0.280,-0.045
8.730,0.235,-0.040
8.732,0.190,-0.040
8.734,0.205,-0.035
8.736,0.195,-0.030
8.738,0.220,-0.030
8.740,0.265,-0.025
8.742,0.315,-0.025
8.744,0.315,-0.025
8.746,0.325,-0.025
8.748,0.290,-0.025
8.750,0.230,-0.025
8.752,0.230,-0.025
8.754,0.230,-0.025
8.756,0.185,-0.030
8.758,0.205,-0.030
8.760,0.250,-0.035
8.762,0.320,-0.035
8.764,0.305,-0.040
8.766,0.295,-0.040
8.768,0.255,-0.045
8.770,0.210,-0.045
8.772,0.175,-0.045
8.774,0.175,-0.045
8.776,0.190,-0.045
8.778,0.235,-0.040
8.780,0.295,-0.040
8.782,0.310,-0.035
8.784,0.285,-0.035
8.786,0.315,-0.030
8.788,0.290,-0.030
8.790,0.220,-0.030
8.792,0.180,-0.030
8.794,0.185,-0.030
8.796,0.215,-0.035
8.798,0.215,-0.040
8.800,0.285,-0.040
8.802,0.300,-0.040
8.804,0.340,-0.035
8.806,0.325,-0.035
8.808,0.290,-0.025
8.810,0.245,-0.020
8.812,0.235,-0.015
8.814,0.210,-0.015
8.816,0.180,-0.015
8.818,0.245,-0.020
8.820,0.295,-0.025
8.822,0.305,-0.030
8.824,0.290,-0.035
8.826,0.235,-0.040
8.828,0.290,-0.040
8.830,0.245,-0.035
8.832,0.180,-0.030
8.834,0.150,-0.025
8.836,0.155,-0.020
8.838,0.265,-0.015
8.840,0.295,-0.010
8.842,0.350,-0.010
8.844,0.360,-0.010
8.846,0.315,-0.010
8.848,0.250,-0.010
8.850,0.245,-0.010
8.852,0.240,-0.010
8.854,0.170,-0.010
8.856,0.235,-0.010
8.858,0.265,-0.010
8.860,0.320,-0.010
8.862,0.310,-0.015
8.864,0.340,-0.020
8.866,0.295,-0.025
8.868,0.245,-0.030
8.870,0.195,-0.030
8.872,0.215,-0.030
8.874,0.185,-0.025
8.876,0.235,-0.020
8.878,0.260,-0.015
8.880,0.265,-0.010
8.882,0.280,-0.005
8.884,0.375,-0.005
8.886,0.315,-0.005
8.888,0.290,-0.010
8.890,0.215,-0.015
8.892,0.200,-0.015
8.894,0.200,-0.020
8.896,0.225,-0.020
8.898,0.275,-0.025
8.900,0.325,-0.025
8.902,0.355,-0.020
8.904,0.355,-0.015
8.906,0.275,-0.015
8.908,0.275,-0.010
8.910,0.240,-0.005
8.912,0.245,0.000
8.914,0.200,0.005
8.916,0.215,0.005
8.918,0.270,0.005
8.920,0.295,0.005
8.922,0.395,0.000
8.924,0.410,-0.005
8.926,0.275,-0.010
8.928,0.250,-0.015
8.930,0.205,-0.020
8.932,0.215,-0.025
8.934,0.170,-0.025
8.936,0.175,-0.030
8.938,0.235,-0.035
8.940,0.270,-0.035
8.942,0.260,-0.040
8.944,0.275,-0.040
8.946,0.305,-0.040
8.948,0.235,-0.040
8.950,0.195,-0.040
8.952,0.195,-0.035
8.954,0.175,-0.035
8.956,0.200,-0.035
8.958,0.220,-0.035
8.960,0.275,-0.035
8.962,0.300,-0.040
8.964,0.315,-0.045
8.966,0.240,-0.050
8.968,0.260,-0.055
8.970,0.165,-0.060
8.972,0.150,-0.060
8.974,0.130,-0.060
8.976,0.175,-0.055
8.978,0.250,-0.050
8.980,0.275,-0.040
8.982,0.290,-0.035
8.984,0.300,-0.030
8.986,0.275,-0.030
8.988,0.225,-0.030
8.990,0.180,-0.035
8.992,0.145,-0.040
8.994,0.130,-0.045
8.996,0.170,-0.055
8.998,0.195,-0.065
9.000,0.265,-0.070
9.002,0.290,-0.070
9.004,0.285,-0.065
9.006,0.255,-0.055
9.008,0.225,-0.030
9.010,0.245,0.010
9.012,0.245,0.055
9.014,0.325,0.110
9.016,0.435,0.170
9.018,0.545,0.225
9.020,0.670,0.270
9.022,0.695,0.300
9.024,0.680,0.305
9.026,0.615,0.295
9.028,0.445,0.255
9.030,0.355,0.200
9.032,0.360,0.135
9.034,0.285,0.060
9.036,0.215,-0.015
9.038,0.190,-0.085
9.040,0.125,-0.140
9.042,0.100,-0.180
9.044,0.135,-0.205
9.046,0.100,-0.215
9.048,0.025,-0.215
9.050,0.015,-0.210
9.052,0.005,-0.195
9.054,0.015,-0.180
9.056,0.085,-0.165
9.058,0.165,-0.145
9.060,0.200,-0.130
9.062,0.250,-0.110
9.064,0.265,-0.090
9.066,0.220,-0.070
9.068,0.160,-0.055
9.070,0.165,-0.040
9.072,0.150,-0.030
9.074,0.165,-0.025
9.076,0.240,-0.025
9.078,0.275,-0.025
9.080,0.280,-0.030
9.082,0.310,-0.035
9.084,0.290,-0.035
9.086,0.250,-0.035
9.088,0.250,-0.035
9.090,0.220,-0.030
9.092,0.210,-0.030
9.094,0.180,-0.025
9.096,0.205,-0.020
9.098,0.275,-0.020
9.100,0.285,-0.015
9.102,0.335,-0.015
9.104,0.305,-0.015
9.106,0.260,-0.015
9.108,0.210,-0.015
9.110,0.210,-0.010
9.112,0.160,-0.010
9.114,0.170,-0.005
9.116,0.270,0.000
9.118,0.300,0.000
9.120,0.305,0.000
9.122,0.340,0.000
9.124,0.355,0.000
9.126,0.330,0.005
9.128,0.270,0.005
9.130,0.205,0.010
9.132,0.185,0.015
9.134,0.180,0.020
9.136,0.255,0.020
9.138,0.310,0.020
9.140,0.340,0.015
9.142,0.380,0.005
9.144,0.315,0.000
9.146,0.255,-0.010
9.148,0.235,-0.020
9.150,0.210,-0.025
9.152,0.140,-0.025
9.154,0.190,-0.025
9.156,0.235,-0.020
9.158,0.275,-0.010
9.160,0.325,0.000
9.162,0.335,0.005
9.164,0.360,0.010
9.166,0.305,0.015
9.168,0.230,0.015
9.170,0.195,0.015
9.172,0.195,0.015
9.174,0.215,0.015
9.176,0.305,0.020
9.178,0.345,0.025
9.180,0.370,0.030
9.182,0.395,0.035
9.184,0.335,0.040
9.186,0.320,0.045
9.188,0.290,0.050
9.190,0.270,0.055
9.192,0.250,0.055
9.194,0.285,0.060
9.196,0.335,0.065
9.198,0.410,0.070
9.200,0.385,0.075
9.202,0.420,0.080
9.204,0.420,0.085
9.206,0.370,0.085
9.208,0.270,0.090
9.210,0.230,0.090
9.212,0.240,0.090
9.214,0.350,0.090
9.216,0.365,0.095
9.218,0.410,0.100
9.220,0.445,0.110
9.222,0.485,0.115
9.224,0.475,0.125
9.226,0.415,0.135
9.228,0.320,0.140
9.230,0.305,0.150
9.232,0.325,0.150
9.234,0.405,0.155
9.236,0.430,0.160
9.238,0.470,0.165
9.240,0.505,0.170
9.242,0.560,0.180
9.244,0.490,0.190
9.246,0.420,0.200
9.248,0.390,0.210
9.250,0.435,0.215
9.252,0.405,0.220
9.254,0.430,0.220
9.256,0.505,0.215
9.258,0.495,0.210
9.260,0.505,0.210
9.262,0.540,0.210
9.264,0.545,0.210
9.266,0.495,0.215
9.268,0.425,0.220
9.270,0.400,0.230
9.272,0.435,0.230
9.274,0.455,0.230
9.276,0.460,0.225
9.278,0.495,0.210
9.280,0.495,0.195
9.282,0.535,0.175
9.284,0.435,0.150
9.286,0.365,0.135
9.288,0.290,0.120
9.290,0.320,0.110
9.292,0.300,0.105
9.294,0.315,0.100
9.296,0.335,0.100
9.298,0.355,0.090
9.300,0.380,0.085
9.302,0.420,0.070
9.304,0.340,0.055
9.306,0.290,0.040
9.308,0.225,0.025
9.310,0.210,0.015
9.312,0.195,0.005
9.314,0.215,-0.005
9.316,0.290,-0.005
9.318,0.300,-0.005
9.320,0.300,-0.005
9.322,0.305,-0.005
9.324,0.300,-0.010
9.326,0.225,-0.010
9.328,0.170,-0.020
9.330,0.165,-0.025
9.332,0.160,-0.030
9.334,0.215,-0.040
9.336,0.220,-0.045
9.338,0.230,-0.045
9.340,0.255,-0.045
9.342,0.305,-0.040
9.344,0.245,-0.035
9.346,0.200,-0.030
9.348,0.210,-0.020
9.350,0.175,-0.020
9.352,0.145,-0.015
9.354,0.200,-0.020
9.356,0.220,-0.025
9.358,0.280,-0.035
9.360,0.300,-0.050
9.362,0.280,-0.060
9.364,0.155,-0.070
9.366,0.125,-0.070
9.368,0.145,-0.075
9.370,0.165,-0.070
9.372,0.160,-0.060
9.374,0.220,-0.050
9.376,0.230,-0.035
9.378,0.260,-0.030
9.380,0.285,-0.020
9.382,0.310,-0.015
9.384,0.255,-0.020
9.386,0.210,-0.020
9.388,0.220,-0.030
9.390,0.135,-0.035
9.392,0.140,-0.045
9.394,0.225,-0.055
9.396,0.180,-0.060
9.398,0.220,-0.070
9.400,0.275,-0.070
9.402,0.260,-0.075
9.404,0.175,-0.075
9.406,0.170,-0.070
9.408,0.140,-0.065
9.410,0.115,-0.055
9.412,0.155,-0.045
9.414,0.195,-0.035
9.416,0.235,-0.025
9.418,0.290,-0.020
9.420,0.330,-0.020
9.422,0.295,-0.020
9.424,0.250,-0.025
9.426,0.160,-0.030
9.428,0.120,-0.035
9.430,0.180,-0.040
9.432,0.225,-0.035
9.434,0.185,-0.030
9.436,0.210,-0.020
9.438,0.295,-0.005
9.440,0.340,0.005
9.442,0.395,0.015
9.444,0.295,0.020
9.446,0.225,0.020
9.448,0.215,0.010
9.450,0.140,0.000
9.452,0.185,-0.015
9.454,0.185,-0.030
9.456,0.250,-0.035
9.458,0.250,-0.040
9.460,0.310,-0.040
9.462,0.270,-0.035
9.464,0.265,-0.025
9.466,0.190,-0.020
9.468,0.200,-0.015
9.470,0.115,-0.010
9.472,0.165,-0.010
9.474,0.250,-0.015
9.476,0.290,-0.020
9.478,0.275,-0.025
9.480,0.305,-0.030
9.482,0.305,-0.030
9.484,0.210,-0.030
9.486,0.150,-0.030
9.488,0.135,-0.025
9.490,0.120,-0.025
9.492,0.225,-0.020
9.494,0.240,-0.025
9.496,0.220,-0.025
9.498,0.280,-0.025
9.500,0.330,-0.025
9.502,0.265,-0.025
9.504,0.275,-0.020
9.506,0.190,-0.015
9.508,0.185,-0.010
9.510,0.130,-0.005
9.512,0.200,-0.005
9.514,0.205,-0.005
9.516,0.295,-0.010
9.518,0.295,-0.015
9.520,0.335,-0.020
9.522,0.275,-0.030
9.524,0.225,-0.035
9.526,0.130,-0.040
9.528,0.140,-0.045
9.530,0.120,-0.045
9.532,0.160,-0.045
9.534,0.200,-0.045
9.536,0.260,-0.040
9.538,0.230,-0.035
9.540,0.305,-0.030
9.542,0.270,-0.020
9.544,0.215,-0.015
9.546,0.215,-0.010
9.548,0.225,-0.010
9.550,0.195,-0.015
9.552,0.115,-0.020
9.554,0.135,-0.030
9.556,0.245,-0.040
9.558,0.270,-0.045
9.560,0.270,-0.050
9.562,0.220,-0.055
9.564,0.195,-0.050
9.566,0.145,-0.040
9.568,0.135,-0.030
9.570,0.235,-0.020
9.572,0.225,-0.010
9.574,0.205,-0.005
9.576,0.250,-0.005
9.578,0.265,-0.010
9.580,0.310,-0.015
9.582,0.255,-0.030
9.584,0.240,-0.040
9.586,0.165,-0.045
9.588,0.095,-0.055
9.590,0.120,-0.055
9.592,0.140,-0.060
9.594,0.215,-0.055
9.596,0.260,-0.055
9.598,0.225,-0.050
9.600,0.265,-0.045
9.602,0.255,-0.040
9.604,0.210,-0.030
9.606,0.170,-0.020
9.608,0.140,-0.015
9.610,0.200,-0.005
9.612,0.220,0.000
9.614,0.225,0.000
9.616,0.285,0.000
9.618,0.290,-0.005
9.620,0.260,-0.015
9.622,0.260,-0.025
9.624,0.195,-0.030
9.626,0.190,-0.035
9.628,0.140,-0.035
9.630,0.115,-0.035
9.632,0.165,-0.025
9.634,0.250,-0.015
9.636,0.310,-0.005
9.638,0.330,0.005
9.640,0.340,0.010
9.642,0.285,0.010
9.644,0.205,0.010
9.646,0.195,0.010
9.648,0.185,0.010
9.650,0.180,0.005
9.652,0.195,0.005
9.654,0.260,0.005
9.656,0.295,0.005
9.658,0.345,0.010
9.660,0.320,0.010
9.662,0.265,0.010
9.664,0.230,0.010
9.666,0.180,0.010
9.668,0.160,0.005
9.670,0.195,0.000
9.672,0.265,-0.005
9.674,0.265,-0.010
9.676,0.280,-0.015
9.678,0.290,-0.020
9.680,0.275,-0.025
9.682,0.195,-0.030
9.684,0.170,-0.030
9.686,0.170,-0.030
9.688,0.160,-0.030
9.690,0.145,-0.025
9.692,0.205,-0.025
9.694,0.255,-0.020
9.696,0.280,-0.020
9.698,0.295,-0.020
9.700,0.255,-0.025
9.702,0.210,-0.030
9.704,0.150,-0.035
9.706,0.090,-0.040
9.708,0.080,-0.045
9.710,0.130,-0.050
9.712,0.180,-0.050
9.714,0.220,-0.045
9.716,0.260,-0.045
9.718,0.300,-0.040
9.720,0.235,-0.035
9.722,0.220,-0.035
9.724,0.160,-0.040
9.726,0.110,-0.045
9.728,0.045,-0.055
9.730,0.120,-0.065
9.732,0.160,-0.075
9.734,0.230,-0.080
9.736,0.175,-0.080
9.738,0.255,-0.075
9.740,0.260,-0.065
9.742,0.210,-0.055
9.744,0.140,-0.045
9.746,0.140,-0.035
9.748,0.105,-0.035
9.750,0.125,-0.035
9.752,0.170,-0.045
9.754,0.200,-0.060
9.756,0.200,-0.080
9.758,0.205,-0.100
9.760,0.150,-0.115
9.762,0.110,-0.125
9.764,0.065,-0.130
9.766,0.080,-0.125
9.768,0.025,-0.105
9.770,0.070,-0.070
9.772,0.215,-0.025
9.774,0.310,0.035
9.776,0.455,0.105
9.778,0.555,0.180
9.780,0.560,0.255
9.782,0.550,0.320
9.784,0.600,0.370
9.786,0.640,0.400
9.788,0.605,0.405
9.790,0.605,0.375
9.792,0.485,0.320
9.794,0.415,0.235
9.796,0.350,0.140
9.798,0.375,0.035
9.800,0.260,-0.070
9.802,0.110,-0.160
9.804,-0.095,-0.230
9.806,-0.200,-0.280
9.808,-0.195,-0.310
9.810,-0.115,-0.325
9.812,-0.060,-0.320
9.814,-0.020,-0.310
9.816,-0.010,-0.290
9.818,0.020,-0.270
9.820,0.035,-0.245
9.822,0.030,-0.220
9.824,0.040,-0.195
9.826,0.055,-0.170
9.828,0.015,-0.145
9.830,0.060,-0.120
9.832,0.140,-0.095
9.834,0.215,-0.080
9.836,0.230,-0.065
9.838,0.255,-0.060
9.840,0.205,-0.060
9.842,0.140,-0.060
9.844,0.130,-0.065
9.846,0.120,-0.065
9.848,0.110,-0.065
9.850,0.140,-0.060
9.852,0.170,-0.055
9.854,0.235,-0.050
9.856,0.240,-0.045
9.858,0.250,-0.045
9.860,0.235,-0.040
9.862,0.185,-0.045
9.864,0.160,-0.045
9.866,0.160,-0.040
9.868,0.125,-0.040
9.870,0.170,-0.035
9.872,0.210,-0.030
9.874,0.240,-0.025
9.876,0.240,-0.020
9.878,0.275,-0.015
9.880,0.240,-0.015
9.882,0.180,-0.020
9.884,0.160,-0.025
9.886,0.140,-0.030
9.888,0.125,-0.030
9.890,0.190,-0.030
9.892,0.235,-0.025
9.894,0.245,-0.020
9.896,0.270,-0.015
9.898,0.300,-0.010
9.900,0.265,-0.010
9.902,0.195,-0.010
9.904,0.170,-0.015
9.906,0.120,-0.020
9.908,0.130,-0.025
9.910,0.170,-0.035
9.912,0.220,-0.035
9.914,0.275,-0.035
9.916,0.255,-0.030
9.918,0.270,-0.020
9.920,0.265,-0.015
9.922,0.210,-0.005
9.924,0.150,0.000
9.926,0.150,0.005
9.928,0.150,0.005
9.930,0.205,0.000
9.932,0.235,-0.005
9.934,0.270,-0.005
9.936,0.295,-0.010
9.938,0.275,-0.010
9.940,0.250,-0.010
9.942,0.195,-0.005
9.944,0.175,-0.005
9.946,0.185,0.000
9.948,0.160,0.005
9.950,0.210,0.010
9.952,0.270,0.010
9.954,0.320,0.015
9.956,0.330,0.015
9.958,0.320,0.020
9.960,0.265,0.025
9.962,0.220,0.035
9.964,0.220,0.040
9.966,0.185,0.050
9.968,0.215,0.055
9.970,0.300,0.060
9.972,0.335,0.065
9.974,0.340,0.065
9.976,0.325,0.070
9.978,0.330,0.070
9.980,0.330,0.070
9.982,0.270,0.070
9.984,0.255,0.075
9.986,0.235,0.085
9.988,0.265,0.095
9.990,0.290,0.105
9.992,0.385,0.115
9.994,0.410,0.125
9.996,0.480,0.130
9.998,0.455,0.135
