'Elapsed time','ECG I','ECG I filtered'
'seconds','mV','mV'
0.000,-1.040,-0.040
0.002,-1.005,-0.035
0.004,-1.060,-0.030
0.006,-1.025,-0.025
0.008,-1.035,-0.015
0.010,-1.045,-0.010
0.012,-0.980,-0.005
0.014,-0.980,0.000
0.016,-1.015,0.005
0.018,-1.055,0.005
0.020,-1.005,0.005
0.022,-1.005,0.000
0.024,-1.010,-0.005
0.026,-1.020,-0.010
0.028,-1.010,-0.015
0.030,-1.015,-0.020
0.032,-1.010,-0.020
0.034,-1.005,-0.015
0.036,-0.995,-0.015
0.038,-1.000,-0.010
0.040,-1.005,0.000
0.042,-0.970,0.000
0.044,-1.005,0.005
0.046,-0.965,0.005
0.048,-0.955,0.005
0.050,-1.060,0.000
0.052,-1.060,-0.005
0.054,-1.005,-0.010
0.056,-0.985,-0.015
0.058,-1.005,-0.020
0.060,-1.010,-0.025
0.062,-1.055,-0.030
0.064,-1.060,-0.030
0.066,-1.025,-0.030
0.068,-1.000,-0.030
0.070,-1.005,-0.025
0.072,-1.030,-0.020
0.074,-1.010,-0.015
0.076,-1.035,-0.010
0.078,-1.000,-0.010
0.080,-1.005,-0.005
0.082,-1.020,-0.005
0.084,-1.035,-0.010
0.086,-1.045,-0.010
0.088,-1.030,-0.010
0.090,-1.015,-0.015
0.092,-1.000,-0.015
0.094,-0.980,-0.015
0.096,-1.005,-0.015
0.098,-1.040,-0.015
0.100,-1.060,-0.015
0.102,-1.020,-0.020
0.104,-1.020,-0.020
0.106,-1.005,-0.025
0.108,-1.050,-0.030
0.110,-1.025,-0.030
0.112,-1.025,-0.035
0.114,-0.980,-0.035
0.116,-1.030,-0.035
0.118,-1.025,-0.035
0.120,-1.050,-0.035
0.122,-1.060,-0.035
0.124,-1.035,-0.035
0.126,-1.040,-0.040
0.128,-1.035,-0.040
0.130,-1.055,-0.040
0.132,-1.070,-0.040
0.134,-1.020,-0.040
0.136,-1.045,-0.040
0.138,-1.055,-0.040
0.140,-1.035,-0.040
0.142,-1.030,-0.040
0.144,-1.055,-0.040
0.146,-1.035,-0.040
0.148,-1.000,-0.040
0.150,-1.050,-0.040
0.152,-1.005,-0.040
0.154,-1.015,-0.040
0.156,-1.085,-0.035
0.158,-1.060,-0.030
0.160,-0.995,-0.025
0.162,-1.000,-0.015
0.164,-1.010,-0.010
0.166,-1.010,-0.005
0.168,-1.025,-0.005
0.170,-1.060,-0.010
0.172,-1.060,-0.020
0.174,-0.975,-0.030
0.176,-1.030,-0.040
0.178,-1.015,-0.050
0.180,-1.065,-0.060
0.182,-1.045,-0.065
0.184,-1.020,-0.065
0.186,-1.050,-0.065
0.188,-1.055,-0.060
0.190,-1.055,-0.050
0.192,-1.040,-0.040
0.194,-1.050,-0.035
0.196,-0.985,-0.025
0.198,-0.995,-0.025
0.200,-1.025,-0.020
0.202,-1.020,-0.025
0.204,-1.050,-0.030
0.206,-1.015,-0.035
0.208,-1.030,-0.045
0.210,-1.060,-0.050
0.212,-1.080,-0.055
0.214,-1.055,-0.060
0.216,-1.065,-0.060
0.218,-1.085,-0.060
0.220,-1.015,-0.055
0.222,-1.040,-0.050
0.224,-1.065,-0.045
0.226,-1.015,-0.040
0.228,-1.040,-0.035
0.230,-1.050,-0.035
0.232,-1.020,-0.035
0.234,-0.990,-0.035
0.236,-1.045,-0.040
0.238,-1.010,-0.045
0.240,-1.030,-0.050
0.242,-1.035,-0.050
0.244,-1.030,-0.050
0.246,-1.055,-0.050
0.248,-1.000,-0.040
0.250,-1.055,-0.035
0.252,-1.060,-0.025
0.254,-1.025,-0.010
0.256,-0.960,0.000
0.258,-0.965,0.010
0.260,-0.930,0.015
0.262,-0.945,0.020
0.264,-0.950,0.025
0.266,-0.970,0.030
0.268,-0.955,0.030
0.270,-0.995,0.030
0.272,-0.980,0.025
0.274,-0.990,0.020
0.276,-0.985,0.015
0.278,-0.975,0.005
0.280,-0.985,0.000
0.282,-1.020,-0.010
0.284,-1.060,-0.020
0.286,-1.015,-0.030
0.288,-1.035,-0.035
0.290,-1.040,-0.040
0.292,-1.000,-0.045
0.294,-1.010,-0.050
0.296,-1.060,-0.050
0.298,-1.050,-0.050
0.300,-1.025,-0.045
0.302,-1.030,-0.045
0.304,-1.065,-0.045
0.306,-1.005,-0.040
0.308,-1.030,-0.040
0.310,-1.045,-0.040
0.312,-1.020,-0.040
0.314,-1.045,-0.045
0.316,-1.055,-0.045
0.318,-1.025,-0.045
0.320,-1.015,-0.050
0.322,-1.060,-0.055
0.324,-1.060,-0.060
0.326,-1.015,-0.065
0.328,-1.055,-0.070
0.330,-1.065,-0.075
0.332,-1.015,-0.080
0.334,-1.120,-0.085
0.336,-1.115,-0.085
0.338,-1.035,-0.085
0.340,-1.050,-0.090
0.342,-1.080,-0.095
0.344,-1.100,-0.105
0.346,-1.100,-0.120
0.348,-1.140,-0.135
0.350,-1.195,-0.155
0.352,-1.155,-0.170
0.354,-1.145,-0.180
0.356,-1.155,-0.175
0.358,-1.140,-0.160
0.360,-1.115,-0.125
0.362,-1.100,-0.075
0.364,-0.975,-0.010
0.366,-0.860,0.075
0.368,-0.775,0.165
0.370,-0.705,0.260
0.372,-0.600,0.360
0.374,-0.505,0.450
0.376,-0.430,0.525
0.378,-0.355,0.585
0.380,-0.330,0.625
0.382,-0.300,0.640
0.384,-0.295,0.620
0.386,-0.355,0.570
0.388,-0.475,0.490
0.390,-0.615,0.385
0.392,-0.745,0.265
0.394,-0.895,0.135
0.396,-1.020,0.010
0.398,-1.170,-0.095
0.400,-1.215,-0.175
0.402,-1.265,-0.225
0.404,-1.255,-0.240
0.406,-1.145,-0.225
0.408,-1.080,-0.185
0.410,-1.065,-0.140
0.412,-1.045,-0.090
0.414,-1.045,-0.055
0.416,-1.050,-0.030
0.418,-0.995,-0.020
0.420,-1.000,-0.025
0.422,-1.030,-0.035
0.424,-1.065,-0.055
0.426,-1.060,-0.070
0.428,-1.035,-0.075
0.430,-1.030,-0.075
0.432,-1.010,-0.070
0.434,-1.020,-0.060
0.436,-1.030,-0.050
0.438,-1.010,-0.040
0.440,-1.035,-0.035
0.442,-1.030,-0.035
0.444,-0.985,-0.040
0.446,-0.995,-0.045
0.448,-1.075,-0.050
0.450,-1.045,-0.055
0.452,-1.010,-0.060
0.454,-1.020,-0.055
0.456,-1.030,-0.055
0.458,-1.020,-0.045
0.460,-1.030,-0.040
0.462,-1.010,-0.035
0.464,-1.030,-0.035
0.466,-1.035,-0.035
0.468,-1.050,-0.035
0.470,-1.015,-0.035
0.472,-0.985,-0.035
0.474,-0.970,-0.040
0.476,-1.000,-0.035
0.478,-0.985,-0.035
0.480,-0.980,-0.030
0.482,-1.060,-0.025
0.484,-1.005,-0.020
0.486,-0.975,-0.015
0.488,-0.980,-0.010
0.490,-0.980,-0.005
0.492,-0.930,-0.005
0.494,-0.925,0.000
0.496,-0.965,0.000
0.498,-0.950,0.005
0.500,-0.985,0.010
0.502,-0.990,0.015
0.504,-0.995,0.020
0.506,-0.960,0.025
0.508,-0.955,0.030
0.510,-0.905,0.030
0.512,-0.915,0.035
0.514,-0.955,0.035
0.516,-0.920,0.035
0.518,-0.905,0.035
0.520,-0.935,0.035
0.522,-0.945,0.040
0.524,-0.925,0.045
0.526,-0.925,0.050
0.528,-0.935,0.055
0.530,-0.930,0.060
0.532,-0.905,0.060
0.534,-0.930,0.060
0.536,-0.870,0.060
0.538,-0.820,0.060
0.540,-0.885,0.065
0.542,-0.895,0.070
0.544,-0.905,0.080
0.546,-0.910,0.090
0.548,-0.925,0.105
0.550,-0.845,0.125
0.552,-0.765,0.140
0.554,-0.795,0.155
0.556,-0.765,0.165
0.558,-0.760,0.175
0.560,-0.790,0.180
0.562,-0.790,0.185
0.564,-0.780,0.190
0.566,-0.770,0.195
0.568,-0.815,0.200
0.570,-0.725,0.205
0.572,-0.730,0.215
0.574,-0.780,0.220
0.576,-0.755,0.230
0.578,-0.725,0.240
0.580,-0.715,0.245
0.582,-0.675,0.260
0.584,-0.675,0.270
0.586,-0.685,0.285
0.588,-0.705,0.300
0.590,-0.650,0.310
0.592,-0.665,0.320
0.594,-0.635,0.325
0.596,-0.645,0.325
0.598,-0.640,0.320
0.600,-0.685,0.310
0.602,-0.670,0.300
0.604,-0.665,0.290
0.606,-0.655,0.285
0.608,-0.725,0.285
0.610,-0.695,0.285
0.612,-0.635,0.285
0.614,-0.645,0.285
0.616,-0.695,0.285
0.618,-0.670,0.280
0.620,-0.710,0.270
0.622,-0.770,0.255
0.624,-0.785,0.235
0.626,-0.725,0.220
0.628,-0.775,0.200
0.630,-0.770,0.180
0.632,-0.785,0.165
0.634,-0.845,0.145
0.636,-0.840,0.130
0.638,-0.815,0.110
0.640,-0.905,0.095
0.642,-0.910,0.075
0.644,-0.865,0.060
0.646,-0.915,0.045
0.648,-0.965,0.035
0.650,-0.940,0.025
0.652,-0.975,0.015
0.654,-0.940,0.010
0.656,-0.960,0.005
0.658,-0.980,0.000
0.660,-0.980,-0.010
0.662,-0.970,-0.015
0.664,-0.940,-0.020
0.666,-1.015,-0.025
0.668,-0.980,-0.025
0.670,-0.955,-0.025
0.672,-0.965,-0.025
0.674,-1.010,-0.030
0.676,-1.050,-0.035
0.678,-1.015,-0.040
0.680,-1.035,-0.050
0.682,-1.005,-0.065
0.684,-1.020,-0.075
0.686,-1.075,-0.085
0.688,-1.055,-0.090
0.690,-1.000,-0.085
0.692,-1.005,-0.080
0.694,-0.995,-0.065
0.696,-0.965,-0.050
0.698,-0.965,-0.040
0.700,-1.015,-0.035
0.702,-1.020,-0.030
0.704,-0.990,-0.035
0.706,-1.030,-0.045
0.708,-1.010,-0.060
0.710,-0.985,-0.065
0.712,-1.010,-0.075
0.714,-1.035,-0.075
0.716,-1.015,-0.070
0.718,-1.025,-0.060
0.720,-1.035,-0.050
0.722,-1.010,-0.045
0.724,-1.005,-0.040
0.726,-1.015,-0.040
0.728,-0.995,-0.040
0.730,-0.995,-0.045
0.732,-1.000,-0.050
0.734,-1.030,-0.055
0.736,-1.030,-0.055
0.738,-1.005,-0.050
0.740,-0.970,-0.045
0.742,-0.965,-0.035
0.744,-1.005,-0.030
0.746,-0.970,-0.025
0.748,-0.990,-0.025
0.750,-0.970,-0.030
0.752,-1.015,-0.040
0.754,-1.040,-0.050
0.756,-1.060,-0.060
0.758,-0.980,-0.065
0.760,-1.050,-0.065
0.762,-1.050,-0.065
0.764,-0.980,-0.060
0.766,-1.010,-0.050
0.768,-0.975,-0.040
0.770,-0.940,-0.030
0.772,-0.960,-0.020
0.774,-0.975,-0.020
0.776,-0.985,-0.020
0.778,-1.010,-0.025
0.780,-1.010,-0.030
0.782,-0.960,-0.040
0.784,-0.995,-0.050
0.786,-1.030,-0.055
0.788,-1.050,-0.060
0.790,-0.990,-0.065
0.792,-1.015,-0.065
0.794,-1.010,-0.065
0.796,-0.990,-0.065
0.798,-1.035,-0.065
0.800,-1.010,-0.060
0.802,-1.005,-0.055
0.804,-1.000,-0.050
0.806,-1.025,-0.045
0.808,-0.980,-0.045
0.810,-0.955,-0.040
0.812,-0.960,-0.040
0.814,-1.010,-0.040
0.816,-1.005,-0.040
0.818,-1.025,-0.045
0.820,-1.030,-0.045
0.822,-0.975,-0.050
0.824,-1.015,-0.050
0.826,-1.020,-0.055
0.828,-1.000,-0.055
0.830,-0.980,-0.055
0.832,-1.005,-0.055
0.834,-0.960,-0.055
0.836,-0.955,-0.050
0.838,-1.020,-0.050
0.840,-1.000,-0.050
0.842,-0.990,-0.045
0.844,-1.005,-0.045
0.846,-1.035,-0.045
0.848,-1.005,-0.040
0.850,-0.970,-0.040
0.852,-0.960,-0.040
0.854,-0.960,-0.040
0.856,-0.985,-0.040
0.858,-1.040,-0.040
0.860,-1.015,-0.045
0.862,-1.025,-0.050
0.864,-0.995,-0.050
0.866,-1.010,-0.055
0.868,-1.000,-0.055
0.870,-0.960,-0.060
0.872,-1.015,-0.060
0.874,-0.995,-0.060
0.876,-1.005,-0.065
0.878,-1.035,-0.065
0.880,-1.045,-0.070
0.882,-1.020,-0.070
0.884,-1.030,-0.070
0.886,-0.990,-0.070
0.888,-0.965,-0.065
0.890,-0.960,-0.060
0.892,-1.035,-0.055
0.894,-1.035,-0.050
0.896,-0.955,-0.045
0.898,-0.980,-0.040
0.900,-1.020,-0.040
0.902,-1.005,-0.045
0.904,-1.005,-0.050
0.906,-1.025,-0.055
0.908,-0.980,-0.060
0.910,-0.995,-0.065
0.912,-1.005,-0.065
0.914,-1.000,-0.065
0.916,-0.985,-0.065
0.918,-1.025,-0.065
0.920,-1.015,-0.065
0.922,-0.995,-0.065
0.924,-1.005,-0.065
0.926,-0.990,-0.065
0.928,-0.970,-0.065
0.930,-0.970,-0.060
0.932,-0.995,-0.060
0.934,-1.005,-0.055
0.936,-0.975,-0.055
0.938,-1.035,-0.055
0.940,-0.990,-0.060
0.942,-1.020,-0.065
0.944,-1.045,-0.070
0.946,-1.025,-0.080
0.948,-0.995,-0.085
0.950,-1.020,-0.085
0.952,-1.025,-0.085
0.954,-0.995,-0.080
0.956,-1.035,-0.070
0.958,-1.025,-0.065
0.960,-0.990,-0.055
0.962,-0.980,-0.050
0.964,-1.000,-0.050
0.966,-1.010,-0.055
0.968,-1.025,-0.060
0.970,-1.045,-0.070
0.972,-1.065,-0.075
0.974,-1.025,-0.080
0.976,-0.985,-0.080
0.978,-0.975,-0.075
0.980,-1.000,-0.070
0.982,-0.980,-0.060
0.984,-1.010,-0.050
0.986,-0.980,-0.040
0.988,-0.955,-0.030
0.990,-0.985,-0.030
0.992,-0.985,-0.030
0.994,-0.995,-0.030
0.996,-0.965,-0.035
0.998,-0.985,-0.035
1.000,-0.980,-0.035
1.002,-0.960,-0.030
1.004,-0.955,-0.020
1.006,-0.955,-0.005
1.008,-0.875,0.005
1.010,-0.900,0.020
1.012,-0.925,0.035
1.014,-0.905,0.040
1.016,-0.910,0.040
1.018,-0.915,0.035
1.020,-0.955,0.025
1.022,-0.960,0.005
1.024,-0.980,-0.020
1.026,-0.960,-0.045
1.028,-0.975,-0.065
1.030,-1.030,-0.085
1.032,-1.000,-0.095
1.034,-1.005,-0.105
1.036,-1.050,-0.105
1.038,-1.115,-0.095
1.040,-1.025,-0.085
1.042,-1.000,-0.070
1.044,-0.965,-0.060
1.046,-0.960,-0.050
1.048,-0.975,-0.040
1.050,-0.960,-0.040
1.052,-0.975,-0.040
1.054,-0.960,-0.040
1.056,-0.990,-0.045
1.058,-1.015,-0.055
1.060,-1.035,-0.060
1.062,-1.020,-0.065
1.064,-1.020,-0.065
1.066,-0.980,-0.065
1.068,-0.950,-0.065
1.070,-0.960,-0.065
1.072,-0.990,-0.065
1.074,-0.980,-0.065
1.076,-1.000,-0.065
1.078,-1.040,-0.070
1.080,-1.015,-0.070
1.082,-0.985,-0.070
1.084,-1.035,-0.075
1.086,-1.020,-0.085
1.088,-1.035,-0.095
1.090,-1.015,-0.105
1.092,-1.040,-0.125
1.094,-1.045,-0.140
1.096,-1.085,-0.155
1.098,-1.150,-0.170
1.100,-1.135,-0.175
1.102,-1.140,-0.175
1.104,-1.120,-0.160
1.106,-1.060,-0.135
1.108,-0.995,-0.095
1.110,-0.905,-0.045
1.112,-0.865,0.020
1.114,-0.770,0.095
1.116,-0.760,0.180
1.118,-0.695,0.265
1.120,-0.585,0.355
1.122,-0.500,0.440
1.124,-0.395,0.515
1.126,-0.275,0.570
1.128,-0.290,0.600
1.130,-0.290,0.605
1.132,-0.305,0.575
1.134,-0.355,0.510
1.136,-0.520,0.420
1.138,-0.700,0.305
1.140,-0.800,0.180
1.142,-0.930,0.055
1.144,-1.065,-0.060
1.146,-1.130,-0.150
1.148,-1.115,-0.215
1.150,-1.215,-0.250
1.152,-1.200,-0.255
1.154,-1.095,-0.240
1.156,-1.100,-0.215
1.158,-1.070,-0.180
1.160,-1.075,-0.145
1.162,-1.095,-0.115
1.164,-1.040,-0.100
1.166,-0.985,-0.090
1.168,-0.990,-0.085
1.170,-1.040,-0.085
1.172,-0.995,-0.090
1.174,-1.025,-0.090
1.176,-1.005,-0.085
1.178,-0.985,-0.080
1.180,-0.990,-0.070
1.182,-0.960,-0.060
1.184,-0.975,-0.050
1.186,-0.995,-0.045
1.188,-0.995,-0.045
1.190,-1.025,-0.045
1.192,-0.970,-0.050
1.194,-0.920,-0.055
1.196,-0.955,-0.060
1.198,-0.935,-0.060
1.200,-0.985,-0.060
1.202,-1.045,-0.050
1.204,-1.030,-0.040
1.206,-0.910,-0.030
1.208,-0.950,-0.020
1.210,-0.950,-0.010
1.212,-0.945,-0.005
1.214,-0.945,-0.010
1.216,-0.960,-0.015
1.218,-0.925,-0.025
1.220,-0.975,-0.030
1.222,-0.950,-0.040
1.224,-0.955,-0.045
1.226,-0.950,-0.050
1.228,-0.985,-0.050
1.230,-0.965,-0.045
1.232,-0.975,-0.045
1.234,-1.000,-0.040
1.236,-0.985,-0.035
1.238,-0.945,-0.030
1.240,-0.940,-0.025
1.242,-0.925,-0.025
1.244,-0.920,-0.020
1.246,-0.895,-0.015
1.248,-0.945,-0.010
1.250,-0.910,-0.005
1.252,-0.955,0.000
1.254,-0.925,0.005
1.256,-0.950,0.005
1.258,-0.890,0.010
1.260,-0.905,0.010
1.262,-0.920,0.015
1.264,-0.910,0.020
1.266,-0.870,0.025
1.268,-0.840,0.035
1.270,-0.850,0.040
1.272,-0.845,0.050
1.274,-0.880,0.055
1.276,-0.920,0.060
1.278,-0.900,0.060
1.280,-0.855,0.060
1.282,-0.865,0.060
1.284,-0.880,0.060
1.286,-0.795,0.060
1.288,-0.835,0.065
1.290,-0.845,0.070
1.292,-0.820,0.080
1.294,-0.805,0.090
1.296,-0.830,0.095
1.298,-0.815,0.105
1.300,-0.855,0.115
1.302,-0.855,0.120
1.304,-0.770,0.130
1.306,-0.740,0.140
1.308,-0.750,0.150
1.310,-0.740,0.160
1.312,-0.745,0.170
1.314,-0.725,0.180
1.316,-0.720,0.190
1.318,-0.685,0.200
1.320,-0.720,0.210
1.322,-0.715,0.215
1.324,-0.690,0.220
1.326,-0.665,0.230
1.328,-0.675,0.235
1.330,-0.670,0.240
1.332,-0.650,0.250
1.334,-0.620,0.260
1.336,-0.610,0.270
1.338,-0.635,0.280
1.340,-0.650,0.295
1.342,-0.605,0.305
1.344,-0.590,0.310
1.346,-0.570,0.315
1.348,-0.595,0.315
1.350,-0.610,0.315
1.352,-0.640,0.305
1.354,-0.670,0.295
1.356,-0.640,0.285
1.358,-0.610,0.275
1.360,-0.635,0.260
1.362,-0.685,0.255
1.364,-0.715,0.245
1.366,-0.655,0.240
1.368,-0.675,0.235
1.370,-0.665,0.235
1.372,-0.675,0.225
1.374,-0.720,0.215
1.376,-0.750,0.205
1.378,-0.765,0.185
1.380,-0.805,0.160
1.382,-0.830,0.135
1.384,-0.805,0.110
1.386,-0.815,0.085
1.388,-0.845,0.065
1.390,-0.885,0.050
1.392,-0.895,0.035
1.394,-0.885,0.030
1.396,-0.935,0.025
1.398,-0.890,0.025
1.400,-0.895,0.020
1.402,-0.890,0.015
1.404,-0.915,0.010
1.406,-0.925,0.005
1.408,-0.920,-0.005
1.410,-0.970,-0.015
1.412,-0.910,-0.025
1.414,-0.965,-0.030
1.416,-0.965,-0.040
1.418,-0.930,-0.040
1.420,-0.955,-0.045
1.422,-0.995,-0.045
1.424,-0.965,-0.050
1.426,-0.925,-0.050
1.428,-0.980,-0.055
1.430,-1.005,-0.060
1.432,-0.960,-0.065
1.434,-1.005,-0.070
1.436,-1.010,-0.080
1.438,-0.995,-0.080
1.440,-1.000,-0.085
1.442,-1.005,-0.080
1.444,-0.995,-0.080
1.446,-0.975,-0.070
1.448,-0.960,-0.065
1.450,-0.970,-0.060
1.452,-0.985,-0.060
1.454,-1.035,-0.060
1.456,-0.990,-0.060
1.458,-0.985,-0.065
1.460,-0.965,-0.070
1.462,-0.990,-0.075
1.464,-0.950,-0.070
1.466,-0.935,-0.065
1.468,-0.930,-0.060
1.470,-0.975,-0.050
1.472,-0.950,-0.040
1.474,-0.915,-0.035
1.476,-0.945,-0.035
1.478,-0.995,-0.040
1.480,-0.985,-0.050
1.482,-1.025,-0.065
1.484,-1.025,-0.080
1.486,-0.950,-0.090
1.488,-0.975,-0.095
1.490,-0.975,-0.090
1.492,-0.945,-0.080
1.494,-0.950,-0.070
1.496,-0.960,-0.055
1.498,-0.955,-0.040
1.500,-0.970,-0.035
1.502,-0.955,-0.035
1.504,-0.925,-0.040
1.506,-0.945,-0.050
1.508,-0.990,-0.065
1.510,-0.975,-0.075
1.512,-0.945,-0.080
1.514,-1.015,-0.075
1.516,-1.040,-0.070
1.518,-0.975,-0.060
1.520,-0.925,-0.045
1.522,-0.925,-0.035
1.524,-0.945,-0.030
1.526,-0.925,-0.030
1.528,-0.980,-0.035
1.530,-0.975,-0.040
1.532,-0.935,-0.050
1.534,-0.995,-0.060
1.536,-0.970,-0.065
1.538,-0.990,-0.070
1.540,-0.945,-0.070
1.542,-0.970,-0.070
1.544,-1.000,-0.065
1.546,-0.990,-0.065
1.548,-0.965,-0.060
1.550,-0.970,-0.060
1.552,-0.975,-0.060
1.554,-0.985,-0.060
1.556,-0.980,-0.060
1.558,-0.990,-0.055
1.560,-0.945,-0.050
1.562,-0.940,-0.040
1.564,-0.920,-0.035
1.566,-0.905,-0.030
1.568,-0.935,-0.025
1.570,-0.920,-0.025
1.572,-0.945,-0.030
1.574,-0.940,-0.040
1.576,-0.985,-0.050
1.578,-0.965,-0.060
1.580,-0.965,-0.070
1.582,-1.030,-0.080
1.584,-1.020,-0.090
1.586,-1.080,-0.095
1.588,-0.985,-0.095
1.590,-0.960,-0.090
1.592,-0.920,-0.080
1.594,-0.950,-0.070
1.596,-0.950,-0.060
1.598,-0.945,-0.050
1.600,-0.935,-0.040
1.602,-0.935,-0.035
1.604,-0.935,-0.030
1.606,-0.930,-0.035
1.608,-0.950,-0.040
1.610,-0.960,-0.050
1.612,-0.990,-0.060
1.614,-0.990,-0.075
1.616,-0.970,-0.085
1.618,-1.005,-0.090
1.620,-1.025,-0.095
1.622,-1.010,-0.100
1.624,-0.980,-0.095
1.626,-0.980,-0.095
1.628,-1.005,-0.090
1.630,-1.000,-0.090
1.632,-1.020,-0.085
1.634,-0.995,-0.085
1.636,-0.980,-0.085
1.638,-0.950,-0.080
1.640,-0.970,-0.080
1.642,-0.950,-0.075
1.644,-0.935,-0.070
1.646,-0.985,-0.065
1.648,-0.970,-0.060
1.650,-0.960,-0.055
1.652,-0.970,-0.055
1.654,-1.010,-0.060
1.656,-0.975,-0.065
1.658,-0.965,-0.070
1.660,-0.980,-0.075
1.662,-1.005,-0.080
1.664,-1.015,-0.080
1.666,-1.060,-0.080
1.668,-0.980,-0.075
1.670,-0.920,-0.070
1.672,-0.930,-0.060
1.674,-0.970,-0.055
1.676,-0.935,-0.045
1.678,-0.935,-0.045
1.680,-1.000,-0.040
1.682,-1.015,-0.045
1.684,-0.960,-0.050
1.686,-0.965,-0.055
1.688,-0.940,-0.060
1.690,-0.930,-0.065
1.692,-0.955,-0.070
1.694,-1.000,-0.070
1.696,-0.990,-0.075
1.698,-0.975,-0.075
1.700,-0.965,-0.080
1.702,-0.985,-0.080
1.704,-1.015,-0.080
1.706,-1.015,-0.085
1.708,-0.945,-0.080
1.710,-0.935,-0.080
1.712,-0.925,-0.075
1.714,-0.960,-0.075
1.716,-1.005,-0.070
1.718,-1.000,-0.065
1.720,-1.015,-0.060
1.722,-1.040,-0.060
1.724,-0.930,-0.060
1.726,-0.935,-0.055
1.728,-0.945,-0.060
1.730,-0.960,-0.060
1.732,-0.975,-0.060
1.734,-1.015,-0.060
1.736,-0.975,-0.060
1.738,-0.995,-0.060
1.740,-0.925,-0.060
1.742,-0.935,-0.065
1.744,-0.965,-0.070
1.746,-1.040,-0.080
1.748,-1.010,-0.085
1.750,-1.005,-0.085
1.752,-0.965,-0.085
1.754,-0.945,-0.075
1.756,-0.960,-0.060
1.758,-0.925,-0.040
1.760,-0.950,-0.015
1.762,-0.890,0.010
1.764,-0.840,0.030
1.766,-0.845,0.045
1.768,-0.860,0.050
1.770,-0.870,0.045
1.772,-0.910,0.035
1.774,-0.930,0.015
1.776,-0.950,-0.005
1.778,-0.945,-0.025
1.780,-0.960,-0.045
1.782,-0.930,-0.060
1.784,-0.950,-0.070
1.786,-0.970,-0.075
1.788,-0.975,-0.080
1.790,-0.975,-0.080
1.792,-0.965,-0.080
1.794,-0.940,-0.080
1.796,-1.010,-0.075
1.798,-0.975,-0.075
1.800,-0.995,-0.070
1.802,-0.945,-0.070
1.804,-0.945,-0.070
1.806,-0.975,-0.070
1.808,-0.970,-0.075
1.810,-0.955,-0.075
1.812,-0.975,-0.075
1.814,-0.955,-0.075
1.816,-0.980,-0.075
1.818,-0.975,-0.070
1.820,-0.995,-0.070
1.822,-0.970,-0.070
1.824,-0.975,-0.070
1.826,-0.975,-0.075
1.828,-0.995,-0.080
1.830,-1.030,-0.085
1.832,-1.045,-0.090
1.834,-0.975,-0.090
1.836,-0.985,-0.095
1.838,-0.965,-0.095
1.840,-0.955,-0.090
1.842,-0.930,-0.090
1.844,-0.965,-0.090
1.846,-0.990,-0.095
1.848,-1.010,-0.105
1.850,-1.015,-0.115
1.852,-1.050,-0.135
1.854,-1.070,-0.155
1.856,-1.090,-0.170
1.858,-1.140,-0.180
1.860,-1.145,-0.180
1.862,-1.050,-0.165
1.864,-1.030,-0.135
1.866,-1.010,-0.095
1.868,-0.910,-0.035
1.870,-0.805,0.040
1.872,-0.710,0.125
1.874,-0.630,0.220
1.876,-0.600,0.320
1.878,-0.515,0.415
1.880,-0.375,0.505
1.882,-0.275,0.575
1.884,-0.235,0.615
1.886,-0.210,0.630
1.888,-0.190,0.610
1.890,-0.300,0.555
1.892,-0.410,0.465
1.894,-0.570,0.355
1.896,-0.705,0.225
1.898,-0.860,0.095
1.900,-1.010,-0.025
1.902,-1.155,-0.130
1.904,-1.145,-0.205
1.906,-1.160,-0.250
1.908,-1.150,-0.260
1.910,-1.085,-0.250
1.912,-1.060,-0.220
1.914,-1.075,-0.185
1.916,-1.020,-0.145
1.918,-1.010,-0.110
1.920,-0.970,-0.085
1.922,-0.935,-0.070
1.924,-0.980,-0.065
1.926,-0.965,-0.065
1.928,-0.940,-0.070
1.930,-0.950,-0.075
1.932,-1.015,-0.075
1.934,-0.945,-0.075
1.936,-0.960,-0.070
1.938,-1.020,-0.060
1.940,-0.960,-0.055
1.942,-0.935,-0.050
1.944,-0.935,-0.050
1.946,-0.940,-0.050
1.948,-0.940,-0.050
1.950,-0.950,-0.055
1.952,-0.970,-0.055
1.954,-0.965,-0.060
1.956,-0.930,-0.060
1.958,-0.975,-0.060
1.960,-0.945,-0.060
1.962,-0.895,-0.065
1.964,-0.945,-0.060
1.966,-1.005,-0.060
1.968,-0.995,-0.060
1.970,-0.950,-0.055
1.972,-0.900,-0.050
1.974,-0.930,-0.045
1.976,-0.895,-0.035
1.978,-0.935,-0.025
1.980,-0.935,-0.020
1.982,-0.895,-0.015
1.984,-0.905,-0.015
1.986,-0.925,-0.015
1.988,-0.900,-0.015
1.990,-0.885,-0.020
1.992,-0.925,-0.020
1.994,-0.915,-0.020
1.996,-0.925,-0.020
1.998,-0.935,-0.015
2.000,-0.910,-0.005
2.002,-0.860,0.000
2.004,-0.850,0.005
2.006,-0.860,0.010
2.008,-0.860,0.010
2.010,-0.925,0.005
2.012,-0.910,0.000
2.014,-0.875,0.000
2.016,-0.855,-0.005
2.018,-0.905,0.000
2.020,-0.930,0.005
2.022,-0.900,0.015
2.024,-0.830,0.025
2.026,-0.835,0.040
2.028,-0.830,0.050
2.030,-0.840,0.055
2.032,-0.870,0.060
2.034,-0.820,0.055
2.036,-0.870,0.050
2.038,-0.860,0.045
2.040,-0.805,0.040
2.042,-0.835,0.035
2.044,-0.850,0.040
2.046,-0.860,0.045
2.048,-0.870,0.060
2.050,-0.860,0.075
2.052,-0.770,0.090
2.054,-0.735,0.110
2.056,-0.750,0.125
2.058,-0.760,0.140
2.060,-0.730,0.150
2.062,-0.715,0.160
2.064,-0.745,0.165
2.066,-0.720,0.170
2.068,-0.700,0.175
2.070,-0.710,0.180
2.072,-0.725,0.185
2.074,-0.735,0.190
2.076,-0.700,0.195
2.078,-0.685,0.200
2.080,-0.645,0.210
2.082,-0.615,0.215
2.084,-0.645,0.230
2.086,-0.655,0.240
2.088,-0.625,0.255
2.090,-0.655,0.265
2.092,-0.595,0.280
2.094,-0.585,0.290
2.096,-0.615,0.305
2.098,-0.615,0.310
2.100,-0.575,0.315
2.102,-0.560,0.320
2.104,-0.560,0.315
2.106,-0.590,0.315
2.108,-0.580,0.310
2.110,-0.555,0.300
2.112,-0.595,0.290
2.114,-0.640,0.280
2.116,-0.670,0.270
2.118,-0.650,0.255
2.120,-0.630,0.245
2.122,-0.590,0.235
2.124,-0.645,0.225
2.126,-0.675,0.215
2.128,-0.660,0.205
2.130,-0.740,0.195
2.132,-0.735,0.180
2.134,-0.750,0.170
2.136,-0.735,0.160
2.138,-0.730,0.145
2.140,-0.745,0.130
2.142,-0.785,0.115
2.144,-0.820,0.100
2.146,-0.835,0.080
2.148,-0.835,0.065
2.150,-0.845,0.045
2.152,-0.840,0.030
2.154,-0.890,0.015
2.156,-0.955,0.000
2.158,-0.910,-0.010
2.160,-0.900,-0.020
2.162,-0.890,-0.030
2.164,-0.900,-0.035
2.166,-0.935,-0.035
2.168,-0.925,-0.040
2.170,-0.920,-0.035
2.172,-0.900,-0.035
2.174,-0.920,-0.035
2.176,-0.920,-0.030
2.178,-0.930,-0.030
2.180,-0.920,-0.035
2.182,-0.920,-0.035
2.184,-0.930,-0.040
2.186,-0.930,-0.040
2.188,-0.940,-0.045
2.190,-0.955,-0.045
2.192,-0.975,-0.045
2.194,-0.945,-0.050
2.196,-0.940,-0.050
2.198,-0.935,-0.055
2.200,-0.900,-0.060
2.202,-0.950,-0.065
2.204,-0.975,-0.070
2.206,-0.975,-0.075
2.208,-0.970,-0.080
2.210,-0.950,-0.080
2.212,-0.940,-0.075
2.214,-0.930,-0.070
2.216,-0.960,-0.060
2.218,-0.930,-0.050
2.220,-0.895,-0.045
2.222,-0.950,-0.040
2.224,-0.925,-0.040
2.226,-0.905,-0.040
2.228,-0.900,-0.045
2.230,-0.950,-0.050
2.232,-0.985,-0.055
2.234,-0.960,-0.060
2.236,-0.945,-0.065
2.238,-0.925,-0.065
2.240,-0.915,-0.060
2.242,-0.910,-0.060
2.244,-0.925,-0.055
2.246,-0.960,-0.055
2.248,-0.965,-0.055
2.250,-0.965,-0.055
2.252,-0.890,-0.060
2.254,-0.950,-0.060
2.256,-0.965,-0.065
2.258,-0.955,-0.065
2.260,-0.900,-0.060
2.262,-0.925,-0.055
2.264,-0.920,-0.050
2.266,-0.905,-0.045
2.268,-0.930,-0.035
2.270,-0.940,-0.030
2.272,-0.930,-0.025
2.274,-0.925,-0.025
2.276,-0.945,-0.025
2.278,-0.905,-0.030
2.280,-0.900,-0.035
2.282,-0.910,-0.035
2.284,-0.890,-0.040
2.286,-0.885,-0.040
2.288,-0.920,-0.040
2.290,-0.960,-0.040
2.292,-0.920,-0.035
2.294,-0.920,-0.035
2.296,-0.910,-0.035
2.298,-0.905,-0.035
2.300,-0.910,-0.035
2.302,-0.900,-0.035
2.304,-0.890,-0.040
2.306,-0.885,-0.040
2.308,-0.920,-0.040
2.310,-0.925,-0.040
2.312,-0.915,-0.045
2.314,-0.940,-0.045
2.316,-0.970,-0.045
2.318,-0.910,-0.045
2.320,-0.945,-0.050
2.322,-0.955,-0.050
2.324,-0.915,-0.055
2.326,-0.885,-0.055
2.328,-0.925,-0.055
2.330,-0.945,-0.050
2.332,-0.925,-0.045
2.334,-0.895,-0.045
2.336,-0.940,-0.045
2.338,-0.960,-0.045
2.340,-0.920,-0.050
2.342,-0.940,-0.060
2.344,-0.925,-0.065
2.346,-0.940,-0.075
2.348,-0.985,-0.075
2.350,-0.965,-0.075
2.352,-0.910,-0.070
2.354,-0.925,-0.065
2.356,-1.000,-0.050
2.358,-0.885,-0.040
2.360,-0.880,-0.030
2.362,-0.870,-0.020
2.364,-0.945,-0.020
2.366,-0.880,-0.025
2.368,-0.920,-0.030
2.370,-0.945,-0.040
2.372,-0.950,-0.055
2.374,-0.940,-0.060
2.376,-0.920,-0.065
2.378,-0.905,-0.070
2.380,-0.925,-0.065
2.382,-0.930,-0.060
2.384,-0.915,-0.050
2.386,-0.900,-0.045
2.388,-0.955,-0.040
2.390,-0.960,-0.035
2.392,-0.915,-0.035
2.394,-0.915,-0.035
2.396,-0.925,-0.040
2.398,-0.845,-0.045
2.400,-0.900,-0.045
2.402,-0.970,-0.050
2.404,-0.915,-0.050
2.406,-0.930,-0.045
2.408,-0.955,-0.045
2.410,-0.910,-0.040
2.412,-0.910,-0.040
2.414,-0.930,-0.045
2.416,-0.955,-0.050
2.418,-0.915,-0.060
2.420,-0.910,-0.075
2.422,-0.995,-0.085
2.424,-0.980,-0.095
2.426,-0.940,-0.100
2.428,-0.965,-0.095
2.430,-0.935,-0.085
2.432,-0.925,-0.075
2.434,-0.940,-0.060
2.436,-0.930,-0.045
2.438,-0.880,-0.035
2.440,-0.895,-0.035
2.442,-0.915,-0.035
2.444,-0.935,-0.045
2.446,-0.915,-0.060
2.448,-1.000,-0.075
2.450,-0.950,-0.085
2.452,-0.910,-0.090
2.454,-0.935,-0.090
2.456,-0.945,-0.085
2.458,-0.915,-0.075
2.460,-0.900,-0.065
2.462,-0.910,-0.060
2.464,-0.920,-0.055
2.466,-0.910,-0.055
2.468,-0.965,-0.060
2.470,-0.950,-0.065
2.472,-0.925,-0.070
2.474,-0.950,-0.075
2.476,-0.925,-0.080
2.478,-0.895,-0.080
2.480,-0.915,-0.075
2.482,-0.930,-0.070
2.484,-0.925,-0.065
2.486,-0.900,-0.060
2.488,-0.965,-0.050
2.490,-0.915,-0.050
2.492,-0.855,-0.045
2.494,-0.915,-0.045
2.496,-0.970,-0.050
2.498,-0.915,-0.050
2.500,-0.930,-0.050
2.502,-0.855,-0.045
2.504,-0.900,-0.040
2.506,-0.900,-0.035
2.508,-0.885,-0.025
2.510,-0.850,-0.010
2.512,-0.825,0.000
2.514,-0.835,0.015
2.516,-0.880,0.020
2.518,-0.820,0.020
2.520,-0.830,0.015
2.522,-0.870,0.005
2.524,-0.860,-0.010
2.526,-0.910,-0.030
2.528,-0.935,-0.050
2.530,-0.925,-0.065
2.532,-0.885,-0.075
2.534,-0.940,-0.080
2.536,-0.955,-0.080
2.538,-0.915,-0.070
2.540,-0.880,-0.060
2.542,-0.880,-0.050
2.544,-0.900,-0.045
2.546,-0.930,-0.045
2.548,-0.930,-0.045
2.550,-0.920,-0.050
2.552,-0.920,-0.055
2.554,-0.925,-0.065
2.556,-0.910,-0.065
2.558,-0.895,-0.070
2.560,-0.910,-0.070
2.562,-0.935,-0.065
2.564,-0.935,-0.065
2.566,-0.910,-0.060
2.568,-0.935,-0.065
2.570,-0.945,-0.065
2.572,-0.955,-0.070
2.574,-0.935,-0.075
2.576,-0.950,-0.080
2.578,-0.930,-0.080
2.580,-0.920,-0.075
2.582,-0.870,-0.070
2.584,-0.905,-0.065
2.586,-0.910,-0.055
2.588,-0.930,-0.050
2.590,-0.955,-0.055
2.592,-0.950,-0.065
2.594,-0.950,-0.080
2.596,-0.945,-0.105
2.598,-0.915,-0.130
2.600,-1.030,-0.160
2.602,-1.080,-0.180
2.604,-1.040,-0.200
2.606,-1.055,-0.205
2.608,-1.110,-0.200
2.610,-1.055,-0.180
2.612,-1.020,-0.150
2.614,-0.970,-0.105
2.616,-0.875,-0.050
2.618,-0.795,0.020
2.620,-0.655,0.100
2.622,-0.635,0.185
2.624,-0.575,0.275
2.626,-0.490,0.365
2.628,-0.400,0.455
2.630,-0.315,0.530
2.632,-0.230,0.585
2.634,-0.215,0.620
2.636,-0.165,0.620
2.638,-0.145,0.590
2.640,-0.220,0.520
2.642,-0.410,0.425
2.644,-0.590,0.305
2.646,-0.750,0.180
2.648,-0.905,0.055
2.650,-0.995,-0.055
2.652,-1.070,-0.145
2.654,-1.095,-0.205
2.656,-1.080,-0.230
2.658,-1.030,-0.235
2.660,-0.990,-0.215
2.662,-0.965,-0.185
2.664,-0.960,-0.150
2.666,-0.935,-0.120
2.668,-0.975,-0.095
2.670,-0.970,-0.080
2.672,-0.940,-0.070
2.674,-0.900,-0.070
2.676,-0.885,-0.070
2.678,-0.905,-0.065
2.680,-0.895,-0.060
2.682,-0.840,-0.050
2.684,-0.870,-0.040
2.686,-0.925,-0.030
2.688,-0.955,-0.025
2.690,-0.895,-0.025
2.692,-0.840,-0.030
2.694,-0.850,-0.040
2.696,-0.890,-0.050
2.698,-0.925,-0.065
2.700,-0.920,-0.075
2.702,-0.895,-0.080
2.704,-0.910,-0.080
2.706,-0.940,-0.075
2.708,-0.935,-0.065
2.710,-0.900,-0.055
2.712,-0.920,-0.045
2.714,-0.880,-0.040
2.716,-0.815,-0.040
2.718,-0.850,-0.040
2.720,-0.845,-0.045
2.722,-0.915,-0.045
2.724,-0.875,-0.045
2.726,-0.885,-0.040
2.728,-0.915,-0.035
2.730,-0.890,-0.030
2.732,-0.875,-0.025
2.734,-0.875,-0.020
2.736,-0.835,-0.015
2.738,-0.860,-0.015
2.740,-0.820,-0.015
2.742,-0.830,-0.015
2.744,-0.840,-0.015
2.746,-0.880,-0.015
2.748,-0.860,-0.010
2.750,-0.850,-0.005
2.752,-0.845,-0.005
2.754,-0.865,0.000
2.756,-0.825,0.005
2.758,-0.810,0.010
2.760,-0.850,0.010
2.762,-0.850,0.010
2.764,-0.760,0.010
2.766,-0.820,0.015
2.768,-0.835,0.020
2.770,-0.835,0.025
2.772,-0.835,0.030
2.774,-0.795,0.040
2.776,-0.760,0.050
2.778,-0.760,0.055
2.780,-0.775,0.065
2.782,-0.790,0.065
2.784,-0.765,0.070
2.786,-0.780,0.070
2.788,-0.780,0.065
2.790,-0.790,0.065
2.792,-0.765,0.065
2.794,-0.735,0.065
2.796,-0.720,0.075
2.798,-0.725,0.085
2.800,-0.705,0.095
2.802,-0.720,0.115
2.804,-0.700,0.130
2.806,-0.725,0.145
2.808,-0.680,0.160
2.810,-0.675,0.170
2.812,-0.670,0.175
2.814,-0.680,0.175
2.816,-0.660,0.175
2.818,-0.645,0.175
2.820,-0.655,0.175
2.822,-0.630,0.175
2.824,-0.670,0.180
2.826,-0.640,0.190
2.828,-0.605,0.200
2.830,-0.615,0.215
2.832,-0.600,0.225
2.834,-0.580,0.240
2.836,-0.560,0.250
2.838,-0.555,0.260
2.840,-0.550,0.265
2.842,-0.560,0.270
2.844,-0.570,0.270
2.846,-0.580,0.275
2.848,-0.555,0.275
2.850,-0.515,0.275
2.852,-0.555,0.280
2.854,-0.545,0.280
2.856,-0.520,0.285
2.858,-0.505,0.285
2.860,-0.520,0.290
2.862,-0.520,0.290
2.864,-0.545,0.285
2.866,-0.545,0.280
2.868,-0.545,0.275
2.870,-0.625,0.265
2.872,-0.615,0.255
2.874,-0.555,0.245
2.876,-0.545,0.230
2.878,-0.615,0.215
2.880,-0.640,0.200
2.882,-0.670,0.185
2.884,-0.640,0.170
2.886,-0.720,0.155
2.888,-0.725,0.140
2.890,-0.725,0.125
2.892,-0.745,0.110
2.894,-0.740,0.095
2.896,-0.710,0.080
2.898,-0.705,0.065
2.900,-0.780,0.050
2.902,-0.835,0.030
2.904,-0.810,0.015
2.906,-0.850,0.005
2.908,-0.845,-0.005
2.910,-0.830,-0.010
2.912,-0.850,-0.015
2.914,-0.850,-0.015
2.916,-0.830,-0.015
2.918,-0.835,-0.015
2.920,-0.845,-0.020
2.922,-0.855,-0.020
2.924,-0.905,-0.030
2.926,-0.865,-0.040
2.928,-0.850,-0.050
2.930,-0.875,-0.060
2.932,-0.940,-0.065
2.934,-0.890,-0.075
2.936,-0.860,-0.075
2.938,-0.870,-0.070
2.940,-0.850,-0.065
2.942,-0.855,-0.060
2.944,-0.855,-0.050
2.946,-0.870,-0.045
2.948,-0.860,-0.045
2.950,-0.885,-0.045
2.952,-0.885,-0.050
2.954,-0.880,-0.055
2.956,-0.855,-0.060
2.958,-0.870,-0.070
2.960,-0.915,-0.075
2.962,-0.885,-0.080
2.964,-0.900,-0.080
2.966,-0.905,-0.085
2.968,-0.915,-0.085
2.970,-0.875,-0.080
2.972,-0.920,-0.080
2.974,-0.860,-0.080
2.976,-0.845,-0.075
2.978,-0.905,-0.070
2.980,-0.915,-0.065
2.982,-0.890,-0.060
2.984,-0.845,-0.055
2.986,-0.815,-0.045
2.988,-0.810,-0.040
2.990,-0.875,-0.035
2.992,-0.880,-0.030
2.994,-0.815,-0.030
2.996,-0.820,-0.030
2.998,-0.865,-0.030
3.000,-0.860,-0.035
3.002,-0.860,-0.040
3.004,-0.875,-0.050
3.006,-0.860,-0.055
3.008,-0.880,-0.060
3.010,-0.870,-0.065
3.012,-0.850,-0.065
3.014,-0.855,-0.065
3.016,-0.840,-0.060
3.018,-0.900,-0.050
3.020,-0.860,-0.045
3.022,-0.830,-0.035
3.024,-0.835,-0.030
3.026,-0.840,-0.030
3.028,-0.865,-0.030
3.030,-0.895,-0.035
3.032,-0.875,-0.040
3.034,-0.830,-0.050
3.036,-0.805,-0.055
3.038,-0.850,-0.060
3.040,-0.900,-0.065
3.042,-0.875,-0.065
3.044,-0.875,-0.060
3.046,-0.855,-0.055
3.048,-0.835,-0.055
3.050,-0.835,-0.050
3.052,-0.880,-0.050
3.054,-0.840,-0.050
3.056,-0.870,-0.055
3.058,-0.850,-0.055
3.060,-0.850,-0.060
3.062,-0.875,-0.060
3.064,-0.865,-0.060
3.066,-0.865,-0.060
3.068,-0.860,-0.060
3.070,-0.865,-0.060
3.072,-0.840,-0.055
3.074,-0.850,-0.055
3.076,-0.890,-0.055
3.078,-0.855,-0.055
3.080,-0.885,-0.055
3.082,-0.850,-0.055
3.084,-0.875,-0.060
3.086,-0.835,-0.065
3.088,-0.855,-0.070
3.090,-0.885,-0.075
3.092,-0.875,-0.080
3.094,-0.860,-0.080
3.096,-0.845,-0.080
3.098,-0.935,-0.080
3.100,-0.885,-0.075
3.102,-0.830,-0.070
3.104,-0.850,-0.065
3.106,-0.840,-0.055
3.108,-0.805,-0.050
3.110,-0.865,-0.050
3.112,-0.875,-0.045
3.114,-0.870,-0.050
3.116,-0.840,-0.050
3.118,-0.815,-0.055
3.120,-0.850,-0.060
3.122,-0.850,-0.065
3.124,-0.870,-0.065
3.126,-0.925,-0.070
3.128,-0.880,-0.075
3.130,-0.910,-0.080
3.132,-0.880,-0.085
3.134,-0.840,-0.085
3.136,-0.870,-0.085
3.138,-0.885,-0.085
3.140,-0.860,-0.085
3.142,-0.850,-0.075
3.144,-0.825,-0.070
3.146,-0.835,-0.065
3.148,-0.865,-0.060
3.150,-0.900,-0.055
3.152,-0.890,-0.055
3.154,-0.855,-0.060
3.156,-0.855,-0.065
3.158,-0.815,-0.070
3.160,-0.810,-0.070
3.162,-0.875,-0.075
3.164,-0.915,-0.070
3.166,-0.875,-0.065
3.168,-0.865,-0.060
3.170,-0.875,-0.055
3.172,-0.860,-0.050
3.174,-0.835,-0.050
3.176,-0.815,-0.050
3.178,-0.820,-0.055
3.180,-0.825,-0.060
3.182,-0.875,-0.070
3.184,-0.880,-0.075
3.186,-0.875,-0.080
3.188,-0.865,-0.085
3.190,-0.875,-0.090
3.192,-0.875,-0.090
3.194,-0.835,-0.090
3.196,-0.875,-0.095
3.198,-0.880,-0.095
3.200,-0.885,-0.090
3.202,-0.855,-0.090
3.204,-0.870,-0.090
3.206,-0.875,-0.085
3.208,-0.860,-0.080
3.210,-0.860,-0.075
3.212,-0.860,-0.070
3.214,-0.825,-0.065
3.216,-0.845,-0.065
3.218,-0.865,-0.065
3.220,-0.855,-0.070
3.222,-0.875,-0.075
3.224,-0.870,-0.080
3.226,-0.860,-0.080
3.228,-0.865,-0.085
3.230,-0.845,-0.085
3.232,-0.825,-0.085
3.234,-0.855,-0.080
3.236,-0.885,-0.080
3.238,-0.890,-0.080
3.240,-0.860,-0.080
3.242,-0.885,-0.080
3.244,-0.870,-0.085
3.246,-0.860,-0.090
3.248,-0.840,-0.090
3.250,-0.880,-0.095
3.252,-0.875,-0.090
3.254,-0.850,-0.085
3.256,-0.835,-0.075
3.258,-0.790,-0.065
3.260,-0.840,-0.050
3.262,-0.880,-0.035
3.264,-0.825,-0.020
3.266,-0.780,-0.005
3.268,-0.770,0.010
3.270,-0.760,0.020
3.272,-0.730,0.025
3.274,-0.740,0.030
3.276,-0.755,0.030
3.278,-0.770,0.030
3.280,-0.765,0.025
3.282,-0.780,0.015
3.284,-0.795,0.005
3.286,-0.800,-0.005
3.288,-0.830,-0.015
3.290,-0.830,-0.025
3.292,-0.820,-0.035
3.294,-0.835,-0.045
3.296,-0.845,-0.050
3.298,-0.855,-0.050
3.300,-0.835,-0.055
3.302,-0.835,-0.055
3.304,-0.835,-0.060
3.306,-0.840,-0.060
3.308,-0.870,-0.065
3.310,-0.865,-0.070
3.312,-0.840,-0.070
3.314,-0.790,-0.075
3.316,-0.860,-0.080
3.318,-0.870,-0.080
3.320,-0.825,-0.085
3.322,-0.880,-0.085
3.324,-0.865,-0.085
3.326,-0.860,-0.085
3.328,-0.880,-0.085
3.330,-0.860,-0.085
3.332,-0.850,-0.085
3.334,-0.830,-0.080
3.336,-0.830,-0.080
3.338,-0.860,-0.075
3.340,-0.865,-0.075
3.342,-0.875,-0.075
3.344,-0.885,-0.075
3.346,-0.860,-0.080
3.348,-0.840,-0.085
3.350,-0.880,-0.090
3.352,-0.820,-0.095
3.354,-0.880,-0.105
3.356,-0.880,-0.115
3.358,-0.895,-0.125
3.360,-0.885,-0.135
3.362,-0.925,-0.150
3.364,-0.965,-0.160
3.366,-0.985,-0.170
3.368,-1.000,-0.170
3.370,-1.020,-0.165
3.372,-0.915,-0.140
3.374,-0.840,-0.105
3.376,-0.755,-0.050
3.378,-0.715,0.020
3.380,-0.590,0.100
3.382,-0.575,0.195
3.384,-0.460,0.290
3.386,-0.335,0.385
3.388,-0.325,0.475
3.390,-0.260,0.545
3.392,-0.155,0.595
3.394,-0.095,0.615
3.396,-0.060,0.610
3.398,-0.095,0.570
3.400,-0.215,0.495
3.402,-0.390,0.400
3.404,-0.520,0.285
3.406,-0.665,0.160
3.408,-0.835,0.040
3.410,-0.960,-0.070
3.412,-1.000,-0.160
3.414,-0.990,-0.220
3.416,-0.990,-0.250
3.418,-0.950,-0.250
3.420,-0.945,-0.230
3.422,-0.910,-0.195
3.424,-0.890,-0.155
3.426,-0.885,-0.120
3.428,-0.905,-0.090
3.430,-0.860,-0.075
3.432,-0.840,-0.065
3.434,-0.845,-0.065
3.436,-0.790,-0.065
3.438,-0.830,-0.070
3.440,-0.840,-0.065
3.442,-0.810,-0.060
3.444,-0.780,-0.050
3.446,-0.790,-0.040
3.448,-0.820,-0.030
3.450,-0.810,-0.025
3.452,-0.815,-0.025
3.454,-0.815,-0.025
3.456,-0.815,-0.030
3.458,-0.810,-0.040
3.460,-0.775,-0.045
3.462,-0.800,-0.050
3.464,-0.810,-0.050
3.466,-0.835,-0.050
3.468,-0.860,-0.045
3.470,-0.815,-0.040
3.472,-0.790,-0.035
3.474,-0.765,-0.030
3.476,-0.755,-0.025
3.478,-0.770,-0.020
3.480,-0.810,-0.015
3.482,-0.835,-0.015
3.484,-0.785,-0.015
3.486,-0.810,-0.015
3.488,-0.800,-0.015
3.490,-0.750,-0.020
3.492,-0.675,-0.025
3.494,-0.780,-0.025
3.496,-0.765,-0.030
3.498,-0.775,-0.030
3.500,-0.775,-0.030
3.502,-0.780,-0.025
3.504,-0.755,-0.015
3.506,-0.765,-0.010
3.508,-0.755,-0.005
3.510,-0.750,0.005
3.512,-0.720,0.010
3.514,-0.750,0.010
3.516,-0.745,0.015
3.518,-0.720,0.020
3.520,-0.730,0.020
3.522,-0.755,0.025
3.524,-0.730,0.025
3.526,-0.750,0.030
3.528,-0.740,0.030
3.530,-0.725,0.030
3.532,-0.690,0.030
3.534,-0.700,0.025
3.536,-0.750,0.025
3.538,-0.745,0.030
3.540,-0.705,0.035
3.542,-0.710,0.045
3.544,-0.680,0.060
3.546,-0.715,0.075
3.548,-0.650,0.090
3.550,-0.615,0.100
3.552,-0.620,0.110
3.554,-0.665,0.110
3.556,-0.640,0.110
3.558,-0.630,0.110
3.560,-0.655,0.110
3.562,-0.640,0.110
3.564,-0.600,0.120
3.566,-0.595,0.130
3.568,-0.605,0.145
3.570,-0.570,0.160
3.572,-0.565,0.180
3.574,-0.585,0.195
3.576,-0.530,0.205
3.578,-0.540,0.215
3.580,-0.565,0.215
3.582,-0.540,0.220
3.584,-0.510,0.215
3.586,-0.515,0.220
3.588,-0.545,0.225
3.590,-0.505,0.230
3.592,-0.490,0.240
3.594,-0.500,0.255
3.596,-0.460,0.270
3.598,-0.445,0.280
3.600,-0.475,0.290
3.602,-0.455,0.295
3.604,-0.430,0.295
3.606,-0.485,0.295
3.608,-0.415,0.290
3.610,-0.405,0.290
3.612,-0.465,0.290
3.614,-0.460,0.290
3.616,-0.460,0.295
3.618,-0.470,0.300
3.620,-0.430,0.305
3.622,-0.440,0.305
3.624,-0.450,0.305
3.626,-0.495,0.295
3.628,-0.465,0.285
3.630,-0.440,0.270
3.632,-0.475,0.250
3.634,-0.525,0.235
3.636,-0.530,0.215
3.638,-0.500,0.200
3.640,-0.560,0.185
3.642,-0.570,0.175
3.644,-0.560,0.165
3.646,-0.615,0.155
3.648,-0.620,0.145
3.650,-0.610,0.135
3.652,-0.625,0.125
3.654,-0.645,0.110
3.656,-0.665,0.095
3.658,-0.680,0.080
3.660,-0.705,0.070
3.662,-0.705,0.055
3.664,-0.690,0.045
3.666,-0.735,0.035
3.668,-0.730,0.025
3.670,-0.700,0.020
3.672,-0.695,0.010
3.674,-0.740,0.005
3.676,-0.745,0.000
3.678,-0.745,-0.005
3.680,-0.750,-0.010
3.682,-0.770,-0.015
3.684,-0.795,-0.020
3.686,-0.835,-0.030
3.688,-0.810,-0.035
3.690,-0.715,-0.040
3.692,-0.730,-0.050
3.694,-0.805,-0.050
3.696,-0.790,-0.055
3.698,-0.755,-0.055
3.700,-0.765,-0.055
3.702,-0.805,-0.050
3.704,-0.825,-0.045
3.706,-0.860,-0.040
3.708,-0.795,-0.035
3.710,-0.740,-0.035
3.712,-0.750,-0.035
3.714,-0.740,-0.040
3.716,-0.765,-0.045
3.718,-0.815,-0.045
3.720,-0.820,-0.050
3.722,-0.785,-0.050
3.724,-0.775,-0.050
3.726,-0.780,-0.045
3.728,-0.790,-0.040
3.730,-0.765,-0.040
3.732,-0.770,-0.035
3.734,-0.720,-0.035
3.736,-0.795,-0.040
3.738,-0.845,-0.040
3.740,-0.780,-0.045
3.742,-0.790,-0.050
3.744,-0.765,-0.050
3.746,-0.790,-0.050
3.748,-0.775,-0.050
3.750,-0.735,-0.045
3.752,-0.770,-0.045
3.754,-0.770,-0.045
3.756,-0.785,-0.045
3.758,-0.790,-0.045
3.760,-0.740,-0.045
3.762,-0.800,-0.045
3.764,-0.785,-0.040
3.766,-0.795,-0.040
3.768,-0.795,-0.035
3.770,-0.725,-0.030
3.772,-0.755,-0.030
3.774,-0.765,-0.025
3.776,-0.730,-0.025
3.778,-0.795,-0.025
3.780,-0.800,-0.025
3.782,-0.805,-0.030
3.784,-0.750,-0.035
3.786,-0.760,-0.035
3.788,-0.750,-0.040
3.790,-0.700,-0.040
3.792,-0.785,-0.040
3.794,-0.775,-0.040
3.796,-0.710,-0.040
3.798,-0.800,-0.040
3.800,-0.795,-0.040
3.802,-0.765,-0.040
3.804,-0.780,-0.040
3.806,-0.750,-0.040
3.808,-0.775,-0.040
3.810,-0.785,-0.045
3.812,-0.770,-0.045
3.814,-0.765,-0.050
3.816,-0.770,-0.055
3.818,-0.800,-0.060
3.820,-0.800,-0.065
3.822,-0.780,-0.065
3.824,-0.755,-0.065
3.826,-0.790,-0.065
3.828,-0.780,-0.060
3.830,-0.765,-0.055
3.832,-0.755,-0.050
3.834,-0.795,-0.050
3.836,-0.755,-0.050
3.838,-0.775,-0.050
3.840,-0.805,-0.055
3.842,-0.805,-0.060
3.844,-0.770,-0.065
3.846,-0.840,-0.070
3.848,-0.785,-0.070
3.850,-0.735,-0.070
3.852,-0.745,-0.060
3.854,-0.785,-0.055
3.856,-0.785,-0.045
3.858,-0.760,-0.035
3.860,-0.750,-0.030
3.862,-0.770,-0.030
3.864,-0.785,-0.035
3.866,-0.790,-0.040
3.868,-0.760,-0.050
3.870,-0.740,-0.055
3.872,-0.750,-0.060
3.874,-0.760,-0.060
3.876,-0.845,-0.060
3.878,-0.840,-0.055
3.880,-0.770,-0.055
3.882,-0.730,-0.050
3.884,-0.735,-0.050
3.886,-0.770,-0.050
3.888,-0.765,-0.050
3.890,-0.765,-0.055
3.892,-0.800,-0.055
3.894,-0.755,-0.055
3.896,-0.785,-0.050
3.898,-0.800,-0.050
3.900,-0.775,-0.050
3.902,-0.750,-0.050
3.904,-0.750,-0.050
3.906,-0.790,-0.050
3.908,-0.805,-0.055
3.910,-0.775,-0.060
3.912,-0.755,-0.065
3.914,-0.745,-0.065
3.916,-0.755,-0.065
3.918,-0.810,-0.065
3.920,-0.805,-0.060
3.922,-0.760,-0.055
3.924,-0.810,-0.055
3.926,-0.815,-0.055
3.928,-0.730,-0.055
3.930,-0.730,-0.055
3.932,-0.780,-0.060
3.934,-0.830,-0.060
3.936,-0.790,-0.065
3.938,-0.805,-0.065
3.940,-0.780,-0.065
3.942,-0.770,-0.060
3.944,-0.785,-0.060
3.946,-0.760,-0.055
3.948,-0.760,-0.055
3.950,-0.745,-0.055
3.952,-0.785,-0.055
3.954,-0.770,-0.060
3.956,-0.775,-0.065
3.958,-0.775,-0.070
3.960,-0.850,-0.080
3.962,-0.800,-0.085
3.964,-0.740,-0.090
3.966,-0.815,-0.095
3.968,-0.800,-0.095
3.970,-0.780,-0.090
3.972,-0.770,-0.085
3.974,-0.765,-0.080
3.976,-0.805,-0.075
3.978,-0.770,-0.065
3.980,-0.775,-0.065
3.982,-0.770,-0.060
3.984,-0.785,-0.065
3.986,-0.750,-0.065
3.988,-0.735,-0.070
3.990,-0.790,-0.075
3.992,-0.795,-0.080
3.994,-0.790,-0.085
3.996,-0.780,-0.085
3.998,-0.800,-0.080
4.000,-0.755,-0.075
4.002,-0.770,-0.070
4.004,-0.820,-0.065
4.006,-0.810,-0.060
4.008,-0.775,-0.060
4.010,-0.760,-0.060
4.012,-0.750,-0.065
4.014,-0.740,-0.070
4.016,-0.740,-0.075
4.018,-0.800,-0.080
4.020,-0.790,-0.080
4.022,-0.790,-0.085
4.024,-0.790,-0.080
4.026,-0.750,-0.075
4.028,-0.785,-0.070
4.030,-0.755,-0.060
4.032,-0.765,-0.045
4.034,-0.740,-0.035
4.036,-0.780,-0.020
4.038,-0.695,-0.010
4.040,-0.645,0.000
4.042,-0.690,0.000
4.044,-0.715,0.000
4.046,-0.720,-0.005
4.048,-0.735,-0.020
4.050,-0.805,-0.035
4.052,-0.765,-0.055
4.054,-0.755,-0.070
4.056,-0.720,-0.085
4.058,-0.780,-0.090
4.060,-0.775,-0.090
4.062,-0.775,-0.080
4.064,-0.805,-0.070
4.066,-0.755,-0.055
4.068,-0.775,-0.045
4.070,-0.795,-0.035
4.072,-0.745,-0.035
4.074,-0.725,-0.045
4.076,-0.755,-0.060
4.078,-0.790,-0.075
4.080,-0.820,-0.095
4.082,-0.810,-0.105
4.084,-0.800,-0.110
4.086,-0.785,-0.110
4.088,-0.780,-0.100
4.090,-0.780,-0.085
4.092,-0.685,-0.065
4.094,-0.730,-0.050
4.096,-0.740,-0.040
4.098,-0.805,-0.040
4.100,-0.795,-0.045
4.102,-0.780,-0.055
4.104,-0.740,-0.065
4.106,-0.755,-0.080
4.108,-0.770,-0.085
4.110,-0.800,-0.090
4.112,-0.800,-0.090
4.114,-0.765,-0.085
4.116,-0.750,-0.080
4.118,-0.785,-0.080
4.120,-0.800,-0.085
4.122,-0.795,-0.095
4.124,-0.815,-0.110
4.126,-0.865,-0.130
4.128,-0.840,-0.150
4.130,-0.875,-0.165
4.132,-0.880,-0.170
4.134,-0.880,-0.160
4.136,-0.870,-0.140
4.138,-0.805,-0.100
4.140,-0.735,-0.050
4.142,-0.635,0.010
4.144,-0.585,0.080
4.146,-0.520,0.155
4.148,-0.420,0.235
4.150,-0.360,0.310
4.152,-0.290,0.390
4.154,-0.200,0.460
4.156,-0.180,0.515
4.158,-0.135,0.555
4.160,-0.090,0.570
4.162,-0.100,0.555
4.164,-0.175,0.505
4.166,-0.215,0.430
4.168,-0.340,0.325
4.170,-0.545,0.205
4.172,-0.665,0.085
4.174,-0.795,-0.030
4.176,-0.935,-0.125
4.178,-0.935,-0.190
4.180,-0.925,-0.230
4.182,-0.890,-0.235
4.184,-0.915,-0.220
4.186,-0.835,-0.195
4.188,-0.830,-0.160
4.190,-0.790,-0.130
4.192,-0.785,-0.105
4.194,-0.760,-0.090
4.196,-0.790,-0.080
4.198,-0.780,-0.080
4.200,-0.770,-0.080
4.202,-0.770,-0.080
4.204,-0.790,-0.075
4.206,-0.725,-0.065
4.208,-0.735,-0.055
4.210,-0.770,-0.045
4.212,-0.775,-0.040
4.214,-0.700,-0.035
4.216,-0.755,-0.040
4.218,-0.760,-0.045
4.220,-0.760,-0.050
4.222,-0.720,-0.055
4.224,-0.740,-0.060
4.226,-0.735,-0.065
4.228,-0.725,-0.060
4.230,-0.705,-0.060
4.232,-0.770,-0.060
4.234,-0.750,-0.060
4.236,-0.755,-0.060
4.238,-0.745,-0.060
4.240,-0.755,-0.060
4.242,-0.775,-0.055
4.244,-0.760,-0.055
4.246,-0.715,-0.050
4.248,-0.760,-0.040
4.250,-0.660,-0.035
4.252,-0.655,-0.025
4.254,-0.740,-0.020
4.256,-0.715,-0.015
4.258,-0.690,-0.010
4.260,-0.700,-0.010
4.262,-0.730,-0.005
4.264,-0.700,-0.005
4.266,-0.675,-0.005
4.268,-0.685,0.000
4.270,-0.685,0.005
4.272,-0.620,0.005
4.274,-0.640,0.010
4.276,-0.720,0.010
4.278,-0.720,0.005
4.280,-0.720,0.005
4.282,-0.685,0.000
4.284,-0.695,-0.005
4.286,-0.685,-0.005
4.288,-0.665,-0.005
4.290,-0.665,-0.005
4.292,-0.665,0.000
4.294,-0.640,0.005
4.296,-0.685,0.015
4.298,-0.680,0.020
4.300,-0.670,0.025
4.302,-0.635,0.030
4.304,-0.630,0.030
4.306,-0.625,0.035
4.308,-0.645,0.035
4.310,-0.645,0.040
4.312,-0.615,0.045
4.314,-0.610,0.055
4.316,-0.650,0.065
4.318,-0.580,0.075
4.320,-0.590,0.080
4.322,-0.630,0.090
4.324,-0.585,0.100
4.326,-0.575,0.105
4.328,-0.575,0.110
4.330,-0.540,0.115
4.332,-0.515,0.120
4.334,-0.530,0.125
4.336,-0.560,0.135
4.338,-0.550,0.145
4.340,-0.530,0.160
4.342,-0.565,0.175
4.344,-0.470,0.190
4.346,-0.415,0.205
4.348,-0.455,0.215
4.350,-0.415,0.230
4.352,-0.420,0.235
4.354,-0.450,0.245
4.356,-0.465,0.250
4.358,-0.435,0.255
4.360,-0.410,0.255
4.362,-0.415,0.260
4.364,-0.385,0.260
4.366,-0.345,0.265
4.368,-0.405,0.265
4.370,-0.435,0.270
4.372,-0.395,0.275
4.374,-0.400,0.280
4.376,-0.420,0.290
4.378,-0.425,0.295
4.380,-0.370,0.305
4.382,-0.330,0.310
4.384,-0.310,0.310
4.386,-0.335,0.310
4.388,-0.400,0.300
4.390,-0.400,0.290
4.392,-0.420,0.275
4.394,-0.495,0.255
4.396,-0.420,0.240
4.398,-0.425,0.225
4.400,-0.450,0.210
4.402,-0.540,0.195
4.404,-0.490,0.190
4.406,-0.455,0.180
4.408,-0.450,0.175
4.410,-0.505,0.170
4.412,-0.490,0.160
4.414,-0.570,0.150
4.416,-0.580,0.135
4.418,-0.565,0.120
4.420,-0.575,0.100
4.422,-0.610,0.080
4.424,-0.620,0.060
4.426,-0.635,0.045
4.428,-0.665,0.030
4.430,-0.620,0.020
4.432,-0.635,0.015
4.434,-0.705,0.005
4.436,-0.710,0.000
4.438,-0.670,-0.005
4.440,-0.720,-0.010
4.442,-0.710,-0.015
4.444,-0.665,-0.020
4.446,-0.640,-0.025
4.448,-0.630,-0.025
4.450,-0.675,-0.030
4.452,-0.710,-0.030
4.454,-0.720,-0.030
4.456,-0.730,-0.030
4.458,-0.735,-0.035
4.460,-0.730,-0.035
4.462,-0.730,-0.040
4.464,-0.700,-0.045
4.466,-0.660,-0.045
4.468,-0.690,-0.045
4.470,-0.705,-0.045
4.472,-0.740,-0.045
4.474,-0.710,-0.040
4.476,-0.705,-0.040
4.478,-0.720,-0.040
4.480,-0.695,-0.045
4.482,-0.745,-0.050
4.484,-0.740,-0.055
4.486,-0.720,-0.065
4.488,-0.735,-0.070
4.490,-0.685,-0.070
4.492,-0.735,-0.070
4.494,-0.720,-0.070
4.496,-0.725,-0.065
4.498,-0.735,-0.055
4.500,-0.745,-0.050
4.502,-0.745,-0.050
4.504,-0.695,-0.050
4.506,-0.680,-0.050
4.508,-0.710,-0.055
4.510,-0.710,-0.060
4.512,-0.690,-0.065
4.514,-0.730,-0.065
4.516,-0.735,-0.065
4.518,-0.715,-0.060
4.520,-0.745,-0.055
4.522,-0.720,-0.050
4.524,-0.680,-0.045
4.526,-0.675,-0.045
4.528,-0.705,-0.050
4.530,-0.740,-0.050
4.532,-0.740,-0.055
4.534,-0.765,-0.060
4.536,-0.710,-0.065
4.538,-0.690,-0.065
4.540,-0.710,-0.060
4.542,-0.685,-0.055
4.544,-0.670,-0.045
4.546,-0.690,-0.040
4.548,-0.720,-0.040
4.550,-0.710,-0.035
4.552,-0.675,-0.040
4.554,-0.750,-0.040
4.556,-0.720,-0.045
4.558,-0.675,-0.050
4.560,-0.675,-0.045
4.562,-0.685,-0.045
4.564,-0.675,-0.040
4.566,-0.670,-0.035
4.568,-0.680,-0.030
4.570,-0.700,-0.030
4.572,-0.725,-0.030
4.574,-0.730,-0.035
4.576,-0.705,-0.040
4.578,-0.720,-0.050
4.580,-0.740,-0.055
4.582,-0.705,-0.055
4.584,-0.615,-0.060
4.586,-0.680,-0.055
4.588,-0.695,-0.055
4.590,-0.735,-0.055
4.592,-0.725,-0.050
4.594,-0.745,-0.055
4.596,-0.715,-0.060
4.598,-0.730,-0.065
4.600,-0.745,-0.070
4.602,-0.715,-0.070
4.604,-0.715,-0.070
4.606,-0.725,-0.070
4.608,-0.700,-0.070
4.610,-0.675,-0.065
4.612,-0.705,-0.060
4.614,-0.760,-0.060
4.616,-0.740,-0.060
4.618,-0.745,-0.060
4.620,-0.690,-0.065
4.622,-0.740,-0.070
4.624,-0.695,-0.070
4.626,-0.705,-0.065
4.628,-0.675,-0.065
4.630,-0.695,-0.060
4.632,-0.745,-0.055
4.634,-0.735,-0.055
4.636,-0.695,-0.055
4.638,-0.725,-0.055
4.640,-0.735,-0.060
4.642,-0.700,-0.065
4.644,-0.705,-0.070
4.646,-0.680,-0.075
4.648,-0.685,-0.080
4.650,-0.725,-0.080
4.652,-0.740,-0.075
4.654,-0.755,-0.075
4.656,-0.740,-0.075
4.658,-0.710,-0.075
4.660,-0.715,-0.075
4.662,-0.745,-0.075
4.664,-0.710,-0.080
4.666,-0.725,-0.080
4.668,-0.740,-0.080
4.670,-0.715,-0.075
4.672,-0.715,-0.070
4.674,-0.700,-0.065
4.676,-0.695,-0.060
4.678,-0.700,-0.060
4.680,-0.700,-0.055
4.682,-0.720,-0.060
4.684,-0.710,-0.065
4.686,-0.735,-0.070
4.688,-0.725,-0.075
4.690,-0.730,-0.080
4.692,-0.700,-0.085
4.694,-0.730,-0.085
4.696,-0.710,-0.080
4.698,-0.720,-0.075
4.700,-0.720,-0.070
4.702,-0.735,-0.060
4.704,-0.700,-0.055
4.706,-0.660,-0.055
4.708,-0.685,-0.055
4.710,-0.705,-0.060
4.712,-0.730,-0.065
4.714,-0.720,-0.070
4.716,-0.690,-0.080
4.718,-0.750,-0.085
4.720,-0.770,-0.090
4.722,-0.725,-0.095
4.724,-0.710,-0.095
4.726,-0.685,-0.095
4.728,-0.710,-0.090
4.730,-0.715,-0.090
4.732,-0.750,-0.090
4.734,-0.750,-0.085
4.736,-0.730,-0.085
4.738,-0.700,-0.085
4.740,-0.720,-0.085
4.742,-0.715,-0.085
4.744,-0.710,-0.085
4.746,-0.725,-0.085
4.748,-0.720,-0.085
4.750,-0.720,-0.085
4.752,-0.755,-0.085
4.754,-0.700,-0.085
4.756,-0.730,-0.085
4.758,-0.710,-0.080
4.760,-0.690,-0.080
4.762,-0.685,-0.075
4.764,-0.660,-0.065
4.766,-0.690,-0.060
4.768,-0.690,-0.045
4.770,-0.655,-0.035
4.772,-0.670,-0.025
4.774,-0.705,-0.010
4.776,-0.665,-0.005
4.778,-0.655,0.000
4.780,-0.640,0.005
4.782,-0.590,0.000
4.784,-0.635,-0.005
4.786,-0.645,-0.010
4.788,-0.630,-0.020
4.790,-0.630,-0.030
4.792,-0.700,-0.035
4.794,-0.680,-0.040
4.796,-0.665,-0.045
4.798,-0.705,-0.050
4.800,-0.690,-0.050
4.802,-0.695,-0.055
4.804,-0.700,-0.060
4.806,-0.670,-0.060
4.808,-0.720,-0.065
4.810,-0.695,-0.070
4.812,-0.675,-0.075
4.814,-0.720,-0.080
4.816,-0.745,-0.085
4.818,-0.730,-0.085
4.820,-0.700,-0.090
4.822,-0.690,-0.090
4.824,-0.735,-0.090
4.826,-0.695,-0.090
4.828,-0.695,-0.090
4.830,-0.685,-0.085
4.832,-0.720,-0.085
4.834,-0.720,-0.085
4.836,-0.720,-0.085
4.838,-0.740,-0.090
4.840,-0.725,-0.090
4.842,-0.690,-0.090
4.844,-0.725,-0.095
4.846,-0.715,-0.095
4.848,-0.710,-0.095
4.850,-0.670,-0.090
4.852,-0.660,-0.085
4.854,-0.705,-0.075
4.856,-0.770,-0.070
4.858,-0.700,-0.065
4.860,-0.720,-0.065
4.862,-0.705,-0.075
4.864,-0.730,-0.090
4.866,-0.735,-0.110
4.868,-0.740,-0.135
4.870,-0.765,-0.160
4.872,-0.875,-0.175
4.874,-0.830,-0.190
4.876,-0.830,-0.190
4.878,-0.820,-0.175
4.880,-0.785,-0.150
4.882,-0.730,-0.115
4.884,-0.665,-0.065
4.886,-0.575,-0.005
4.888,-0.490,0.065
4.890,-0.455,0.140
4.892,-0.430,0.225
4.894,-0.335,0.310
4.896,-0.230,0.395
4.898,-0.140,0.470
4.900,-0.030,0.535
4.902,0.010,0.575
4.904,-0.020,0.590
4.906,-0.005,0.575
4.908,-0.030,0.520
4.910,-0.185,0.435
4.912,-0.325,0.320
4.914,-0.470,0.195
4.916,-0.600,0.065
4.918,-0.760,-0.055
4.920,-0.895,-0.150
4.922,-0.890,-0.220
4.924,-0.875,-0.260
4.926,-0.915,-0.270
4.928,-0.825,-0.255
4.930,-0.780,-0.225
4.932,-0.790,-0.185
4.934,-0.800,-0.150
4.936,-0.790,-0.120
4.938,-0.760,-0.100
4.940,-0.655,-0.085
4.942,-0.610,-0.080
4.944,-0.665,-0.080
4.946,-0.700,-0.080
4.948,-0.710,-0.080
4.950,-0.725,-0.075
4.952,-0.695,-0.070
4.954,-0.705,-0.060
4.956,-0.700,-0.050
4.958,-0.650,-0.040
4.960,-0.640,-0.035
4.962,-0.630,-0.035
4.964,-0.640,-0.035
4.966,-0.660,-0.040
4.968,-0.705,-0.050
4.970,-0.705,-0.055
4.972,-0.675,-0.060
4.974,-0.670,-0.065
4.976,-0.725,-0.065
4.978,-0.665,-0.060
4.980,-0.670,-0.055
4.982,-0.650,-0.055
4.984,-0.620,-0.050
4.986,-0.660,-0.045
4.988,-0.675,-0.045
4.990,-0.645,-0.040
4.992,-0.640,-0.040
4.994,-0.670,-0.040
4.996,-0.645,-0.035
4.998,-0.640,-0.030
5.000,-0.645,-0.025
5.002,-0.600,-0.020
5.004,-0.650,-0.015
5.006,-0.600,-0.015
5.008,-0.650,-0.015
5.010,-0.690,-0.020
5.012,-0.640,-0.020
5.014,-0.635,-0.025
5.016,-0.675,-0.025
5.018,-0.650,-0.025
5.020,-0.600,-0.020
5.022,-0.560,-0.015
5.024,-0.590,-0.005
5.026,-0.610,0.005
5.028,-0.575,0.015
5.030,-0.615,0.020
5.032,-0.620,0.020
5.034,-0.620,0.020
5.036,-0.610,0.015
5.038,-0.620,0.010
5.040,-0.585,0.005
5.042,-0.590,0.005
5.044,-0.575,0.005
5.046,-0.555,0.010
5.048,-0.550,0.020
5.050,-0.595,0.030
5.052,-0.610,0.040
5.054,-0.575,0.055
5.056,-0.530,0.065
5.058,-0.545,0.075
5.060,-0.500,0.080
5.062,-0.520,0.085
5.064,-0.525,0.090
5.066,-0.525,0.090
5.068,-0.500,0.090
5.070,-0.505,0.090
5.072,-0.560,0.095
5.074,-0.535,0.095
5.076,-0.505,0.095
5.078,-0.490,0.100
5.080,-0.465,0.110
5.082,-0.430,0.120
5.084,-0.410,0.135
5.086,-0.430,0.150
5.088,-0.440,0.170
5.090,-0.440,0.190
5.092,-0.410,0.205
5.094,-0.375,0.220
5.096,-0.385,0.230
5.098,-0.370,0.240
5.100,-0.340,0.240
5.102,-0.340,0.245
5.104,-0.335,0.245
5.106,-0.335,0.250
5.108,-0.340,0.250
5.110,-0.325,0.260
5.112,-0.325,0.265
5.114,-0.345,0.275
5.116,-0.355,0.285
5.118,-0.300,0.290
5.120,-0.285,0.295
5.122,-0.305,0.295
5.124,-0.290,0.295
5.126,-0.285,0.295
5.128,-0.305,0.295
5.130,-0.320,0.295
5.132,-0.265,0.295
5.134,-0.360,0.290
5.136,-0.320,0.290
5.138,-0.335,0.280
5.140,-0.340,0.270
5.142,-0.335,0.250
5.144,-0.380,0.230
5.146,-0.420,0.210
5.148,-0.440,0.185
5.150,-0.440,0.165
5.152,-0.425,0.145
5.154,-0.455,0.130
5.156,-0.510,0.115
5.158,-0.560,0.105
5.160,-0.495,0.095
5.162,-0.480,0.085
5.164,-0.530,0.070
5.166,-0.575,0.060
5.168,-0.595,0.045
5.170,-0.570,0.030
5.172,-0.555,0.015
5.174,-0.575,0.005
5.176,-0.615,-0.005
5.178,-0.625,-0.010
5.180,-0.605,-0.015
5.182,-0.595,-0.015
5.184,-0.605,-0.020
5.186,-0.635,-0.020
5.188,-0.665,-0.020
5.190,-0.645,-0.020
5.192,-0.650,-0.025
5.194,-0.605,-0.025
5.196,-0.620,-0.025
5.198,-0.625,-0.025
5.200,-0.635,-0.025
5.202,-0.625,-0.030
5.204,-0.620,-0.035
5.206,-0.630,-0.040
5.208,-0.645,-0.050
5.210,-0.705,-0.055
5.212,-0.665,-0.065
5.214,-0.655,-0.070
5.216,-0.705,-0.075
5.218,-0.665,-0.075
5.220,-0.630,-0.075
5.222,-0.610,-0.075
5.224,-0.610,-0.070
5.226,-0.665,-0.065
5.228,-0.670,-0.060
5.230,-0.670,-0.055
5.232,-0.680,-0.055
5.234,-0.655,-0.050
5.236,-0.670,-0.050
5.238,-0.670,-0.050
5.240,-0.665,-0.050
5.242,-0.680,-0.050
5.244,-0.600,-0.050
5.246,-0.625,-0.050
5.248,-0.655,-0.050
5.250,-0.645,-0.050
5.252,-0.665,-0.050
5.254,-0.665,-0.050
5.256,-0.665,-0.050
5.258,-0.630,-0.050
5.260,-0.620,-0.050
5.262,-0.660,-0.050
5.264,-0.670,-0.050
5.266,-0.655,-0.055
5.268,-0.665,-0.055
5.270,-0.665,-0.060
5.272,-0.640,-0.065
5.274,-0.675,-0.070
5.276,-0.715,-0.075
5.278,-0.660,-0.075
5.280,-0.625,-0.070
5.282,-0.610,-0.065
5.284,-0.630,-0.055
5.286,-0.650,-0.045
5.288,-0.635,-0.040
5.290,-0.655,-0.035
5.292,-0.645,-0.030
5.294,-0.665,-0.035
5.296,-0.625,-0.035
5.298,-0.615,-0.040
5.300,-0.580,-0.040
5.302,-0.610,-0.040
5.304,-0.595,-0.035
5.306,-0.610,-0.030
5.308,-0.590,-0.025
5.310,-0.650,-0.025
5.312,-0.670,-0.020
5.314,-0.625,-0.025
5.316,-0.620,-0.030
5.318,-0.645,-0.040
5.320,-0.640,-0.050
5.322,-0.670,-0.060
5.324,-0.660,-0.070
5.326,-0.665,-0.070
5.328,-0.640,-0.070
5.330,-0.650,-0.065
5.332,-0.630,-0.055
5.334,-0.645,-0.045
5.336,-0.635,-0.035
5.338,-0.595,-0.030
5.340,-0.590,-0.030
5.342,-0.660,-0.040
5.344,-0.640,-0.050
5.346,-0.625,-0.060
5.348,-0.665,-0.075
5.350,-0.655,-0.085
5.352,-0.650,-0.090
5.354,-0.655,-0.095
5.356,-0.660,-0.090
5.358,-0.640,-0.085
5.360,-0.630,-0.075
5.362,-0.685,-0.065
5.364,-0.630,-0.060
5.366,-0.630,-0.050
5.368,-0.645,-0.050
5.370,-0.660,-0.045
5.372,-0.685,-0.045
5.374,-0.615,-0.050
5.376,-0.650,-0.050
5.378,-0.595,-0.055
5.380,-0.635,-0.055
5.382,-0.635,-0.060
5.384,-0.645,-0.060
5.386,-0.610,-0.060
5.388,-0.650,-0.060
5.390,-0.660,-0.060
5.392,-0.645,-0.065
5.394,-0.680,-0.065
5.396,-0.680,-0.065
5.398,-0.640,-0.070
5.400,-0.650,-0.075
5.402,-0.665,-0.075
5.404,-0.635,-0.075
5.406,-0.625,-0.075
5.408,-0.660,-0.065
5.410,-0.630,-0.060
5.412,-0.620,-0.050
5.414,-0.635,-0.040
5.416,-0.680,-0.035
5.418,-0.580,-0.030
5.420,-0.590,-0.030
5.422,-0.620,-0.040
5.424,-0.670,-0.050
5.426,-0.675,-0.065
5.428,-0.700,-0.075
5.430,-0.675,-0.085
5.432,-0.680,-0.090
5.434,-0.670,-0.090
5.436,-0.635,-0.085
5.438,-0.630,-0.075
5.440,-0.585,-0.065
5.442,-0.595,-0.060
5.444,-0.640,-0.055
5.446,-0.645,-0.050
5.448,-0.655,-0.055
5.450,-0.660,-0.060
5.452,-0.675,-0.065
5.454,-0.680,-0.070
5.456,-0.640,-0.075
5.458,-0.640,-0.075
5.460,-0.645,-0.075
5.462,-0.630,-0.075
5.464,-0.660,-0.075
5.466,-0.680,-0.075
5.468,-0.670,-0.075
5.470,-0.650,-0.075
5.472,-0.650,-0.075
5.474,-0.635,-0.075
5.476,-0.650,-0.070
5.478,-0.620,-0.065
5.480,-0.605,-0.065
5.482,-0.635,-0.060
5.484,-0.670,-0.065
5.486,-0.645,-0.070
5.488,-0.670,-0.075
5.490,-0.660,-0.090
5.492,-0.710,-0.100
5.494,-0.670,-0.110
5.496,-0.630,-0.115
5.498,-0.690,-0.115
5.500,-0.685,-0.105
5.502,-0.630,-0.095
5.504,-0.625,-0.080
5.506,-0.610,-0.065
5.508,-0.640,-0.050
5.510,-0.630,-0.040
5.512,-0.640,-0.035
5.514,-0.605,-0.035
5.516,-0.620,-0.040
5.518,-0.615,-0.045
5.520,-0.625,-0.050
5.522,-0.655,-0.055
5.524,-0.670,-0.055
5.526,-0.620,-0.055
5.528,-0.630,-0.050
5.530,-0.650,-0.045
5.532,-0.600,-0.035
5.534,-0.585,-0.025
5.536,-0.575,-0.015
5.538,-0.545,-0.005
5.540,-0.495,0.000
5.542,-0.550,0.005
5.544,-0.595,0.005
5.546,-0.565,0.005
5.548,-0.630,0.000
5.550,-0.615,-0.010
5.552,-0.620,-0.020
5.554,-0.585,-0.030
5.556,-0.560,-0.040
5.558,-0.550,-0.045
5.560,-0.635,-0.050
5.562,-0.610,-0.050
5.564,-0.570,-0.045
5.566,-0.640,-0.045
5.568,-0.665,-0.040
5.570,-0.675,-0.040
5.572,-0.650,-0.045
5.574,-0.615,-0.055
5.576,-0.635,-0.065
5.578,-0.620,-0.075
5.580,-0.610,-0.085
5.582,-0.635,-0.095
5.584,-0.650,-0.095
5.586,-0.655,-0.090
5.588,-0.685,-0.080
5.590,-0.655,-0.070
5.592,-0.660,-0.065
5.594,-0.655,-0.055
5.596,-0.670,-0.055
5.598,-0.555,-0.060
5.600,-0.580,-0.065
5.602,-0.670,-0.075
5.604,-0.650,-0.080
5.606,-0.665,-0.085
5.608,-0.685,-0.080
5.610,-0.640,-0.075
5.612,-0.595,-0.065
5.614,-0.615,-0.055
5.616,-0.615,-0.045
5.618,-0.640,-0.045
5.620,-0.645,-0.055
5.622,-0.660,-0.070
5.624,-0.650,-0.095
5.626,-0.670,-0.120
5.628,-0.715,-0.150
5.630,-0.745,-0.175
5.632,-0.790,-0.190
5.634,-0.805,-0.200
5.636,-0.815,-0.190
5.638,-0.785,-0.170
5.640,-0.695,-0.135
5.642,-0.590,-0.085
5.644,-0.530,-0.025
5.646,-0.460,0.050
5.648,-0.385,0.135
5.650,-0.300,0.225
5.652,-0.255,0.320
5.654,-0.205,0.410
5.656,-0.040,0.495
5.658,0.040,0.565
5.660,0.085,0.615
5.662,0.105,0.635
5.664,0.130,0.620
5.666,0.070,0.575
5.668,-0.030,0.500
5.670,-0.150,0.395
5.672,-0.320,0.275
5.674,-0.495,0.150
5.676,-0.610,0.030
5.678,-0.750,-0.075
5.680,-0.775,-0.155
5.682,-0.755,-0.205
5.684,-0.715,-0.225
5.686,-0.745,-0.220
5.688,-0.740,-0.200
5.690,-0.710,-0.165
5.692,-0.680,-0.130
5.694,-0.670,-0.095
5.696,-0.615,-0.070
5.698,-0.575,-0.060
5.700,-0.610,-0.055
5.702,-0.615,-0.055
5.704,-0.665,-0.060
5.706,-0.655,-0.065
5.708,-0.590,-0.070
5.710,-0.595,-0.070
5.712,-0.620,-0.065
5.714,-0.640,-0.060
5.716,-0.615,-0.050
5.718,-0.595,-0.050
5.720,-0.615,-0.050
5.722,-0.620,-0.050
5.724,-0.625,-0.055
5.726,-0.580,-0.055
5.728,-0.620,-0.060
5.730,-0.650,-0.055
5.732,-0.630,-0.050
5.734,-0.590,-0.040
5.736,-0.520,-0.035
5.738,-0.525,-0.025
5.740,-0.560,-0.020
5.742,-0.620,-0.015
5.744,-0.615,-0.020
5.746,-0.585,-0.020
5.748,-0.565,-0.025
5.750,-0.570,-0.030
5.752,-0.580,-0.030
5.754,-0.570,-0.030
5.756,-0.520,-0.025
5.758,-0.565,-0.020
5.760,-0.560,-0.010
5.762,-0.580,-0.005
5.764,-0.600,0.000
5.766,-0.570,0.005
5.768,-0.570,0.000
5.770,-0.555,0.000
5.772,-0.555,-0.005
5.774,-0.540,-0.010
5.776,-0.560,-0.010
5.778,-0.540,-0.010
5.780,-0.505,-0.005
5.782,-0.535,0.005
5.784,-0.585,0.010
5.786,-0.570,0.015
5.788,-0.505,0.020
5.790,-0.530,0.020
5.792,-0.555,0.020
5.794,-0.525,0.020
5.796,-0.525,0.020
5.798,-0.505,0.025
5.800,-0.515,0.035
5.802,-0.470,0.045
5.804,-0.475,0.060
5.806,-0.485,0.070
5.808,-0.510,0.085
5.810,-0.455,0.090
5.812,-0.475,0.095
5.814,-0.465,0.095
5.816,-0.430,0.095
5.818,-0.450,0.090
5.820,-0.475,0.090
5.822,-0.430,0.095
5.824,-0.450,0.100
5.826,-0.470,0.105
5.828,-0.425,0.115
5.830,-0.430,0.125
5.832,-0.440,0.135
5.834,-0.435,0.140
5.836,-0.405,0.145
5.838,-0.395,0.150
5.840,-0.385,0.150
5.842,-0.365,0.160
5.844,-0.375,0.165
5.846,-0.380,0.175
5.848,-0.335,0.190
5.850,-0.295,0.200
5.852,-0.295,0.215
5.854,-0.295,0.225
5.856,-0.300,0.235
5.858,-0.340,0.240
5.860,-0.335,0.245
5.862,-0.285,0.250
5.864,-0.270,0.255
5.866,-0.260,0.265
5.868,-0.275,0.270
5.870,-0.240,0.280
5.872,-0.225,0.290
5.874,-0.265,0.300
5.876,-0.245,0.305
5.878,-0.195,0.310
5.880,-0.225,0.310
5.882,-0.220,0.310
5.884,-0.235,0.310
5.886,-0.235,0.310
5.888,-0.225,0.315
5.890,-0.225,0.315
5.892,-0.240,0.315
5.894,-0.210,0.310
5.896,-0.240,0.305
5.898,-0.250,0.295
5.900,-0.230,0.280
5.902,-0.310,0.260
5.904,-0.335,0.240
5.906,-0.330,0.215
5.908,-0.370,0.190
5.910,-0.405,0.165
5.912,-0.425,0.145
5.914,-0.405,0.130
5.916,-0.400,0.115
5.918,-0.445,0.105
5.920,-0.460,0.100
5.922,-0.415,0.090
5.924,-0.475,0.085
5.926,-0.485,0.080
5.928,-0.450,0.070
5.930,-0.495,0.065
5.932,-0.500,0.055
5.934,-0.480,0.045
5.936,-0.485,0.035
5.938,-0.515,0.025
5.940,-0.540,0.015
5.942,-0.575,0.000
5.944,-0.555,-0.010
5.946,-0.560,-0.020
5.948,-0.565,-0.030
5.950,-0.585,-0.040
5.952,-0.580,-0.045
5.954,-0.560,-0.045
5.956,-0.575,-0.050
5.958,-0.590,-0.050
5.960,-0.615,-0.050
5.962,-0.575,-0.045
5.964,-0.550,-0.045
5.966,-0.600,-0.045
5.968,-0.560,-0.045
5.970,-0.580,-0.045
5.972,-0.590,-0.045
5.974,-0.580,-0.050
5.976,-0.590,-0.055
5.978,-0.580,-0.055
5.980,-0.605,-0.060
5.982,-0.580,-0.060
5.984,-0.590,-0.060
5.986,-0.585,-0.055
5.988,-0.590,-0.050
5.990,-0.570,-0.045
5.992,-0.580,-0.040
5.994,-0.550,-0.035
5.996,-0.560,-0.030
5.998,-0.575,-0.035
6.000,-0.585,-0.035
6.002,-0.595,-0.045
6.004,-0.655,-0.050
6.006,-0.595,-0.055
6.008,-0.555,-0.055
6.010,-0.540,-0.055
6.012,-0.550,-0.050
6.014,-0.580,-0.040
6.016,-0.585,-0.035
6.018,-0.540,-0.030
6.020,-0.565,-0.025
6.022,-0.560,-0.030
6.024,-0.570,-0.035
6.026,-0.565,-0.045
6.028,-0.615,-0.055
6.030,-0.645,-0.065
6.032,-0.625,-0.075
6.034,-0.560,-0.075
6.036,-0.565,-0.070
6.038,-0.555,-0.065
6.040,-0.540,-0.055
6.042,-0.545,-0.040
6.044,-0.560,-0.030
6.046,-0.555,-0.020
6.048,-0.570,-0.020
6.050,-0.560,-0.020
6.052,-0.580,-0.030
6.054,-0.580,-0.040
6.056,-0.545,-0.050
6.058,-0.585,-0.060
6.060,-0.575,-0.065
6.062,-0.540,-0.065
6.064,-0.580,-0.060
6.066,-0.555,-0.050
6.068,-0.550,-0.040
6.070,-0.550,-0.030
6.072,-0.535,-0.020
6.074,-0.550,-0.015
6.076,-0.565,-0.015
6.078,-0.550,-0.025
6.080,-0.470,-0.030
6.082,-0.550,-0.045
6.084,-0.635,-0.055
6.086,-0.605,-0.060
6.088,-0.610,-0.065
6.090,-0.580,-0.065
6.092,-0.545,-0.065
6.094,-0.530,-0.060
6.096,-0.560,-0.050
6.098,-0.585,-0.045
6.100,-0.575,-0.045
6.102,-0.580,-0.040
6.104,-0.580,-0.040
6.106,-0.570,-0.045
6.108,-0.580,-0.045
6.110,-0.585,-0.050
6.112,-0.585,-0.050
6.114,-0.580,-0.055
6.116,-0.575,-0.055
6.118,-0.555,-0.055
6.120,-0.555,-0.060
6.122,-0.585,-0.060
6.124,-0.575,-0.055
6.126,-0.570,-0.055
6.128,-0.570,-0.050
6.130,-0.550,-0.050
6.132,-0.585,-0.045
6.134,-0.590,-0.040
6.136,-0.550,-0.040
6.138,-0.555,-0.045
6.140,-0.535,-0.050
6.142,-0.565,-0.055
6.144,-0.605,-0.065
6.146,-0.600,-0.070
6.148,-0.580,-0.070
6.150,-0.575,-0.070
6.152,-0.580,-0.065
6.154,-0.540,-0.055
6.156,-0.550,-0.045
6.158,-0.510,-0.035
6.160,-0.555,-0.030
6.162,-0.585,-0.035
6.164,-0.615,-0.045
6.166,-0.620,-0.060
6.168,-0.600,-0.075
6.170,-0.585,-0.085
6.172,-0.560,-0.095
6.174,-0.590,-0.090
6.176,-0.590,-0.080
6.178,-0.570,-0.065
6.180,-0.490,-0.045
6.182,-0.520,-0.025
6.184,-0.560,-0.005
6.186,-0.555,0.000
6.188,-0.560,0.000
6.190,-0.540,-0.005
6.192,-0.525,-0.020
6.194,-0.550,-0.040
6.196,-0.585,-0.060
6.198,-0.590,-0.075
6.200,-0.600,-0.085
6.202,-0.610,-0.090
6.204,-0.590,-0.090
6.206,-0.555,-0.085
6.208,-0.575,-0.075
6.210,-0.570,-0.070
6.212,-0.585,-0.065
6.214,-0.565,-0.065
6.216,-0.580,-0.060
6.218,-0.575,-0.060
6.220,-0.585,-0.060
6.222,-0.605,-0.060
6.224,-0.550,-0.055
6.226,-0.550,-0.050
6.228,-0.555,-0.040
6.230,-0.565,-0.035
6.232,-0.565,-0.035
6.234,-0.540,-0.035
6.236,-0.550,-0.040
6.238,-0.565,-0.050
6.240,-0.565,-0.065
6.242,-0.610,-0.075
6.244,-0.635,-0.085
6.246,-0.605,-0.095
6.248,-0.585,-0.100
6.250,-0.605,-0.095
6.252,-0.560,-0.090
6.254,-0.535,-0.085
6.256,-0.560,-0.075
6.258,-0.590,-0.070
6.260,-0.600,-0.070
6.262,-0.635,-0.070
6.264,-0.600,-0.075
6.266,-0.560,-0.075
6.268,-0.570,-0.075
6.270,-0.565,-0.075
6.272,-0.540,-0.065
6.274,-0.520,-0.055
6.276,-0.505,-0.035
6.278,-0.515,-0.020
6.280,-0.490,-0.005
6.282,-0.480,0.010
6.284,-0.455,0.015
6.286,-0.495,0.020
6.288,-0.480,0.020
6.290,-0.500,0.015
6.292,-0.495,0.005
6.294,-0.480,0.000
6.296,-0.505,-0.010
6.298,-0.515,-0.015
6.300,-0.520,-0.025
6.302,-0.570,-0.030
6.304,-0.545,-0.040
6.306,-0.500,-0.045
6.308,-0.540,-0.055
6.310,-0.595,-0.055
6.312,-0.570,-0.060
6.314,-0.530,-0.055
6.316,-0.540,-0.055
6.318,-0.525,-0.050
6.320,-0.545,-0.045
6.322,-0.585,-0.045
6.324,-0.545,-0.045
6.326,-0.560,-0.055
6.328,-0.595,-0.060
6.330,-0.580,-0.070
6.332,-0.540,-0.080
6.334,-0.540,-0.085
6.336,-0.540,-0.085
6.338,-0.585,-0.085
6.340,-0.630,-0.075
6.342,-0.595,-0.070
6.344,-0.545,-0.060
6.346,-0.550,-0.060
6.348,-0.565,-0.065
6.350,-0.605,-0.070
6.352,-0.595,-0.080
6.354,-0.570,-0.090
6.356,-0.565,-0.095
6.358,-0.590,-0.095
6.360,-0.600,-0.095
6.362,-0.575,-0.090
6.364,-0.545,-0.085
6.366,-0.560,-0.080
6.368,-0.620,-0.085
6.370,-0.585,-0.095
6.372,-0.565,-0.115
6.374,-0.620,-0.135
6.376,-0.680,-0.160
6.378,-0.705,-0.180
6.380,-0.690,-0.190
6.382,-0.690,-0.185
6.384,-0.715,-0.170
6.386,-0.670,-0.140
6.388,-0.610,-0.095
6.390,-0.475,-0.040
6.392,-0.385,0.025
6.394,-0.315,0.095
6.396,-0.285,0.175
6.398,-0.250,0.265
6.400,-0.135,0.355
6.402,-0.055,0.440
6.404,0.045,0.525
6.406,0.105,0.590
6.408,0.180,0.630
6.410,0.235,0.635
6.412,0.205,0.610
6.414,0.140,0.545
6.416,-0.060,0.450
6.418,-0.185,0.330
6.420,-0.335,0.195
6.422,-0.525,0.065
6.424,-0.670,-0.055
6.426,-0.720,-0.145
6.428,-0.720,-0.210
6.430,-0.700,-0.240
6.432,-0.655,-0.245
6.434,-0.645,-0.225
6.436,-0.660,-0.195
6.438,-0.645,-0.155
6.440,-0.590,-0.120
6.442,-0.585,-0.090
6.444,-0.550,-0.070
6.446,-0.555,-0.055
6.448,-0.560,-0.050
6.450,-0.565,-0.055
6.452,-0.515,-0.060
6.454,-0.570,-0.065
6.456,-0.570,-0.070
6.458,-0.525,-0.070
6.460,-0.545,-0.070
6.462,-0.535,-0.065
6.464,-0.520,-0.060
6.466,-0.525,-0.055
6.468,-0.535,-0.045
6.470,-0.550,-0.040
6.472,-0.505,-0.035
6.474,-0.550,-0.035
6.476,-0.545,-0.035
6.478,-0.525,-0.040
6.480,-0.525,-0.050
6.482,-0.555,-0.055
6.484,-0.515,-0.060
6.486,-0.490,-0.060
6.488,-0.545,-0.060
6.490,-0.510,-0.050
6.492,-0.520,-0.045
6.494,-0.510,-0.035
6.496,-0.495,-0.025
6.498,-0.475,-0.015
6.500,-0.475,-0.010
6.502,-0.475,-0.010
6.504,-0.420,-0.015
6.506,-0.545,-0.025
6.508,-0.545,-0.030
6.510,-0.510,-0.040
6.512,-0.500,-0.045
6.514,-0.500,-0.045
6.516,-0.500,-0.040
6.518,-0.515,-0.035
6.520,-0.505,-0.025
6.522,-0.500,-0.015
6.524,-0.495,-0.005
6.526,-0.475,0.005
6.528,-0.500,0.010
6.530,-0.435,0.020
6.532,-0.380,0.025
6.534,-0.445,0.025
6.536,-0.435,0.030
6.538,-0.400,0.030
6.540,-0.470,0.035
6.542,-0.520,0.030
6.544,-0.435,0.030
6.546,-0.435,0.025
6.548,-0.500,0.020
6.550,-0.445,0.020
6.552,-0.470,0.015
6.554,-0.450,0.015
6.556,-0.390,0.020
6.558,-0.430,0.025
6.560,-0.430,0.040
6.562,-0.415,0.055
6.564,-0.390,0.075
6.566,-0.360,0.090
6.568,-0.390,0.105
6.570,-0.350,0.115
6.572,-0.345,0.125
6.574,-0.335,0.125
6.576,-0.355,0.125
6.578,-0.325,0.120
6.580,-0.370,0.115
6.582,-0.365,0.115
6.584,-0.340,0.120
6.586,-0.295,0.130
6.588,-0.325,0.140
6.590,-0.290,0.155
6.592,-0.290,0.175
6.594,-0.285,0.195
6.596,-0.225,0.210
6.598,-0.235,0.230
6.600,-0.255,0.245
6.602,-0.190,0.260
6.604,-0.200,0.270
6.606,-0.240,0.275
6.608,-0.245,0.280
6.610,-0.185,0.280
6.612,-0.170,0.280
6.614,-0.160,0.275
6.616,-0.205,0.275
6.618,-0.200,0.275
6.620,-0.210,0.275
6.622,-0.180,0.285
6.624,-0.145,0.290
6.626,-0.160,0.300
6.628,-0.175,0.310
6.630,-0.140,0.315
6.632,-0.145,0.315
6.634,-0.195,0.310
6.636,-0.190,0.300
6.638,-0.195,0.285
6.640,-0.240,0.270
6.642,-0.230,0.250
6.644,-0.215,0.235
6.646,-0.240,0.220
6.648,-0.220,0.210
6.650,-0.205,0.205
6.652,-0.245,0.205
6.654,-0.290,0.200
6.656,-0.285,0.195
6.658,-0.310,0.185
6.660,-0.335,0.170
6.662,-0.340,0.150
6.664,-0.370,0.125
6.666,-0.380,0.100
6.668,-0.390,0.080
6.670,-0.400,0.055
6.672,-0.415,0.040
6.674,-0.465,0.030
6.676,-0.415,0.025
6.678,-0.465,0.025
6.680,-0.480,0.025
6.682,-0.430,0.020
6.684,-0.435,0.020
6.686,-0.435,0.015
6.688,-0.475,0.005
6.690,-0.455,-0.005
6.692,-0.510,-0.020
6.694,-0.480,-0.035
6.696,-0.505,-0.050
6.698,-0.510,-0.065
6.700,-0.520,-0.075
6.702,-0.515,-0.080
6.704,-0.510,-0.080
6.706,-0.580,-0.075
6.708,-0.535,-0.070
6.710,-0.520,-0.060
6.712,-0.520,-0.050
6.714,-0.440,-0.045
6.716,-0.475,-0.040
6.718,-0.510,-0.040
6.720,-0.520,-0.045
6.722,-0.495,-0.050
6.724,-0.535,-0.060
6.726,-0.560,-0.070
6.728,-0.525,-0.075
6.730,-0.510,-0.080
6.732,-0.520,-0.080
6.734,-0.500,-0.080
6.736,-0.525,-0.080
6.738,-0.505,-0.075
6.740,-0.580,-0.075
6.742,-0.555,-0.070
6.744,-0.545,-0.070
6.746,-0.545,-0.070
6.748,-0.515,-0.070
6.750,-0.485,-0.070
6.752,-0.490,-0.065
6.754,-0.500,-0.060
6.756,-0.485,-0.060
6.758,-0.500,-0.055
6.760,-0.505,-0.050
6.762,-0.540,-0.045
6.764,-0.490,-0.045
6.766,-0.495,-0.050
6.768,-0.480,-0.055
6.770,-0.500,-0.060
6.772,-0.535,-0.065
6.774,-0.535,-0.065
6.776,-0.500,-0.070
6.778,-0.515,-0.070
6.780,-0.505,-0.070
6.782,-0.525,-0.065
6.784,-0.510,-0.060
6.786,-0.470,-0.060
6.788,-0.490,-0.055
6.790,-0.495,-0.055
6.792,-0.535,-0.055
6.794,-0.545,-0.055
6.796,-0.510,-0.055
6.798,-0.475,-0.055
6.800,-0.520,-0.055
6.802,-0.475,-0.050
6.804,-0.445,-0.045
6.806,-0.490,-0.045
6.808,-0.450,-0.040
6.810,-0.445,-0.040
6.812,-0.525,-0.040
6.814,-0.525,-0.045
6.816,-0.500,-0.050
6.818,-0.495,-0.050
6.820,-0.505,-0.055
6.822,-0.505,-0.055
6.824,-0.500,-0.055
6.826,-0.535,-0.055
6.828,-0.485,-0.055
6.830,-0.480,-0.050
6.832,-0.490,-0.050
6.834,-0.495,-0.045
6.836,-0.500,-0.045
6.838,-0.515,-0.045
6.840,-0.520,-0.050
6.842,-0.500,-0.050
6.844,-0.495,-0.055
6.846,-0.525,-0.060
6.848,-0.555,-0.070
6.850,-0.485,-0.075
6.852,-0.485,-0.075
6.854,-0.530,-0.080
6.856,-0.530,-0.080
6.858,-0.520,-0.080
6.860,-0.505,-0.080
6.862,-0.480,-0.075
6.864,-0.465,-0.070
6.866,-0.510,-0.065
6.868,-0.485,-0.065
6.870,-0.485,-0.060
6.872,-0.495,-0.060
6.874,-0.530,-0.060
6.876,-0.490,-0.065
6.878,-0.515,-0.065
6.880,-0.535,-0.065
6.882,-0.510,-0.065
6.884,-0.500,-0.065
6.886,-0.520,-0.065
6.888,-0.500,-0.065
6.890,-0.515,-0.065
6.892,-0.475,-0.070
6.894,-0.480,-0.070
6.896,-0.495,-0.075
6.898,-0.595,-0.075
6.900,-0.545,-0.080
6.902,-0.540,-0.080
6.904,-0.515,-0.085
6.906,-0.505,-0.085
6.908,-0.465,-0.085
6.910,-0.505,-0.080
6.912,-0.530,-0.080
6.914,-0.515,-0.080
6.916,-0.500,-0.075
6.918,-0.525,-0.075
6.920,-0.500,-0.075
6.922,-0.515,-0.070
6.924,-0.545,-0.070
6.926,-0.560,-0.065
6.928,-0.460,-0.065
6.930,-0.455,-0.060
6.932,-0.500,-0.060
6.934,-0.490,-0.060
6.936,-0.485,-0.060
6.938,-0.540,-0.065
6.940,-0.510,-0.065
6.942,-0.505,-0.070
6.944,-0.500,-0.075
6.946,-0.495,-0.075
6.948,-0.510,-0.075
6.950,-0.500,-0.075
6.952,-0.505,-0.075
6.954,-0.560,-0.075
6.956,-0.495,-0.075
6.958,-0.495,-0.070
6.960,-0.505,-0.070
6.962,-0.520,-0.070
6.964,-0.545,-0.075
6.966,-0.550,-0.075
6.968,-0.500,-0.080
6.970,-0.500,-0.085
6.972,-0.490,-0.090
6.974,-0.560,-0.090
6.976,-0.535,-0.095
6.978,-0.470,-0.090
6.980,-0.455,-0.085
6.982,-0.520,-0.075
6.984,-0.535,-0.070
6.986,-0.515,-0.060
6.988,-0.450,-0.055
6.990,-0.465,-0.055
6.992,-0.485,-0.055
6.994,-0.530,-0.065
6.996,-0.515,-0.070
6.998,-0.520,-0.080
7.000,-0.505,-0.085
7.002,-0.510,-0.090
7.004,-0.555,-0.090
7.006,-0.555,-0.090
7.008,-0.465,-0.085
7.010,-0.485,-0.080
7.012,-0.500,-0.075
7.014,-0.485,-0.070
7.016,-0.490,-0.065
7.018,-0.505,-0.065
7.020,-0.495,-0.060
7.022,-0.475,-0.055
7.024,-0.475,-0.050
7.026,-0.480,-0.040
7.028,-0.435,-0.030
7.030,-0.440,-0.020
7.032,-0.415,-0.015
7.034,-0.385,-0.010
7.036,-0.420,-0.010
7.038,-0.475,-0.015
7.040,-0.450,-0.020
7.042,-0.445,-0.030
7.044,-0.475,-0.040
7.046,-0.455,-0.045
7.048,-0.425,-0.050
7.050,-0.405,-0.050
7.052,-0.490,-0.050
7.054,-0.435,-0.050
7.056,-0.480,-0.045
7.058,-0.520,-0.050
7.060,-0.500,-0.055
7.062,-0.500,-0.060
7.064,-0.500,-0.065
7.066,-0.510,-0.075
7.068,-0.490,-0.080
7.070,-0.495,-0.085
7.072,-0.445,-0.085
7.074,-0.480,-0.085
7.076,-0.515,-0.080
7.078,-0.550,-0.075
7.080,-0.525,-0.070
7.082,-0.480,-0.065
7.084,-0.485,-0.060
7.086,-0.480,-0.060
7.088,-0.475,-0.055
7.090,-0.470,-0.055
7.092,-0.480,-0.055
7.094,-0.440,-0.055
7.096,-0.485,-0.060
7.098,-0.505,-0.065
7.100,-0.525,-0.075
7.102,-0.550,-0.085
7.104,-0.560,-0.095
7.106,-0.485,-0.100
7.108,-0.470,-0.110
7.110,-0.510,-0.110
7.112,-0.560,-0.115
7.114,-0.545,-0.115
7.116,-0.490,-0.115
7.118,-0.525,-0.115
7.120,-0.525,-0.125
7.122,-0.560,-0.135
7.124,-0.565,-0.150
7.126,-0.565,-0.165
7.128,-0.610,-0.180
7.130,-0.655,-0.190
7.132,-0.650,-0.195
7.134,-0.585,-0.180
7.136,-0.550,-0.155
7.138,-0.505,-0.110
7.140,-0.445,-0.050
7.142,-0.355,0.025
7.144,-0.260,0.115
7.146,-0.155,0.220
7.148,-0.070,0.320
7.150,0.015,0.425
7.152,0.140,0.515
7.154,0.235,0.585
7.156,0.185,0.635
7.158,0.245,0.645
7.160,0.300,0.625
7.162,0.265,0.560
7.164,0.095,0.470
7.166,-0.070,0.350
7.168,-0.235,0.215
7.170,-0.365,0.080
7.172,-0.540,-0.040
7.174,-0.640,-0.145
7.176,-0.700,-0.215
7.178,-0.705,-0.250
7.180,-0.640,-0.260
7.182,-0.575,-0.240
7.184,-0.580,-0.210
7.186,-0.495,-0.170
7.188,-0.510,-0.135
7.190,-0.530,-0.110
7.192,-0.515,-0.090
7.194,-0.485,-0.085
7.196,-0.515,-0.085
7.198,-0.510,-0.090
7.200,-0.470,-0.095
7.202,-0.495,-0.095
7.204,-0.475,-0.090
7.206,-0.455,-0.085
7.208,-0.470,-0.075
7.210,-0.430,-0.070
7.212,-0.500,-0.065
7.214,-0.520,-0.065
7.216,-0.470,-0.065
7.218,-0.445,-0.065
7.220,-0.460,-0.070
7.222,-0.490,-0.070
7.224,-0.480,-0.065
7.226,-0.415,-0.060
7.228,-0.415,-0.050
7.230,-0.465,-0.045
7.232,-0.440,-0.040
7.234,-0.395,-0.035
7.236,-0.440,-0.040
7.238,-0.490,-0.040
7.240,-0.470,-0.045
7.242,-0.490,-0.050
7.244,-0.420,-0.050
7.246,-0.375,-0.050
7.248,-0.410,-0.045
7.250,-0.410,-0.040
7.252,-0.455,-0.030
7.254,-0.410,-0.025
7.256,-0.445,-0.020
7.258,-0.450,-0.020
7.260,-0.465,-0.020
7.262,-0.465,-0.020
7.264,-0.460,-0.020
7.266,-0.390,-0.020
7.268,-0.365,-0.020
7.270,-0.400,-0.015
7.272,-0.365,-0.015
7.274,-0.355,-0.010
7.276,-0.420,-0.005
7.278,-0.410,-0.005
7.280,-0.410,-0.005
7.282,-0.425,-0.010
7.284,-0.465,-0.010
7.286,-0.385,-0.010
7.288,-0.365,-0.010
7.290,-0.370,-0.005
7.292,-0.395,0.000
7.294,-0.370,0.005
7.296,-0.400,0.015
7.298,-0.360,0.025
7.300,-0.360,0.035
7.302,-0.365,0.045
7.304,-0.360,0.050
7.306,-0.310,0.055
7.308,-0.335,0.060
7.310,-0.315,0.065
7.312,-0.295,0.070
7.314,-0.295,0.075
7.316,-0.320,0.080
7.318,-0.310,0.090
7.320,-0.325,0.095
7.322,-0.290,0.100
7.324,-0.265,0.110
7.326,-0.265,0.115
7.328,-0.250,0.120
7.330,-0.215,0.125
7.332,-0.255,0.135
7.334,-0.230,0.140
7.336,-0.225,0.145
7.338,-0.230,0.150
7.340,-0.205,0.160
7.342,-0.230,0.170
7.344,-0.215,0.185
7.346,-0.175,0.200
7.348,-0.145,0.220
7.350,-0.100,0.235
7.352,-0.115,0.255
7.354,-0.140,0.265
7.356,-0.105,0.275
7.358,-0.070,0.280
7.360,-0.135,0.280
7.362,-0.160,0.280
7.364,-0.120,0.270
7.366,-0.085,0.270
7.368,-0.090,0.265
7.370,-0.095,0.265
7.372,-0.105,0.270
7.374,-0.105,0.280
7.376,-0.125,0.290
7.378,-0.085,0.300
7.380,-0.030,0.305
7.382,-0.070,0.310
7.384,-0.090,0.310
7.386,-0.115,0.305
7.388,-0.120,0.300
7.390,-0.135,0.290
7.392,-0.050,0.280
7.394,-0.115,0.265
7.396,-0.135,0.250
7.398,-0.150,0.235
7.400,-0.190,0.220
7.402,-0.200,0.200
7.404,-0.230,0.180
7.406,-0.215,0.155
7.408,-0.260,0.135
7.410,-0.275,0.110
7.412,-0.300,0.095
7.414,-0.320,0.080
7.416,-0.315,0.070
7.418,-0.315,0.060
7.420,-0.335,0.055
7.422,-0.340,0.050
7.424,-0.310,0.045
7.426,-0.265,0.040
7.428,-0.335,0.035
7.430,-0.360,0.030
7.432,-0.365,0.020
7.434,-0.395,0.005
7.436,-0.390,-0.005
7.438,-0.405,-0.015
7.440,-0.430,-0.025
7.442,-0.430,-0.035
7.444,-0.400,-0.040
7.446,-0.415,-0.045
7.448,-0.450,-0.050
7.450,-0.405,-0.055
7.452,-0.430,-0.055
7.454,-0.420,-0.055
7.456,-0.410,-0.055
7.458,-0.380,-0.050
7.460,-0.415,-0.050
7.462,-0.450,-0.050
7.464,-0.475,-0.055
7.466,-0.500,-0.060
7.468,-0.445,-0.060
7.470,-0.445,-0.065
7.472,-0.395,-0.065
7.474,-0.425,-0.065
7.476,-0.415,-0.065
7.478,-0.420,-0.060
7.480,-0.390,-0.055
7.482,-0.410,-0.050
7.484,-0.415,-0.040
7.486,-0.435,-0.035
7.488,-0.420,-0.035
7.490,-0.380,-0.035
7.492,-0.380,-0.035
7.494,-0.405,-0.040
7.496,-0.470,-0.045
7.498,-0.410,-0.045
7.500,-0.420,-0.050
7.502,-0.455,-0.055
7.504,-0.420,-0.055
7.506,-0.420,-0.050
7.508,-0.405,-0.045
7.510,-0.400,-0.040
7.512,-0.410,-0.030
7.514,-0.390,-0.025
7.516,-0.405,-0.015
7.518,-0.350,-0.010
7.520,-0.380,-0.010
7.522,-0.395,-0.015
7.524,-0.415,-0.020
7.526,-0.425,-0.030
7.528,-0.445,-0.045
7.530,-0.455,-0.055
7.532,-0.415,-0.065
7.534,-0.435,-0.070
7.536,-0.435,-0.075
7.538,-0.445,-0.075
7.540,-0.465,-0.070
7.542,-0.455,-0.065
7.544,-0.370,-0.055
7.546,-0.420,-0.050
7.548,-0.400,-0.040
7.550,-0.395,-0.040
7.552,-0.375,-0.035
7.554,-0.410,-0.035
7.556,-0.455,-0.040
7.558,-0.395,-0.040
7.560,-0.370,-0.045
7.562,-0.395,-0.045
7.564,-0.390,-0.045
7.566,-0.450,-0.040
7.568,-0.380,-0.035
7.570,-0.390,-0.030
7.572,-0.420,-0.030
7.574,-0.370,-0.025
7.576,-0.390,-0.025
7.578,-0.405,-0.025
7.580,-0.410,-0.025
7.582,-0.435,-0.030
7.584,-0.395,-0.035
7.586,-0.410,-0.040
7.588,-0.390,-0.040
7.590,-0.400,-0.045
7.592,-0.395,-0.045
7.594,-0.405,-0.040
7.596,-0.420,-0.040
7.598,-0.400,-0.035
7.600,-0.410,-0.035
7.602,-0.385,-0.035
7.604,-0.375,-0.040
7.606,-0.435,-0.045
7.608,-0.470,-0.045
7.610,-0.385,-0.050
7.612,-0.345,-0.050
7.614,-0.405,-0.050
7.616,-0.400,-0.050
7.618,-0.395,-0.050
7.620,-0.400,-0.050
7.622,-0.380,-0.045
7.624,-0.425,-0.045
7.626,-0.425,-0.050
7.628,-0.455,-0.050
7.630,-0.375,-0.055
7.632,-0.405,-0.060
7.634,-0.415,-0.065
7.636,-0.465,-0.065
7.638,-0.435,-0.065
7.640,-0.430,-0.065
7.642,-0.395,-0.060
7.644,-0.370,-0.060
7.646,-0.400,-0.055
7.648,-0.400,-0.055
7.650,-0.395,-0.055
7.652,-0.405,-0.060
7.654,-0.410,-0.060
7.656,-0.430,-0.065
7.658,-0.400,-0.065
7.660,-0.475,-0.060
7.662,-0.425,-0.055
7.664,-0.410,-0.050
7.666,-0.405,-0.045
7.668,-0.345,-0.035
7.670,-0.350,-0.030
7.672,-0.400,-0.030
7.674,-0.390,-0.030
7.676,-0.400,-0.040
7.678,-0.395,-0.045
7.680,-0.445,-0.055
7.682,-0.410,-0.065
7.684,-0.405,-0.070
7.686,-0.400,-0.075
7.688,-0.410,-0.075
7.690,-0.410,-0.070
7.692,-0.415,-0.065
7.694,-0.420,-0.055
7.696,-0.380,-0.050
7.698,-0.410,-0.045
7.700,-0.395,-0.045
7.702,-0.365,-0.050
7.704,-0.400,-0.055
7.706,-0.425,-0.065
7.708,-0.420,-0.070
7.710,-0.410,-0.080
7.712,-0.415,-0.085
7.714,-0.455,-0.085
7.716,-0.455,-0.085
7.718,-0.445,-0.080
7.720,-0.380,-0.075
7.722,-0.370,-0.065
7.724,-0.365,-0.060
7.726,-0.395,-0.055
7.728,-0.420,-0.050
7.730,-0.425,-0.050
7.732,-0.460,-0.050
7.734,-0.460,-0.055
7.736,-0.365,-0.060
7.738,-0.370,-0.060
7.740,-0.390,-0.065
7.742,-0.425,-0.065
7.744,-0.405,-0.060
7.746,-0.435,-0.055
7.748,-0.385,-0.050
7.750,-0.370,-0.050
7.752,-0.385,-0.050
7.754,-0.405,-0.050
7.756,-0.370,-0.050
7.758,-0.425,-0.055
7.760,-0.415,-0.055
7.762,-0.370,-0.055
7.764,-0.345,-0.050
7.766,-0.370,-0.040
7.768,-0.385,-0.025
7.770,-0.380,-0.010
7.772,-0.335,0.005
7.774,-0.285,0.015
7.776,-0.290,0.025
7.778,-0.345,0.025
7.780,-0.330,0.020
7.782,-0.305,0.005
7.784,-0.340,-0.010
7.786,-0.380,-0.030
7.788,-0.425,-0.045
7.790,-0.405,-0.060
7.792,-0.405,-0.075
7.794,-0.420,-0.080
7.796,-0.395,-0.080
7.798,-0.375,-0.080
7.800,-0.445,-0.075
7.802,-0.385,-0.065
7.804,-0.405,-0.055
7.806,-0.370,-0.050
7.808,-0.390,-0.045
7.810,-0.385,-0.045
7.812,-0.410,-0.050
7.814,-0.390,-0.055
7.816,-0.395,-0.065
7.818,-0.440,-0.080
7.820,-0.425,-0.090
7.822,-0.405,-0.095
7.824,-0.395,-0.100
7.826,-0.385,-0.100
7.828,-0.390,-0.100
7.830,-0.410,-0.095
7.832,-0.425,-0.090
7.834,-0.420,-0.085
7.836,-0.410,-0.080
7.838,-0.405,-0.080
7.840,-0.395,-0.080
7.842,-0.385,-0.080
7.844,-0.395,-0.080
7.846,-0.370,-0.080
7.848,-0.380,-0.075
7.850,-0.390,-0.075
7.852,-0.450,-0.080
7.854,-0.455,-0.085
7.856,-0.420,-0.100
7.858,-0.455,-0.115
7.860,-0.465,-0.140
7.862,-0.460,-0.160
7.864,-0.525,-0.180
7.866,-0.515,-0.190
7.868,-0.535,-0.190
7.870,-0.530,-0.170
7.872,-0.475,-0.130
7.874,-0.460,-0.080
7.876,-0.315,-0.015
7.878,-0.200,0.065
7.880,-0.150,0.145
7.882,-0.040,0.230
7.884,0.010,0.315
7.886,0.065,0.395
7.888,0.170,0.465
7.890,0.220,0.530
7.892,0.225,0.575
7.894,0.310,0.600
7.896,0.310,0.595
7.898,0.260,0.560
7.900,0.180,0.495
7.902,0.115,0.400
7.904,-0.100,0.280
7.906,-0.245,0.150
7.908,-0.320,0.020
7.910,-0.495,-0.095
7.912,-0.600,-0.185
7.914,-0.600,-0.245
7.916,-0.625,-0.270
7.918,-0.595,-0.265
7.920,-0.535,-0.235
7.922,-0.480,-0.195
7.924,-0.390,-0.150
7.926,-0.430,-0.110
7.928,-0.425,-0.080
7.930,-0.390,-0.065
7.932,-0.405,-0.060
7.934,-0.415,-0.065
7.936,-0.425,-0.070
7.938,-0.415,-0.075
7.940,-0.385,-0.075
7.942,-0.365,-0.070
7.944,-0.365,-0.065
7.946,-0.395,-0.060
7.948,-0.415,-0.050
7.950,-0.390,-0.045
7.952,-0.370,-0.045
7.954,-0.370,-0.045
7.956,-0.325,-0.045
7.958,-0.375,-0.045
7.960,-0.385,-0.045
7.962,-0.360,-0.045
7.964,-0.375,-0.040
7.966,-0.345,-0.035
7.968,-0.355,-0.030
7.970,-0.340,-0.025
7.972,-0.370,-0.025
7.974,-0.340,-0.025
7.976,-0.335,-0.025
7.978,-0.345,-0.025
7.980,-0.350,-0.025
7.982,-0.355,-0.020
7.984,-0.325,-0.020
7.986,-0.350,-0.015
7.988,-0.315,-0.010
7.990,-0.360,-0.010
7.992,-0.360,-0.010
7.994,-0.295,-0.010
7.996,-0.280,-0.015
7.998,-0.350,-0.015
8.000,-0.370,-0.015
8.002,-0.325,-0.015
8.004,-0.325,-0.015
8.006,-0.315,-0.005
8.008,-0.315,0.000
8.010,-0.340,0.005
8.012,-0.300,0.015
8.014,-0.230,0.020
8.016,-0.295,0.020
8.018,-0.365,0.020
8.020,-0.305,0.020
8.022,-0.265,0.020
8.024,-0.290,0.015
8.026,-0.320,0.015
8.028,-0.325,0.010
8.030,-0.350,0.010
8.032,-0.335,0.015
8.034,-0.255,0.020
8.036,-0.275,0.025
8.038,-0.290,0.035
8.040,-0.255,0.045
8.042,-0.255,0.055
8.044,-0.260,0.070
8.046,-0.225,0.080
8.048,-0.185,0.090
8.050,-0.220,0.095
8.052,-0.230,0.100
8.054,-0.220,0.100
8.056,-0.185,0.100
8.058,-0.245,0.100
8.060,-0.195,0.095
8.062,-0.215,0.095
8.064,-0.205,0.095
8.066,-0.230,0.100
8.068,-0.210,0.110
8.070,-0.190,0.125
8.072,-0.130,0.140
8.074,-0.140,0.155
8.076,-0.135,0.175
8.078,-0.115,0.190
8.080,-0.080,0.205
8.082,-0.070,0.220
8.084,-0.050,0.230
8.086,-0.050,0.240
8.088,-0.065,0.245
8.090,-0.060,0.250
8.092,-0.035,0.260
8.094,-0.040,0.265
8.096,-0.070,0.270
8.098,-0.025,0.275
8.100,0.000,0.280
8.102,-0.020,0.285
8.104,0.000,0.290
8.106,-0.010,0.295
8.108,-0.025,0.300
8.110,-0.035,0.305
8.112,-0.040,0.310
8.114,0.005,0.310
8.116,0.015,0.315
8.118,0.010,0.315
8.120,0.035,0.315
8.122,0.020,0.310
8.124,-0.055,0.300
8.126,-0.025,0.290
8.128,-0.010,0.280
8.130,-0.025,0.260
8.132,-0.050,0.240
8.134,-0.145,0.220
8.136,-0.120,0.195
8.138,-0.165,0.170
8.140,-0.135,0.150
8.142,-0.195,0.130
8.144,-0.205,0.115
8.146,-0.165,0.105
8.148,-0.210,0.095
8.150,-0.265,0.085
8.152,-0.215,0.080
8.154,-0.255,0.070
8.156,-0.245,0.065
8.158,-0.275,0.055
8.160,-0.235,0.045
8.162,-0.250,0.035
8.164,-0.285,0.020
8.166,-0.280,0.010
8.168,-0.290,0.000
8.170,-0.335,-0.015
8.172,-0.345,-0.020
8.174,-0.350,-0.030
8.176,-0.375,-0.035
8.178,-0.340,-0.035
8.180,-0.305,-0.040
8.182,-0.320,-0.035
8.184,-0.330,-0.035
8.186,-0.325,-0.030
8.188,-0.315,-0.030
8.190,-0.335,-0.030
8.192,-0.345,-0.025
8.194,-0.360,-0.030
8.196,-0.335,-0.030
8.198,-0.360,-0.035
8.200,-0.295,-0.040
8.202,-0.330,-0.045
8.204,-0.355,-0.055
8.206,-0.375,-0.060
8.208,-0.445,-0.065
8.210,-0.400,-0.070
8.212,-0.360,-0.075
8.214,-0.375,-0.080
8.216,-0.375,-0.080
8.218,-0.355,-0.080
8.220,-0.345,-0.075
8.222,-0.340,-0.070
8.224,-0.330,-0.065
8.226,-0.340,-0.060
8.228,-0.305,-0.055
8.230,-0.365,-0.055
8.232,-0.430,-0.055
8.234,-0.375,-0.055
8.236,-0.395,-0.060
8.238,-0.390,-0.065
8.240,-0.355,-0.070
8.242,-0.355,-0.070
8.244,-0.345,-0.070
8.246,-0.365,-0.070
8.248,-0.350,-0.065
8.250,-0.345,-0.055
8.252,-0.345,-0.050
8.254,-0.345,-0.040
8.256,-0.360,-0.035
8.258,-0.340,-0.030
8.260,-0.285,-0.025
8.262,-0.305,-0.025
8.264,-0.320,-0.025
8.266,-0.325,-0.030
8.268,-0.335,-0.035
8.270,-0.345,-0.040
8.272,-0.350,-0.045
8.274,-0.335,-0.050
8.276,-0.365,-0.055
8.278,-0.350,-0.055
8.280,-0.330,-0.055
8.282,-0.350,-0.050
8.284,-0.320,-0.045
8.286,-0.280,-0.040
8.288,-0.325,-0.035
8.290,-0.390,-0.030
8.292,-0.355,-0.030
8.294,-0.310,-0.035
8.296,-0.330,-0.040
8.298,-0.350,-0.045
8.300,-0.305,-0.050
8.302,-0.360,-0.055
8.304,-0.350,-0.060
8.306,-0.360,-0.060
8.308,-0.380,-0.055
8.310,-0.345,-0.050
8.312,-0.325,-0.045
8.314,-0.335,-0.040
8.316,-0.340,-0.035
8.318,-0.310,-0.035
8.320,-0.295,-0.040
8.322,-0.320,-0.040
8.324,-0.375,-0.045
8.326,-0.320,-0.050
8.328,-0.365,-0.050
8.330,-0.365,-0.055
8.332,-0.380,-0.060
8.334,-0.315,-0.060
8.336,-0.370,-0.065
8.338,-0.340,-0.065
8.340,-0.340,-0.060
8.342,-0.320,-0.060
8.344,-0.350,-0.050
8.346,-0.340,-0.045
8.348,-0.370,-0.040
8.350,-0.315,-0.035
8.352,-0.320,-0.030
8.354,-0.340,-0.030
8.356,-0.305,-0.035
8.358,-0.375,-0.045
8.360,-0.335,-0.055
8.362,-0.330,-0.065
8.364,-0.325,-0.070
8.366,-0.320,-0.075
8.368,-0.365,-0.070
8.370,-0.360,-0.070
8.372,-0.365,-0.065
8.374,-0.370,-0.055
8.376,-0.385,-0.055
8.378,-0.330,-0.055
8.380,-0.335,-0.055
8.382,-0.340,-0.065
8.384,-0.380,-0.070
8.386,-0.375,-0.080
8.388,-0.380,-0.080
8.390,-0.360,-0.085
8.392,-0.350,-0.080
8.394,-0.350,-0.075
8.396,-0.330,-0.070
8.398,-0.325,-0.065
8.400,-0.370,-0.060
8.402,-0.340,-0.055
8.404,-0.345,-0.055
8.406,-0.340,-0.055
8.408,-0.355,-0.060
8.410,-0.340,-0.065
8.412,-0.355,-0.065
8.414,-0.375,-0.065
8.416,-0.395,-0.060
8.418,-0.320,-0.060
8.420,-0.350,-0.060
8.422,-0.335,-0.060
8.424,-0.330,-0.060
8.426,-0.330,-0.065
8.428,-0.390,-0.070
8.430,-0.385,-0.070
8.432,-0.385,-0.075
8.434,-0.390,-0.075
8.436,-0.340,-0.070
8.438,-0.300,-0.070
8.440,-0.310,-0.065
8.442,-0.355,-0.065
8.444,-0.395,-0.065
8.446,-0.370,-0.065
8.448,-0.335,-0.070
8.450,-0.325,-0.075
8.452,-0.305,-0.080
8.454,-0.370,-0.080
8.456,-0.375,-0.080
8.458,-0.330,-0.080
8.460,-0.320,-0.080
8.462,-0.355,-0.075
8.464,-0.365,-0.075
8.466,-0.385,-0.075
8.468,-0.375,-0.075
8.470,-0.385,-0.080
8.472,-0.350,-0.085
8.474,-0.385,-0.090
8.476,-0.365,-0.090
8.478,-0.285,-0.085
8.480,-0.340,-0.080
8.482,-0.340,-0.075
8.484,-0.345,-0.065
8.486,-0.365,-0.060
8.488,-0.360,-0.055
8.490,-0.370,-0.055
8.492,-0.365,-0.060
8.494,-0.320,-0.065
8.496,-0.345,-0.070
8.498,-0.355,-0.075
8.500,-0.350,-0.075
8.502,-0.330,-0.070
8.504,-0.295,-0.060
8.506,-0.335,-0.050
8.508,-0.315,-0.035
8.510,-0.290,-0.020
8.512,-0.275,-0.005
8.514,-0.245,0.000
8.516,-0.255,0.005
8.518,-0.250,0.005
8.520,-0.285,0.005
8.522,-0.325,0.000
8.524,-0.310,-0.010
8.526,-0.285,-0.015
8.528,-0.290,-0.025
8.530,-0.290,-0.030
8.532,-0.310,-0.040
8.534,-0.370,-0.050
8.536,-0.360,-0.060
8.538,-0.370,-0.075
8.540,-0.380,-0.085
8.542,-0.395,-0.095
8.544,-0.395,-0.105
8.546,-0.375,-0.105
8.548,-0.360,-0.105
8.550,-0.375,-0.095
8.552,-0.330,-0.085
8.554,-0.330,-0.075
8.556,-0.300,-0.065
8.558,-0.290,-0.055
8.560,-0.315,-0.050
8.562,-0.355,-0.045
8.564,-0.385,-0.050
8.566,-0.385,-0.055
8.568,-0.365,-0.065
8.570,-0.355,-0.075
8.572,-0.355,-0.085
8.574,-0.360,-0.090
8.576,-0.345,-0.090
8.578,-0.315,-0.090
8.580,-0.335,-0.090
8.582,-0.355,-0.080
8.584,-0.385,-0.075
8.586,-0.365,-0.070
8.588,-0.375,-0.065
8.590,-0.315,-0.065
8.592,-0.325,-0.070
8.594,-0.385,-0.080
8.596,-0.365,-0.090
8.598,-0.360,-0.110
8.600,-0.380,-0.130
8.602,-0.430,-0.145
8.604,-0.480,-0.165
8.606,-0.500,-0.175
8.608,-0.525,-0.175
8.610,-0.455,-0.165
8.612,-0.420,-0.145
8.614,-0.425,-0.110
8.616,-0.290,-0.060
8.618,-0.220,0.000
8.620,-0.155,0.075
8.622,-0.070,0.155
8.624,0.005,0.240
8.626,0.025,0.325
8.628,0.170,0.405
8.630,0.200,0.470
8.632,0.265,0.525
8.634,0.320,0.555
8.636,0.340,0.560
8.638,0.380,0.535
8.640,0.280,0.480
8.642,0.140,0.400
8.644,0.025,0.295
8.646,-0.185,0.180
8.648,-0.270,0.060
8.650,-0.420,-0.055
8.652,-0.505,-0.150
8.654,-0.525,-0.220
8.656,-0.535,-0.260
8.658,-0.520,-0.270
8.660,-0.480,-0.260
8.662,-0.460,-0.230
8.664,-0.425,-0.190
8.666,-0.415,-0.150
8.668,-0.360,-0.115
8.670,-0.355,-0.090
8.672,-0.340,-0.075
8.674,-0.355,-0.070
8.676,-0.330,-0.075
8.678,-0.330,-0.080
8.680,-0.330,-0.085
8.682,-0.350,-0.085
8.684,-0.360,-0.085
8.686,-0.345,-0.080
8.688,-0.320,-0.075
8.690,-0.310,-0.070
8.692,-0.335,-0.065
8.694,-0.395,-0.060
8.696,-0.350,-0.060
8.698,-0.310,-0.060
8.700,-0.315,-0.060
8.702,-0.325,-0.060
8.704,-0.320,-0.055
8.706,-0.275,-0.055
8.708,-0.300,-0.050
8.710,-0.300,-0.045
8.712,-0.325,-0.040
8.714,-0.315,-0.035
8.716,-0.280,-0.030
8.718,-0.275,-0.030
8.720,-0.335,-0.025
8.722,-0.285,-0.025
8.724,-0.295,-0.025
8.726,-0.315,-0.030
8.728,-0.275,-0.030
8.730,-0.300,-0.030
8.732,-0.320,-0.035
8.734,-0.295,-0.035
8.736,-0.265,-0.030
8.738,-0.300,-0.030
8.740,-0.265,-0.020
8.742,-0.275,-0.015
8.744,-0.270,-0.010
8.746,-0.280,-0.005
8.748,-0.265,0.000
8.750,-0.245,0.000
8.752,-0.270,0.000
8.754,-0.285,-0.005
8.756,-0.280,-0.010
8.758,-0.250,-0.010
8.760,-0.230,-0.015
8.762,-0.270,-0.010
8.764,-0.250,-0.005
8.766,-0.250,0.000
8.768,-0.240,0.005
8.770,-0.230,0.010
8.772,-0.270,0.015
8.774,-0.240,0.020
8.776,-0.230,0.025
8.778,-0.205,0.025
8.780,-0.200,0.030
8.782,-0.185,0.035
8.784,-0.210,0.040
8.786,-0.205,0.050
8.788,-0.190,0.060
8.790,-0.195,0.070
8.792,-0.205,0.080
8.794,-0.205,0.085
8.796,-0.145,0.090
8.798,-0.135,0.095
8.800,-0.145,0.095
8.802,-0.155,0.095
8.804,-0.150,0.100
8.806,-0.175,0.110
8.808,-0.155,0.120
8.810,-0.115,0.130
8.812,-0.120,0.145
8.814,-0.130,0.160
8.816,-0.050,0.175
8.818,-0.045,0.185
8.820,-0.045,0.190
8.822,-0.105,0.195
8.824,-0.075,0.195
8.826,-0.060,0.200
8.828,-0.040,0.205
8.830,0.030,0.215
8.832,-0.020,0.225
8.834,-0.010,0.240
8.836,0.005,0.250
8.838,-0.015,0.265
8.840,0.010,0.275
8.842,0.015,0.280
8.844,0.020,0.280
8.846,0.050,0.285
8.848,0.030,0.285
8.850,0.045,0.285
8.852,0.050,0.290
8.854,0.070,0.300
8.856,0.095,0.305
8.858,0.070,0.315
8.860,0.040,0.320
8.862,0.040,0.320
8.864,0.045,0.315
8.866,0.045,0.305
8.868,0.015,0.290
8.870,0.010,0.265
8.872,-0.025,0.245
8.874,-0.015,0.220
8.876,-0.070,0.200
8.878,-0.115,0.180
8.880,-0.085,0.165
8.882,-0.055,0.150
8.884,-0.110,0.140
8.886,-0.145,0.130
8.888,-0.150,0.120
8.890,-0.175,0.105
8.892,-0.190,0.095
8.894,-0.195,0.085
8.896,-0.185,0.070
8.898,-0.195,0.060
8.900,-0.210,0.045
8.902,-0.180,0.035
8.904,-0.245,0.025
8.906,-0.230,0.015
8.908,-0.260,0.010
8.910,-0.240,0.000
8.912,-0.275,-0.005
8.914,-0.265,-0.015
8.916,-0.250,-0.020
8.918,-0.275,-0.025
8.920,-0.300,-0.030
8.922,-0.310,-0.035
8.924,-0.305,-0.035
8.926,-0.300,-0.035
8.928,-0.290,-0.040
8.930,-0.280,-0.040
8.932,-0.330,-0.045
8.934,-0.265,-0.050
8.936,-0.270,-0.055
8.938,-0.350,-0.060
8.940,-0.335,-0.065
8.942,-0.310,-0.065
8.944,-0.330,-0.070
8.946,-0.330,-0.070
8.948,-0.340,-0.065
8.950,-0.315,-0.060
8.952,-0.325,-0.055
8.954,-0.235,-0.050
8.956,-0.315,-0.050
8.958,-0.335,-0.050
8.960,-0.345,-0.055
8.962,-0.305,-0.060
8.964,-0.300,-0.065
8.966,-0.360,-0.070
8.968,-0.325,-0.075
8.970,-0.275,-0.080
8.972,-0.310,-0.080
8.974,-0.350,-0.075
8.976,-0.355,-0.070
8.978,-0.300,-0.065
8.980,-0.275,-0.060
8.982,-0.280,-0.055
8.984,-0.330,-0.055
8.986,-0.325,-0.055
8.988,-0.295,-0.055
8.990,-0.270,-0.055
8.992,-0.305,-0.050
8.994,-0.245,-0.050
8.996,-0.305,-0.045
8.998,-0.290,-0.040
9.000,-0.280,-0.035
9.002,-0.285,-0.035
9.004,-0.300,-0.035
9.006,-0.330,-0.035
9.008,-0.295,-0.040
9.010,-0.305,-0.045
9.012,-0.310,-0.055
9.014,-0.285,-0.055
9.016,-0.265,-0.060
9.018,-0.295,-0.055
9.020,-0.280,-0.050
9.022,-0.280,-0.045
9.024,-0.265,-0.035
9.026,-0.280,-0.030
9.028,-0.280,-0.025
9.030,-0.270,-0.025
9.032,-0.275,-0.025
9.034,-0.285,-0.030
9.036,-0.310,-0.035
9.038,-0.295,-0.040
9.040,-0.295,-0.050
9.042,-0.300,-0.055
9.044,-0.320,-0.060
9.046,-0.310,-0.060
9.048,-0.330,-0.065
9.050,-0.330,-0.065
9.052,-0.305,-0.065
9.054,-0.285,-0.065
9.056,-0.270,-0.065
9.058,-0.250,-0.065
9.060,-0.300,-0.065
9.062,-0.300,-0.060
9.064,-0.350,-0.055
9.066,-0.305,-0.055
9.068,-0.305,-0.050
9.070,-0.305,-0.045
9.072,-0.280,-0.045
9.074,-0.260,-0.045
9.076,-0.285,-0.045
9.078,-0.295,-0.045
9.080,-0.330,-0.045
9.082,-0.305,-0.050
9.084,-0.330,-0.050
9.086,-0.290,-0.050
9.088,-0.260,-0.050
9.090,-0.260,-0.050
9.092,-0.280,-0.050
9.094,-0.310,-0.050
9.096,-0.315,-0.050
9.098,-0.350,-0.050
9.100,-0.295,-0.050
9.102,-0.295,-0.055
9.104,-0.300,-0.055
9.106,-0.310,-0.055
9.108,-0.295,-0.060
9.110,-0.335,-0.060
9.112,-0.290,-0.065
9.114,-0.290,-0.065
9.116,-0.270,-0.070
9.118,-0.310,-0.065
9.120,-0.315,-0.065
9.122,-0.315,-0.065
9.124,-0.290,-0.060
9.126,-0.295,-0.055
9.128,-0.310,-0.055
9.130,-0.305,-0.055
9.132,-0.270,-0.055
9.134,-0.225,-0.055
9.136,-0.295,-0.060
9.138,-0.345,-0.065
9.140,-0.325,-0.065
9.142,-0.300,-0.070
9.144,-0.335,-0.075
9.146,-0.315,-0.075
9.148,-0.260,-0.075
9.150,-0.295,-0.075
9.152,-0.340,-0.070
9.154,-0.330,-0.065
9.156,-0.270,-0.065
9.158,-0.300,-0.060
9.160,-0.315,-0.060
9.162,-0.315,-0.055
9.164,-0.315,-0.060
9.166,-0.315,-0.060
9.168,-0.280,-0.065
9.170,-0.320,-0.065
9.172,-0.275,-0.070
9.174,-0.310,-0.075
9.176,-0.340,-0.080
9.178,-0.315,-0.080
9.180,-0.315,-0.080
9.182,-0.310,-0.080
9.184,-0.315,-0.080
9.186,-0.300,-0.075
9.188,-0.265,-0.075
9.190,-0.320,-0.070
9.192,-0.285,-0.065
9.194,-0.320,-0.065
9.196,-0.320,-0.065
9.198,-0.300,-0.065
9.200,-0.295,-0.060
9.202,-0.305,-0.060
9.204,-0.300,-0.060
9.206,-0.305,-0.060
9.208,-0.275,-0.060
9.210,-0.310,-0.060
9.212,-0.285,-0.060
9.214,-0.270,-0.055
9.216,-0.265,-0.055
9.218,-0.315,-0.055
9.220,-0.335,-0.055
9.222,-0.315,-0.060
9.224,-0.320,-0.065
9.226,-0.300,-0.070
9.228,-0.300,-0.075
9.230,-0.310,-0.075
9.232,-0.290,-0.075
9.234,-0.285,-0.075
9.236,-0.280,-0.070
9.238,-0.305,-0.060
9.240,-0.260,-0.050
9.242,-0.260,-0.045
9.244,-0.265,-0.040
9.246,-0.290,-0.040
9.248,-0.320,-0.045
9.250,-0.335,-0.050
9.252,-0.290,-0.055
9.254,-0.285,-0.055
9.256,-0.255,-0.050
9.258,-0.255,-0.040
9.260,-0.250,-0.030
9.262,-0.275,-0.015
9.264,-0.215,0.000
9.266,-0.190,0.010
9.268,-0.225,0.015
9.270,-0.245,0.010
9.272,-0.225,0.000
9.274,-0.200,-0.015
9.276,-0.300,-0.030
9.278,-0.300,-0.045
9.280,-0.290,-0.055
9.282,-0.295,-0.060
9.284,-0.275,-0.060
9.286,-0.275,-0.050
9.288,-0.245,-0.045
9.290,-0.245,-0.035
9.292,-0.275,-0.035
9.294,-0.310,-0.040
9.296,-0.325,-0.045
9.298,-0.300,-0.055
9.300,-0.325,-0.070
9.302,-0.335,-0.080
9.304,-0.300,-0.085
9.306,-0.275,-0.085
9.308,-0.280,-0.085
9.310,-0.265,-0.080
9.312,-0.275,-0.075
9.314,-0.285,-0.070
9.316,-0.295,-0.065
9.318,-0.300,-0.065
9.320,-0.305,-0.065
9.322,-0.345,-0.070
9.324,-0.310,-0.075
9.326,-0.285,-0.075
9.328,-0.310,-0.075
9.330,-0.265,-0.075
9.332,-0.285,-0.070
9.334,-0.300,-0.070
9.336,-0.295,-0.065
9.338,-0.300,-0.065
9.340,-0.300,-0.065
9.342,-0.330,-0.065
9.344,-0.295,-0.070
9.346,-0.300,-0.080
9.348,-0.320,-0.090
9.350,-0.355,-0.105
9.352,-0.330,-0.125
9.354,-0.370,-0.140
9.356,-0.410,-0.160
9.358,-0.440,-0.175
9.360,-0.445,-0.185
9.362,-0.460,-0.180
9.364,-0.430,-0.165
9.366,-0.350,-0.135
9.368,-0.295,-0.085
9.370,-0.195,-0.025
9.372,-0.090,0.055
9.374,-0.090,0.145
9.376,0.070,0.240
9.378,0.090,0.335
9.380,0.185,0.425
9.382,0.285,0.500
9.384,0.370,0.560
9.386,0.420,0.600
9.388,0.445,0.610
9.390,0.405,0.590
9.392,0.410,0.540
9.394,0.275,0.465
9.396,0.105,0.360
9.398,-0.030,0.245
9.400,-0.155,0.120
9.402,-0.285,0.000
9.404,-0.415,-0.100
9.406,-0.460,-0.180
9.408,-0.535,-0.230
9.410,-0.450,-0.250
9.412,-0.375,-0.240
9.414,-0.340,-0.215
9.416,-0.345,-0.175
9.418,-0.340,-0.135
9.420,-0.325,-0.100
9.422,-0.355,-0.075
9.424,-0.345,-0.060
9.426,-0.285,-0.055
9.428,-0.280,-0.060
9.430,-0.275,-0.060
9.432,-0.255,-0.065
9.434,-0.220,-0.060
9.436,-0.255,-0.050
9.438,-0.240,-0.040
9.440,-0.230,-0.030
9.442,-0.270,-0.020
9.444,-0.260,-0.020
9.446,-0.295,-0.025
9.448,-0.305,-0.040
9.450,-0.280,-0.050
9.452,-0.250,-0.065
9.454,-0.310,-0.070
9.456,-0.325,-0.075
9.458,-0.230,-0.070
9.460,-0.255,-0.060
9.462,-0.275,-0.045
9.464,-0.275,-0.035
9.466,-0.225,-0.025
9.468,-0.240,-0.015
9.470,-0.245,-0.015
9.472,-0.225,-0.015
9.474,-0.250,-0.015
9.476,-0.250,-0.020
9.478,-0.185,-0.025
9.480,-0.225,-0.025
9.482,-0.250,-0.025
9.484,-0.250,-0.030
9.486,-0.320,-0.030
9.488,-0.255,-0.030
9.490,-0.255,-0.030
9.492,-0.220,-0.025
9.494,-0.185,-0.025
9.496,-0.220,-0.020
9.498,-0.220,-0.015
9.500,-0.195,-0.005
9.502,-0.240,0.000
9.504,-0.220,0.005
9.506,-0.235,0.010
9.508,-0.230,0.015
9.510,-0.170,0.015
9.512,-0.145,0.015
9.514,-0.195,0.010
9.516,-0.200,0.015
9.518,-0.190,0.015
9.520,-0.225,0.020
9.522,-0.200,0.030
9.524,-0.220,0.035
9.526,-0.160,0.045
9.528,-0.195,0.050
9.530,-0.180,0.050
9.532,-0.140,0.050
9.534,-0.110,0.050
9.536,-0.130,0.050
9.538,-0.140,0.050
9.540,-0.155,0.055
9.542,-0.170,0.065
9.544,-0.110,0.075
9.546,-0.155,0.085
9.548,-0.165,0.095
9.550,-0.095,0.110
9.552,-0.105,0.115
9.554,-0.085,0.120
9.556,-0.075,0.125
9.558,-0.045,0.130
9.560,-0.100,0.135
9.562,-0.065,0.140
9.564,-0.015,0.150
9.566,-0.080,0.160
9.568,-0.055,0.170
9.570,-0.015,0.180
9.572,-0.015,0.190
9.574,-0.005,0.200
9.576,-0.050,0.205
9.578,0.020,0.215
9.580,0.025,0.220
9.582,0.025,0.230
9.584,0.020,0.240
9.586,0.040,0.250
9.588,0.080,0.255
9.590,0.055,0.265
9.592,0.010,0.270
9.594,0.070,0.275
9.596,0.080,0.280
9.598,0.110,0.285
9.600,0.100,0.290
9.602,0.085,0.295
9.604,0.075,0.300
9.606,0.110,0.310
9.608,0.070,0.315
9.610,0.125,0.320
9.612,0.115,0.320
9.614,0.130,0.320
9.616,0.120,0.310
9.618,0.065,0.300
9.620,0.040,0.280
9.622,0.045,0.265
9.624,0.060,0.245
9.626,0.035,0.225
9.628,-0.020,0.205
9.630,-0.015,0.185
9.632,-0.055,0.170
9.634,-0.065,0.160
9.636,-0.075,0.150
9.638,-0.125,0.140
9.640,-0.095,0.130
9.642,-0.075,0.125
9.644,-0.095,0.115
9.646,-0.085,0.110
9.648,-0.155,0.100
9.650,-0.080,0.085
9.652,-0.165,0.075
9.654,-0.175,0.055
9.656,-0.110,0.040
9.658,-0.170,0.020
9.660,-0.265,0.005
9.662,-0.240,-0.010
9.664,-0.230,-0.020
9.666,-0.245,-0.030
9.668,-0.265,-0.035
9.670,-0.230,-0.040
9.672,-0.245,-0.045
9.674,-0.280,-0.045
9.676,-0.250,-0.045
9.678,-0.250,-0.045
9.680,-0.260,-0.045
9.682,-0.240,-0.045
9.684,-0.225,-0.045
9.686,-0.240,-0.045
9.688,-0.260,-0.040
9.690,-0.250,-0.040
9.692,-0.275,-0.040
9.694,-0.215,-0.045
9.696,-0.250,-0.050
9.698,-0.265,-0.055
9.700,-0.310,-0.065
9.702,-0.285,-0.075
9.704,-0.310,-0.080
9.706,-0.280,-0.080
9.708,-0.275,-0.080
9.710,-0.240,-0.080
9.712,-0.230,-0.075
9.714,-0.225,-0.065
9.716,-0.260,-0.060
9.718,-0.285,-0.050
9.720,-0.295,-0.045
9.722,-0.255,-0.045
9.724,-0.245,-0.040
9.726,-0.270,-0.035
9.728,-0.200,-0.030
9.730,-0.180,-0.030
9.732,-0.155,-0.025
9.734,-0.200,-0.025
9.736,-0.250,-0.030
9.738,-0.245,-0.035
9.740,-0.280,-0.045
9.742,-0.325,-0.060
9.744,-0.300,-0.075
9.746,-0.305,-0.090
9.748,-0.305,-0.100
9.750,-0.265,-0.105
9.752,-0.235,-0.100
9.754,-0.230,-0.095
9.756,-0.270,-0.080
9.758,-0.265,-0.070
9.760,-0.255,-0.055
9.762,-0.255,-0.045
9.764,-0.270,-0.035
9.766,-0.275,-0.035
9.768,-0.230,-0.035
9.770,-0.220,-0.035
9.772,-0.225,-0.035
9.774,-0.210,-0.035
9.776,-0.190,-0.035
9.778,-0.220,-0.030
9.780,-0.190,-0.030
9.782,-0.205,-0.030
9.784,-0.245,-0.030
9.786,-0.280,-0.040
9.788,-0.300,-0.045
9.790,-0.275,-0.055
9.792,-0.265,-0.060
9.794,-0.255,-0.065
9.796,-0.235,-0.065
9.798,-0.250,-0.060
9.800,-0.215,-0.050
9.802,-0.165,-0.040
9.804,-0.220,-0.030
9.806,-0.235,-0.030
9.808,-0.240,-0.030
9.810,-0.230,-0.040
9.812,-0.255,-0.050
9.814,-0.260,-0.060
9.816,-0.255,-0.070
9.818,-0.240,-0.070
9.820,-0.225,-0.065
9.822,-0.220,-0.055
9.824,-0.200,-0.040
9.826,-0.235,-0.025
9.828,-0.195,-0.015
9.830,-0.160,-0.005
9.832,-0.225,-0.005
9.834,-0.260,-0.015
9.836,-0.255,-0.025
9.838,-0.260,-0.040
9.840,-0.270,-0.055
9.842,-0.250,-0.065
9.844,-0.250,-0.070
9.846,-0.250,-0.070
9.848,-0.270,-0.065
9.850,-0.235,-0.060
9.852,-0.250,-0.050
9.854,-0.240,-0.045
9.856,-0.235,-0.045
9.858,-0.285,-0.045
9.860,-0.245,-0.050
9.862,-0.240,-0.055
9.864,-0.220,-0.060
9.866,-0.245,-0.065
9.868,-0.235,-0.065
9.870,-0.225,-0.060
9.872,-0.240,-0.055
9.874,-0.265,-0.050
9.876,-0.225,-0.045
9.878,-0.260,-0.045
9.880,-0.275,-0.045
9.882,-0.285,-0.050
9.884,-0.240,-0.055
9.886,-0.205,-0.060
9.888,-0.200,-0.060
9.890,-0.215,-0.065
9.892,-0.255,-0.065
9.894,-0.280,-0.065
9.896,-0.275,-0.065
9.898,-0.290,-0.065
9.900,-0.230,-0.065
9.902,-0.265,-0.065
9.904,-0.280,-0.070
9.906,-0.240,-0.070
9.908,-0.215,-0.065
9.910,-0.200,-0.060
9.912,-0.175,-0.055
9.914,-0.215,-0.045
9.916,-0.230,-0.040
9.918,-0.230,-0.030
9.920,-0.240,-0.025
9.922,-0.245,-0.025
9.924,-0.280,-0.030
9.926,-0.265,-0.040
9.928,-0.205,-0.050
9.930,-0.225,-0.065
9.932,-0.200,-0.075
9.934,-0.185,-0.080
9.936,-0.265,-0.085
9.938,-0.270,-0.085
9.940,-0.260,-0.080
9.942,-0.275,-0.070
9.944,-0.285,-0.065
9.946,-0.245,-0.060
9.948,-0.230,-0.055
9.950,-0.255,-0.055
9.952,-0.230,-0.055
9.954,-0.185,-0.055
9.956,-0.195,-0.060
9.958,-0.270,-0.060
9.960,-0.240,-0.060
9.962,-0.250,-0.060
9.964,-0.260,-0.055
9.966,-0.225,-0.055
9.968,-0.220,-0.055
9.970,-0.255,-0.060
9.972,-0.285,-0.065
9.974,-0.285,-0.070
9.976,-0.260,-0.080
9.978,-0.255,-0.085
9.980,-0.245,-0.085
9.982,-0.245,-0.085
9.984,-0.240,-0.080
9.986,-0.240,-0.070
9.988,-0.210,-0.060
9.990,-0.215,-0.050
9.992,-0.250,-0.045
9.994,-0.210,-0.045
9.996,-0.250,-0.045
9.998,-0.275,-0.055
