'Elapsed time','ECG I','ECG I filtered'
'seconds','mV','mV'
0.000,-0.280,-0.040
0.002,-0.330,-0.040
0.004,-0.385,-0.030
0.006,-0.335,-0.020
0.008,-0.270,-0.005
0.010,-0.190,0.020
0.012,-0.110,0.040
0.014,-0.030,0.050
0.016,-0.100,0.055
0.018,-0.165,0.050
0.020,-0.270,0.030
0.022,-0.380,0.005
0.024,-0.420,-0.020
0.026,-0.375,-0.045
0.028,-0.300,-0.055
0.030,-0.210,-0.055
0.032,-0.160,-0.045
0.034,-0.085,-0.025
0.036,-0.120,0.000
0.038,-0.225,0.025
0.040,-0.245,0.040
0.042,-0.280,0.050
0.044,-0.330,0.050
0.046,-0.315,0.045
0.048,-0.260,0.030
0.050,-0.210,0.015
0.052,-0.165,0.005
0.054,-0.110,-0.005
0.056,-0.165,-0.010
0.058,-0.230,-0.015
0.060,-0.260,-0.015
0.062,-0.355,-0.010
0.064,-0.415,-0.005
0.066,-0.345,0.000
0.068,-0.240,0.005
0.070,-0.160,0.015
0.072,-0.095,0.025
0.074,-0.075,0.035
0.076,-0.085,0.045
0.078,-0.155,0.050
0.080,-0.245,0.050
0.082,-0.300,0.045
0.084,-0.350,0.040
0.086,-0.330,0.025
0.088,-0.260,0.010
0.090,-0.220,-0.010
0.092,-0.170,-0.025
0.094,-0.170,-0.035
0.096,-0.185,-0.035
0.098,-0.250,-0.035
0.100,-0.285,-0.025
0.102,-0.360,-0.010
0.104,-0.340,0.005
0.106,-0.310,0.015
0.108,-0.225,0.025
0.110,-0.160,0.030
0.112,-0.070,0.030
0.114,-0.080,0.025
0.116,-0.120,0.020
0.118,-0.245,0.010
0.120,-0.300,0.000
0.122,-0.370,-0.005
0.124,-0.355,-0.010
0.126,-0.310,-0.010
0.128,-0.230,-0.010
0.130,-0.205,0.000
0.132,-0.085,0.005
0.134,-0.075,0.015
0.136,-0.140,0.020
0.138,-0.220,0.025
0.140,-0.250,0.025
0.142,-0.330,0.025
0.144,-0.365,0.015
0.146,-0.355,0.005
0.148,-0.260,-0.005
0.150,-0.205,-0.015
0.152,-0.125,-0.025
0.154,-0.140,-0.025
0.156,-0.190,-0.025
0.158,-0.255,-0.015
0.160,-0.280,0.000
0.162,-0.350,0.015
0.164,-0.315,0.030
0.166,-0.285,0.040
0.168,-0.190,0.045
0.170,-0.150,0.040
0.172,-0.060,0.035
0.174,-0.100,0.020
0.176,-0.205,0.000
0.178,-0.285,-0.020
0.180,-0.305,-0.040
0.182,-0.440,-0.055
0.184,-0.415,-0.060
0.186,-0.360,-0.060
0.188,-0.260,-0.055
0.190,-0.220,-0.045
0.192,-0.120,-0.030
0.194,-0.135,-0.020
0.196,-0.180,-0.005
0.198,-0.280,0.000
0.200,-0.300,0.000
0.202,-0.375,0.000
0.204,-0.345,-0.005
0.206,-0.315,-0.010
0.208,-0.255,-0.015
0.210,-0.180,-0.015
0.212,-0.100,-0.015
0.214,-0.135,-0.015
0.216,-0.165,-0.010
0.218,-0.245,-0.005
0.220,-0.265,-0.005
0.222,-0.370,0.000
0.224,-0.380,-0.005
0.226,-0.330,-0.005
0.228,-0.240,-0.005
0.230,-0.180,-0.005
0.232,-0.090,-0.005
0.234,-0.115,0.000
0.236,-0.185,0.000
0.238,-0.235,0.005
0.240,-0.255,0.005
0.242,-0.375,0.005
0.244,-0.380,0.000
0.246,-0.365,-0.010
0.248,-0.250,-0.015
0.250,-0.200,-0.020
0.252,-0.120,-0.025
0.254,-0.090,-0.025
0.256,-0.170,-0.025
0.258,-0.295,-0.020
0.260,-0.320,-0.015
0.262,-0.385,-0.010
0.264,-0.365,-0.010
0.266,-0.320,-0.010
0.268,-0.275,-0.015
0.270,-0.230,-0.025
0.272,-0.140,-0.030
0.274,-0.150,-0.040
0.276,-0.210,-0.040
0.278,-0.275,-0.040
0.280,-0.325,-0.040
0.282,-0.385,-0.030
0.284,-0.360,-0.025
0.286,-0.335,-0.015
0.288,-0.245,-0.010
0.290,-0.190,-0.005
0.292,-0.120,0.000
0.294,-0.125,0.000
0.296,-0.180,-0.005
0.298,-0.240,-0.005
0.300,-0.320,-0.010
0.302,-0.360,-0.015
0.304,-0.375,-0.025
0.306,-0.315,-0.030
0.308,-0.250,-0.040
0.310,-0.260,-0.045
0.312,-0.180,-0.050
0.314,-0.165,-0.050
0.316,-0.225,-0.050
0.318,-0.310,-0.045
0.320,-0.325,-0.035
0.322,-0.360,-0.025
0.324,-0.320,-0.020
0.326,-0.280,-0.015
0.328,-0.220,-0.015
0.330,-0.210,-0.015
0.332,-0.190,-0.025
0.334,-0.165,-0.030
0.336,-0.250,-0.035
0.338,-0.295,-0.040
0.340,-0.315,-0.040
0.342,-0.315,-0.035
0.344,-0.310,-0.030
0.346,-0.310,-0.025
0.348,-0.285,-0.025
0.350,-0.265,-0.025
0.352,-0.205,-0.030
0.354,-0.210,-0.040
0.356,-0.255,-0.050
0.358,-0.295,-0.055
0.360,-0.365,-0.060
0.362,-0.380,-0.065
0.364,-0.345,-0.060
0.366,-0.270,-0.050
0.368,-0.270,-0.040
0.370,-0.200,-0.030
0.372,-0.145,-0.020
0.374,-0.175,-0.010
0.376,-0.255,-0.005
0.378,-0.255,-0.005
0.380,-0.325,-0.005
0.382,-0.345,-0.010
0.384,-0.350,-0.015
0.386,-0.280,-0.015
0.388,-0.215,-0.020
0.390,-0.135,-0.025
0.392,-0.120,-0.030
0.394,-0.145,-0.035
0.396,-0.270,-0.040
0.398,-0.355,-0.045
0.400,-0.440,-0.050
0.402,-0.425,-0.050
0.404,-0.390,-0.050
0.406,-0.270,-0.045
0.408,-0.220,-0.040
0.410,-0.120,-0.030
0.412,-0.120,-0.025
0.414,-0.170,-0.020
0.416,-0.275,-0.020
0.418,-0.335,-0.020
0.420,-0.400,-0.025
0.422,-0.380,-0.035
0.424,-0.345,-0.040
0.426,-0.275,-0.050
0.428,-0.275,-0.055
0.430,-0.180,-0.055
0.432,-0.195,-0.050
0.434,-0.180,-0.050
0.436,-0.255,-0.045
0.438,-0.285,-0.040
0.440,-0.375,-0.035
0.442,-0.370,-0.035
0.444,-0.385,-0.035
0.446,-0.310,-0.040
0.448,-0.245,-0.045
0.450,-0.125,-0.050
0.452,-0.185,-0.050
0.454,-0.185,-0.045
0.456,-0.225,-0.040
0.458,-0.260,-0.030
0.460,-0.375,-0.020
0.462,-0.350,-0.005
0.464,-0.315,0.005
0.466,-0.235,0.015
0.468,-0.165,0.020
0.470,-0.080,0.020
0.472,-0.065,0.020
0.474,-0.105,0.015
0.476,-0.235,0.010
0.478,-0.280,0.010
0.480,-0.400,0.010
0.482,-0.340,0.010
0.484,-0.305,0.015
0.486,-0.175,0.015
0.488,-0.155,0.020
0.490,-0.095,0.025
0.492,-0.085,0.030
0.494,-0.125,0.030
0.496,-0.170,0.030
0.498,-0.205,0.030
0.500,-0.315,0.035
0.502,-0.305,0.040
0.504,-0.270,0.045
0.506,-0.165,0.055
0.508,-0.135,0.070
0.510,-0.020,0.080
0.512,-0.025,0.090
0.514,-0.045,0.100
0.516,-0.110,0.105
0.518,-0.155,0.105
0.520,-0.245,0.100
0.522,-0.280,0.095
0.524,-0.240,0.085
0.526,-0.180,0.075
0.528,-0.125,0.060
0.530,-0.045,0.050
0.532,-0.075,0.040
0.534,-0.140,0.030
0.536,-0.205,0.025
0.538,-0.235,0.020
0.540,-0.330,0.020
0.542,-0.315,0.020
0.544,-0.255,0.015
0.546,-0.210,0.015
0.548,-0.185,0.005
0.550,-0.160,-0.005
0.552,-0.160,-0.015
0.554,-0.210,-0.035
0.556,-0.290,-0.050
0.558,-0.335,-0.065
0.560,-0.425,-0.075
0.562,-0.395,-0.080
0.564,-0.335,-0.075
0.566,-0.265,-0.065
0.568,-0.200,-0.050
0.570,-0.115,-0.035
0.572,-0.110,-0.020
0.574,-0.180,-0.010
0.576,-0.270,-0.010
0.578,-0.380,-0.020
0.580,-0.440,-0.040
0.582,-0.395,-0.060
0.584,-0.360,-0.080
0.586,-0.320,-0.100
0.588,-0.275,-0.110
0.590,-0.215,-0.115
0.592,-0.235,-0.110
0.594,-0.240,-0.100
0.596,-0.310,-0.080
0.598,-0.355,-0.060
0.600,-0.410,-0.035
0.602,-0.345,-0.010
0.604,-0.250,0.020
0.606,-0.145,0.050
0.608,-0.040,0.085
0.610,0.065,0.125
0.612,0.090,0.175
0.614,0.065,0.230
0.616,0.040,0.295
0.618,0.040,0.365
0.620,0.090,0.425
0.622,0.205,0.475
0.624,0.330,0.505
0.626,0.370,0.505
0.628,0.315,0.470
0.630,0.230,0.390
0.632,0.090,0.275
0.634,-0.075,0.125
0.636,-0.270,-0.050
0.638,-0.495,-0.240
0.640,-0.745,-0.425
0.642,-0.985,-0.590
0.644,-1.120,-0.725
0.646,-1.100,-0.820
0.648,-1.100,-0.870
0.650,-1.005,-0.875
0.652,-0.985,-0.840
0.654,-0.930,-0.775
0.656,-0.865,-0.695
0.658,-0.860,-0.605
0.660,-0.830,-0.520
0.662,-0.720,-0.445
0.664,-0.625,-0.390
0.666,-0.570,-0.345
0.668,-0.455,-0.315
0.670,-0.400,-0.295
0.672,-0.410,-0.280
0.674,-0.455,-0.265
0.676,-0.450,-0.240
0.678,-0.475,-0.215
0.680,-0.475,-0.185
0.682,-0.435,-0.150
0.684,-0.370,-0.115
0.686,-0.335,-0.090
0.688,-0.195,-0.070
0.690,-0.195,-0.060
0.692,-0.185,-0.055
0.694,-0.260,-0.060
0.696,-0.315,-0.060
0.698,-0.415,-0.065
0.700,-0.400,-0.060
0.702,-0.335,-0.055
0.704,-0.240,-0.045
0.706,-0.230,-0.030
0.708,-0.105,-0.015
0.710,-0.130,0.000
0.712,-0.145,0.010
0.714,-0.205,0.015
0.716,-0.250,0.015
0.718,-0.330,0.015
0.720,-0.315,0.015
0.722,-0.260,0.010
0.724,-0.170,0.010
0.726,-0.150,0.015
0.728,-0.075,0.020
0.730,-0.105,0.020
0.732,-0.155,0.025
0.734,-0.225,0.025
0.736,-0.230,0.020
0.738,-0.345,0.020
0.740,-0.315,0.015
0.742,-0.270,0.010
0.744,-0.215,0.010
0.746,-0.160,0.015
0.748,-0.065,0.020
0.750,-0.085,0.025
0.752,-0.100,0.035
0.754,-0.160,0.040
0.756,-0.200,0.050
0.758,-0.315,0.050
0.760,-0.280,0.050
0.762,-0.220,0.050
0.764,-0.150,0.055
0.766,-0.105,0.055
0.768,-0.020,0.060
0.770,-0.025,0.070
0.772,-0.065,0.080
0.774,-0.125,0.095
0.776,-0.150,0.105
0.778,-0.210,0.120
0.780,-0.185,0.125
0.782,-0.170,0.125
0.784,-0.125,0.120
0.786,-0.100,0.115
0.788,-0.010,0.100
0.790,-0.050,0.085
0.792,-0.105,0.075
0.794,-0.150,0.065
0.796,-0.195,0.065
0.798,-0.280,0.070
0.800,-0.250,0.085
0.802,-0.145,0.100
0.804,-0.045,0.115
0.806,-0.040,0.130
0.808,0.045,0.140
0.810,0.000,0.145
0.812,-0.040,0.145
0.814,-0.080,0.140
0.816,-0.105,0.140
0.818,-0.180,0.140
0.820,-0.155,0.145
0.822,-0.105,0.150
0.824,-0.025,0.165
0.826,0.005,0.180
0.828,0.095,0.195
0.830,0.065,0.205
0.832,0.005,0.210
0.834,-0.045,0.210
0.836,-0.060,0.210
0.838,-0.110,0.210
0.840,-0.065,0.215
0.842,0.005,0.220
0.844,0.040,0.230
0.846,0.085,0.245
0.848,0.170,0.260
0.850,0.125,0.270
0.852,0.060,0.275
0.854,0.005,0.280
0.856,-0.030,0.275
0.858,-0.085,0.270
0.860,-0.030,0.260
0.862,0.020,0.255
0.864,0.100,0.255
0.866,0.140,0.260
0.868,0.200,0.270
0.870,0.170,0.280
0.872,0.120,0.295
0.874,0.065,0.305
0.876,0.010,0.310
0.878,-0.050,0.310
0.880,-0.010,0.310
0.882,0.050,0.305
0.884,0.135,0.300
0.886,0.170,0.295
0.888,0.220,0.295
0.890,0.200,0.295
0.892,0.115,0.300
0.894,0.055,0.305
0.896,0.000,0.305
0.898,-0.035,0.305
0.900,-0.005,0.305
0.902,0.060,0.305
0.904,0.145,0.300
0.906,0.160,0.300
0.908,0.210,0.295
0.910,0.215,0.295
0.912,0.125,0.295
0.914,0.040,0.295
0.916,-0.010,0.295
0.918,-0.045,0.285
0.920,-0.055,0.275
0.922,-0.045,0.260
0.924,0.025,0.245
0.926,0.065,0.225
0.928,0.080,0.205
0.930,0.055,0.190
0.932,0.015,0.175
0.934,-0.045,0.165
0.936,-0.130,0.155
0.938,-0.220,0.145
0.940,-0.210,0.130
0.942,-0.160,0.115
0.944,-0.120,0.095
0.946,-0.080,0.075
0.948,-0.040,0.060
0.950,-0.035,0.040
0.952,-0.155,0.030
0.954,-0.185,0.025
0.956,-0.265,0.025
0.958,-0.305,0.030
0.960,-0.280,0.030
0.962,-0.205,0.035
0.964,-0.165,0.035
0.966,-0.090,0.025
0.968,-0.075,0.015
0.970,-0.150,0.005
0.972,-0.225,-0.010
0.974,-0.270,-0.020
0.976,-0.350,-0.030
0.978,-0.365,-0.030
0.980,-0.330,-0.030
0.982,-0.285,-0.025
0.984,-0.235,-0.025
0.986,-0.130,-0.020
0.988,-0.115,-0.020
0.990,-0.170,-0.025
0.992,-0.225,-0.030
0.994,-0.275,-0.040
0.996,-0.405,-0.045
0.998,-0.375,-0.045
1.000,-0.330,-0.045
1.002,-0.235,-0.040
1.004,-0.185,-0.030
1.006,-0.100,-0.025
1.008,-0.090,-0.015
1.010,-0.175,-0.015
1.012,-0.260,-0.015
1.014,-0.280,-0.020
1.016,-0.380,-0.030
1.018,-0.370,-0.035
1.020,-0.335,-0.040
1.022,-0.250,-0.045
1.024,-0.185,-0.045
1.026,-0.125,-0.045
1.028,-0.145,-0.045
1.030,-0.205,-0.045
1.032,-0.270,-0.045
1.034,-0.300,-0.050
1.036,-0.415,-0.055
1.038,-0.400,-0.065
1.040,-0.345,-0.070
1.042,-0.265,-0.075
1.044,-0.210,-0.075
1.046,-0.165,-0.075
1.048,-0.170,-0.070
1.050,-0.190,-0.060
1.052,-0.290,-0.055
1.054,-0.290,-0.045
1.056,-0.385,-0.040
1.058,-0.345,-0.035
1.060,-0.320,-0.030
1.062,-0.275,-0.025
1.064,-0.230,-0.025
1.066,-0.115,-0.020
1.068,-0.120,-0.020
1.070,-0.165,-0.020
1.072,-0.245,-0.025
1.074,-0.265,-0.035
1.076,-0.400,-0.040
1.078,-0.380,-0.050
1.080,-0.340,-0.055
1.082,-0.255,-0.055
1.084,-0.210,-0.055
1.086,-0.130,-0.050
1.088,-0.145,-0.040
1.090,-0.180,-0.035
1.092,-0.260,-0.025
1.094,-0.305,-0.025
1.096,-0.360,-0.025
1.098,-0.335,-0.030
1.100,-0.280,-0.040
1.102,-0.205,-0.050
1.104,-0.210,-0.055
1.106,-0.140,-0.055
1.108,-0.140,-0.050
1.110,-0.190,-0.035
1.112,-0.245,-0.020
1.114,-0.270,-0.005
1.116,-0.310,0.005
1.118,-0.280,0.010
1.120,-0.255,0.010
1.122,-0.210,-0.005
1.124,-0.205,-0.020
1.126,-0.140,-0.045
1.128,-0.220,-0.070
1.130,-0.295,-0.090
1.132,-0.320,-0.100
1.134,-0.345,-0.105
1.136,-0.395,-0.100
1.138,-0.360,-0.085
1.140,-0.320,-0.070
1.142,-0.220,-0.055
1.144,-0.170,-0.040
1.146,-0.155,-0.030
1.148,-0.160,-0.025
1.150,-0.205,-0.030
1.152,-0.285,-0.030
1.154,-0.340,-0.035
1.156,-0.390,-0.040
1.158,-0.350,-0.045
1.160,-0.290,-0.045
1.162,-0.230,-0.045
1.164,-0.190,-0.045
1.166,-0.150,-0.045
1.168,-0.175,-0.045
1.170,-0.200,-0.045
1.172,-0.280,-0.050
1.174,-0.355,-0.055
1.176,-0.400,-0.055
1.178,-0.375,-0.055
1.180,-0.300,-0.055
1.182,-0.230,-0.055
1.184,-0.215,-0.050
1.186,-0.125,-0.045
1.188,-0.140,-0.040
1.190,-0.195,-0.040
1.192,-0.255,-0.040
1.194,-0.335,-0.040
1.196,-0.390,-0.045
1.198,-0.350,-0.050
1.200,-0.285,-0.055
1.202,-0.270,-0.065
1.204,-0.230,-0.065
1.206,-0.145,-0.070
1.208,-0.200,-0.070
1.210,-0.240,-0.070
1.212,-0.275,-0.065
1.214,-0.315,-0.065
1.216,-0.360,-0.060
1.218,-0.340,-0.060
1.220,-0.300,-0.060
1.222,-0.275,-0.065
1.224,-0.215,-0.065
1.226,-0.155,-0.070
1.228,-0.185,-0.070
1.230,-0.255,-0.070
1.232,-0.310,-0.070
1.234,-0.370,-0.070
1.236,-0.400,-0.065
1.238,-0.365,-0.065
1.240,-0.290,-0.060
1.242,-0.235,-0.060
1.244,-0.165,-0.055
1.246,-0.130,-0.055
1.248,-0.150,-0.055
1.250,-0.250,-0.055
1.252,-0.305,-0.055
1.254,-0.385,-0.055
1.256,-0.380,-0.060
1.258,-0.380,-0.060
1.260,-0.290,-0.065
1.262,-0.245,-0.070
1.264,-0.165,-0.075
1.266,-0.170,-0.075
1.268,-0.185,-0.080
1.270,-0.240,-0.075
1.272,-0.300,-0.075
1.274,-0.370,-0.070
1.276,-0.380,-0.065
1.278,-0.365,-0.060
1.280,-0.290,-0.060
1.282,-0.230,-0.060
1.284,-0.160,-0.060
1.286,-0.135,-0.065
1.288,-0.175,-0.070
1.290,-0.265,-0.075
1.292,-0.335,-0.075
1.294,-0.430,-0.075
1.296,-0.400,-0.070
1.298,-0.375,-0.065
1.300,-0.285,-0.060
1.302,-0.225,-0.060
1.304,-0.115,-0.055
1.306,-0.140,-0.055
1.308,-0.165,-0.055
1.310,-0.235,-0.060
1.312,-0.340,-0.065
1.314,-0.455,-0.065
1.316,-0.425,-0.070
1.318,-0.360,-0.075
1.320,-0.255,-0.075
1.322,-0.215,-0.070
1.324,-0.115,-0.070
1.326,-0.130,-0.065
1.328,-0.200,-0.060
1.330,-0.280,-0.055
1.332,-0.330,-0.055
1.334,-0.400,-0.055
1.336,-0.390,-0.060
1.338,-0.345,-0.065
1.340,-0.300,-0.070
1.342,-0.260,-0.080
1.344,-0.155,-0.085
1.346,-0.185,-0.095
1.348,-0.225,-0.100
1.350,-0.265,-0.100
1.352,-0.310,-0.095
1.354,-0.445,-0.090
1.356,-0.405,-0.080
1.358,-0.335,-0.070
1.360,-0.280,-0.060
1.362,-0.250,-0.055
1.364,-0.130,-0.050
1.366,-0.150,-0.050
1.368,-0.195,-0.050
1.370,-0.300,-0.060
1.372,-0.315,-0.065
1.374,-0.410,-0.065
1.376,-0.355,-0.070
1.378,-0.305,-0.065
1.380,-0.220,-0.065
1.382,-0.220,-0.060
1.384,-0.145,-0.055
1.386,-0.165,-0.050
1.388,-0.225,-0.050
1.390,-0.290,-0.055
1.392,-0.305,-0.060
1.394,-0.390,-0.065
1.396,-0.390,-0.075
1.398,-0.325,-0.080
1.400,-0.265,-0.080
1.402,-0.260,-0.080
1.404,-0.185,-0.075
1.406,-0.160,-0.070
1.408,-0.210,-0.065
1.410,-0.280,-0.060
1.412,-0.325,-0.060
1.414,-0.390,-0.060
1.416,-0.400,-0.060
1.418,-0.330,-0.060
1.420,-0.260,-0.060
1.422,-0.195,-0.055
1.424,-0.120,-0.050
1.426,-0.125,-0.040
1.428,-0.190,-0.030
1.430,-0.230,-0.025
1.432,-0.270,-0.020
1.434,-0.360,-0.020
1.436,-0.350,-0.025
1.438,-0.300,-0.030
1.440,-0.240,-0.035
1.442,-0.210,-0.040
1.444,-0.140,-0.045
1.446,-0.150,-0.045
1.448,-0.175,-0.040
1.450,-0.250,-0.035
1.452,-0.310,-0.030
1.454,-0.380,-0.020
1.456,-0.380,-0.010
1.458,-0.255,-0.005
1.460,-0.175,0.005
1.462,-0.080,0.015
1.464,-0.010,0.025
1.466,-0.020,0.035
1.468,-0.130,0.040
1.470,-0.180,0.045
1.472,-0.240,0.050
1.474,-0.320,0.050
1.476,-0.320,0.045
1.478,-0.215,0.040
1.480,-0.140,0.035
1.482,-0.120,0.035
1.484,-0.025,0.035
1.486,-0.020,0.045
1.488,-0.090,0.055
1.490,-0.130,0.065
1.492,-0.195,0.080
1.494,-0.270,0.090
1.496,-0.225,0.090
1.498,-0.145,0.090
1.500,-0.095,0.075
1.502,-0.080,0.060
1.504,-0.075,0.040
1.506,-0.120,0.020
1.508,-0.195,0.000
1.510,-0.250,-0.010
1.512,-0.285,-0.020
1.514,-0.325,-0.020
1.516,-0.325,-0.020
1.518,-0.230,-0.020
1.520,-0.220,-0.020
1.522,-0.165,-0.020
1.524,-0.130,-0.030
1.526,-0.180,-0.040
1.528,-0.225,-0.050
1.530,-0.285,-0.065
1.532,-0.385,-0.080
1.534,-0.405,-0.090
1.536,-0.380,-0.100
1.538,-0.315,-0.105
1.540,-0.305,-0.105
1.542,-0.195,-0.100
1.544,-0.170,-0.090
1.546,-0.170,-0.080
1.548,-0.240,-0.065
1.550,-0.300,-0.050
1.552,-0.380,-0.045
1.554,-0.345,-0.040
1.556,-0.340,-0.050
1.558,-0.300,-0.060
1.560,-0.280,-0.080
1.562,-0.235,-0.100
1.564,-0.255,-0.115
1.566,-0.260,-0.125
1.568,-0.305,-0.130
1.570,-0.310,-0.115
1.572,-0.410,-0.095
1.574,-0.390,-0.065
1.576,-0.330,-0.025
1.578,-0.190,0.015
1.580,-0.100,0.060
1.582,0.045,0.105
1.584,0.095,0.160
1.586,0.110,0.215
1.588,0.085,0.275
1.590,0.115,0.340
1.592,0.085,0.405
1.594,0.195,0.465
1.596,0.295,0.505
1.598,0.380,0.515
1.600,0.325,0.490
1.602,0.305,0.425
1.604,0.180,0.320
1.606,0.060,0.175
1.608,-0.165,0.000
1.610,-0.405,-0.180
1.612,-0.710,-0.360
1.614,-0.925,-0.520
1.616,-1.055,-0.650
1.618,-1.005,-0.740
1.620,-0.990,-0.795
1.622,-0.910,-0.810
1.624,-0.905,-0.795
1.626,-0.895,-0.755
1.628,-0.890,-0.705
1.630,-0.850,-0.645
1.632,-0.875,-0.580
1.634,-0.780,-0.520
1.636,-0.700,-0.460
1.638,-0.605,-0.410
1.640,-0.530,-0.365
1.642,-0.425,-0.330
1.644,-0.425,-0.300
1.646,-0.405,-0.275
1.648,-0.425,-0.255
1.650,-0.440,-0.235
1.652,-0.515,-0.220
1.654,-0.520,-0.200
1.656,-0.450,-0.180
1.658,-0.345,-0.155
1.660,-0.275,-0.130
1.662,-0.170,-0.105
1.664,-0.150,-0.080
1.666,-0.175,-0.060
1.668,-0.265,-0.045
1.670,-0.275,-0.035
1.672,-0.365,-0.030
1.674,-0.330,-0.025
1.676,-0.285,-0.020
1.678,-0.235,-0.015
1.680,-0.190,-0.010
1.682,-0.080,-0.005
1.684,-0.060,0.000
1.686,-0.140,0.000
1.688,-0.245,-0.005
1.690,-0.265,-0.010
1.692,-0.350,-0.015
1.694,-0.360,-0.020
1.696,-0.285,-0.020
1.698,-0.220,-0.020
1.700,-0.165,-0.015
1.702,-0.065,-0.005
1.704,-0.100,0.005
1.706,-0.145,0.015
1.708,-0.195,0.025
1.710,-0.250,0.030
1.712,-0.280,0.030
1.714,-0.285,0.025
1.716,-0.250,0.020
1.718,-0.155,0.015
1.720,-0.130,0.015
1.722,-0.075,0.020
1.724,-0.085,0.030
1.726,-0.110,0.040
1.728,-0.180,0.055
1.730,-0.195,0.070
1.732,-0.230,0.075
1.734,-0.215,0.080
1.736,-0.160,0.085
1.738,-0.105,0.080
1.740,-0.075,0.075
1.742,-0.045,0.070
1.744,-0.055,0.065
1.746,-0.120,0.065
1.748,-0.155,0.070
1.750,-0.190,0.075
1.752,-0.235,0.080
1.754,-0.190,0.085
1.756,-0.150,0.085
1.758,-0.120,0.085
1.760,-0.070,0.085
1.762,-0.010,0.085
1.764,-0.045,0.085
1.766,-0.090,0.085
1.768,-0.140,0.090
1.770,-0.165,0.100
1.772,-0.210,0.115
1.774,-0.150,0.130
1.776,-0.060,0.140
1.778,-0.020,0.155
1.780,0.020,0.160
1.782,0.080,0.160
1.784,0.030,0.155
1.786,-0.055,0.150
1.788,-0.105,0.140
1.790,-0.140,0.135
1.792,-0.135,0.130
1.794,-0.160,0.130
1.796,-0.095,0.140
1.798,-0.045,0.150
1.800,0.035,0.165
1.802,0.080,0.180
1.804,0.095,0.195
1.806,0.045,0.205
1.808,-0.010,0.215
1.810,-0.090,0.220
1.812,-0.090,0.220
1.814,-0.055,0.220
1.816,0.005,0.215
1.818,0.045,0.215
1.820,0.120,0.220
1.822,0.130,0.225
1.824,0.090,0.235
1.826,0.045,0.245
1.828,0.040,0.255
1.830,-0.030,0.260
1.832,-0.035,0.270
1.834,0.000,0.280
1.836,0.075,0.285
1.838,0.120,0.285
1.840,0.195,0.290
1.842,0.210,0.295
1.844,0.180,0.300
1.846,0.115,0.305
1.848,0.075,0.310
1.850,0.000,0.320
1.852,0.000,0.325
1.854,0.055,0.330
1.856,0.140,0.330
1.858,0.175,0.330
1.860,0.200,0.325
1.862,0.225,0.320
1.864,0.195,0.310
1.866,0.105,0.305
1.868,0.055,0.300
1.870,-0.025,0.300
1.872,-0.010,0.310
1.874,0.010,0.315
1.876,0.110,0.330
1.878,0.165,0.335
1.880,0.260,0.340
1.882,0.260,0.340
1.884,0.195,0.330
1.886,0.100,0.315
1.888,0.050,0.290
1.890,-0.090,0.265
1.892,-0.110,0.240
1.894,-0.100,0.215
1.896,-0.040,0.200
1.898,-0.010,0.185
1.900,0.100,0.180
1.902,0.075,0.175
1.904,0.040,0.175
1.906,-0.030,0.175
1.908,-0.075,0.170
1.910,-0.190,0.160
1.912,-0.200,0.150
1.914,-0.170,0.135
1.916,-0.120,0.115
1.918,-0.085,0.100
1.920,-0.010,0.080
1.922,-0.030,0.065
1.924,-0.105,0.055
1.926,-0.180,0.050
1.928,-0.180,0.045
1.930,-0.280,0.045
1.932,-0.275,0.040
1.934,-0.250,0.035
1.936,-0.165,0.030
1.938,-0.150,0.020
1.940,-0.080,0.010
1.942,-0.110,-0.005
1.944,-0.185,-0.020
1.946,-0.280,-0.035
1.948,-0.310,-0.045
1.950,-0.375,-0.050
1.952,-0.350,-0.050
1.954,-0.320,-0.045
1.956,-0.235,-0.040
1.958,-0.195,-0.030
1.960,-0.100,-0.025
1.962,-0.130,-0.025
1.964,-0.200,-0.025
1.966,-0.270,-0.035
1.968,-0.285,-0.045
1.970,-0.365,-0.055
1.972,-0.350,-0.065
1.974,-0.355,-0.070
1.976,-0.305,-0.070
1.978,-0.255,-0.065
1.980,-0.130,-0.055
1.982,-0.145,-0.045
1.984,-0.180,-0.035
1.986,-0.245,-0.030
1.988,-0.260,-0.025
1.990,-0.340,-0.025
1.992,-0.335,-0.025
1.994,-0.325,-0.030
1.996,-0.235,-0.030
1.998,-0.200,-0.035
2.000,-0.150,-0.035
2.002,-0.105,-0.030
2.004,-0.145,-0.030
2.006,-0.235,-0.025
2.008,-0.325,-0.025
2.010,-0.410,-0.030
2.012,-0.410,-0.035
2.014,-0.330,-0.040
2.016,-0.225,-0.050
2.018,-0.170,-0.060
2.020,-0.150,-0.065
2.022,-0.150,-0.065
2.024,-0.215,-0.065
2.026,-0.285,-0.060
2.028,-0.320,-0.050
2.030,-0.395,-0.040
2.032,-0.355,-0.030
2.034,-0.280,-0.015
2.036,-0.195,-0.005
2.038,-0.145,0.000
2.040,-0.080,0.005
2.042,-0.090,0.005
2.044,-0.175,0.000
2.046,-0.220,-0.005
2.048,-0.295,-0.010
2.050,-0.380,-0.020
2.052,-0.405,-0.030
2.054,-0.310,-0.035
2.056,-0.210,-0.045
2.058,-0.160,-0.050
2.060,-0.075,-0.055
2.062,-0.160,-0.055
2.064,-0.260,-0.055
2.066,-0.320,-0.050
2.068,-0.330,-0.045
2.070,-0.375,-0.040
2.072,-0.350,-0.035
2.074,-0.280,-0.025
2.076,-0.215,-0.025
2.078,-0.180,-0.020
2.080,-0.105,-0.020
2.082,-0.135,-0.020
2.084,-0.205,-0.025
2.086,-0.265,-0.030
2.088,-0.300,-0.035
2.090,-0.360,-0.040
2.092,-0.345,-0.045
2.094,-0.305,-0.050
2.096,-0.270,-0.050
2.098,-0.205,-0.050
2.100,-0.110,-0.050
2.102,-0.175,-0.045
2.104,-0.225,-0.035
2.106,-0.255,-0.030
2.108,-0.325,-0.025
2.110,-0.360,-0.020
2.112,-0.350,-0.020
2.114,-0.265,-0.025
2.116,-0.225,-0.030
2.118,-0.190,-0.040
2.120,-0.155,-0.050
2.122,-0.175,-0.060
2.124,-0.260,-0.065
2.126,-0.290,-0.070
2.128,-0.350,-0.070
2.130,-0.375,-0.065
2.132,-0.340,-0.065
2.134,-0.255,-0.060
2.136,-0.235,-0.055
2.138,-0.180,-0.055
2.140,-0.155,-0.050
2.142,-0.200,-0.055
2.144,-0.285,-0.055
2.146,-0.300,-0.060
2.148,-0.375,-0.060
2.150,-0.350,-0.060
2.152,-0.355,-0.060
2.154,-0.315,-0.060
2.156,-0.245,-0.060
2.158,-0.160,-0.055
2.160,-0.150,-0.050
2.162,-0.160,-0.045
2.164,-0.235,-0.045
2.166,-0.290,-0.040
2.168,-0.355,-0.035
2.170,-0.330,-0.035
2.172,-0.365,-0.035
2.174,-0.275,-0.040
2.176,-0.215,-0.050
2.178,-0.170,-0.060
2.180,-0.215,-0.070
2.182,-0.230,-0.080
2.184,-0.290,-0.085
2.186,-0.325,-0.090
2.188,-0.400,-0.085
2.190,-0.380,-0.080
2.192,-0.345,-0.065
2.194,-0.245,-0.050
2.196,-0.210,-0.035
2.198,-0.130,-0.025
2.200,-0.115,-0.020
2.202,-0.170,-0.025
2.204,-0.255,-0.030
2.206,-0.275,-0.045
2.208,-0.410,-0.060
2.210,-0.400,-0.075
2.212,-0.375,-0.085
2.214,-0.305,-0.090
2.216,-0.275,-0.090
2.218,-0.160,-0.085
2.220,-0.190,-0.080
2.222,-0.205,-0.070
2.224,-0.280,-0.070
2.226,-0.300,-0.065
2.228,-0.415,-0.065
2.230,-0.425,-0.070
2.232,-0.380,-0.075
2.234,-0.320,-0.075
2.236,-0.250,-0.080
2.238,-0.155,-0.080
2.240,-0.175,-0.075
2.242,-0.225,-0.075
2.244,-0.275,-0.065
2.246,-0.320,-0.060
2.248,-0.395,-0.055
2.250,-0.365,-0.050
2.252,-0.305,-0.045
2.254,-0.240,-0.040
2.256,-0.210,-0.040
2.258,-0.155,-0.040
2.260,-0.165,-0.040
2.262,-0.215,-0.045
2.264,-0.285,-0.050
2.266,-0.330,-0.055
2.268,-0.420,-0.065
2.270,-0.405,-0.070
2.272,-0.320,-0.075
2.274,-0.245,-0.075
2.276,-0.225,-0.075
2.278,-0.150,-0.070
2.280,-0.160,-0.065
2.282,-0.220,-0.055
2.284,-0.290,-0.045
2.286,-0.320,-0.040
2.288,-0.365,-0.035
2.290,-0.355,-0.035
2.292,-0.330,-0.035
2.294,-0.285,-0.040
2.296,-0.225,-0.050
2.298,-0.160,-0.055
2.300,-0.170,-0.065
2.302,-0.240,-0.070
2.304,-0.325,-0.075
2.306,-0.360,-0.075
2.308,-0.405,-0.075
2.310,-0.375,-0.070
2.312,-0.315,-0.065
2.314,-0.230,-0.060
2.316,-0.180,-0.050
2.318,-0.140,-0.045
2.320,-0.180,-0.045
2.322,-0.220,-0.045
2.324,-0.305,-0.050
2.326,-0.345,-0.055
2.328,-0.385,-0.060
2.330,-0.395,-0.070
2.332,-0.340,-0.075
2.334,-0.260,-0.080
2.336,-0.230,-0.080
2.338,-0.145,-0.075
2.340,-0.170,-0.070
2.342,-0.235,-0.060
2.344,-0.290,-0.055
2.346,-0.330,-0.050
2.348,-0.370,-0.045
2.350,-0.350,-0.045
2.352,-0.335,-0.045
2.354,-0.230,-0.050
2.356,-0.150,-0.055
2.358,-0.150,-0.060
2.360,-0.220,-0.065
2.362,-0.245,-0.065
2.364,-0.305,-0.065
2.366,-0.375,-0.060
2.368,-0.410,-0.060
2.370,-0.355,-0.055
2.372,-0.295,-0.050
2.374,-0.190,-0.040
2.376,-0.115,-0.035
2.378,-0.080,-0.030
2.380,-0.155,-0.025
2.382,-0.230,-0.025
2.384,-0.265,-0.025
2.386,-0.330,-0.025
2.388,-0.345,-0.030
2.390,-0.315,-0.030
2.392,-0.260,-0.035
2.394,-0.225,-0.035
2.396,-0.175,-0.030
2.398,-0.125,-0.020
2.400,-0.125,-0.005
2.402,-0.215,0.010
2.404,-0.200,0.030
2.406,-0.210,0.045
2.408,-0.250,0.060
2.410,-0.250,0.070
2.412,-0.155,0.070
2.414,-0.140,0.065
2.416,-0.140,0.055
2.418,-0.095,0.045
2.420,-0.110,0.035
2.422,-0.155,0.030
2.424,-0.190,0.025
2.426,-0.255,0.030
2.428,-0.275,0.035
2.430,-0.255,0.040
2.432,-0.165,0.045
2.434,-0.140,0.050
2.436,-0.090,0.055
2.438,-0.075,0.055
2.440,-0.090,0.050
2.442,-0.150,0.050
2.444,-0.180,0.045
2.446,-0.285,0.040
2.448,-0.280,0.035
2.450,-0.260,0.030
2.452,-0.200,0.025
2.454,-0.170,0.010
2.456,-0.115,0.000
2.458,-0.140,-0.015
2.460,-0.195,-0.030
2.462,-0.305,-0.045
2.464,-0.330,-0.055
2.466,-0.385,-0.060
2.468,-0.370,-0.065
2.470,-0.320,-0.060
2.472,-0.245,-0.060
2.474,-0.210,-0.055
2.476,-0.135,-0.050
2.478,-0.185,-0.050
2.480,-0.225,-0.055
2.482,-0.280,-0.065
2.484,-0.360,-0.075
2.486,-0.425,-0.085
2.488,-0.415,-0.095
2.490,-0.400,-0.100
2.492,-0.310,-0.105
2.494,-0.280,-0.105
2.496,-0.200,-0.105
2.498,-0.185,-0.100
2.500,-0.210,-0.090
2.502,-0.290,-0.085
2.504,-0.350,-0.080
2.506,-0.440,-0.075
2.508,-0.435,-0.070
2.510,-0.335,-0.065
2.512,-0.270,-0.055
2.514,-0.240,-0.040
2.516,-0.105,-0.020
2.518,-0.075,0.010
2.520,-0.070,0.055
2.522,-0.110,0.105
2.524,-0.085,0.170
2.526,-0.115,0.240
2.528,0.020,0.310
2.530,0.140,0.380
2.532,0.270,0.440
2.534,0.325,0.485
2.536,0.430,0.500
2.538,0.440,0.490
2.540,0.290,0.445
2.542,0.095,0.360
2.544,-0.050,0.245
2.546,-0.205,0.100
2.548,-0.345,-0.065
2.550,-0.495,-0.245
2.552,-0.670,-0.415
2.554,-0.895,-0.570
2.556,-0.915,-0.695
2.558,-0.925,-0.780
2.560,-1.010,-0.830
2.562,-1.060,-0.835
2.564,-1.065,-0.805
2.566,-1.065,-0.755
2.568,-0.995,-0.685
2.570,-0.850,-0.610
2.572,-0.720,-0.545
2.574,-0.635,-0.485
2.576,-0.505,-0.440
2.578,-0.505,-0.400
2.580,-0.515,-0.370
2.582,-0.560,-0.345
2.584,-0.595,-0.315
2.586,-0.635,-0.285
2.588,-0.580,-0.255
2.590,-0.455,-0.225
2.592,-0.360,-0.195
2.594,-0.330,-0.170
2.596,-0.265,-0.150
2.598,-0.255,-0.135
2.600,-0.270,-0.120
2.602,-0.320,-0.110
2.604,-0.350,-0.095
2.606,-0.380,-0.080
2.608,-0.370,-0.065
2.610,-0.260,-0.045
2.612,-0.205,-0.025
2.614,-0.170,-0.010
2.616,-0.145,-0.005
2.618,-0.155,0.000
2.620,-0.235,-0.005
2.622,-0.275,-0.015
2.624,-0.250,-0.025
2.626,-0.340,-0.030
2.628,-0.340,-0.035
2.630,-0.275,-0.030
2.632,-0.210,-0.020
2.634,-0.160,-0.005
2.636,-0.105,0.010
2.638,-0.120,0.025
2.640,-0.165,0.040
2.642,-0.185,0.050
2.644,-0.210,0.050
2.646,-0.290,0.050
2.648,-0.235,0.040
2.650,-0.210,0.030
2.652,-0.170,0.020
2.654,-0.200,0.010
2.656,-0.165,0.000
2.658,-0.180,-0.010
2.660,-0.215,-0.015
2.662,-0.250,-0.015
2.664,-0.275,-0.010
2.666,-0.305,-0.005
2.668,-0.255,0.005
2.670,-0.200,0.020
2.672,-0.160,0.035
2.674,-0.090,0.050
2.676,-0.055,0.060
2.678,-0.085,0.070
2.680,-0.125,0.080
2.682,-0.135,0.085
2.684,-0.205,0.085
2.686,-0.240,0.085
2.688,-0.225,0.085
2.690,-0.175,0.080
2.692,-0.130,0.080
2.694,-0.015,0.075
2.696,-0.035,0.075
2.698,-0.100,0.080
2.700,-0.145,0.085
2.702,-0.160,0.095
2.704,-0.220,0.105
2.706,-0.185,0.115
2.708,-0.125,0.130
2.710,-0.050,0.140
2.712,-0.030,0.150
2.714,0.020,0.150
2.716,0.010,0.155
2.718,-0.040,0.150
2.720,-0.080,0.145
2.722,-0.140,0.140
2.724,-0.220,0.130
2.726,-0.210,0.125
2.728,-0.160,0.125
2.730,-0.080,0.125
2.732,-0.040,0.130
2.734,0.050,0.140
2.736,0.055,0.150
2.738,0.035,0.165
2.740,-0.025,0.180
2.742,-0.070,0.195
2.744,-0.135,0.215
2.746,-0.090,0.230
2.748,-0.030,0.250
2.750,0.025,0.260
2.752,0.065,0.270
2.754,0.185,0.275
2.756,0.145,0.275
2.758,0.090,0.270
2.760,0.020,0.260
2.762,-0.015,0.250
2.764,-0.105,0.245
2.766,-0.065,0.245
2.768,-0.050,0.250
2.770,0.025,0.260
2.772,0.115,0.275
2.774,0.230,0.290
2.776,0.195,0.310
2.778,0.180,0.325
2.780,0.105,0.335
2.782,0.080,0.345
2.784,-0.035,0.345
2.786,-0.005,0.340
2.788,0.050,0.335
2.790,0.115,0.330
2.792,0.115,0.325
2.794,0.210,0.320
2.796,0.205,0.320
2.798,0.150,0.320
2.800,0.105,0.320
2.802,0.045,0.320
2.804,-0.055,0.325
2.806,-0.025,0.325
2.808,0.060,0.330
2.810,0.130,0.335
2.812,0.165,0.335
2.814,0.235,0.335
2.816,0.225,0.335
2.818,0.160,0.330
2.820,0.025,0.320
2.822,0.020,0.310
2.824,-0.065,0.300
2.826,-0.015,0.290
2.828,0.005,0.280
2.830,0.060,0.270
2.832,0.075,0.260
2.834,0.140,0.250
2.836,0.100,0.235
2.838,0.050,0.225
2.840,-0.040,0.210
2.842,-0.095,0.190
2.844,-0.200,0.175
2.846,-0.185,0.155
2.848,-0.185,0.140
2.850,-0.100,0.130
2.852,-0.050,0.120
2.854,0.045,0.115
2.856,-0.010,0.110
2.858,-0.040,0.105
2.860,-0.120,0.100
2.862,-0.210,0.090
2.864,-0.305,0.080
2.866,-0.300,0.070
2.868,-0.260,0.055
2.870,-0.205,0.045
2.872,-0.135,0.030
2.874,-0.100,0.020
2.876,-0.115,0.010
2.878,-0.175,0.000
2.880,-0.230,-0.010
2.882,-0.275,-0.020
2.884,-0.395,-0.030
2.886,-0.370,-0.040
2.888,-0.310,-0.050
2.890,-0.285,-0.050
2.892,-0.205,-0.055
2.894,-0.135,-0.050
2.896,-0.165,-0.045
2.898,-0.215,-0.040
2.900,-0.260,-0.030
2.902,-0.300,-0.025
2.904,-0.355,-0.025
2.906,-0.360,-0.025
2.908,-0.320,-0.035
2.910,-0.265,-0.040
2.912,-0.255,-0.050
2.914,-0.175,-0.060
2.916,-0.165,-0.065
2.918,-0.235,-0.065
2.920,-0.315,-0.060
2.922,-0.340,-0.055
2.924,-0.385,-0.045
2.926,-0.355,-0.030
2.928,-0.320,-0.020
2.930,-0.220,-0.015
2.932,-0.165,-0.010
2.934,-0.125,-0.015
2.936,-0.150,-0.020
2.938,-0.200,-0.030
2.940,-0.320,-0.040
2.942,-0.360,-0.045
2.944,-0.395,-0.055
2.946,-0.375,-0.055
2.948,-0.310,-0.055
2.950,-0.255,-0.050
2.952,-0.210,-0.045
2.954,-0.145,-0.035
2.956,-0.120,-0.030
2.958,-0.220,-0.025
2.960,-0.295,-0.020
2.962,-0.360,-0.020
2.964,-0.385,-0.020
2.966,-0.335,-0.020
2.968,-0.270,-0.025
2.970,-0.215,-0.025
2.972,-0.185,-0.030
2.974,-0.145,-0.030
2.976,-0.155,-0.035
2.978,-0.220,-0.035
2.980,-0.315,-0.035
2.982,-0.390,-0.040
2.984,-0.390,-0.040
2.986,-0.375,-0.045
2.988,-0.305,-0.055
2.990,-0.250,-0.060
2.992,-0.185,-0.065
2.994,-0.200,-0.070
2.996,-0.200,-0.070
2.998,-0.245,-0.070
3.000,-0.285,-0.060
3.002,-0.345,-0.050
3.004,-0.350,-0.035
3.006,-0.340,-0.025
3.008,-0.255,-0.015
3.010,-0.210,-0.010
3.012,-0.130,-0.010
3.014,-0.110,-0.020
3.016,-0.190,-0.030
3.018,-0.275,-0.040
3.020,-0.325,-0.050
3.022,-0.405,-0.055
3.024,-0.370,-0.055
3.026,-0.340,-0.050
3.028,-0.255,-0.040
3.030,-0.215,-0.025
3.032,-0.120,-0.010
3.034,-0.110,0.000
3.036,-0.140,0.005
3.038,-0.170,0.005
3.040,-0.205,-0.005
3.042,-0.355,-0.015
3.044,-0.360,-0.035
3.046,-0.395,-0.050
3.048,-0.360,-0.065
3.050,-0.295,-0.075
3.052,-0.175,-0.075
3.054,-0.205,-0.075
3.056,-0.230,-0.070
3.058,-0.255,-0.060
3.060,-0.275,-0.050
3.062,-0.365,-0.045
3.064,-0.345,-0.040
3.066,-0.365,-0.035
3.068,-0.275,-0.035
3.070,-0.265,-0.040
3.072,-0.205,-0.045
3.074,-0.170,-0.055
3.076,-0.190,-0.060
3.078,-0.270,-0.065
3.080,-0.295,-0.065
3.082,-0.395,-0.065
3.084,-0.415,-0.065
3.086,-0.365,-0.060
3.088,-0.295,-0.060
3.090,-0.250,-0.055
3.092,-0.150,-0.055
3.094,-0.185,-0.055
3.096,-0.205,-0.055
3.098,-0.295,-0.055
3.100,-0.305,-0.060
3.102,-0.405,-0.060
3.104,-0.390,-0.060
3.106,-0.345,-0.060
3.108,-0.260,-0.055
3.110,-0.250,-0.050
3.112,-0.160,-0.045
3.114,-0.165,-0.040
3.116,-0.185,-0.040
3.118,-0.270,-0.040
3.120,-0.305,-0.040
3.122,-0.435,-0.045
3.124,-0.405,-0.055
3.126,-0.315,-0.060
3.128,-0.270,-0.065
3.130,-0.250,-0.070
3.132,-0.195,-0.070
3.134,-0.200,-0.070
3.136,-0.220,-0.065
3.138,-0.255,-0.060
3.140,-0.300,-0.055
3.142,-0.385,-0.050
3.144,-0.375,-0.045
3.146,-0.330,-0.050
3.148,-0.265,-0.055
3.150,-0.230,-0.060
3.152,-0.195,-0.065
3.154,-0.190,-0.070
3.156,-0.235,-0.075
3.158,-0.315,-0.075
3.160,-0.395,-0.075
3.162,-0.475,-0.075
3.164,-0.430,-0.075
3.166,-0.335,-0.070
3.168,-0.270,-0.070
3.170,-0.235,-0.070
3.172,-0.170,-0.070
3.174,-0.170,-0.070
3.176,-0.210,-0.065
3.178,-0.270,-0.065
3.180,-0.335,-0.065
3.182,-0.385,-0.060
3.184,-0.365,-0.060
3.186,-0.360,-0.060
3.188,-0.305,-0.060
3.190,-0.230,-0.065
3.192,-0.165,-0.075
3.194,-0.175,-0.080
3.196,-0.290,-0.090
3.198,-0.340,-0.095
3.200,-0.395,-0.095
3.202,-0.415,-0.095
3.204,-0.380,-0.085
3.206,-0.320,-0.075
3.208,-0.265,-0.060
3.210,-0.220,-0.045
3.212,-0.160,-0.035
3.214,-0.135,-0.030
3.216,-0.195,-0.030
3.218,-0.295,-0.035
3.220,-0.360,-0.045
3.222,-0.420,-0.055
3.224,-0.385,-0.065
3.226,-0.325,-0.075
3.228,-0.280,-0.080
3.230,-0.215,-0.080
3.232,-0.175,-0.075
3.234,-0.220,-0.070
3.236,-0.245,-0.060
3.238,-0.285,-0.050
3.240,-0.350,-0.045
3.242,-0.410,-0.045
3.244,-0.375,-0.045
3.246,-0.320,-0.050
3.248,-0.305,-0.055
3.250,-0.245,-0.065
3.252,-0.195,-0.070
3.254,-0.205,-0.075
3.256,-0.250,-0.075
3.258,-0.320,-0.075
3.260,-0.385,-0.075
3.262,-0.440,-0.070
3.264,-0.405,-0.065
3.266,-0.310,-0.060
3.268,-0.255,-0.055
3.270,-0.180,-0.045
3.272,-0.165,-0.040
3.274,-0.185,-0.035
3.276,-0.255,-0.030
3.278,-0.290,-0.030
3.280,-0.370,-0.035
3.282,-0.365,-0.040
3.284,-0.350,-0.055
3.286,-0.330,-0.070
3.288,-0.325,-0.080
3.290,-0.255,-0.095
3.292,-0.220,-0.100
3.294,-0.220,-0.100
3.296,-0.275,-0.095
3.298,-0.300,-0.080
3.300,-0.385,-0.065
3.302,-0.390,-0.045
3.304,-0.345,-0.030
3.306,-0.275,-0.020
3.308,-0.230,-0.015
3.310,-0.135,-0.020
3.312,-0.150,-0.025
3.314,-0.185,-0.035
3.316,-0.265,-0.050
3.318,-0.310,-0.055
3.320,-0.425,-0.065
3.322,-0.420,-0.065
3.324,-0.390,-0.065
3.326,-0.335,-0.065
3.328,-0.280,-0.065
3.330,-0.175,-0.060
3.332,-0.190,-0.060
3.334,-0.215,-0.060
3.336,-0.290,-0.055
3.338,-0.305,-0.055
3.340,-0.405,-0.055
3.342,-0.405,-0.055
3.344,-0.340,-0.050
3.346,-0.245,-0.050
3.348,-0.235,-0.050
3.350,-0.145,-0.045
3.352,-0.160,-0.045
3.354,-0.210,-0.045
3.356,-0.265,-0.040
3.358,-0.300,-0.035
3.360,-0.380,-0.030
3.362,-0.350,-0.025
3.364,-0.325,-0.015
3.366,-0.240,-0.010
3.368,-0.185,-0.005
3.370,-0.115,-0.005
3.372,-0.125,-0.005
3.374,-0.195,-0.010
3.376,-0.255,-0.010
3.378,-0.305,-0.010
3.380,-0.350,-0.005
3.382,-0.295,0.000
3.384,-0.235,0.015
3.386,-0.165,0.030
3.388,-0.150,0.050
3.390,-0.050,0.065
3.392,-0.050,0.075
3.394,-0.095,0.080
3.396,-0.170,0.080
3.398,-0.185,0.070
3.400,-0.310,0.060
3.402,-0.295,0.050
3.404,-0.255,0.040
3.406,-0.180,0.035
3.408,-0.110,0.035
3.410,-0.025,0.040
3.412,-0.055,0.045
3.414,-0.105,0.055
3.416,-0.210,0.060
3.418,-0.245,0.060
3.420,-0.325,0.055
3.422,-0.305,0.045
3.424,-0.250,0.030
3.426,-0.195,0.010
3.428,-0.190,-0.010
3.430,-0.125,-0.025
3.432,-0.175,-0.040
3.434,-0.205,-0.050
3.436,-0.320,-0.055
3.438,-0.340,-0.055
3.440,-0.425,-0.060
3.442,-0.420,-0.060
3.444,-0.345,-0.060
3.446,-0.295,-0.060
3.448,-0.245,-0.065
3.450,-0.175,-0.065
3.452,-0.175,-0.070
3.454,-0.255,-0.075
3.456,-0.315,-0.080
3.458,-0.360,-0.080
3.460,-0.435,-0.085
3.462,-0.465,-0.085
3.464,-0.360,-0.085
3.466,-0.290,-0.085
3.468,-0.240,-0.085
3.470,-0.180,-0.085
3.472,-0.220,-0.080
3.474,-0.245,-0.075
3.476,-0.300,-0.065
3.478,-0.330,-0.055
3.480,-0.385,-0.045
3.482,-0.395,-0.035
3.484,-0.305,-0.025
3.486,-0.250,-0.020
3.488,-0.200,-0.015
3.490,-0.155,-0.010
3.492,-0.140,0.000
3.494,-0.205,0.020
3.496,-0.185,0.055
3.498,-0.150,0.105
3.500,-0.145,0.170
3.502,-0.070,0.255
3.504,0.095,0.340
3.506,0.250,0.425
3.508,0.370,0.495
3.510,0.500,0.545
3.512,0.465,0.555
3.514,0.350,0.525
3.516,0.180,0.455
3.518,-0.030,0.335
3.520,-0.190,0.180
3.522,-0.275,0.000
3.524,-0.420,-0.190
3.526,-0.545,-0.375
3.528,-0.740,-0.540
3.530,-0.935,-0.675
3.532,-1.015,-0.770
3.534,-1.095,-0.825
3.536,-1.105,-0.835
3.538,-1.100,-0.810
3.540,-1.055,-0.760
3.542,-0.975,-0.695
3.544,-0.835,-0.630
3.546,-0.735,-0.565
3.548,-0.620,-0.510
3.550,-0.560,-0.470
3.552,-0.585,-0.440
3.554,-0.620,-0.415
3.556,-0.645,-0.390
3.558,-0.685,-0.365
3.560,-0.635,-0.335
3.562,-0.560,-0.300
3.564,-0.495,-0.260
3.566,-0.410,-0.215
3.568,-0.280,-0.170
3.570,-0.210,-0.130
3.572,-0.215,-0.100
3.574,-0.260,-0.075
3.576,-0.335,-0.055
3.578,-0.385,-0.050
3.580,-0.380,-0.045
3.582,-0.350,-0.045
3.584,-0.295,-0.050
3.586,-0.245,-0.050
3.588,-0.150,-0.055
3.590,-0.135,-0.050
3.592,-0.215,-0.050
3.594,-0.265,-0.045
3.596,-0.290,-0.035
3.598,-0.385,-0.030
3.600,-0.350,-0.015
3.602,-0.295,-0.005
3.604,-0.200,0.005
3.606,-0.165,0.015
3.608,-0.075,0.020
3.610,-0.065,0.020
3.612,-0.155,0.015
3.614,-0.260,0.005
3.616,-0.280,-0.005
3.618,-0.405,-0.015
3.620,-0.345,-0.020
3.622,-0.305,-0.020
3.624,-0.230,-0.015
3.626,-0.195,-0.005
3.628,-0.095,0.010
3.630,-0.075,0.030
3.632,-0.115,0.050
3.634,-0.145,0.065
3.636,-0.180,0.070
3.638,-0.270,0.075
3.640,-0.245,0.070
3.642,-0.260,0.060
3.644,-0.175,0.045
3.646,-0.155,0.035
3.648,-0.105,0.025
3.650,-0.085,0.025
3.652,-0.095,0.025
3.654,-0.165,0.030
3.656,-0.225,0.045
3.658,-0.300,0.055
3.660,-0.275,0.070
3.662,-0.230,0.080
3.664,-0.130,0.090
3.666,-0.045,0.095
3.668,0.045,0.100
3.670,0.010,0.095
3.672,-0.060,0.095
3.674,-0.180,0.090
3.676,-0.245,0.085
3.678,-0.320,0.080
3.680,-0.325,0.075
3.682,-0.215,0.075
3.684,-0.100,0.075
3.686,-0.050,0.085
3.688,0.030,0.095
3.690,0.035,0.110
3.692,0.020,0.125
3.694,-0.095,0.145
3.696,-0.170,0.160
3.698,-0.205,0.170
3.700,-0.165,0.175
3.702,-0.110,0.175
3.704,-0.035,0.175
3.706,-0.045,0.170
3.708,0.065,0.165
3.710,0.070,0.165
3.712,0.010,0.170
3.714,-0.065,0.175
3.716,-0.090,0.180
3.718,-0.135,0.190
3.720,-0.115,0.200
3.722,-0.075,0.210
3.724,0.000,0.210
3.726,0.035,0.215
3.728,0.100,0.215
3.730,0.090,0.215
3.732,0.065,0.215
3.734,0.000,0.225
3.736,-0.050,0.235
3.738,-0.090,0.250
3.740,-0.060,0.270
3.742,0.030,0.290
3.744,0.125,0.305
3.746,0.170,0.320
3.748,0.230,0.325
3.750,0.215,0.330
3.752,0.120,0.330
3.754,0.020,0.320
3.756,-0.025,0.315
3.758,-0.045,0.305
3.760,-0.025,0.295
3.762,0.040,0.290
3.764,0.125,0.290
3.766,0.170,0.290
3.768,0.190,0.295
3.770,0.160,0.305
3.772,0.140,0.315
3.774,0.070,0.325
3.776,0.035,0.330
3.778,-0.010,0.335
3.780,0.005,0.335
3.782,0.040,0.335
3.784,0.090,0.325
3.786,0.145,0.315
3.788,0.215,0.305
3.790,0.165,0.295
3.792,0.095,0.290
3.794,0.040,0.285
3.796,-0.015,0.285
3.798,-0.060,0.290
3.800,-0.030,0.290
3.802,0.010,0.290
3.804,0.045,0.285
3.806,0.095,0.275
3.808,0.170,0.260
3.810,0.130,0.245
3.812,0.035,0.230
3.814,-0.065,0.215
3.816,-0.105,0.200
3.818,-0.170,0.190
3.820,-0.145,0.180
3.822,-0.035,0.170
3.824,0.005,0.160
3.826,-0.025,0.150
3.828,0.000,0.135
3.830,-0.035,0.115
3.832,-0.120,0.095
3.834,-0.220,0.080
3.836,-0.260,0.065
3.838,-0.250,0.055
3.840,-0.235,0.050
3.842,-0.195,0.045
3.844,-0.185,0.045
3.846,-0.100,0.040
3.848,-0.070,0.040
3.850,-0.105,0.035
3.852,-0.190,0.025
3.854,-0.255,0.015
3.856,-0.345,0.005
3.858,-0.385,-0.005
3.860,-0.370,-0.010
3.862,-0.255,-0.015
3.864,-0.195,-0.015
3.866,-0.120,-0.010
3.868,-0.095,-0.005
3.870,-0.120,-0.005
3.872,-0.225,0.000
3.874,-0.295,-0.005
3.876,-0.365,-0.005
3.878,-0.335,-0.015
3.880,-0.325,-0.025
3.882,-0.300,-0.035
3.884,-0.265,-0.040
3.886,-0.160,-0.050
3.888,-0.155,-0.055
3.890,-0.210,-0.060
3.892,-0.265,-0.060
3.894,-0.305,-0.060
3.896,-0.400,-0.055
3.898,-0.350,-0.045
3.900,-0.325,-0.040
3.902,-0.245,-0.035
3.904,-0.175,-0.030
3.906,-0.135,-0.030
3.908,-0.170,-0.035
3.910,-0.260,-0.040
3.912,-0.280,-0.050
3.914,-0.300,-0.060
3.916,-0.405,-0.065
3.918,-0.360,-0.065
3.920,-0.345,-0.065
3.922,-0.290,-0.055
3.924,-0.245,-0.045
3.926,-0.125,-0.035
3.928,-0.130,-0.025
3.930,-0.145,-0.025
3.932,-0.235,-0.025
3.934,-0.275,-0.035
3.936,-0.410,-0.045
3.938,-0.420,-0.050
3.940,-0.360,-0.060
3.942,-0.285,-0.060
3.944,-0.240,-0.055
3.946,-0.120,-0.045
3.948,-0.110,-0.035
3.950,-0.160,-0.020
3.952,-0.230,-0.010
3.954,-0.270,0.000
3.956,-0.325,0.005
3.958,-0.340,0.000
3.960,-0.310,-0.005
3.962,-0.230,-0.010
3.964,-0.205,-0.015
3.966,-0.125,-0.020
3.968,-0.120,-0.020
3.970,-0.165,-0.020
3.972,-0.240,-0.020
3.974,-0.265,-0.020
3.976,-0.370,-0.020
3.978,-0.385,-0.020
3.980,-0.360,-0.030
3.982,-0.260,-0.035
3.984,-0.215,-0.040
3.986,-0.130,-0.050
3.988,-0.155,-0.050
3.990,-0.225,-0.055
3.992,-0.320,-0.050
3.994,-0.310,-0.050
3.996,-0.380,-0.045
3.998,-0.355,-0.040
4.000,-0.305,-0.035
4.002,-0.255,-0.035
4.004,-0.225,-0.040
4.006,-0.150,-0.040
4.008,-0.160,-0.045
4.010,-0.200,-0.050
4.012,-0.270,-0.050
4.014,-0.335,-0.050
4.016,-0.390,-0.045
4.018,-0.355,-0.040
4.020,-0.310,-0.040
4.022,-0.280,-0.035
4.024,-0.235,-0.035
4.026,-0.160,-0.040
4.028,-0.165,-0.040
4.030,-0.210,-0.045
4.032,-0.250,-0.050
4.034,-0.325,-0.050
4.036,-0.415,-0.050
4.038,-0.390,-0.050
4.040,-0.295,-0.045
4.042,-0.230,-0.040
4.044,-0.210,-0.035
4.046,-0.165,-0.035
4.048,-0.170,-0.035
4.050,-0.220,-0.040
4.052,-0.270,-0.045
4.054,-0.305,-0.050
4.056,-0.380,-0.055
4.058,-0.360,-0.060
4.060,-0.295,-0.055
4.062,-0.230,-0.055
4.064,-0.215,-0.045
4.066,-0.145,-0.035
4.068,-0.155,-0.025
4.070,-0.205,-0.020
4.072,-0.230,-0.015
4.074,-0.305,-0.020
4.076,-0.390,-0.025
4.078,-0.380,-0.035
4.080,-0.300,-0.045
4.082,-0.240,-0.060
4.084,-0.250,-0.070
4.086,-0.195,-0.080
4.088,-0.215,-0.085
4.090,-0.280,-0.090
4.092,-0.330,-0.090
4.094,-0.385,-0.090
4.096,-0.405,-0.085
4.098,-0.385,-0.080
4.100,-0.295,-0.075
4.102,-0.265,-0.065
4.104,-0.190,-0.060
4.106,-0.135,-0.055
4.108,-0.180,-0.050
4.110,-0.270,-0.050
4.112,-0.305,-0.055
4.114,-0.355,-0.055
4.116,-0.400,-0.060
4.118,-0.370,-0.065
4.120,-0.305,-0.070
4.122,-0.280,-0.070
4.124,-0.195,-0.070
4.126,-0.135,-0.065
4.128,-0.185,-0.055
4.130,-0.260,-0.050
4.132,-0.295,-0.045
4.134,-0.365,-0.040
4.136,-0.365,-0.035
4.138,-0.345,-0.035
4.140,-0.260,-0.040
4.142,-0.245,-0.050
4.144,-0.205,-0.060
4.146,-0.165,-0.065
4.148,-0.210,-0.075
4.150,-0.295,-0.075
4.152,-0.315,-0.075
4.154,-0.400,-0.070
4.156,-0.405,-0.065
4.158,-0.340,-0.055
4.160,-0.255,-0.045
4.162,-0.195,-0.040
4.164,-0.105,-0.035
4.166,-0.140,-0.040
4.168,-0.210,-0.045
4.170,-0.320,-0.055
4.172,-0.375,-0.070
4.174,-0.435,-0.080
4.176,-0.400,-0.090
4.178,-0.370,-0.095
4.180,-0.280,-0.090
4.182,-0.260,-0.085
4.184,-0.160,-0.080
4.186,-0.180,-0.070
4.188,-0.200,-0.060
4.190,-0.285,-0.055
4.192,-0.320,-0.055
4.194,-0.430,-0.055
4.196,-0.415,-0.055
4.198,-0.345,-0.055
4.200,-0.265,-0.055
4.202,-0.210,-0.055
4.204,-0.130,-0.050
4.206,-0.135,-0.045
4.208,-0.155,-0.035
4.210,-0.230,-0.030
4.212,-0.240,-0.030
4.214,-0.355,-0.035
4.216,-0.365,-0.040
4.218,-0.380,-0.055
4.220,-0.360,-0.065
4.222,-0.280,-0.075
4.224,-0.155,-0.085
4.226,-0.170,-0.090
4.228,-0.220,-0.090
4.230,-0.315,-0.085
4.232,-0.315,-0.080
4.234,-0.435,-0.075
4.236,-0.415,-0.070
4.238,-0.355,-0.065
4.240,-0.275,-0.065
4.242,-0.270,-0.065
4.244,-0.150,-0.060
4.246,-0.150,-0.060
4.248,-0.215,-0.060
4.250,-0.260,-0.060
4.252,-0.335,-0.055
4.254,-0.425,-0.055
4.256,-0.400,-0.055
4.258,-0.350,-0.050
4.260,-0.275,-0.050
4.262,-0.240,-0.050
4.264,-0.140,-0.050
4.266,-0.120,-0.050
4.268,-0.180,-0.050
4.270,-0.270,-0.050
4.272,-0.305,-0.055
4.274,-0.405,-0.055
4.276,-0.405,-0.060
4.278,-0.390,-0.065
4.280,-0.320,-0.070
4.282,-0.270,-0.075
4.284,-0.155,-0.075
4.286,-0.150,-0.075
4.288,-0.220,-0.075
4.290,-0.285,-0.070
4.292,-0.335,-0.060
4.294,-0.390,-0.055
4.296,-0.355,-0.050
4.298,-0.300,-0.045
4.300,-0.215,-0.045
4.302,-0.195,-0.050
4.304,-0.175,-0.055
4.306,-0.230,-0.070
4.308,-0.275,-0.080
4.310,-0.310,-0.095
4.312,-0.335,-0.105
4.314,-0.415,-0.110
4.316,-0.425,-0.110
4.318,-0.400,-0.105
4.320,-0.290,-0.095
4.322,-0.210,-0.080
4.324,-0.130,-0.070
4.326,-0.170,-0.060
4.328,-0.235,-0.050
4.330,-0.300,-0.050
4.332,-0.370,-0.050
4.334,-0.385,-0.060
4.336,-0.350,-0.065
4.338,-0.310,-0.070
4.340,-0.270,-0.070
4.342,-0.200,-0.065
4.344,-0.170,-0.055
4.346,-0.130,-0.040
4.348,-0.170,-0.020
4.350,-0.230,-0.005
4.352,-0.285,0.010
4.354,-0.325,0.015
4.356,-0.265,0.015
4.358,-0.235,0.005
4.360,-0.235,-0.010
4.362,-0.230,-0.030
4.364,-0.180,-0.050
4.366,-0.200,-0.060
4.368,-0.225,-0.065
4.370,-0.285,-0.060
4.372,-0.300,-0.050
4.374,-0.325,-0.025
4.376,-0.290,-0.005
4.378,-0.215,0.020
4.380,-0.115,0.040
4.382,-0.085,0.055
4.384,-0.065,0.060
4.386,-0.100,0.060
4.388,-0.140,0.055
4.390,-0.185,0.050
4.392,-0.205,0.045
4.394,-0.280,0.040
4.396,-0.255,0.040
4.398,-0.185,0.040
4.400,-0.160,0.040
4.402,-0.090,0.040
4.404,-0.080,0.035
4.406,-0.130,0.030
4.408,-0.195,0.025
4.410,-0.255,0.020
4.412,-0.340,0.010
4.414,-0.335,0.010
4.416,-0.295,0.010
4.418,-0.175,0.015
4.420,-0.125,0.020
4.422,-0.095,0.020
4.424,-0.075,0.020
4.426,-0.110,0.020
4.428,-0.200,0.010
4.430,-0.255,-0.005
4.432,-0.360,-0.020
4.434,-0.385,-0.040
4.436,-0.375,-0.055
4.438,-0.335,-0.070
4.440,-0.295,-0.080
4.442,-0.200,-0.085
4.444,-0.160,-0.090
4.446,-0.205,-0.085
4.448,-0.275,-0.085
4.450,-0.320,-0.080
4.452,-0.420,-0.075
4.454,-0.400,-0.075
4.456,-0.370,-0.075
4.458,-0.300,-0.075
4.460,-0.240,-0.080
4.462,-0.200,-0.085
4.464,-0.185,-0.085
4.466,-0.220,-0.085
4.468,-0.325,-0.085
4.470,-0.370,-0.085
4.472,-0.435,-0.085
4.474,-0.390,-0.080
4.476,-0.350,-0.075
4.478,-0.290,-0.075
4.480,-0.265,-0.070
4.482,-0.155,-0.065
4.484,-0.200,-0.055
4.486,-0.235,-0.040
4.488,-0.275,-0.020
4.490,-0.230,0.010
4.492,-0.210,0.055
4.494,-0.125,0.115
4.496,-0.085,0.190
4.498,0.055,0.270
4.500,0.185,0.355
4.502,0.335,0.435
4.504,0.420,0.500
4.506,0.475,0.540
4.508,0.395,0.550
4.510,0.265,0.515
4.512,0.085,0.440
4.514,-0.050,0.325
4.516,-0.125,0.175
4.518,-0.160,0.000
4.520,-0.330,-0.185
4.522,-0.450,-0.375
4.524,-0.715,-0.540
4.526,-0.960,-0.680
4.528,-1.100,-0.780
4.530,-1.140,-0.835
4.532,-1.190,-0.845
4.534,-1.115,-0.820
4.536,-1.040,-0.770
4.538,-0.905,-0.700
4.540,-0.760,-0.620
4.542,-0.595,-0.545
4.544,-0.520,-0.480
4.546,-0.545,-0.430
4.548,-0.605,-0.390
4.550,-0.615,-0.360
4.552,-0.715,-0.340
4.554,-0.685,-0.315
4.556,-0.555,-0.295
4.558,-0.435,-0.265
4.560,-0.345,-0.240
4.562,-0.235,-0.205
4.564,-0.235,-0.175
4.566,-0.265,-0.145
4.568,-0.385,-0.125
4.570,-0.410,-0.105
4.572,-0.475,-0.090
4.574,-0.400,-0.080
4.576,-0.340,-0.070
4.578,-0.265,-0.065
4.580,-0.200,-0.055
4.582,-0.110,-0.040
4.584,-0.105,-0.030
4.586,-0.160,-0.020
4.588,-0.265,-0.010
4.590,-0.290,0.000
4.592,-0.330,0.005
4.594,-0.310,0.005
4.596,-0.240,0.005
4.598,-0.215,0.000
4.600,-0.125,0.000
4.602,-0.095,0.000
4.604,-0.095,0.005
4.606,-0.105,0.015
4.608,-0.180,0.025
4.610,-0.265,0.040
4.612,-0.315,0.050
4.614,-0.300,0.055
4.616,-0.225,0.060
4.618,-0.135,0.060
4.620,-0.070,0.060
4.622,0.005,0.060
4.624,-0.025,0.055
4.626,-0.145,0.060
4.628,-0.205,0.060
4.630,-0.230,0.065
4.632,-0.260,0.075
4.634,-0.215,0.080
4.636,-0.180,0.085
4.638,-0.125,0.085
4.640,-0.055,0.085
4.642,-0.005,0.080
4.644,-0.040,0.075
4.646,-0.095,0.075
4.648,-0.170,0.070
4.650,-0.200,0.070
4.652,-0.255,0.080
4.654,-0.230,0.090
4.656,-0.180,0.100
4.658,-0.090,0.110
4.660,-0.030,0.125
4.662,0.055,0.130
4.664,0.035,0.135
4.666,-0.055,0.135
4.668,-0.135,0.135
4.670,-0.180,0.130
4.672,-0.195,0.130
4.674,-0.160,0.135
4.676,-0.060,0.145
4.678,-0.005,0.160
4.680,0.045,0.175
4.682,0.100,0.190
4.684,0.095,0.200
4.686,0.055,0.210
4.688,-0.025,0.215
4.690,-0.115,0.220
4.692,-0.140,0.220
4.694,-0.100,0.220
4.696,-0.005,0.220
4.698,0.070,0.225
4.700,0.120,0.230
4.702,0.110,0.235
4.704,0.110,0.245
4.706,0.040,0.250
4.708,-0.010,0.255
4.710,-0.060,0.260
4.712,-0.070,0.265
4.714,-0.045,0.265
4.716,0.025,0.270
4.718,0.085,0.280
4.720,0.175,0.290
4.722,0.190,0.300
4.724,0.210,0.310
4.726,0.160,0.320
4.728,0.110,0.325
4.730,0.000,0.330
4.732,0.010,0.325
4.734,0.035,0.325
4.736,0.075,0.320
4.738,0.090,0.315
4.740,0.185,0.315
4.742,0.215,0.315
4.744,0.195,0.320
4.746,0.135,0.325
4.748,0.090,0.330
4.750,0.010,0.330
4.752,0.005,0.330
4.754,0.040,0.325
4.756,0.125,0.320
4.758,0.140,0.320
4.760,0.205,0.315
4.762,0.225,0.315
4.764,0.205,0.320
4.766,0.100,0.320
4.768,0.070,0.325
4.770,0.010,0.325
4.772,0.000,0.320
4.774,-0.005,0.310
4.776,0.075,0.300
4.778,0.110,0.285
4.780,0.170,0.275
4.782,0.140,0.265
4.784,0.140,0.260
4.786,0.075,0.255
4.788,0.030,0.255
4.790,-0.070,0.245
4.792,-0.065,0.235
4.794,-0.065,0.220
4.796,-0.045,0.195
4.798,-0.105,0.170
4.800,0.000,0.135
4.802,-0.040,0.110
4.804,-0.050,0.085
4.806,-0.135,0.070
4.808,-0.160,0.065
4.810,-0.245,0.070
4.812,-0.225,0.080
4.814,-0.200,0.090
4.816,-0.110,0.100
4.818,-0.090,0.100
4.820,0.000,0.095
4.822,-0.025,0.080
4.824,-0.105,0.060
4.826,-0.195,0.040
4.828,-0.250,0.015
4.830,-0.360,0.000
4.832,-0.340,-0.015
4.834,-0.295,-0.020
4.836,-0.235,-0.025
4.838,-0.210,-0.020
4.840,-0.145,-0.020
4.842,-0.145,-0.015
4.844,-0.180,-0.015
4.846,-0.245,-0.020
4.848,-0.320,-0.025
4.850,-0.420,-0.030
4.852,-0.350,-0.040
4.854,-0.285,-0.040
4.856,-0.240,-0.040
4.858,-0.185,-0.040
4.860,-0.130,-0.035
4.862,-0.155,-0.035
4.864,-0.210,-0.030
4.866,-0.240,-0.030
4.868,-0.305,-0.030
4.870,-0.385,-0.030
4.872,-0.360,-0.035
4.874,-0.295,-0.030
4.876,-0.230,-0.030
4.878,-0.165,-0.025
4.880,-0.085,-0.015
4.882,-0.110,-0.005
4.884,-0.160,0.000
4.886,-0.195,0.005
4.888,-0.250,0.010
4.890,-0.345,0.005
4.892,-0.350,0.000
4.894,-0.295,-0.010
4.896,-0.235,-0.020
4.898,-0.190,-0.030
4.900,-0.155,-0.040
4.902,-0.195,-0.045
4.904,-0.220,-0.045
4.906,-0.285,-0.050
4.908,-0.335,-0.045
4.910,-0.365,-0.045
4.912,-0.330,-0.040
4.914,-0.260,-0.035
4.916,-0.210,-0.030
4.918,-0.195,-0.025
4.920,-0.145,-0.020
4.922,-0.165,-0.015
4.924,-0.195,-0.010
4.926,-0.240,-0.005
4.928,-0.295,-0.005
4.930,-0.330,-0.005
4.932,-0.285,-0.005
4.934,-0.215,-0.010
4.936,-0.195,-0.015
4.938,-0.200,-0.025
4.940,-0.160,-0.030
4.942,-0.165,-0.040
4.944,-0.275,-0.045
4.946,-0.285,-0.050
4.948,-0.330,-0.050
4.950,-0.365,-0.050
4.952,-0.340,-0.045
4.954,-0.260,-0.040
4.956,-0.225,-0.035
4.958,-0.220,-0.035
4.960,-0.155,-0.030
4.962,-0.140,-0.025
4.964,-0.210,-0.020
4.966,-0.265,-0.020
4.968,-0.325,-0.015
4.970,-0.360,-0.015
4.972,-0.335,-0.010
4.974,-0.250,-0.010
4.976,-0.165,-0.010
4.978,-0.095,-0.015
4.980,-0.075,-0.020
4.982,-0.150,-0.020
4.984,-0.260,-0.025
4.986,-0.330,-0.030
4.988,-0.375,-0.035
4.990,-0.385,-0.040
4.992,-0.365,-0.045
4.994,-0.265,-0.045
4.996,-0.205,-0.050
4.998,-0.150,-0.050
5.000,-0.185,-0.055
5.002,-0.230,-0.055
5.004,-0.290,-0.050
5.006,-0.285,-0.045
5.008,-0.350,-0.040
5.010,-0.360,-0.030
5.012,-0.340,-0.020
5.014,-0.240,-0.005
5.016,-0.180,0.000
5.018,-0.080,0.005
5.020,-0.095,0.010
5.022,-0.145,0.005
5.024,-0.225,0.000
5.026,-0.270,-0.005
5.028,-0.365,-0.015
5.030,-0.340,-0.020
5.032,-0.300,-0.020
5.034,-0.260,-0.020
5.036,-0.220,-0.015
5.038,-0.110,-0.010
5.040,-0.130,-0.005
5.042,-0.165,0.000
5.044,-0.225,0.005
5.046,-0.290,0.005
5.048,-0.325,0.000
5.050,-0.315,-0.005
5.052,-0.295,-0.015
5.054,-0.265,-0.025
5.056,-0.275,-0.035
5.058,-0.145,-0.045
5.060,-0.160,-0.055
5.062,-0.185,-0.055
5.064,-0.275,-0.060
5.066,-0.315,-0.055
5.068,-0.390,-0.055
5.070,-0.345,-0.050
5.072,-0.335,-0.045
5.074,-0.280,-0.045
5.076,-0.215,-0.040
5.078,-0.090,-0.040
5.080,-0.150,-0.045
5.082,-0.200,-0.045
5.084,-0.270,-0.055
5.086,-0.345,-0.060
5.088,-0.445,-0.065
5.090,-0.400,-0.070
5.092,-0.340,-0.070
5.094,-0.230,-0.070
5.096,-0.225,-0.065
5.098,-0.140,-0.055
5.100,-0.120,-0.050
5.102,-0.190,-0.040
5.104,-0.270,-0.035
5.106,-0.275,-0.025
5.108,-0.360,-0.025
5.110,-0.390,-0.020
5.112,-0.360,-0.025
5.114,-0.285,-0.025
5.116,-0.210,-0.030
5.118,-0.105,-0.035
5.120,-0.130,-0.035
5.122,-0.180,-0.040
5.124,-0.265,-0.040
5.126,-0.295,-0.040
5.128,-0.400,-0.040
5.130,-0.380,-0.040
5.132,-0.315,-0.045
5.134,-0.265,-0.045
5.136,-0.230,-0.045
5.138,-0.120,-0.045
5.140,-0.105,-0.045
5.142,-0.195,-0.040
5.144,-0.260,-0.040
5.146,-0.300,-0.035
5.148,-0.360,-0.030
5.150,-0.360,-0.025
5.152,-0.275,-0.025
5.154,-0.220,-0.020
5.156,-0.205,-0.020
5.158,-0.135,-0.020
5.160,-0.155,-0.025
5.162,-0.200,-0.030
5.164,-0.290,-0.040
5.166,-0.310,-0.045
5.168,-0.375,-0.050
5.170,-0.360,-0.055
5.172,-0.350,-0.060
5.174,-0.260,-0.060
5.176,-0.195,-0.055
5.178,-0.100,-0.050
5.180,-0.140,-0.040
5.182,-0.185,-0.035
5.184,-0.245,-0.030
5.186,-0.340,-0.025
5.188,-0.390,-0.030
5.190,-0.355,-0.035
5.192,-0.305,-0.040
5.194,-0.290,-0.050
5.196,-0.230,-0.060
5.198,-0.160,-0.065
5.200,-0.180,-0.065
5.202,-0.225,-0.065
5.204,-0.285,-0.060
5.206,-0.320,-0.050
5.208,-0.360,-0.040
5.210,-0.330,-0.035
5.212,-0.275,-0.030
5.214,-0.240,-0.030
5.216,-0.195,-0.035
5.218,-0.140,-0.040
5.220,-0.190,-0.050
5.222,-0.265,-0.060
5.224,-0.330,-0.070
5.226,-0.375,-0.075
5.228,-0.395,-0.080
5.230,-0.375,-0.080
5.232,-0.300,-0.075
5.234,-0.225,-0.070
5.236,-0.160,-0.060
5.238,-0.125,-0.050
5.240,-0.140,-0.045
5.242,-0.200,-0.040
5.244,-0.255,-0.035
5.246,-0.360,-0.030
5.248,-0.360,-0.030
5.250,-0.340,-0.035
5.252,-0.265,-0.035
5.254,-0.235,-0.040
5.256,-0.155,-0.040
5.258,-0.090,-0.045
5.260,-0.135,-0.045
5.262,-0.250,-0.050
5.264,-0.350,-0.050
5.266,-0.410,-0.050
5.268,-0.390,-0.050
5.270,-0.360,-0.050
5.272,-0.250,-0.055
5.274,-0.205,-0.055
5.276,-0.160,-0.050
5.278,-0.175,-0.050
5.280,-0.190,-0.045
5.282,-0.265,-0.045
5.284,-0.290,-0.040
5.286,-0.350,-0.040
5.288,-0.350,-0.045
5.290,-0.360,-0.045
5.292,-0.310,-0.050
5.294,-0.210,-0.060
5.296,-0.140,-0.065
5.298,-0.165,-0.070
5.300,-0.245,-0.075
5.302,-0.285,-0.075
5.304,-0.295,-0.070
5.306,-0.375,-0.065
5.308,-0.385,-0.060
5.310,-0.335,-0.050
5.312,-0.250,-0.045
5.314,-0.220,-0.045
5.316,-0.110,-0.045
5.318,-0.130,-0.045
5.320,-0.220,-0.050
5.322,-0.275,-0.055
5.324,-0.325,-0.055
5.326,-0.400,-0.055
5.328,-0.350,-0.050
5.330,-0.325,-0.050
5.332,-0.245,-0.045
5.334,-0.200,-0.040
5.336,-0.130,-0.035
5.338,-0.150,-0.030
5.340,-0.165,-0.030
5.342,-0.240,-0.025
5.344,-0.260,-0.020
5.346,-0.370,-0.015
5.348,-0.330,-0.005
5.350,-0.280,0.005
5.352,-0.215,0.010
5.354,-0.175,0.020
5.356,-0.060,0.025
5.358,-0.070,0.025
5.360,-0.115,0.030
5.362,-0.205,0.030
5.364,-0.230,0.030
5.366,-0.340,0.035
5.368,-0.265,0.040
5.370,-0.185,0.050
5.372,-0.115,0.060
5.374,-0.100,0.065
5.376,-0.025,0.070
5.378,-0.055,0.065
5.380,-0.120,0.060
5.382,-0.185,0.045
5.384,-0.195,0.030
5.386,-0.330,0.020
5.388,-0.290,0.010
5.390,-0.230,0.010
5.392,-0.130,0.015
5.394,-0.080,0.030
5.396,-0.005,0.040
5.398,-0.085,0.055
5.400,-0.130,0.060
5.402,-0.155,0.060
5.404,-0.190,0.055
5.406,-0.295,0.040
5.408,-0.305,0.025
5.410,-0.245,0.005
5.412,-0.155,-0.005
5.414,-0.185,-0.015
5.416,-0.085,-0.015
5.418,-0.105,-0.015
5.420,-0.150,-0.015
5.422,-0.245,-0.015
5.424,-0.290,-0.015
5.426,-0.360,-0.020
5.428,-0.370,-0.030
5.430,-0.315,-0.045
5.432,-0.225,-0.055
5.434,-0.190,-0.070
5.436,-0.175,-0.080
5.438,-0.190,-0.085
5.440,-0.260,-0.090
5.442,-0.370,-0.095
5.444,-0.385,-0.095
5.446,-0.425,-0.095
5.448,-0.375,-0.090
5.450,-0.330,-0.085
5.452,-0.285,-0.080
5.454,-0.195,-0.070
5.456,-0.130,-0.065
5.458,-0.170,-0.060
5.460,-0.255,-0.060
5.462,-0.275,-0.065
5.464,-0.340,-0.075
5.466,-0.450,-0.085
5.468,-0.415,-0.095
5.470,-0.330,-0.095
5.472,-0.225,-0.090
5.474,-0.210,-0.075
5.476,-0.130,-0.040
5.478,-0.100,0.005
5.480,-0.100,0.060
5.482,-0.085,0.120
5.484,-0.080,0.185
5.486,-0.075,0.250
5.488,0.040,0.315
5.490,0.180,0.375
5.492,0.295,0.430
5.494,0.355,0.470
5.496,0.440,0.495
5.498,0.450,0.495
5.500,0.290,0.465
5.502,0.135,0.395
5.504,-0.035,0.290
5.506,-0.155,0.145
5.508,-0.275,-0.030
5.510,-0.415,-0.220
5.512,-0.580,-0.415
5.514,-0.830,-0.595
5.516,-0.995,-0.745
5.518,-1.040,-0.845
5.520,-1.115,-0.900
5.522,-1.140,-0.900
5.524,-1.115,-0.860
5.526,-1.070,-0.790
5.528,-0.975,-0.700
5.530,-0.815,-0.605
5.532,-0.670,-0.520
5.534,-0.530,-0.450
5.536,-0.420,-0.400
5.538,-0.425,-0.365
5.540,-0.515,-0.345
5.542,-0.645,-0.335
5.544,-0.655,-0.325
5.546,-0.645,-0.315
5.548,-0.575,-0.295
5.550,-0.450,-0.270
5.552,-0.350,-0.235
5.554,-0.270,-0.200
5.556,-0.210,-0.160
5.558,-0.210,-0.120
5.560,-0.260,-0.085
5.562,-0.300,-0.060
5.564,-0.350,-0.045
5.566,-0.370,-0.035
5.568,-0.335,-0.035
5.570,-0.250,-0.040
5.572,-0.210,-0.050
5.574,-0.135,-0.055
5.576,-0.145,-0.060
5.578,-0.165,-0.060
5.580,-0.230,-0.060
5.582,-0.270,-0.050
5.584,-0.320,-0.040
5.586,-0.310,-0.025
5.588,-0.270,-0.015
5.590,-0.205,-0.005
5.592,-0.180,0.000
5.594,-0.080,0.005
5.596,-0.040,0.010
5.598,-0.120,0.015
5.600,-0.205,0.015
5.602,-0.225,0.020
5.604,-0.310,0.020
5.606,-0.280,0.025
5.608,-0.245,0.025
5.610,-0.175,0.030
5.612,-0.130,0.030
5.614,-0.065,0.035
5.616,-0.045,0.035
5.618,-0.085,0.040
5.620,-0.175,0.045
5.622,-0.160,0.045
5.624,-0.270,0.050
5.626,-0.240,0.055
5.628,-0.230,0.055
5.630,-0.185,0.050
5.632,-0.110,0.050
5.634,-0.010,0.045
5.636,-0.030,0.045
5.638,-0.090,0.040
5.640,-0.145,0.040
5.642,-0.170,0.045
5.644,-0.300,0.045
5.646,-0.235,0.050
5.648,-0.185,0.055
5.650,-0.110,0.060
5.652,-0.100,0.065
5.654,-0.015,0.070
5.656,-0.015,0.075
5.658,-0.030,0.080
5.660,-0.090,0.085
5.662,-0.135,0.090
5.664,-0.200,0.100
5.666,-0.205,0.105
5.668,-0.190,0.110
5.670,-0.065,0.115
5.672,-0.025,0.115
5.674,0.075,0.115
5.676,0.010,0.115
5.678,-0.095,0.115
5.680,-0.085,0.120
5.682,-0.070,0.125
5.684,-0.130,0.135
5.686,-0.155,0.140
5.688,-0.115,0.150
5.690,-0.065,0.160
5.692,-0.020,0.165
5.694,0.100,0.170
5.696,0.065,0.170
5.698,0.015,0.170
5.700,-0.045,0.170
5.702,-0.040,0.175
5.704,-0.125,0.180
5.706,-0.085,0.195
5.708,-0.020,0.210
5.710,0.050,0.225
5.712,0.095,0.240
5.714,0.195,0.250
5.716,0.175,0.255
5.718,0.100,0.255
5.720,0.035,0.250
5.722,0.000,0.240
5.724,-0.080,0.225
5.726,-0.055,0.220
5.728,-0.040,0.215
5.730,0.035,0.220
5.732,0.110,0.225
5.734,0.215,0.240
5.736,0.190,0.260
5.738,0.130,0.275
5.740,0.065,0.290
5.742,0.080,0.300
5.744,0.010,0.310
5.746,0.010,0.315
5.748,0.070,0.315
5.750,0.125,0.315
5.752,0.170,0.315
5.754,0.220,0.315
5.756,0.265,0.315
5.758,0.195,0.315
5.760,0.120,0.320
5.762,0.040,0.320
5.764,0.005,0.325
5.766,0.035,0.325
5.768,0.085,0.330
5.770,0.170,0.330
5.772,0.225,0.330
5.774,0.285,0.330
5.776,0.245,0.325
5.778,0.155,0.320
5.780,0.090,0.310
5.782,0.045,0.300
5.784,-0.010,0.290
5.786,-0.015,0.285
5.788,0.010,0.275
5.790,0.100,0.270
5.792,0.155,0.265
5.794,0.205,0.255
5.796,0.180,0.250
5.798,0.100,0.235
5.800,-0.020,0.215
5.802,-0.135,0.195
5.804,-0.170,0.170
5.806,-0.160,0.140
5.808,-0.095,0.115
5.810,-0.080,0.090
5.812,-0.030,0.075
5.814,0.015,0.065
5.816,-0.030,0.060
5.818,-0.075,0.065
5.820,-0.155,0.075
5.822,-0.185,0.080
5.824,-0.200,0.090
5.826,-0.160,0.090
5.828,-0.115,0.080
5.830,-0.075,0.070
5.832,-0.100,0.050
5.834,-0.090,0.025
5.836,-0.125,0.000
5.838,-0.230,-0.025
5.840,-0.255,-0.040
5.842,-0.325,-0.055
5.844,-0.340,-0.060
5.846,-0.305,-0.065
5.848,-0.235,-0.060
5.850,-0.205,-0.055
5.852,-0.145,-0.050
5.854,-0.110,-0.045
5.856,-0.130,-0.040
5.858,-0.205,-0.035
5.860,-0.220,-0.030
5.862,-0.300,-0.030
5.864,-0.320,-0.025
5.866,-0.285,-0.025
5.868,-0.210,-0.025
5.870,-0.165,-0.025
5.872,-0.090,-0.030
5.874,-0.075,-0.035
5.876,-0.100,-0.040
5.878,-0.205,-0.045
5.880,-0.270,-0.050
5.882,-0.385,-0.055
5.884,-0.360,-0.055
5.886,-0.330,-0.055
5.888,-0.250,-0.060
5.890,-0.200,-0.060
5.892,-0.105,-0.055
5.894,-0.105,-0.055
5.896,-0.185,-0.055
5.898,-0.215,-0.050
5.900,-0.265,-0.050
5.902,-0.340,-0.045
5.904,-0.310,-0.040
5.906,-0.275,-0.040
5.908,-0.200,-0.035
5.910,-0.155,-0.035
5.912,-0.105,-0.035
5.914,-0.120,-0.040
5.916,-0.145,-0.045
5.918,-0.220,-0.055
5.920,-0.280,-0.065
5.922,-0.385,-0.070
5.924,-0.375,-0.075
5.926,-0.325,-0.080
5.928,-0.225,-0.080
5.930,-0.165,-0.075
5.932,-0.115,-0.070
5.934,-0.120,-0.060
5.936,-0.155,-0.055
5.938,-0.185,-0.055
5.940,-0.255,-0.055
5.942,-0.380,-0.055
5.944,-0.360,-0.060
5.946,-0.295,-0.060
5.948,-0.235,-0.060
5.950,-0.170,-0.060
5.952,-0.100,-0.055
5.954,-0.085,-0.050
5.956,-0.140,-0.040
5.958,-0.230,-0.035
5.960,-0.255,-0.030
5.962,-0.345,-0.030
5.964,-0.365,-0.035
5.966,-0.300,-0.035
5.968,-0.195,-0.040
5.970,-0.150,-0.040
5.972,-0.070,-0.040
5.974,-0.055,-0.035
5.976,-0.090,-0.030
5.978,-0.145,-0.020
5.980,-0.210,-0.010
5.982,-0.315,-0.005
5.984,-0.325,-0.005
5.986,-0.300,-0.010
5.988,-0.215,-0.020
5.990,-0.175,-0.035
5.992,-0.065,-0.050
5.994,-0.080,-0.065
5.996,-0.180,-0.075
5.998,-0.250,-0.085
6.000,-0.305,-0.085
6.002,-0.365,-0.085
6.004,-0.350,-0.080
6.006,-0.310,-0.075
6.008,-0.230,-0.070
6.010,-0.170,-0.070
6.012,-0.120,-0.070
6.014,-0.115,-0.065
6.016,-0.180,-0.065
6.018,-0.240,-0.065
6.020,-0.270,-0.055
6.022,-0.330,-0.050
6.024,-0.325,-0.040
6.026,-0.260,-0.025
6.028,-0.160,-0.015
6.030,-0.095,-0.010
6.032,-0.035,-0.010
6.034,-0.080,-0.020
6.036,-0.170,-0.030
6.038,-0.270,-0.050
6.040,-0.330,-0.070
6.042,-0.405,-0.090
6.044,-0.420,-0.105
6.046,-0.330,-0.115
6.048,-0.260,-0.115
6.050,-0.185,-0.110
6.052,-0.115,-0.095
6.054,-0.100,-0.075
6.056,-0.165,-0.060
6.058,-0.210,-0.045
6.060,-0.280,-0.030
6.062,-0.345,-0.030
6.064,-0.330,-0.030
6.066,-0.235,-0.040
6.068,-0.180,-0.050
6.070,-0.175,-0.065
6.072,-0.130,-0.080
6.074,-0.135,-0.090
6.076,-0.180,-0.095
6.078,-0.245,-0.095
6.080,-0.310,-0.095
6.082,-0.355,-0.085
6.084,-0.330,-0.075
6.086,-0.275,-0.065
6.088,-0.200,-0.055
6.090,-0.165,-0.045
6.092,-0.095,-0.035
6.094,-0.075,-0.030
6.096,-0.130,-0.025
6.098,-0.205,-0.025
6.100,-0.280,-0.030
6.102,-0.355,-0.035
6.104,-0.370,-0.045
6.106,-0.325,-0.060
6.108,-0.265,-0.075
6.110,-0.195,-0.085
6.112,-0.120,-0.095
6.114,-0.150,-0.105
6.116,-0.170,-0.105
6.118,-0.245,-0.100
6.120,-0.330,-0.090
6.122,-0.380,-0.080
6.124,-0.370,-0.070
6.126,-0.250,-0.060
6.128,-0.200,-0.055
6.130,-0.155,-0.055
6.132,-0.110,-0.060
6.134,-0.120,-0.065
6.136,-0.215,-0.070
6.138,-0.245,-0.070
6.140,-0.340,-0.075
6.142,-0.350,-0.070
6.144,-0.340,-0.065
6.146,-0.240,-0.055
6.148,-0.200,-0.050
6.150,-0.110,-0.040
6.152,-0.070,-0.040
6.154,-0.095,-0.035
6.156,-0.185,-0.040
6.158,-0.235,-0.045
6.160,-0.315,-0.055
6.162,-0.325,-0.060
6.164,-0.350,-0.065
6.166,-0.280,-0.070
6.168,-0.200,-0.075
6.170,-0.115,-0.075
6.172,-0.100,-0.075
6.174,-0.145,-0.075
6.176,-0.205,-0.075
6.178,-0.235,-0.070
6.180,-0.360,-0.070
6.182,-0.370,-0.070
6.184,-0.355,-0.070
6.186,-0.255,-0.070
6.188,-0.200,-0.065
6.190,-0.085,-0.065
6.192,-0.115,-0.065
6.194,-0.150,-0.065
6.196,-0.205,-0.065
6.198,-0.250,-0.060
6.200,-0.320,-0.060
6.202,-0.330,-0.055
6.204,-0.320,-0.050
6.206,-0.265,-0.050
6.208,-0.205,-0.045
6.210,-0.090,-0.045
6.212,-0.115,-0.045
6.214,-0.150,-0.050
6.216,-0.180,-0.055
6.218,-0.195,-0.060
6.220,-0.320,-0.060
6.222,-0.345,-0.065
6.224,-0.310,-0.065
6.226,-0.245,-0.065
6.228,-0.230,-0.070
6.230,-0.140,-0.070
6.232,-0.125,-0.070
6.234,-0.170,-0.075
6.236,-0.230,-0.080
6.238,-0.275,-0.085
6.240,-0.350,-0.085
6.242,-0.350,-0.085
6.244,-0.300,-0.080
6.246,-0.235,-0.075
6.248,-0.205,-0.070
6.250,-0.085,-0.060
6.252,-0.100,-0.050
6.254,-0.135,-0.045
6.256,-0.210,-0.045
6.258,-0.275,-0.045
6.260,-0.365,-0.050
6.262,-0.335,-0.050
6.264,-0.270,-0.055
6.266,-0.210,-0.060
6.268,-0.175,-0.065
6.270,-0.090,-0.065
6.272,-0.105,-0.065
6.274,-0.150,-0.065
6.276,-0.215,-0.060
6.278,-0.265,-0.060
6.280,-0.355,-0.060
6.282,-0.315,-0.055
6.284,-0.275,-0.055
6.286,-0.210,-0.050
6.288,-0.160,-0.045
6.290,-0.085,-0.040
6.292,-0.095,-0.040
6.294,-0.140,-0.035
6.296,-0.225,-0.035
6.298,-0.250,-0.040
6.300,-0.345,-0.040
6.302,-0.345,-0.045
6.304,-0.245,-0.045
6.306,-0.190,-0.050
6.308,-0.165,-0.050
6.310,-0.075,-0.050
6.312,-0.105,-0.050
6.314,-0.150,-0.050
6.316,-0.220,-0.055
6.318,-0.280,-0.055
6.320,-0.350,-0.065
6.322,-0.325,-0.070
6.324,-0.310,-0.075
6.326,-0.220,-0.080
6.328,-0.145,-0.080
6.330,-0.085,-0.075
6.332,-0.115,-0.070
6.334,-0.160,-0.060
6.336,-0.215,-0.055
6.338,-0.270,-0.045
6.340,-0.310,-0.035
6.342,-0.285,-0.030
6.344,-0.245,-0.030
6.346,-0.210,-0.030
6.348,-0.155,-0.035
6.350,-0.115,-0.040
6.352,-0.090,-0.040
6.354,-0.120,-0.040
6.356,-0.200,-0.035
6.358,-0.225,-0.030
6.360,-0.295,-0.020
6.362,-0.275,-0.010
6.364,-0.205,0.005
6.366,-0.150,0.015
6.368,-0.100,0.020
6.370,-0.030,0.020
6.372,-0.035,0.020
6.374,-0.095,0.010
6.376,-0.175,0.005
6.378,-0.230,0.000
6.380,-0.305,-0.005
6.382,-0.280,-0.005
6.384,-0.175,0.000
6.386,-0.090,0.010
6.388,-0.040,0.020
6.390,0.010,0.035
6.392,-0.030,0.050
6.394,-0.080,0.060
6.396,-0.115,0.070
6.398,-0.165,0.075
6.400,-0.200,0.080
6.402,-0.180,0.080
6.404,-0.085,0.080
6.406,-0.040,0.080
6.408,0.005,0.075
6.410,0.025,0.070
6.412,0.015,0.060
6.414,-0.090,0.050
6.416,-0.150,0.045
6.418,-0.205,0.035
6.420,-0.230,0.025
6.422,-0.260,0.020
6.424,-0.170,0.020
6.426,-0.090,0.025
6.428,-0.015,0.030
6.430,0.030,0.035
6.432,0.015,0.045
6.434,-0.035,0.050
6.436,-0.090,0.050
6.438,-0.215,0.040
6.440,-0.240,0.025
6.442,-0.310,0.005
6.444,-0.270,-0.015
6.446,-0.215,-0.040
6.448,-0.120,-0.065
6.450,-0.105,-0.080
6.452,-0.170,-0.095
6.454,-0.245,-0.100
6.456,-0.255,-0.100
6.458,-0.355,-0.095
6.460,-0.345,-0.090
6.462,-0.335,-0.085
6.464,-0.245,-0.075
6.466,-0.225,-0.075
6.468,-0.105,-0.070
6.470,-0.120,-0.070
6.472,-0.165,-0.075
6.474,-0.240,-0.075
6.476,-0.280,-0.080
6.478,-0.370,-0.080
6.480,-0.345,-0.080
6.482,-0.290,-0.080
6.484,-0.230,-0.080
6.486,-0.200,-0.080
6.488,-0.125,-0.075
6.490,-0.115,-0.070
6.492,-0.135,-0.060
6.494,-0.205,-0.045
6.496,-0.235,-0.030
6.498,-0.285,-0.005
6.500,-0.205,0.030
6.502,-0.120,0.075
6.504,0.005,0.125
6.506,0.100,0.190
6.508,0.185,0.265
6.510,0.265,0.345
6.512,0.355,0.425
6.514,0.395,0.495
6.516,0.440,0.545
6.518,0.365,0.565
6.520,0.315,0.545
6.522,0.220,0.485
6.524,0.110,0.375
6.526,0.070,0.225
6.528,0.010,0.040
6.530,-0.155,-0.155
6.532,-0.385,-0.355
6.534,-0.705,-0.530
6.536,-1.005,-0.680
6.538,-1.145,-0.785
6.540,-1.165,-0.840
6.542,-1.155,-0.855
6.544,-1.035,-0.830
6.546,-0.900,-0.780
6.548,-0.670,-0.710
6.550,-0.595,-0.640
6.552,-0.635,-0.570
6.554,-0.670,-0.510
6.556,-0.655,-0.460
6.558,-0.705,-0.420
6.560,-0.665,-0.390
6.562,-0.590,-0.360
6.564,-0.470,-0.330
6.566,-0.400,-0.295
6.568,-0.265,-0.265
6.570,-0.255,-0.230
6.572,-0.260,-0.195
6.574,-0.305,-0.160
6.576,-0.315,-0.130
6.578,-0.390,-0.105
6.580,-0.345,-0.085
6.582,-0.295,-0.065
6.584,-0.200,-0.055
6.586,-0.165,-0.050
6.588,-0.085,-0.045
6.590,-0.085,-0.040
6.592,-0.115,-0.035
6.594,-0.195,-0.030
6.596,-0.225,-0.020
6.598,-0.305,-0.010
6.600,-0.270,0.000
6.602,-0.205,0.010
6.604,-0.160,0.020
6.606,-0.080,0.025
6.608,0.025,0.030
6.610,0.000,0.030
6.612,-0.055,0.025
6.614,-0.180,0.020
6.616,-0.255,0.015
6.618,-0.300,0.010
6.620,-0.265,0.010
6.622,-0.215,0.015
6.624,-0.110,0.020
6.626,-0.065,0.030
6.628,-0.025,0.035
6.630,-0.015,0.045
6.632,-0.015,0.050
6.634,-0.070,0.050
6.636,-0.125,0.045
6.638,-0.245,0.040
6.640,-0.295,0.035
6.642,-0.220,0.030
6.644,-0.130,0.025
6.646,-0.080,0.020
6.648,-0.005,0.020
6.650,-0.040,0.020
6.652,-0.090,0.020
6.654,-0.140,0.025
6.656,-0.190,0.025
6.658,-0.215,0.030
6.660,-0.200,0.035
6.662,-0.155,0.045
6.664,-0.075,0.050
6.666,-0.015,0.065
6.668,0.005,0.075
6.670,0.045,0.085
6.672,-0.055,0.095
6.674,-0.090,0.105
6.676,-0.120,0.110
6.678,-0.120,0.115
6.680,-0.130,0.115
6.682,-0.070,0.115
6.684,-0.020,0.115
6.686,0.030,0.115
6.688,0.040,0.115
6.690,0.010,0.115
6.692,-0.035,0.120
6.694,-0.095,0.120
6.696,-0.135,0.125
6.698,-0.130,0.130
6.700,-0.115,0.135
6.702,-0.030,0.140
6.704,0.030,0.145
6.706,0.095,0.155
6.708,0.115,0.165
6.710,0.085,0.175
6.712,0.025,0.180
6.714,-0.020,0.190
6.716,-0.035,0.195
6.718,-0.045,0.195
6.720,-0.040,0.195
6.722,-0.025,0.190
6.724,0.030,0.190
6.726,0.105,0.185
6.728,0.105,0.185
6.730,0.110,0.190
6.732,0.080,0.195
6.734,0.060,0.205
6.736,-0.010,0.220
6.738,-0.030,0.235
6.740,-0.005,0.250
6.742,0.085,0.260
6.744,0.155,0.270
6.746,0.210,0.280
6.748,0.225,0.285
6.750,0.215,0.295
6.752,0.140,0.300
6.754,0.105,0.305
6.756,0.040,0.310
6.758,0.010,0.310
6.760,0.085,0.310
6.762,0.130,0.305
6.764,0.120,0.300
6.766,0.200,0.295
6.768,0.245,0.295
6.770,0.245,0.295
6.772,0.190,0.295
6.774,0.140,0.305
6.776,0.050,0.315
6.778,0.040,0.330
6.780,0.050,0.340
6.782,0.160,0.350
6.784,0.215,0.350
6.786,0.335,0.350
6.788,0.285,0.340
6.790,0.230,0.330
6.792,0.120,0.320
6.794,0.115,0.310
6.796,0.035,0.310
6.798,0.000,0.310
6.800,0.035,0.310
6.802,0.150,0.320
6.804,0.200,0.325
6.806,0.290,0.325
6.808,0.275,0.320
6.810,0.225,0.310
6.812,0.150,0.295
6.814,0.060,0.275
6.816,-0.090,0.250
6.818,-0.075,0.230
6.820,-0.045,0.210
6.822,-0.005,0.195
6.824,0.015,0.180
6.826,0.075,0.165
6.828,0.090,0.155
6.830,0.045,0.140
6.832,-0.030,0.130
6.834,-0.080,0.120
6.836,-0.205,0.110
6.838,-0.210,0.100
6.840,-0.170,0.090
6.842,-0.090,0.085
6.844,-0.020,0.080
6.846,0.050,0.070
6.848,0.005,0.060
6.850,-0.055,0.050
6.852,-0.125,0.040
6.854,-0.215,0.025
6.856,-0.340,0.010
6.858,-0.320,-0.005
6.860,-0.280,-0.020
6.862,-0.185,-0.025
6.864,-0.125,-0.035
6.866,-0.040,-0.040
6.868,-0.110,-0.040
6.870,-0.145,-0.040
6.872,-0.195,-0.040
6.874,-0.255,-0.040
6.876,-0.340,-0.040
6.878,-0.335,-0.035
6.880,-0.265,-0.035
6.882,-0.200,-0.030
6.884,-0.175,-0.025
6.886,-0.060,-0.020
6.888,-0.085,-0.015
6.890,-0.145,-0.015
6.892,-0.190,-0.015
6.894,-0.220,-0.020
6.896,-0.305,-0.025
6.898,-0.290,-0.030
6.900,-0.260,-0.035
6.902,-0.240,-0.040
6.904,-0.255,-0.045
6.906,-0.115,-0.050
6.908,-0.115,-0.055
6.910,-0.175,-0.055
6.912,-0.270,-0.055
6.914,-0.280,-0.055
6.916,-0.345,-0.055
6.918,-0.325,-0.050
6.920,-0.280,-0.040
6.922,-0.165,-0.035
6.924,-0.105,-0.025
6.926,-0.040,-0.015
6.928,-0.095,-0.010
6.930,-0.135,-0.005
6.932,-0.210,-0.005
6.934,-0.295,-0.015
6.936,-0.325,-0.025
6.938,-0.325,-0.035
6.940,-0.250,-0.045
6.942,-0.200,-0.055
6.944,-0.190,-0.060
6.946,-0.125,-0.060
6.948,-0.100,-0.055
6.950,-0.185,-0.045
6.952,-0.270,-0.035
6.954,-0.270,-0.025
6.956,-0.315,-0.025
6.958,-0.320,-0.025
6.960,-0.255,-0.030
6.962,-0.170,-0.035
6.964,-0.145,-0.045
6.966,-0.105,-0.050
6.968,-0.100,-0.050
6.970,-0.170,-0.050
6.972,-0.235,-0.045
6.974,-0.280,-0.030
6.976,-0.330,-0.020
6.978,-0.310,-0.010
6.980,-0.220,0.000
6.982,-0.155,0.000
6.984,-0.100,0.000
6.986,-0.070,0.000
6.988,-0.110,-0.005
6.990,-0.195,-0.010
6.992,-0.230,-0.015
6.994,-0.290,-0.020
6.996,-0.315,-0.020
6.998,-0.300,-0.020
7.000,-0.265,-0.015
7.002,-0.200,-0.015
7.004,-0.145,-0.010
7.006,-0.080,-0.005
7.008,-0.100,-0.005
7.010,-0.155,-0.005
7.012,-0.180,-0.005
7.014,-0.240,-0.010
7.016,-0.265,-0.015
7.018,-0.320,-0.020
7.020,-0.295,-0.025
7.022,-0.250,-0.030
7.024,-0.140,-0.035
7.026,-0.115,-0.045
7.028,-0.160,-0.050
7.030,-0.220,-0.055
7.032,-0.225,-0.060
7.034,-0.320,-0.060
7.036,-0.330,-0.060
7.038,-0.305,-0.055
7.040,-0.240,-0.050
7.042,-0.220,-0.045
7.044,-0.145,-0.040
7.046,-0.105,-0.030
7.048,-0.135,-0.025
7.050,-0.150,-0.020
7.052,-0.210,-0.020
7.054,-0.325,-0.020
7.056,-0.325,-0.020
7.058,-0.275,-0.020
7.060,-0.205,-0.020
7.062,-0.170,-0.020
7.064,-0.075,-0.020
7.066,-0.095,-0.025
7.068,-0.135,-0.030
7.070,-0.180,-0.030
7.072,-0.235,-0.035
7.074,-0.335,-0.040
7.076,-0.340,-0.040
7.078,-0.290,-0.040
7.080,-0.235,-0.035
7.082,-0.200,-0.035
7.084,-0.125,-0.030
7.086,-0.120,-0.025
7.088,-0.150,-0.025
7.090,-0.195,-0.030
7.092,-0.250,-0.035
7.094,-0.360,-0.045
7.096,-0.350,-0.060
7.098,-0.305,-0.070
7.100,-0.225,-0.075
7.102,-0.230,-0.080
7.104,-0.175,-0.080
7.106,-0.115,-0.075
7.108,-0.155,-0.065
7.110,-0.250,-0.055
7.112,-0.330,-0.040
7.114,-0.380,-0.030
7.116,-0.335,-0.020
7.118,-0.250,-0.010
7.120,-0.165,-0.005
7.122,-0.130,-0.005
7.124,-0.030,-0.005
7.126,-0.080,-0.005
7.128,-0.120,-0.015
7.130,-0.245,-0.020
7.132,-0.325,-0.030
7.134,-0.365,-0.040
7.136,-0.360,-0.045
7.138,-0.310,-0.055
7.140,-0.230,-0.060
7.142,-0.195,-0.060
7.144,-0.115,-0.060
7.146,-0.135,-0.055
7.148,-0.190,-0.050
7.150,-0.240,-0.040
7.152,-0.260,-0.030
7.154,-0.340,-0.020
7.156,-0.310,-0.015
7.158,-0.275,-0.010
7.160,-0.210,-0.010
7.162,-0.155,-0.010
7.164,-0.080,-0.020
7.166,-0.115,-0.030
7.168,-0.200,-0.040
7.170,-0.240,-0.050
7.172,-0.300,-0.060
7.174,-0.410,-0.065
7.176,-0.365,-0.065
7.178,-0.305,-0.065
7.180,-0.220,-0.060
7.182,-0.165,-0.050
7.184,-0.095,-0.045
7.186,-0.130,-0.035
7.188,-0.175,-0.030
7.190,-0.210,-0.025
7.192,-0.245,-0.025
7.194,-0.350,-0.030
7.196,-0.380,-0.030
7.198,-0.265,-0.035
7.200,-0.225,-0.040
7.202,-0.195,-0.045
7.204,-0.140,-0.050
7.206,-0.140,-0.050
7.208,-0.180,-0.050
7.210,-0.310,-0.050
7.212,-0.295,-0.050
7.214,-0.360,-0.045
7.216,-0.360,-0.045
7.218,-0.280,-0.040
7.220,-0.220,-0.040
7.222,-0.175,-0.035
7.224,-0.100,-0.040
7.226,-0.135,-0.040
7.228,-0.215,-0.050
7.230,-0.295,-0.055
7.232,-0.330,-0.060
7.234,-0.400,-0.065
7.236,-0.360,-0.070
7.238,-0.275,-0.070
7.240,-0.215,-0.065
7.242,-0.160,-0.055
7.244,-0.100,-0.045
7.246,-0.120,-0.035
7.248,-0.155,-0.025
7.250,-0.215,-0.025
7.252,-0.285,-0.030
7.254,-0.380,-0.040
7.256,-0.370,-0.055
7.258,-0.295,-0.070
7.260,-0.290,-0.090
7.262,-0.240,-0.105
7.264,-0.185,-0.110
7.266,-0.215,-0.110
7.268,-0.260,-0.100
7.270,-0.245,-0.085
7.272,-0.295,-0.065
7.274,-0.345,-0.045
7.276,-0.335,-0.030
7.278,-0.270,-0.020
7.280,-0.210,-0.020
7.282,-0.140,-0.030
7.284,-0.075,-0.045
7.286,-0.155,-0.060
7.288,-0.250,-0.075
7.290,-0.305,-0.080
7.292,-0.360,-0.080
7.294,-0.415,-0.075
7.296,-0.340,-0.060
7.298,-0.250,-0.045
7.300,-0.185,-0.030
7.302,-0.140,-0.015
7.304,-0.135,-0.010
7.306,-0.125,-0.010
7.308,-0.200,-0.010
7.310,-0.230,-0.015
7.312,-0.260,-0.020
7.314,-0.295,-0.020
7.316,-0.280,-0.020
7.318,-0.215,-0.015
7.320,-0.200,-0.005
7.322,-0.120,0.000
7.324,-0.125,0.005
7.326,-0.115,0.010
7.328,-0.160,0.010
7.330,-0.205,0.010
7.332,-0.275,0.010
7.334,-0.280,0.015
7.336,-0.220,0.020
7.338,-0.155,0.030
7.340,-0.150,0.045
7.342,-0.045,0.055
7.344,-0.010,0.065
7.346,-0.020,0.070
7.348,-0.110,0.070
7.350,-0.165,0.060
7.352,-0.285,0.050
7.354,-0.260,0.035
7.356,-0.225,0.025
7.358,-0.210,0.015
7.360,-0.155,0.015
7.362,-0.045,0.020
7.364,-0.055,0.030
7.366,-0.105,0.040
7.368,-0.180,0.050
7.370,-0.210,0.060
7.372,-0.280,0.060
7.374,-0.270,0.050
7.376,-0.225,0.040
7.378,-0.135,0.020
7.380,-0.160,0.000
7.382,-0.080,-0.025
7.384,-0.145,-0.045
7.386,-0.235,-0.060
7.388,-0.355,-0.070
7.390,-0.335,-0.080
7.392,-0.395,-0.080
7.394,-0.365,-0.080
7.396,-0.350,-0.080
7.398,-0.255,-0.075
7.400,-0.220,-0.075
7.402,-0.140,-0.070
7.404,-0.150,-0.075
7.406,-0.210,-0.075
7.408,-0.290,-0.080
7.410,-0.310,-0.085
7.412,-0.430,-0.085
7.414,-0.400,-0.090
7.416,-0.385,-0.095
7.418,-0.290,-0.095
7.420,-0.240,-0.090
7.422,-0.145,-0.085
7.424,-0.165,-0.075
7.426,-0.230,-0.065
7.428,-0.320,-0.055
7.430,-0.305,-0.045
7.432,-0.360,-0.040
7.434,-0.340,-0.030
7.436,-0.305,-0.020
7.438,-0.195,-0.010
7.440,-0.105,0.005
7.442,-0.005,0.030
7.444,0.005,0.070
7.446,0.010,0.120
7.448,-0.060,0.185
7.450,-0.025,0.260
7.452,0.010,0.340
7.454,0.135,0.415
7.456,0.275,0.480
7.458,0.415,0.520
7.460,0.440,0.530
7.462,0.450,0.495
7.464,0.310,0.420
7.466,0.085,0.295
7.468,-0.105,0.135
7.470,-0.300,-0.050
7.472,-0.550,-0.245
7.474,-0.740,-0.435
7.476,-0.930,-0.605
7.478,-1.080,-0.745
7.480,-1.045,-0.835
7.482,-0.980,-0.885
7.484,-0.960,-0.890
7.486,-0.990,-0.860
7.488,-0.995,-0.805
7.490,-0.980,-0.735
7.492,-0.975,-0.660
7.494,-0.885,-0.590
7.496,-0.780,-0.530
7.498,-0.640,-0.475
7.500,-0.540,-0.430
7.502,-0.435,-0.390
7.504,-0.410,-0.350
7.506,-0.475,-0.315
7.508,-0.530,-0.280
7.510,-0.525,-0.250
7.512,-0.515,-0.215
7.514,-0.460,-0.190
7.516,-0.380,-0.165
7.518,-0.300,-0.140
7.520,-0.265,-0.125
7.522,-0.180,-0.105
7.524,-0.175,-0.090
7.526,-0.230,-0.080
7.528,-0.275,-0.065
7.530,-0.325,-0.055
7.532,-0.380,-0.045
7.534,-0.330,-0.035
7.536,-0.250,-0.030
7.538,-0.195,-0.025
7.540,-0.145,-0.025
7.542,-0.100,-0.025
7.544,-0.140,-0.025
7.546,-0.220,-0.020
7.548,-0.265,-0.015
7.550,-0.320,-0.010
7.552,-0.345,-0.005
7.554,-0.295,0.000
7.556,-0.230,0.005
7.558,-0.170,0.005
7.560,-0.130,0.005
7.562,-0.095,0.005
7.564,-0.120,0.005
7.566,-0.175,0.005
7.568,-0.235,0.005
7.570,-0.275,0.005
7.572,-0.310,0.005
7.574,-0.300,0.010
7.576,-0.230,0.010
7.578,-0.170,0.010
7.580,-0.110,0.010
7.582,-0.090,0.010
7.584,-0.130,0.010
7.586,-0.165,0.015
7.588,-0.215,0.015
7.590,-0.275,0.025
7.592,-0.260,0.030
7.594,-0.235,0.040
7.596,-0.155,0.045
7.598,-0.085,0.055
7.600,-0.020,0.060
7.602,-0.045,0.060
7.604,-0.070,0.065
7.606,-0.160,0.065
7.608,-0.170,0.070
7.610,-0.260,0.075
7.612,-0.250,0.080
7.614,-0.210,0.085
7.616,-0.105,0.090
7.618,-0.045,0.095
7.620,0.025,0.100
7.622,0.010,0.100
7.624,-0.080,0.095
7.626,-0.135,0.095
7.628,-0.155,0.090
7.630,-0.240,0.090
7.632,-0.200,0.090
7.634,-0.165,0.095
7.636,-0.105,0.100
7.638,-0.055,0.105
7.640,0.000,0.110
7.642,0.025,0.115
7.644,-0.015,0.120
7.646,-0.090,0.120
7.648,-0.120,0.125
7.650,-0.220,0.125
7.652,-0.205,0.130
7.654,-0.125,0.140
7.656,-0.035,0.145
7.658,0.010,0.155
7.660,0.115,0.170
7.662,0.090,0.180
7.664,0.045,0.190
7.666,-0.030,0.195
7.668,-0.050,0.205
7.670,-0.130,0.210
7.672,-0.085,0.215
7.674,-0.040,0.225
7.676,0.030,0.230
7.678,0.075,0.235
7.680,0.165,0.245
7.682,0.140,0.250
7.684,0.115,0.255
7.686,0.030,0.260
7.688,0.015,0.265
7.690,-0.065,0.270
7.692,-0.040,0.275
7.694,0.045,0.285
7.696,0.125,0.290
7.698,0.155,0.295
7.700,0.230,0.305
7.702,0.190,0.315
7.704,0.150,0.320
7.706,0.090,0.325
7.708,0.095,0.325
7.710,0.020,0.325
7.712,0.035,0.325
7.714,0.055,0.320
7.716,0.120,0.320
7.718,0.145,0.320
7.720,0.225,0.320
7.722,0.180,0.320
7.724,0.165,0.320
7.726,0.105,0.320
7.728,0.090,0.320
7.730,-0.010,0.320
7.732,-0.025,0.320
7.734,0.055,0.315
7.736,0.110,0.315
7.738,0.125,0.315
7.740,0.210,0.310
7.742,0.210,0.305
7.744,0.170,0.300
7.746,0.085,0.290
7.748,0.050,0.280
7.750,-0.085,0.270
7.752,-0.100,0.255
7.754,-0.070,0.245
7.756,0.020,0.230
7.758,0.045,0.215
7.760,0.135,0.200
7.762,0.095,0.190
7.764,0.025,0.180
7.766,-0.025,0.170
7.768,-0.100,0.160
7.770,-0.205,0.155
7.772,-0.195,0.150
7.774,-0.125,0.140
7.776,-0.075,0.130
7.778,-0.020,0.115
7.780,0.000,0.100
7.782,-0.055,0.080
7.784,-0.095,0.055
7.786,-0.200,0.030
7.788,-0.280,0.010
7.790,-0.360,-0.005
7.792,-0.345,-0.015
7.794,-0.270,-0.020
7.796,-0.180,-0.020
7.798,-0.155,-0.015
7.800,-0.090,-0.010
7.802,-0.085,-0.010
7.804,-0.155,-0.010
7.806,-0.245,-0.015
7.808,-0.320,-0.020
7.810,-0.390,-0.035
7.812,-0.410,-0.050
7.814,-0.390,-0.065
7.816,-0.305,-0.080
7.818,-0.235,-0.090
7.820,-0.150,-0.095
7.822,-0.170,-0.095
7.824,-0.265,-0.095
7.826,-0.315,-0.090
7.828,-0.350,-0.080
7.830,-0.380,-0.070
7.832,-0.375,-0.065
7.834,-0.320,-0.055
7.836,-0.265,-0.050
7.838,-0.215,-0.045
7.840,-0.135,-0.045
7.842,-0.140,-0.040
7.844,-0.205,-0.045
7.846,-0.300,-0.050
7.848,-0.380,-0.055
7.850,-0.395,-0.065
7.852,-0.390,-0.075
7.854,-0.320,-0.080
7.856,-0.265,-0.090
7.858,-0.200,-0.095
7.860,-0.175,-0.095
7.862,-0.215,-0.090
7.864,-0.255,-0.085
7.866,-0.290,-0.075
7.868,-0.340,-0.065
7.870,-0.360,-0.055
7.872,-0.345,-0.045
7.874,-0.305,-0.040
7.876,-0.255,-0.040
7.878,-0.185,-0.040
7.880,-0.165,-0.045
7.882,-0.195,-0.055
7.884,-0.255,-0.060
7.886,-0.315,-0.065
7.888,-0.355,-0.065
7.890,-0.335,-0.065
7.892,-0.330,-0.060
7.894,-0.305,-0.055
7.896,-0.285,-0.055
7.898,-0.200,-0.055
7.900,-0.190,-0.060
7.902,-0.225,-0.065
7.904,-0.230,-0.075
7.906,-0.315,-0.085
7.908,-0.390,-0.090
7.910,-0.395,-0.095
7.912,-0.385,-0.090
7.914,-0.325,-0.085
7.916,-0.260,-0.070
7.918,-0.145,-0.060
7.920,-0.135,-0.050
7.922,-0.155,-0.040
7.924,-0.225,-0.040
7.926,-0.300,-0.045
7.928,-0.440,-0.055
7.930,-0.400,-0.065
7.932,-0.365,-0.080
7.934,-0.285,-0.090
7.936,-0.280,-0.095
7.938,-0.195,-0.100
7.940,-0.165,-0.100
7.942,-0.185,-0.095
7.944,-0.245,-0.085
7.946,-0.310,-0.080
7.948,-0.415,-0.070
7.950,-0.370,-0.070
7.952,-0.380,-0.065
7.954,-0.325,-0.065
7.956,-0.265,-0.065
7.958,-0.165,-0.065
7.960,-0.155,-0.070
7.962,-0.200,-0.070
7.964,-0.275,-0.075
7.966,-0.315,-0.075
7.968,-0.400,-0.075
7.970,-0.400,-0.080
7.972,-0.360,-0.080
7.974,-0.310,-0.085
7.976,-0.280,-0.085
7.978,-0.195,-0.085
7.980,-0.190,-0.085
7.982,-0.200,-0.080
7.984,-0.275,-0.080
7.986,-0.310,-0.075
7.988,-0.410,-0.070
7.990,-0.385,-0.070
7.992,-0.330,-0.065
7.994,-0.250,-0.065
7.996,-0.235,-0.070
7.998,-0.150,-0.070
8.000,-0.190,-0.075
8.002,-0.235,-0.080
8.004,-0.295,-0.085
8.006,-0.355,-0.090
8.008,-0.420,-0.090
8.010,-0.410,-0.095
8.012,-0.355,-0.090
8.014,-0.285,-0.090
8.016,-0.290,-0.090
8.018,-0.185,-0.085
8.020,-0.165,-0.085
8.022,-0.225,-0.085
8.024,-0.310,-0.080
8.026,-0.325,-0.080
8.028,-0.425,-0.080
8.030,-0.405,-0.080
8.032,-0.360,-0.075
8.034,-0.280,-0.075
8.036,-0.200,-0.070
8.038,-0.135,-0.065
8.040,-0.145,-0.065
8.042,-0.205,-0.065
8.044,-0.285,-0.065
8.046,-0.355,-0.070
8.048,-0.415,-0.075
8.050,-0.425,-0.080
8.052,-0.365,-0.090
8.054,-0.325,-0.095
8.056,-0.280,-0.095
8.058,-0.160,-0.095
8.060,-0.185,-0.095
8.062,-0.225,-0.090
8.064,-0.300,-0.085
8.066,-0.355,-0.075
8.068,-0.410,-0.070
8.070,-0.375,-0.060
8.072,-0.310,-0.055
8.074,-0.260,-0.050
8.076,-0.205,-0.045
8.078,-0.140,-0.045
8.080,-0.160,-0.045
8.082,-0.210,-0.050
8.084,-0.290,-0.055
8.086,-0.330,-0.060
8.088,-0.410,-0.065
8.090,-0.390,-0.075
8.092,-0.325,-0.075
8.094,-0.255,-0.080
8.096,-0.235,-0.075
8.098,-0.160,-0.070
8.100,-0.150,-0.060
8.102,-0.210,-0.050
8.104,-0.295,-0.040
8.106,-0.365,-0.035
8.108,-0.375,-0.030
8.110,-0.350,-0.035
8.112,-0.280,-0.040
8.114,-0.230,-0.050
8.116,-0.185,-0.060
8.118,-0.145,-0.075
8.120,-0.200,-0.085
8.122,-0.255,-0.090
8.124,-0.330,-0.090
8.126,-0.385,-0.090
8.128,-0.410,-0.085
8.130,-0.370,-0.080
8.132,-0.295,-0.070
8.134,-0.250,-0.060
8.136,-0.195,-0.055
8.138,-0.120,-0.050
8.140,-0.115,-0.040
8.142,-0.205,-0.040
8.144,-0.280,-0.035
8.146,-0.320,-0.035
8.148,-0.370,-0.030
8.150,-0.335,-0.030
8.152,-0.240,-0.030
8.154,-0.225,-0.030
8.156,-0.175,-0.030
8.158,-0.130,-0.030
8.160,-0.170,-0.025
8.162,-0.215,-0.020
8.164,-0.230,-0.015
8.166,-0.285,-0.005
8.168,-0.310,0.005
8.170,-0.245,0.015
8.172,-0.180,0.030
8.174,-0.140,0.040
8.176,-0.075,0.055
8.178,-0.045,0.065
8.180,-0.045,0.080
8.182,-0.105,0.090
8.184,-0.115,0.100
8.186,-0.175,0.100
8.188,-0.230,0.105
8.190,-0.195,0.095
8.192,-0.150,0.085
8.194,-0.165,0.070
8.196,-0.110,0.055
8.198,-0.090,0.040
8.200,-0.110,0.020
8.202,-0.205,0.010
8.204,-0.230,0.005
8.206,-0.290,0.005
8.208,-0.275,0.010
8.210,-0.240,0.015
8.212,-0.190,0.015
8.214,-0.150,0.015
8.216,-0.095,0.010
8.218,-0.140,0.000
8.220,-0.190,-0.015
8.222,-0.260,-0.035
8.224,-0.315,-0.055
8.226,-0.440,-0.075
8.228,-0.415,-0.085
8.230,-0.380,-0.095
8.232,-0.295,-0.095
8.234,-0.245,-0.095
8.236,-0.150,-0.090
8.238,-0.175,-0.090
8.240,-0.225,-0.085
8.242,-0.295,-0.080
8.244,-0.330,-0.080
8.246,-0.420,-0.075
8.248,-0.405,-0.075
8.250,-0.360,-0.070
8.252,-0.255,-0.070
8.254,-0.230,-0.065
8.256,-0.125,-0.065
8.258,-0.170,-0.070
8.260,-0.245,-0.075
8.262,-0.330,-0.080
8.264,-0.380,-0.090
8.266,-0.455,-0.095
8.268,-0.415,-0.095
8.270,-0.360,-0.095
8.272,-0.230,-0.090
8.274,-0.250,-0.080
8.276,-0.140,-0.065
8.278,-0.160,-0.040
8.280,-0.160,-0.015
8.282,-0.185,0.020
8.284,-0.170,0.065
8.286,-0.190,0.120
8.288,-0.135,0.185
8.290,-0.025,0.260
8.292,0.145,0.340
8.294,0.300,0.415
8.296,0.470,0.480
8.298,0.495,0.515
8.300,0.440,0.520
8.302,0.260,0.480
8.304,0.045,0.400
8.306,-0.145,0.270
8.308,-0.190,0.110
8.310,-0.285,-0.075
8.312,-0.410,-0.270
8.314,-0.625,-0.455
8.316,-0.810,-0.615
8.318,-0.965,-0.745
8.320,-0.995,-0.825
8.322,-1.115,-0.865
8.324,-1.170,-0.865
8.326,-1.210,-0.835
8.328,-1.100,-0.775
8.330,-0.925,-0.705
8.332,-0.800,-0.630
8.334,-0.675,-0.555
8.336,-0.525,-0.495
8.338,-0.485,-0.440
8.340,-0.530,-0.400
8.342,-0.575,-0.365
8.344,-0.600,-0.340
8.346,-0.700,-0.320
8.348,-0.605,-0.300
8.350,-0.545,-0.280
8.352,-0.460,-0.255
8.354,-0.385,-0.230
8.356,-0.270,-0.205
8.358,-0.210,-0.175
8.360,-0.250,-0.150
8.362,-0.310,-0.120
8.364,-0.355,-0.095
8.366,-0.400,-0.075
8.368,-0.380,-0.055
8.370,-0.295,-0.045
8.372,-0.245,-0.035
8.374,-0.190,-0.030
8.376,-0.125,-0.030
8.378,-0.150,-0.030
8.380,-0.215,-0.030
8.382,-0.285,-0.030
8.384,-0.295,-0.030
8.386,-0.345,-0.025
8.388,-0.315,-0.020
8.390,-0.260,-0.015
8.392,-0.170,-0.010
8.394,-0.155,-0.005
8.396,-0.085,0.000
8.398,-0.080,0.005
8.400,-0.145,0.010
8.402,-0.215,0.015
8.404,-0.290,0.015
8.406,-0.320,0.015
8.408,-0.320,0.015
8.410,-0.260,0.010
8.412,-0.155,0.010
8.414,-0.085,0.010
8.416,-0.075,0.010
8.418,-0.095,0.005
8.420,-0.150,0.005
8.422,-0.250,0.005
8.424,-0.310,0.010
8.426,-0.315,0.010
8.428,-0.265,0.015
8.430,-0.195,0.020
8.432,-0.125,0.025
8.434,-0.080,0.030
8.436,-0.040,0.035
8.438,-0.080,0.040
8.440,-0.150,0.040
8.442,-0.225,0.045
8.444,-0.275,0.045
8.446,-0.270,0.045
8.448,-0.225,0.050
8.450,-0.145,0.050
8.452,-0.075,0.060
8.454,-0.045,0.065
8.456,-0.035,0.070
8.458,-0.075,0.075
8.460,-0.145,0.080
8.462,-0.160,0.085
8.464,-0.230,0.085
8.466,-0.260,0.085
8.468,-0.175,0.090
8.470,-0.145,0.090
8.472,-0.100,0.100
8.474,0.015,0.110
8.476,0.045,0.125
8.478,0.035,0.140
8.480,-0.010,0.155
8.482,-0.050,0.165
8.484,-0.125,0.170
8.486,-0.110,0.175
8.488,-0.160,0.170
8.490,-0.090,0.165
8.492,-0.045,0.155
8.494,0.010,0.155
8.496,0.035,0.155
8.498,0.030,0.165
8.500,-0.015,0.175
8.502,-0.045,0.190
8.504,-0.100,0.210
8.506,-0.060,0.230
8.508,-0.020,0.245
8.510,0.055,0.255
8.512,0.120,0.260
8.514,0.185,0.265
8.516,0.140,0.260
8.518,0.125,0.260
8.520,0.055,0.260
8.522,-0.005,0.260
8.524,-0.095,0.260
8.526,-0.045,0.265
8.528,-0.005,0.275
8.530,0.050,0.280
8.532,0.085,0.285
8.534,0.185,0.295
8.536,0.195,0.300
8.538,0.175,0.305
8.540,0.120,0.310
8.542,0.090,0.315
8.544,-0.005,0.320
8.546,0.000,0.330
8.548,0.060,0.335
8.550,0.165,0.340
8.552,0.180,0.345
8.554,0.250,0.350
8.556,0.245,0.350
8.558,0.180,0.355
8.560,0.105,0.355
8.562,0.105,0.360
8.564,0.015,0.365
8.566,0.055,0.370
8.568,0.105,0.375
8.570,0.185,0.380
8.572,0.240,0.380
8.574,0.320,0.375
8.576,0.265,0.365
8.578,0.165,0.345
8.580,0.065,0.330
8.582,0.035,0.305
8.584,-0.080,0.285
8.586,-0.050,0.270
8.588,-0.015,0.260
8.590,0.050,0.255
8.592,0.100,0.255
8.594,0.195,0.260
8.596,0.185,0.260
8.598,0.100,0.260
8.600,0.020,0.250
8.602,-0.065,0.235
8.604,-0.175,0.215
8.606,-0.175,0.195
8.608,-0.130,0.165
8.610,-0.055,0.140
8.612,-0.030,0.115
8.614,-0.010,0.095
8.616,-0.045,0.080
8.618,-0.110,0.070
8.620,-0.155,0.065
8.622,-0.180,0.055
8.624,-0.270,0.055
8.626,-0.280,0.050
8.628,-0.230,0.045
8.630,-0.180,0.035
8.632,-0.115,0.025
8.634,-0.100,0.015
8.636,-0.125,0.005
8.638,-0.180,-0.010
8.640,-0.215,-0.020
8.642,-0.305,-0.030
8.644,-0.400,-0.040
8.646,-0.375,-0.045
8.648,-0.310,-0.045
8.650,-0.210,-0.045
8.652,-0.160,-0.040
8.654,-0.095,-0.030
8.656,-0.125,-0.025
8.658,-0.180,-0.020
8.660,-0.280,-0.015
8.662,-0.305,-0.015
8.664,-0.380,-0.020
8.666,-0.360,-0.025
8.668,-0.305,-0.030
8.670,-0.245,-0.040
8.672,-0.210,-0.045
8.674,-0.140,-0.045
8.676,-0.125,-0.050
8.678,-0.190,-0.045
8.680,-0.250,-0.045
8.682,-0.290,-0.045
8.684,-0.370,-0.040
8.686,-0.370,-0.035
8.688,-0.295,-0.035
8.690,-0.215,-0.030
8.692,-0.165,-0.030
8.694,-0.105,-0.030
8.696,-0.150,-0.030
8.698,-0.210,-0.030
8.700,-0.270,-0.035
8.702,-0.330,-0.045
8.704,-0.400,-0.050
8.706,-0.410,-0.055
8.708,-0.305,-0.065
8.710,-0.280,-0.065
8.712,-0.250,-0.065
8.714,-0.140,-0.065
8.716,-0.135,-0.060
8.718,-0.190,-0.055
8.720,-0.235,-0.045
8.722,-0.295,-0.040
8.724,-0.405,-0.030
8.726,-0.345,-0.030
8.728,-0.285,-0.025
8.730,-0.235,-0.025
8.732,-0.150,-0.030
8.734,-0.115,-0.030
8.736,-0.130,-0.035
8.738,-0.235,-0.040
8.740,-0.320,-0.040
8.742,-0.370,-0.045
8.744,-0.395,-0.050
8.746,-0.355,-0.050
8.748,-0.250,-0.045
8.750,-0.200,-0.045
8.752,-0.130,-0.035
8.754,-0.095,-0.030
8.756,-0.130,-0.020
8.758,-0.225,-0.010
8.760,-0.275,-0.005
8.762,-0.355,-0.005
8.764,-0.375,-0.005
8.766,-0.345,-0.010
8.768,-0.245,-0.020
8.770,-0.180,-0.030
8.772,-0.095,-0.035
8.774,-0.120,-0.045
8.776,-0.170,-0.045
8.778,-0.240,-0.045
8.780,-0.335,-0.040
8.782,-0.390,-0.035
8.784,-0.365,-0.025
8.786,-0.335,-0.020
8.788,-0.205,-0.015
8.790,-0.145,-0.015
8.792,-0.075,-0.015
8.794,-0.095,-0.020
8.796,-0.195,-0.030
8.798,-0.310,-0.040
8.800,-0.340,-0.050
8.802,-0.415,-0.060
8.804,-0.375,-0.065
8.806,-0.350,-0.070
8.808,-0.300,-0.070
8.810,-0.255,-0.065
8.812,-0.135,-0.060
8.814,-0.150,-0.050
8.816,-0.175,-0.045
8.818,-0.220,-0.040
8.820,-0.280,-0.040
8.822,-0.360,-0.040
8.824,-0.355,-0.040
8.826,-0.335,-0.045
8.828,-0.260,-0.055
8.830,-0.250,-0.060
8.832,-0.180,-0.065
8.834,-0.190,-0.065
8.836,-0.175,-0.065
8.838,-0.270,-0.060
8.840,-0.290,-0.060
8.842,-0.395,-0.055
8.844,-0.360,-0.050
8.846,-0.305,-0.045
8.848,-0.250,-0.040
8.850,-0.230,-0.040
8.852,-0.145,-0.035
8.854,-0.145,-0.035
8.856,-0.205,-0.030
8.858,-0.285,-0.030
8.860,-0.270,-0.025
8.862,-0.335,-0.025
8.864,-0.330,-0.025
8.866,-0.290,-0.030
8.868,-0.230,-0.035
8.870,-0.245,-0.045
8.872,-0.170,-0.055
8.874,-0.195,-0.065
8.876,-0.265,-0.075
8.878,-0.310,-0.080
8.880,-0.300,-0.080
8.882,-0.365,-0.075
8.884,-0.350,-0.070
8.886,-0.335,-0.065
8.888,-0.260,-0.055
8.890,-0.240,-0.050
8.892,-0.175,-0.050
8.894,-0.155,-0.050
8.896,-0.205,-0.050
8.898,-0.265,-0.055
8.900,-0.300,-0.060
8.902,-0.415,-0.065
8.904,-0.380,-0.070
8.906,-0.325,-0.070
8.908,-0.235,-0.070
8.910,-0.200,-0.065
8.912,-0.155,-0.065
8.914,-0.155,-0.060
8.916,-0.235,-0.055
8.918,-0.320,-0.055
8.920,-0.345,-0.060
8.922,-0.390,-0.060
8.924,-0.395,-0.060
8.926,-0.345,-0.065
8.928,-0.280,-0.065
8.930,-0.205,-0.065
8.932,-0.145,-0.060
8.934,-0.145,-0.060
8.936,-0.210,-0.060
8.938,-0.280,-0.060
8.940,-0.340,-0.060
8.942,-0.395,-0.060
8.944,-0.375,-0.065
8.946,-0.295,-0.065
8.948,-0.255,-0.065
8.950,-0.245,-0.065
8.952,-0.175,-0.060
8.954,-0.180,-0.055
8.956,-0.225,-0.050
8.958,-0.300,-0.050
8.960,-0.320,-0.045
8.962,-0.375,-0.045
8.964,-0.340,-0.050
8.966,-0.290,-0.055
8.968,-0.300,-0.060
8.970,-0.210,-0.070
8.972,-0.160,-0.070
8.974,-0.140,-0.075
8.976,-0.220,-0.070
8.978,-0.310,-0.065
8.980,-0.360,-0.060
8.982,-0.410,-0.055
8.984,-0.415,-0.050
8.986,-0.320,-0.050
8.988,-0.235,-0.050
8.990,-0.200,-0.055
8.992,-0.120,-0.060
8.994,-0.150,-0.060
8.996,-0.245,-0.060
8.998,-0.300,-0.060
9.000,-0.350,-0.055
9.002,-0.390,-0.045
9.004,-0.335,-0.040
9.006,-0.265,-0.030
9.008,-0.170,-0.025
9.010,-0.130,-0.025
9.012,-0.140,-0.030
9.014,-0.190,-0.035
9.016,-0.245,-0.045
9.018,-0.295,-0.050
9.020,-0.325,-0.060
9.022,-0.365,-0.060
9.024,-0.335,-0.055
9.026,-0.275,-0.045
9.028,-0.220,-0.035
9.030,-0.145,-0.020
9.032,-0.090,-0.010
9.034,-0.120,0.000
9.036,-0.175,0.005
9.038,-0.220,0.005
9.040,-0.305,0.005
9.042,-0.350,0.000
9.044,-0.310,-0.005
9.046,-0.235,-0.010
9.048,-0.160,-0.010
9.050,-0.065,0.000
9.052,-0.040,0.010
9.054,-0.070,0.025
9.056,-0.130,0.040
9.058,-0.175,0.060
9.060,-0.270,0.070
9.062,-0.280,0.080
9.064,-0.205,0.080
9.066,-0.115,0.080
9.068,-0.075,0.070
9.070,-0.015,0.065
9.072,-0.045,0.055
9.074,-0.105,0.050
9.076,-0.190,0.045
9.078,-0.250,0.045
9.080,-0.280,0.050
9.082,-0.230,0.050
9.084,-0.180,0.050
9.086,-0.130,0.040
9.088,-0.120,0.030
9.090,-0.070,0.015
9.092,-0.175,-0.010
9.094,-0.235,-0.035
9.096,-0.295,-0.055
9.098,-0.320,-0.075
9.100,-0.405,-0.090
9.102,-0.395,-0.095
9.104,-0.375,-0.100
9.106,-0.310,-0.100
9.108,-0.245,-0.095
9.110,-0.155,-0.090
9.112,-0.215,-0.090
9.114,-0.250,-0.090
9.116,-0.290,-0.090
9.118,-0.305,-0.090
9.120,-0.405,-0.090
9.122,-0.370,-0.085
9.124,-0.370,-0.080
9.126,-0.300,-0.070
9.128,-0.260,-0.065
9.130,-0.155,-0.060
9.132,-0.165,-0.060
9.134,-0.225,-0.060
9.136,-0.305,-0.070
9.138,-0.325,-0.085
9.140,-0.420,-0.095
9.142,-0.400,-0.100
9.144,-0.350,-0.105
9.146,-0.265,-0.095
9.148,-0.250,-0.075
9.150,-0.185,-0.050
9.152,-0.120,-0.015
9.154,-0.110,0.020
9.156,-0.145,0.060
9.158,-0.105,0.105
9.160,-0.170,0.155
9.162,-0.110,0.205
9.164,-0.020,0.260
9.166,0.130,0.325
9.168,0.230,0.385
9.170,0.405,0.440
9.172,0.460,0.480
9.174,0.435,0.495
9.176,0.285,0.475
9.178,0.115,0.410
9.180,-0.065,0.300
9.182,-0.150,0.150
9.184,-0.315,-0.030
9.186,-0.400,-0.230
9.188,-0.580,-0.420
9.190,-0.795,-0.595
9.192,-0.970,-0.730
9.194,-1.010,-0.815
9.196,-1.080,-0.855
9.198,-1.075,-0.850
9.200,-1.115,-0.810
9.202,-1.065,-0.740
9.204,-0.900,-0.665
9.206,-0.775,-0.590
9.208,-0.665,-0.520
9.210,-0.535,-0.465
9.212,-0.465,-0.420
9.214,-0.490,-0.390
9.216,-0.580,-0.365
9.218,-0.650,-0.345
9.220,-0.710,-0.325
9.222,-0.615,-0.305
9.224,-0.525,-0.280
9.226,-0.440,-0.255
9.228,-0.345,-0.230
9.230,-0.280,-0.205
9.232,-0.280,-0.180
9.234,-0.310,-0.155
9.236,-0.340,-0.130
9.238,-0.355,-0.105
9.240,-0.380,-0.085
9.242,-0.360,-0.065
9.244,-0.290,-0.055
9.246,-0.200,-0.045
9.248,-0.180,-0.040
9.250,-0.150,-0.040
9.252,-0.155,-0.045
9.254,-0.180,-0.045
9.256,-0.245,-0.045
9.258,-0.290,-0.045
9.260,-0.330,-0.040
9.262,-0.325,-0.035
9.264,-0.260,-0.025
9.266,-0.230,-0.020
9.268,-0.165,-0.010
9.270,-0.095,-0.010
9.272,-0.140,-0.010
9.274,-0.200,-0.015
9.276,-0.235,-0.020
9.278,-0.275,-0.025
9.280,-0.360,-0.030
9.282,-0.335,-0.030
9.284,-0.260,-0.030
9.286,-0.205,-0.020
9.288,-0.145,-0.010
9.290,-0.090,0.000
9.292,-0.075,0.010
9.294,-0.170,0.020
9.296,-0.200,0.030
9.298,-0.220,0.040
9.300,-0.265,0.040
9.302,-0.265,0.045
9.304,-0.200,0.045
9.306,-0.175,0.045
9.308,-0.155,0.045
9.310,-0.055,0.045
9.312,-0.065,0.045
9.314,-0.125,0.045
9.316,-0.175,0.055
9.318,-0.215,0.060
9.320,-0.195,0.065
9.322,-0.165,0.075
9.324,-0.125,0.080
9.326,-0.150,0.080
9.328,-0.040,0.080
9.330,-0.055,0.075
9.332,-0.110,0.065
9.334,-0.185,0.060
9.336,-0.180,0.050
9.338,-0.255,0.050
9.340,-0.240,0.050
9.342,-0.185,0.060
9.344,-0.105,0.070
9.346,-0.065,0.090
9.348,0.025,0.110
9.350,0.020,0.130
9.352,-0.005,0.145
9.354,-0.060,0.155
9.356,-0.085,0.165
9.358,-0.130,0.165
9.360,-0.140,0.160
9.362,-0.090,0.155
9.364,-0.030,0.145
9.366,-0.045,0.140
9.368,0.010,0.140
9.370,0.020,0.140
9.372,0.015,0.140
9.374,-0.065,0.145
9.376,-0.075,0.155
9.378,-0.130,0.160
9.380,-0.135,0.170
9.382,-0.095,0.175
9.384,-0.020,0.185
9.386,0.005,0.195
9.388,0.110,0.205
9.390,0.140,0.215
9.392,0.125,0.230
9.394,0.030,0.240
9.396,-0.010,0.255
9.398,-0.080,0.270
9.400,-0.010,0.280
9.402,0.025,0.285
9.404,0.110,0.290
9.406,0.145,0.290
9.408,0.215,0.285
9.410,0.130,0.285
9.412,0.120,0.285
9.414,0.095,0.285
9.416,0.075,0.290
9.418,-0.020,0.300
9.420,0.005,0.310
9.422,0.070,0.325
9.424,0.145,0.340
9.426,0.175,0.355
9.428,0.275,0.365
9.430,0.290,0.370
9.432,0.230,0.370
9.434,0.170,0.365
9.436,0.125,0.360
9.438,0.015,0.355
9.440,0.040,0.345
9.442,0.080,0.335
9.444,0.115,0.330
9.446,0.175,0.325
9.448,0.255,0.320
9.450,0.190,0.320
9.452,0.165,0.315
9.454,0.095,0.310
9.456,0.060,0.305
9.458,-0.030,0.300
9.460,-0.005,0.295
9.462,0.010,0.285
9.464,0.020,0.275
9.466,0.065,0.265
9.468,0.185,0.255
9.470,0.125,0.240
9.472,0.055,0.220
9.474,-0.025,0.200
9.476,-0.050,0.180
9.478,-0.175,0.165
9.480,-0.165,0.150
9.482,-0.105,0.140
9.484,-0.080,0.135
9.486,-0.045,0.130
9.488,0.040,0.130
9.490,0.015,0.130
9.492,-0.060,0.125
9.494,-0.125,0.115
9.496,-0.185,0.100
9.498,-0.285,0.085
9.500,-0.290,0.065
9.502,-0.210,0.045
9.504,-0.140,0.025
9.506,-0.125,0.010
9.508,-0.100,0.000
9.510,-0.075,0.000
9.512,-0.155,-0.005
9.514,-0.260,0.000
9.516,-0.305,0.000
9.518,-0.340,0.005
9.520,-0.335,0.005
9.522,-0.285,0.005
9.524,-0.205,0.005
9.526,-0.160,0.000
9.528,-0.095,0.000
9.530,-0.090,0.000
9.532,-0.155,-0.005
9.534,-0.220,-0.010
9.536,-0.255,-0.015
9.538,-0.345,-0.025
9.540,-0.375,-0.035
9.542,-0.325,-0.045
9.544,-0.290,-0.055
9.546,-0.240,-0.065
9.548,-0.155,-0.070
9.550,-0.175,-0.075
9.552,-0.245,-0.070
9.554,-0.310,-0.065
9.556,-0.335,-0.055
9.558,-0.385,-0.045
9.560,-0.335,-0.030
9.562,-0.250,-0.020
9.564,-0.155,-0.015
9.566,-0.140,-0.010
9.568,-0.080,-0.010
9.570,-0.120,-0.015
9.572,-0.225,-0.020
9.574,-0.335,-0.030
9.576,-0.350,-0.040
9.578,-0.390,-0.050
9.580,-0.375,-0.060
9.582,-0.300,-0.070
9.584,-0.245,-0.075
9.586,-0.190,-0.075
9.588,-0.170,-0.075
9.590,-0.175,-0.075
9.592,-0.225,-0.070
9.594,-0.315,-0.060
9.596,-0.350,-0.055
9.598,-0.340,-0.050
9.600,-0.360,-0.045
9.602,-0.305,-0.040
9.604,-0.205,-0.040
9.606,-0.155,-0.035
9.608,-0.135,-0.035
9.610,-0.145,-0.030
9.612,-0.205,-0.030
9.614,-0.270,-0.025
9.616,-0.350,-0.025
9.618,-0.350,-0.020
9.620,-0.320,-0.020
9.622,-0.250,-0.020
9.624,-0.200,-0.025
9.626,-0.150,-0.025
9.628,-0.130,-0.025
9.630,-0.155,-0.030
9.632,-0.210,-0.030
9.634,-0.255,-0.030
9.636,-0.340,-0.030
9.638,-0.370,-0.035
9.640,-0.345,-0.040
9.642,-0.270,-0.045
9.644,-0.210,-0.050
9.646,-0.145,-0.055
9.648,-0.180,-0.060
9.650,-0.190,-0.060
9.652,-0.240,-0.055
9.654,-0.285,-0.050
9.656,-0.350,-0.040
9.658,-0.315,-0.035
9.660,-0.295,-0.030
9.662,-0.255,-0.035
9.664,-0.240,-0.035
9.666,-0.180,-0.045
9.668,-0.210,-0.055
9.670,-0.210,-0.060
9.672,-0.245,-0.070
9.674,-0.300,-0.070
9.676,-0.390,-0.070
9.678,-0.395,-0.065
9.680,-0.320,-0.055
9.682,-0.260,-0.055
9.684,-0.210,-0.050
9.686,-0.130,-0.050
9.688,-0.190,-0.055
9.690,-0.220,-0.065
9.692,-0.255,-0.070
9.694,-0.275,-0.075
9.696,-0.400,-0.075
9.698,-0.380,-0.075
9.700,-0.370,-0.065
9.702,-0.285,-0.055
9.704,-0.235,-0.050
9.706,-0.150,-0.040
9.708,-0.150,-0.035
9.710,-0.185,-0.035
9.712,-0.280,-0.040
9.714,-0.285,-0.045
9.716,-0.355,-0.050
9.718,-0.375,-0.050
9.720,-0.355,-0.055
9.722,-0.290,-0.055
9.724,-0.245,-0.050
9.726,-0.145,-0.050
9.728,-0.155,-0.050
9.730,-0.195,-0.050
9.732,-0.295,-0.050
9.734,-0.290,-0.055
9.736,-0.370,-0.055
9.738,-0.375,-0.055
9.740,-0.320,-0.055
9.742,-0.255,-0.050
9.744,-0.225,-0.045
9.746,-0.155,-0.045
9.748,-0.175,-0.045
9.750,-0.220,-0.045
9.752,-0.265,-0.050
9.754,-0.270,-0.060
9.756,-0.370,-0.070
9.758,-0.410,-0.080
9.760,-0.375,-0.090
9.762,-0.315,-0.095
9.764,-0.255,-0.090
9.766,-0.145,-0.090
9.768,-0.160,-0.080
9.770,-0.240,-0.075
9.772,-0.310,-0.070
9.774,-0.320,-0.070
9.776,-0.405,-0.070
9.778,-0.390,-0.070
9.780,-0.355,-0.075
9.782,-0.285,-0.080
9.784,-0.230,-0.080
9.786,-0.160,-0.080
9.788,-0.175,-0.075
9.790,-0.230,-0.070
9.792,-0.275,-0.065
9.794,-0.315,-0.060
9.796,-0.370,-0.055
9.798,-0.355,-0.055
9.800,-0.340,-0.055
9.802,-0.280,-0.060
9.804,-0.205,-0.060
9.806,-0.130,-0.060
9.808,-0.150,-0.055
9.810,-0.195,-0.050
9.812,-0.250,-0.045
9.814,-0.300,-0.040
9.816,-0.360,-0.035
9.818,-0.375,-0.035
9.820,-0.315,-0.040
9.822,-0.270,-0.045
9.824,-0.230,-0.055
9.826,-0.205,-0.065
9.828,-0.195,-0.075
9.830,-0.230,-0.085
9.832,-0.305,-0.090
9.834,-0.375,-0.090
9.836,-0.415,-0.090
9.838,-0.400,-0.085
9.840,-0.315,-0.075
9.842,-0.260,-0.065
9.844,-0.205,-0.060
9.846,-0.120,-0.050
9.848,-0.120,-0.045
9.850,-0.200,-0.040
9.852,-0.295,-0.040
9.854,-0.390,-0.040
9.856,-0.395,-0.045
9.858,-0.380,-0.050
9.860,-0.330,-0.060
9.862,-0.280,-0.070
9.864,-0.220,-0.075
9.866,-0.165,-0.080
9.868,-0.205,-0.085
9.870,-0.280,-0.085
9.872,-0.305,-0.080
9.874,-0.340,-0.075
9.876,-0.395,-0.070
9.878,-0.375,-0.065
9.880,-0.310,-0.060
9.882,-0.245,-0.055
9.884,-0.185,-0.055
9.886,-0.135,-0.055
9.888,-0.175,-0.060
9.890,-0.255,-0.060
9.892,-0.310,-0.060
9.894,-0.375,-0.055
9.896,-0.390,-0.055
9.898,-0.330,-0.050
9.900,-0.275,-0.045
9.902,-0.240,-0.045
9.904,-0.160,-0.045
9.906,-0.190,-0.050
9.908,-0.215,-0.060
9.910,-0.240,-0.070
9.912,-0.295,-0.080
9.914,-0.390,-0.085
9.916,-0.395,-0.085
9.918,-0.375,-0.085
9.920,-0.290,-0.080
9.922,-0.250,-0.075
9.924,-0.190,-0.065
9.926,-0.165,-0.060
9.928,-0.195,-0.060
9.930,-0.250,-0.055
9.932,-0.290,-0.060
9.934,-0.360,-0.060
9.936,-0.365,-0.060
9.938,-0.365,-0.060
9.940,-0.315,-0.060
9.942,-0.270,-0.055
9.944,-0.155,-0.050
9.946,-0.145,-0.045
9.948,-0.160,-0.045
9.950,-0.230,-0.045
9.952,-0.280,-0.050
9.954,-0.405,-0.060
9.956,-0.420,-0.070
9.958,-0.385,-0.080
9.960,-0.340,-0.085
9.962,-0.260,-0.090
9.964,-0.155,-0.095
9.966,-0.200,-0.090
9.968,-0.210,-0.080
9.970,-0.275,-0.070
9.972,-0.330,-0.060
9.974,-0.405,-0.045
9.976,-0.330,-0.035
9.978,-0.310,-0.025
9.980,-0.240,-0.020
9.982,-0.220,-0.015
9.984,-0.120,-0.015
9.986,-0.110,-0.015
9.988,-0.165,-0.015
9.990,-0.215,-0.015
9.992,-0.270,-0.015
9.994,-0.340,-0.010
9.996,-0.300,-0.005
9.998,-0.295,0.005
