'Elapsed time','ECG I','ECG I filtered'
'seconds','mV','mV'
0.000,-0.050,-0.025
0.002,-0.025,-0.020
0.004,-0.010,-0.020
0.006,-0.030,-0.020
0.008,-0.040,-0.020
0.010,-0.055,-0.020
0.012,-0.095,-0.020
0.014,-0.070,-0.020
0.016,-0.025,-0.020
0.018,-0.030,-0.020
0.020,-0.040,-0.015
0.022,-0.005,-0.010
0.024,-0.015,-0.005
0.026,-0.045,0.000
0.028,-0.050,0.000
0.030,-0.050,0.000
0.032,-0.060,0.000
0.034,-0.055,-0.005
0.036,-0.030,-0.015
0.038,-0.045,-0.025
0.040,-0.020,-0.030
0.042,-0.005,-0.035
0.044,-0.055,-0.035
0.046,-0.055,-0.030
0.048,-0.050,-0.025
0.050,-0.020,-0.010
0.052,-0.040,0.000
0.054,-0.020,0.010
0.056,-0.020,0.015
0.058,-0.020,0.020
0.060,-0.045,0.015
0.062,-0.010,0.005
0.064,-0.020,-0.005
0.066,-0.040,-0.015
0.068,-0.040,-0.025
0.070,-0.050,-0.030
0.072,-0.075,-0.030
0.074,-0.060,-0.025
0.076,-0.035,-0.015
0.078,-0.030,-0.010
0.080,-0.040,0.000
0.082,-0.010,0.005
0.084,-0.015,0.010
0.086,-0.020,0.005
0.088,-0.020,0.000
0.090,-0.030,-0.010
0.092,-0.065,-0.020
0.094,-0.060,-0.030
0.096,-0.050,-0.035
0.098,-0.070,-0.040
0.100,-0.040,-0.040
0.102,-0.025,-0.035
0.104,-0.035,-0.030
0.106,-0.035,-0.020
0.108,-0.025,-0.015
0.110,-0.045,-0.010
0.112,-0.060,-0.010
0.114,-0.060,-0.005
0.116,-0.020,-0.005
0.118,-0.020,-0.005
0.120,-0.020,-0.010
0.122,-0.035,-0.005
0.124,-0.050,-0.005
0.126,-0.025,0.000
0.128,-0.035,0.000
0.130,-0.035,0.000
0.132,-0.045,0.005
0.134,-0.050,0.000
0.136,-0.050,-0.005
0.138,-0.035,-0.010
0.140,-0.030,-0.015
0.142,-0.030,-0.025
0.144,-0.045,-0.025
0.146,-0.050,-0.030
0.148,-0.030,-0.025
0.150,-0.040,-0.020
0.152,-0.040,-0.015
0.154,-0.040,-0.010
0.156,-0.045,-0.005
0.158,-0.070,-0.005
0.160,-0.035,-0.010
0.162,-0.045,-0.015
0.164,-0.035,-0.025
0.166,-0.055,-0.030
0.168,-0.050,-0.035
0.170,-0.060,-0.040
0.172,-0.045,-0.035
0.174,-0.040,-0.030
0.176,-0.045,-0.020
0.178,-0.060,-0.015
0.180,0.005,-0.005
0.182,-0.015,0.000
0.184,-0.060,0.000
0.186,-0.060,-0.005
0.188,-0.070,-0.010
0.190,-0.075,-0.020
0.192,-0.060,-0.025
0.194,-0.050,-0.030
0.196,-0.035,-0.030
0.198,-0.035,-0.030
0.200,0.000,-0.025
0.202,-0.005,-0.020
0.204,-0.030,-0.020
0.206,-0.040,-0.020
0.208,-0.025,-0.020
0.210,-0.065,-0.030
0.212,-0.065,-0.035
0.214,-0.055,-0.040
0.216,-0.055,-0.040
0.218,-0.050,-0.040
0.220,-0.020,-0.035
0.222,0.000,-0.025
0.224,0.015,-0.010
0.226,0.000,-0.005
0.228,-0.035,0.005
0.230,-0.075,0.005
0.232,-0.070,0.000
0.234,-0.055,-0.005
0.236,-0.040,-0.015
0.238,-0.055,-0.030
0.240,-0.050,-0.035
0.242,-0.050,-0.040
0.244,-0.050,-0.040
0.246,-0.060,-0.040
0.248,-0.025,-0.030
0.250,-0.045,-0.020
0.252,-0.025,-0.015
0.254,-0.020,-0.005
0.256,-0.030,0.000
0.258,-0.040,0.000
0.260,-0.010,0.000
0.262,-0.020,-0.005
0.264,-0.025,-0.010
0.266,-0.020,-0.010
0.268,-0.015,-0.015
0.270,-0.030,-0.010
0.272,-0.020,-0.010
0.274,-0.005,-0.005
0.276,-0.010,0.000
0.278,0.005,0.005
0.280,0.025,0.010
0.282,-0.005,0.010
0.284,-0.005,0.015
0.286,-0.015,0.010
0.288,-0.015,0.010
0.290,-0.030,0.005
0.292,-0.005,0.005
0.294,0.000,0.005
0.296,-0.010,0.005
0.298,-0.005,0.005
0.300,0.010,0.005
0.302,0.015,0.010
0.304,0.005,0.010
0.306,-0.015,0.010
0.308,-0.010,0.005
0.310,-0.035,0.005
0.312,-0.040,0.000
0.314,-0.035,-0.005
0.316,-0.035,-0.010
0.318,-0.035,-0.015
0.320,-0.015,-0.020
0.322,-0.030,-0.025
0.324,-0.040,-0.030
0.326,-0.065,-0.030
0.328,-0.050,-0.035
0.330,-0.050,-0.040
0.332,-0.070,-0.045
0.334,-0.060,-0.050
0.336,-0.060,-0.055
0.338,-0.055,-0.055
0.340,-0.035,-0.060
0.342,-0.060,-0.055
0.344,-0.070,-0.055
0.346,-0.055,-0.050
0.348,-0.050,-0.050
0.350,-0.045,-0.050
0.352,-0.015,-0.050
0.354,-0.060,-0.050
0.356,-0.060,-0.050
0.358,-0.055,-0.055
0.360,-0.055,-0.060
0.362,-0.055,-0.060
0.364,-0.070,-0.060
0.366,-0.060,-0.055
0.368,-0.070,-0.050
0.370,-0.060,-0.045
0.372,-0.050,-0.040
0.374,-0.050,-0.040
0.376,-0.065,-0.035
0.378,-0.070,-0.035
0.380,-0.050,-0.040
0.382,-0.025,-0.040
0.384,-0.045,-0.045
0.386,-0.055,-0.045
0.388,-0.070,-0.050
0.390,-0.105,-0.060
0.392,-0.110,-0.065
0.394,-0.110,-0.075
0.396,-0.115,-0.090
0.398,-0.095,-0.100
0.400,-0.095,-0.110
0.402,-0.125,-0.110
0.404,-0.140,-0.105
0.406,-0.110,-0.085
0.408,-0.095,-0.055
0.410,-0.030,-0.005
0.412,0.070,0.055
0.414,0.160,0.125
0.416,0.235,0.205
0.418,0.310,0.275
0.420,0.390,0.340
0.422,0.440,0.390
0.424,0.445,0.415
0.426,0.415,0.420
0.428,0.345,0.400
0.430,0.240,0.355
0.432,0.270,0.295
0.434,0.270,0.220
0.436,0.170,0.140
0.438,0.100,0.060
0.440,-0.035,-0.010
0.442,-0.175,-0.070
0.444,-0.195,-0.115
0.446,-0.175,-0.145
0.448,-0.190,-0.160
0.450,-0.190,-0.165
0.452,-0.165,-0.160
0.454,-0.155,-0.155
0.456,-0.150,-0.145
0.458,-0.115,-0.135
0.460,-0.105,-0.125
0.462,-0.085,-0.110
0.464,-0.075,-0.100
0.466,-0.080,-0.085
0.468,-0.100,-0.070
0.470,-0.055,-0.055
0.472,-0.055,-0.045
0.474,-0.030,-0.035
0.476,-0.045,-0.030
0.478,-0.015,-0.030
0.480,-0.030,-0.030
0.482,-0.040,-0.035
0.484,-0.045,-0.035
0.486,-0.040,-0.040
0.488,-0.060,-0.040
0.490,-0.040,-0.035
0.492,-0.020,-0.030
0.494,0.005,-0.025
0.496,-0.010,-0.020
0.498,-0.005,-0.015
0.500,0.000,-0.015
0.502,-0.025,-0.015
0.504,-0.025,-0.015
0.506,-0.025,-0.020
0.508,-0.040,-0.020
0.510,-0.020,-0.020
0.512,-0.010,-0.015
0.514,-0.015,-0.015
0.516,-0.030,-0.010
0.518,0.015,-0.005
0.520,-0.015,-0.005
0.522,-0.015,-0.005
0.524,-0.030,-0.010
0.526,-0.015,-0.010
0.528,-0.035,-0.015
0.530,-0.035,-0.015
0.532,-0.005,-0.010
0.534,0.005,-0.005
0.536,0.000,0.000
0.538,0.030,0.010
0.540,0.020,0.020
0.542,0.000,0.025
0.544,-0.015,0.030
0.546,0.025,0.030
0.548,-0.015,0.025
0.550,-0.005,0.025
0.552,-0.005,0.020
0.554,0.000,0.015
0.556,-0.010,0.010
0.558,0.050,0.010
0.560,0.020,0.015
0.562,0.020,0.020
0.564,0.020,0.020
0.566,0.020,0.025
0.568,-0.005,0.025
0.570,0.030,0.025
0.572,0.020,0.025
0.574,0.005,0.020
0.576,0.005,0.020
0.578,0.030,0.015
0.580,0.030,0.015
0.582,0.015,0.020
0.584,0.020,0.020
0.586,0.035,0.025
0.588,0.025,0.035
0.590,0.040,0.040
0.592,0.065,0.045
0.594,0.070,0.050
0.596,0.055,0.055
0.598,0.075,0.055
0.600,0.075,0.060
0.602,0.055,0.060
0.604,0.060,0.065
0.606,0.070,0.070
0.608,0.060,0.075
0.610,0.085,0.080
0.612,0.090,0.090
0.614,0.080,0.095
0.616,0.075,0.100
0.618,0.130,0.105
0.620,0.135,0.110
0.622,0.105,0.110
0.624,0.105,0.110
0.626,0.120,0.110
0.628,0.095,0.110
0.630,0.125,0.115
0.632,0.140,0.125
0.634,0.145,0.135
0.636,0.175,0.145
0.638,0.205,0.155
0.640,0.190,0.165
0.642,0.185,0.175
0.644,0.160,0.185
0.646,0.150,0.190
0.648,0.180,0.195
0.650,0.190,0.200
0.652,0.200,0.205
0.654,0.205,0.205
0.656,0.230,0.210
0.658,0.245,0.215
0.660,0.250,0.220
0.662,0.245,0.225
0.664,0.245,0.230
0.666,0.230,0.235
0.668,0.220,0.240
0.670,0.230,0.240
0.672,0.230,0.240
0.674,0.220,0.240
0.676,0.220,0.235
0.678,0.225,0.230
0.680,0.235,0.225
0.682,0.225,0.220
0.684,0.230,0.215
0.686,0.220,0.205
0.688,0.175,0.200
0.690,0.180,0.200
0.692,0.175,0.195
0.694,0.165,0.190
0.696,0.195,0.185
0.698,0.200,0.175
0.700,0.170,0.165
0.702,0.130,0.150
0.704,0.115,0.135
0.706,0.075,0.115
0.708,0.075,0.100
0.710,0.090,0.085
0.712,0.050,0.070
0.714,0.045,0.060
0.716,0.085,0.050
0.718,0.065,0.045
0.720,0.045,0.045
0.722,0.025,0.040
0.724,0.025,0.040
0.726,0.005,0.035
0.728,0.005,0.025
0.730,0.005,0.020
0.732,-0.020,0.010
0.734,-0.025,0.005
0.736,0.025,-0.005
0.738,0.020,-0.010
0.740,0.000,-0.015
0.742,-0.030,-0.020
0.744,-0.005,-0.020
0.746,-0.045,-0.020
0.748,-0.040,-0.025
0.750,-0.035,-0.025
0.752,-0.030,-0.025
0.754,-0.045,-0.025
0.756,-0.020,-0.025
0.758,-0.020,-0.030
0.760,-0.020,-0.030
0.762,-0.035,-0.035
0.764,-0.030,-0.035
0.766,-0.070,-0.040
0.768,-0.045,-0.040
0.770,-0.005,-0.040
0.772,0.010,-0.040
0.774,-0.025,-0.040
0.776,-0.005,-0.040
0.778,-0.020,-0.040
0.780,-0.005,-0.040
0.782,-0.050,-0.040
0.784,-0.045,-0.040
0.786,-0.065,-0.045
0.788,-0.060,-0.045
0.790,-0.040,-0.050
0.792,-0.030,-0.050
0.794,-0.045,-0.050
0.796,-0.020,-0.055
0.798,-0.020,-0.055
0.800,-0.035,-0.055
0.802,-0.045,-0.055
0.804,-0.045,-0.055
0.806,-0.065,-0.050
0.808,-0.055,-0.050
0.810,-0.035,-0.045
0.812,-0.025,-0.040
0.814,-0.030,-0.040
0.816,-0.015,-0.040
0.818,-0.015,-0.040
0.820,-0.030,-0.040
0.822,-0.045,-0.040
0.824,-0.030,-0.040
0.826,-0.070,-0.040
0.828,-0.045,-0.040
0.830,-0.040,-0.040
0.832,-0.035,-0.035
0.834,-0.055,-0.030
0.836,0.000,-0.030
0.838,-0.005,-0.030
0.840,0.000,-0.030
0.842,-0.025,-0.035
0.844,-0.020,-0.040
0.846,-0.055,-0.045
0.848,-0.065,-0.050
0.850,-0.055,-0.055
0.852,-0.050,-0.055
0.854,-0.050,-0.050
0.856,0.000,-0.045
0.858,0.005,-0.040
0.860,0.025,-0.035
0.862,-0.010,-0.030
0.864,-0.035,-0.025
0.866,-0.060,-0.025
0.868,-0.050,-0.025
0.870,-0.055,-0.025
0.872,-0.060,-0.030
0.874,-0.045,-0.035
0.876,-0.005,-0.040
0.878,-0.005,-0.045
0.880,-0.020,-0.050
0.882,-0.010,-0.050
0.884,-0.015,-0.050
0.886,-0.025,-0.045
0.888,-0.030,-0.040
0.890,-0.040,-0.030
0.892,-0.020,-0.025
0.894,-0.025,-0.020
0.896,0.005,-0.015
0.898,-0.005,-0.015
0.900,-0.025,-0.020
0.902,-0.025,-0.020
0.904,-0.010,-0.025
0.906,-0.035,-0.030
0.908,-0.050,-0.035
0.910,-0.020,-0.035
0.912,-0.020,-0.035
0.914,-0.010,-0.035
0.916,-0.010,-0.030
0.918,-0.040,-0.025
0.920,-0.010,-0.020
0.922,-0.020,-0.020
0.924,-0.025,-0.020
0.926,-0.045,-0.020
0.928,0.000,-0.020
0.930,-0.015,-0.025
0.932,-0.040,-0.030
0.934,-0.005,-0.035
0.936,-0.005,-0.035
0.938,-0.030,-0.040
0.940,-0.055,-0.035
0.942,-0.045,-0.035
0.944,-0.040,-0.030
0.946,-0.040,-0.030
0.948,-0.035,-0.030
0.950,-0.020,-0.025
0.952,0.015,-0.030
0.954,0.015,-0.035
0.956,-0.005,-0.040
0.958,-0.015,-0.045
0.960,-0.030,-0.050
0.962,-0.055,-0.050
0.964,-0.060,-0.055
0.966,-0.045,-0.050
0.968,-0.045,-0.045
0.970,-0.005,-0.040
0.972,-0.015,-0.040
0.974,-0.005,-0.035
0.976,-0.015,-0.035
0.978,-0.030,-0.035
0.980,-0.025,-0.040
0.982,-0.045,-0.045
0.984,-0.080,-0.055
0.986,-0.085,-0.060
0.988,-0.070,-0.065
0.990,-0.030,-0.065
0.992,-0.020,-0.065
0.994,-0.020,-0.060
0.996,-0.030,-0.055
0.998,0.000,-0.045
1.000,-0.010,-0.040
1.002,-0.020,-0.035
1.004,-0.055,-0.030
1.006,-0.050,-0.030
1.008,-0.025,-0.030
1.010,-0.015,-0.030
1.012,-0.020,-0.035
1.014,0.005,-0.035
1.016,0.005,-0.035
1.018,-0.020,-0.035
1.020,-0.020,-0.040
1.022,-0.020,-0.040
1.024,-0.055,-0.040
1.026,-0.035,-0.040
1.028,-0.010,-0.040
1.030,-0.010,-0.045
1.032,-0.030,-0.045
1.034,-0.015,-0.050
1.036,-0.015,-0.050
1.038,-0.015,-0.050
1.040,-0.035,-0.050
1.042,-0.040,-0.050
1.044,-0.045,-0.050
1.046,-0.045,-0.055
1.048,-0.030,-0.055
1.050,-0.005,-0.055
1.052,-0.040,-0.060
1.054,-0.010,-0.060
1.056,-0.015,-0.055
1.058,-0.020,-0.055
1.060,-0.020,-0.050
1.062,-0.005,-0.045
1.064,-0.025,-0.040
1.066,-0.020,-0.035
1.068,-0.015,-0.030
1.070,-0.015,-0.025
1.072,-0.030,-0.030
1.074,-0.010,-0.030
1.076,-0.015,-0.040
1.078,-0.050,-0.045
1.080,-0.045,-0.050
1.082,0.005,-0.055
1.084,-0.045,-0.055
1.086,-0.015,-0.050
1.088,0.005,-0.040
1.090,0.025,-0.030
1.092,0.005,-0.020
1.094,0.010,-0.010
1.096,0.020,-0.005
1.098,0.005,0.000
1.100,-0.025,0.000
1.102,0.010,-0.005
1.104,-0.010,-0.010
1.106,0.025,-0.015
1.108,0.035,-0.020
1.110,0.035,-0.020
1.112,-0.025,-0.020
1.114,0.025,-0.015
1.116,-0.010,-0.015
1.118,-0.010,-0.010
1.120,-0.010,-0.010
1.122,0.020,-0.010
1.124,-0.005,-0.010
1.126,0.020,-0.015
1.128,0.040,-0.015
1.130,0.015,-0.020
1.132,0.015,-0.020
1.134,0.035,-0.020
1.136,0.005,-0.015
1.138,-0.005,-0.010
1.140,-0.015,-0.010
1.142,0.010,-0.005
1.144,-0.010,-0.005
1.146,-0.020,-0.010
1.148,0.015,-0.010
1.150,0.020,-0.015
1.152,0.020,-0.020
1.154,0.015,-0.025
1.156,-0.005,-0.030
1.158,-0.040,-0.030
1.160,-0.040,-0.030
1.162,-0.035,-0.030
1.164,-0.040,-0.030
1.166,-0.010,-0.030
1.168,-0.010,-0.035
1.170,0.000,-0.040
1.172,0.000,-0.045
1.174,0.010,-0.055
1.176,-0.040,-0.060
1.178,-0.045,-0.065
1.180,-0.035,-0.065
1.182,-0.030,-0.065
1.184,-0.045,-0.060
1.186,-0.040,-0.050
1.188,0.000,-0.040
1.190,0.005,-0.030
1.192,0.000,-0.020
1.194,0.000,-0.015
1.196,-0.015,-0.020
1.198,-0.020,-0.025
1.200,0.000,-0.030
1.202,0.020,-0.040
1.204,-0.040,-0.050
1.206,-0.060,-0.060
1.208,-0.020,-0.065
1.210,-0.020,-0.065
1.212,-0.020,-0.065
1.214,-0.020,-0.070
1.216,-0.040,-0.070
1.218,-0.070,-0.080
1.220,-0.075,-0.090
1.222,-0.105,-0.100
1.224,-0.125,-0.105
1.226,-0.120,-0.105
1.228,-0.100,-0.095
1.230,-0.075,-0.065
1.232,0.010,-0.025
1.234,0.110,0.035
1.236,0.185,0.105
1.238,0.250,0.180
1.240,0.315,0.255
1.242,0.390,0.325
1.244,0.425,0.375
1.246,0.455,0.405
1.248,0.450,0.415
1.250,0.390,0.400
1.252,0.295,0.365
1.254,0.345,0.315
1.256,0.320,0.250
1.258,0.260,0.175
1.260,0.185,0.105
1.262,0.055,0.035
1.264,-0.110,-0.025
1.266,-0.170,-0.080
1.268,-0.135,-0.120
1.270,-0.145,-0.145
1.272,-0.125,-0.165
1.274,-0.110,-0.170
1.276,-0.120,-0.170
1.278,-0.105,-0.165
1.280,-0.110,-0.155
1.282,-0.105,-0.140
1.284,-0.095,-0.125
1.286,-0.075,-0.110
1.288,-0.055,-0.095
1.290,-0.040,-0.080
1.292,-0.020,-0.070
1.294,-0.025,-0.055
1.296,-0.015,-0.050
1.298,-0.035,-0.040
1.300,0.005,-0.040
1.302,-0.020,-0.035
1.304,-0.015,-0.040
1.306,-0.030,-0.040
1.308,-0.010,-0.040
1.310,-0.020,-0.040
1.312,0.015,-0.040
1.314,0.015,-0.035
1.316,0.005,-0.035
1.318,-0.010,-0.030
1.320,0.005,-0.025
1.322,-0.020,-0.020
1.324,-0.050,-0.015
1.326,0.000,-0.010
1.328,0.020,-0.010
1.330,0.015,-0.010
1.332,0.040,-0.010
1.334,0.040,-0.015
1.336,0.040,-0.015
1.338,0.005,-0.015
1.340,0.015,-0.015
1.342,0.000,-0.015
1.344,0.000,-0.010
1.346,0.015,-0.010
1.348,0.020,-0.010
1.350,-0.005,-0.010
1.352,0.030,-0.010
1.354,0.050,-0.010
1.356,0.050,-0.010
1.358,0.015,-0.010
1.360,0.010,-0.010
1.362,-0.005,-0.005
1.364,0.010,0.000
1.366,0.005,0.005
1.368,0.015,0.005
1.370,0.000,0.010
1.372,0.070,0.005
1.374,0.060,0.005
1.376,0.015,-0.005
1.378,0.000,-0.015
1.380,0.015,-0.020
1.382,-0.020,-0.030
1.384,-0.015,-0.030
1.386,0.010,-0.030
1.388,0.010,-0.020
1.390,0.000,-0.015
1.392,0.055,-0.005
1.394,0.030,0.005
1.396,0.045,0.010
1.398,0.035,0.015
1.400,0.050,0.010
1.402,0.010,0.005
1.404,0.015,0.005
1.406,0.035,0.000
1.408,0.055,0.000
1.410,0.025,0.005
1.412,0.070,0.010
1.414,0.085,0.020
1.416,0.060,0.025
1.418,0.060,0.030
1.420,0.080,0.030
1.422,0.035,0.025
1.424,0.040,0.025
1.426,0.055,0.020
1.428,0.080,0.020
1.430,0.090,0.030
1.432,0.125,0.040
1.434,0.130,0.055
1.436,0.095,0.070
1.438,0.105,0.090
1.440,0.150,0.105
1.442,0.100,0.110
1.444,0.100,0.110
1.446,0.100,0.110
1.448,0.130,0.100
1.450,0.130,0.090
1.452,0.130,0.085
1.454,0.145,0.080
1.456,0.150,0.085
1.458,0.145,0.095
1.460,0.160,0.105
1.462,0.175,0.120
1.464,0.185,0.135
1.466,0.195,0.150
1.468,0.195,0.160
1.470,0.190,0.170
1.472,0.200,0.170
1.474,0.190,0.175
1.476,0.220,0.175
1.478,0.215,0.175
1.480,0.215,0.180
1.482,0.200,0.180
1.484,0.220,0.185
1.486,0.220,0.190
1.488,0.230,0.195
1.490,0.230,0.200
1.492,0.250,0.200
1.494,0.255,0.205
1.496,0.250,0.210
1.498,0.230,0.210
1.500,0.215,0.215
1.502,0.220,0.215
1.504,0.220,0.215
1.506,0.220,0.215
1.508,0.230,0.210
1.510,0.240,0.205
1.512,0.230,0.195
1.514,0.195,0.185
1.516,0.205,0.175
1.518,0.195,0.165
1.520,0.190,0.160
1.522,0.175,0.150
1.524,0.170,0.140
1.526,0.140,0.130
1.528,0.135,0.120
1.530,0.130,0.110
1.532,0.085,0.090
1.534,0.090,0.075
1.536,0.065,0.055
1.538,0.090,0.040
1.540,0.045,0.025
1.542,0.045,0.010
1.544,0.045,0.005
1.546,0.045,0.000
1.548,0.035,0.000
1.550,0.055,0.000
1.552,0.045,0.000
1.554,0.025,-0.005
1.556,0.005,-0.005
1.558,0.020,-0.015
1.560,-0.020,-0.020
1.562,-0.040,-0.030
1.564,-0.005,-0.040
1.566,0.015,-0.045
1.568,0.000,-0.050
1.570,0.010,-0.055
1.572,-0.005,-0.060
1.574,-0.010,-0.060
1.576,-0.025,-0.060
1.578,-0.020,-0.060
1.580,-0.050,-0.060
1.582,-0.045,-0.060
1.584,-0.035,-0.065
1.586,-0.030,-0.065
1.588,-0.020,-0.070
1.590,-0.020,-0.070
1.592,-0.010,-0.070
1.594,0.010,-0.070
1.596,-0.050,-0.070
1.598,-0.040,-0.065
1.600,-0.055,-0.060
1.602,-0.045,-0.055
1.604,-0.010,-0.050
1.606,-0.010,-0.045
1.608,-0.035,-0.040
1.610,0.030,-0.035
1.612,0.025,-0.035
1.614,0.005,-0.035
1.616,-0.030,-0.040
1.618,-0.030,-0.045
1.620,-0.070,-0.050
1.622,-0.060,-0.055
1.624,-0.020,-0.060
1.626,-0.020,-0.060
1.628,-0.030,-0.060
1.630,0.015,-0.055
1.632,0.020,-0.050
1.634,-0.005,-0.050
1.636,-0.005,-0.050
1.638,-0.005,-0.050
1.640,-0.040,-0.050
1.642,-0.035,-0.050
1.644,-0.015,-0.050
1.646,-0.020,-0.050
1.648,-0.025,-0.050
1.650,0.010,-0.050
1.652,-0.005,-0.045
1.654,-0.005,-0.045
1.656,-0.035,-0.045
1.658,-0.020,-0.050
1.660,-0.025,-0.050
1.662,-0.025,-0.055
1.664,-0.025,-0.055
1.666,-0.010,-0.055
1.668,-0.025,-0.050
1.670,0.015,-0.050
1.672,0.020,-0.045
1.674,0.005,-0.040
1.676,-0.010,-0.035
1.678,-0.005,-0.035
1.680,-0.045,-0.040
1.682,-0.040,-0.040
1.684,0.005,-0.045
1.686,-0.005,-0.050
1.688,0.005,-0.050
1.690,0.040,-0.050
1.692,0.040,-0.050
1.694,-0.010,-0.045
1.696,0.005,-0.040
1.698,-0.010,-0.035
1.700,-0.045,-0.035
1.702,-0.030,-0.035
1.704,-0.025,-0.040
1.706,-0.020,-0.040
1.708,-0.020,-0.050
1.710,0.000,-0.055
1.712,0.020,-0.055
1.714,0.030,-0.055
1.716,-0.010,-0.055
1.718,-0.005,-0.050
1.720,-0.035,-0.040
1.722,-0.025,-0.035
1.724,0.000,-0.025
1.726,0.000,-0.020
1.728,0.015,-0.020
1.730,0.020,-0.020
1.732,0.025,-0.025
1.734,0.000,-0.030
1.736,-0.015,-0.035
1.738,-0.010,-0.045
1.740,-0.055,-0.050
1.742,-0.040,-0.055
1.744,-0.015,-0.060
1.746,-0.005,-0.060
1.748,-0.005,-0.060
1.750,0.000,-0.055
1.752,0.005,-0.050
1.754,0.000,-0.045
1.756,0.000,-0.045
1.758,-0.005,-0.040
1.760,-0.005,-0.040
1.762,-0.005,-0.035
1.764,0.015,-0.035
1.766,0.010,-0.040
1.768,0.015,-0.040
1.770,0.015,-0.040
1.772,-0.010,-0.045
1.774,-0.035,-0.045
1.776,-0.035,-0.050
1.778,-0.025,-0.055
1.780,-0.005,-0.055
1.782,-0.005,-0.055
1.784,0.000,-0.055
1.786,-0.015,-0.055
1.788,-0.005,-0.055
1.790,-0.005,-0.050
1.792,-0.020,-0.045
1.794,-0.020,-0.045
1.796,-0.010,-0.045
1.798,-0.005,-0.040
1.800,-0.020,-0.040
1.802,-0.015,-0.045
1.804,-0.015,-0.045
1.806,-0.005,-0.045
1.808,0.020,-0.050
1.810,-0.005,-0.050
1.812,-0.030,-0.050
1.814,-0.020,-0.050
1.816,-0.020,-0.050
1.818,-0.020,-0.045
1.820,-0.035,-0.045
1.822,-0.005,-0.040
1.824,-0.005,-0.035
1.826,-0.030,-0.035
1.828,0.015,-0.030
1.830,0.010,-0.030
1.832,-0.010,-0.025
1.834,-0.020,-0.025
1.836,0.020,-0.025
1.838,-0.010,-0.030
1.840,0.000,-0.030
1.842,0.010,-0.035
1.844,-0.015,-0.035
1.846,-0.015,-0.040
1.848,0.020,-0.045
1.850,0.015,-0.045
1.852,-0.045,-0.050
1.854,-0.030,-0.050
1.856,-0.010,-0.050
1.858,-0.030,-0.055
1.860,-0.030,-0.055
1.862,-0.020,-0.055
1.864,-0.010,-0.050
1.866,0.005,-0.045
1.868,0.065,-0.040
1.870,0.020,-0.030
1.872,0.020,-0.025
1.874,-0.010,-0.020
1.876,0.000,-0.020
1.878,-0.020,-0.020
1.880,-0.030,-0.020
1.882,-0.010,-0.025
1.884,0.000,-0.035
1.886,-0.005,-0.040
1.888,0.020,-0.045
1.890,0.000,-0.050
1.892,-0.010,-0.050
1.894,-0.005,-0.045
1.896,0.040,-0.045
1.898,-0.005,-0.040
1.900,-0.020,-0.035
1.902,-0.015,-0.030
1.904,-0.005,-0.025
1.906,-0.015,-0.020
1.908,0.040,-0.020
1.910,0.000,-0.020
1.912,0.000,-0.020
1.914,-0.010,-0.020
1.916,0.020,-0.025
1.918,0.000,-0.030
1.920,-0.025,-0.030
1.922,-0.010,-0.035
1.924,-0.015,-0.040
1.926,0.000,-0.040
1.928,-0.005,-0.045
1.930,-0.020,-0.045
1.932,0.000,-0.040
1.934,-0.040,-0.040
1.936,0.005,-0.040
1.938,-0.020,-0.040
1.940,-0.025,-0.040
1.942,-0.005,-0.040
1.944,-0.035,-0.040
1.946,-0.010,-0.045
1.948,0.020,-0.045
1.950,0.015,-0.040
1.952,-0.005,-0.035
1.954,0.005,-0.030
1.956,0.005,-0.025
1.958,-0.020,-0.015
1.960,0.010,-0.010
1.962,0.015,-0.005
1.964,0.010,-0.005
1.966,0.010,-0.005
1.968,0.045,-0.010
1.970,0.010,-0.010
1.972,0.030,-0.015
1.974,0.005,-0.020
1.976,0.020,-0.020
1.978,0.010,-0.020
1.980,0.015,-0.015
1.982,0.015,-0.015
1.984,0.050,-0.010
1.986,0.040,-0.005
1.988,0.040,-0.005
1.990,0.035,0.000
1.992,0.020,0.000
1.994,0.030,-0.005
1.996,0.035,-0.005
1.998,0.020,-0.005
2.000,0.005,-0.005
2.002,0.010,-0.005
2.004,0.010,0.000
2.006,0.010,0.005
2.008,0.050,0.005
2.010,0.035,0.005
2.012,0.035,0.005
2.014,0.010,0.000
2.016,0.000,-0.005
2.018,-0.035,-0.015
2.020,-0.015,-0.025
2.022,-0.015,-0.035
2.024,0.010,-0.045
2.026,0.000,-0.050
2.028,0.005,-0.050
2.030,-0.020,-0.050
2.032,-0.030,-0.045
2.034,-0.005,-0.040
2.036,-0.015,-0.035
2.038,-0.030,-0.035
2.040,-0.020,-0.035
2.042,0.005,-0.040
2.044,-0.030,-0.045
2.046,-0.030,-0.050
2.048,-0.020,-0.055
2.050,-0.005,-0.060
2.052,-0.020,-0.060
2.054,-0.005,-0.060
2.056,-0.020,-0.055
2.058,-0.045,-0.055
2.060,-0.035,-0.050
2.062,-0.030,-0.050
2.064,-0.020,-0.050
2.066,-0.035,-0.050
2.068,-0.020,-0.050
2.070,-0.035,-0.050
2.072,-0.020,-0.055
2.074,-0.025,-0.055
2.076,-0.005,-0.050
2.078,-0.030,-0.050
2.080,-0.020,-0.045
2.082,-0.040,-0.045
2.084,-0.020,-0.045
2.086,-0.030,-0.050
2.088,-0.025,-0.060
2.090,-0.035,-0.070
2.092,-0.075,-0.085
2.094,-0.075,-0.095
2.096,-0.105,-0.105
2.098,-0.110,-0.105
2.100,-0.095,-0.100
2.102,-0.035,-0.075
2.104,-0.015,-0.040
2.106,0.050,0.010
2.108,0.130,0.070
2.110,0.205,0.135
2.112,0.255,0.210
2.114,0.325,0.275
2.116,0.395,0.335
2.118,0.440,0.380
2.120,0.470,0.405
2.122,0.405,0.405
2.124,0.330,0.385
2.126,0.325,0.340
2.128,0.320,0.280
2.130,0.275,0.210
2.132,0.160,0.130
2.134,0.095,0.050
2.136,-0.055,-0.025
2.138,-0.195,-0.085
2.140,-0.185,-0.130
2.142,-0.150,-0.160
2.144,-0.140,-0.175
2.146,-0.105,-0.180
2.148,-0.120,-0.175
2.150,-0.125,-0.160
2.152,-0.120,-0.150
2.154,-0.090,-0.140
2.156,-0.130,-0.130
2.158,-0.120,-0.120
2.160,-0.105,-0.110
2.162,-0.070,-0.095
2.164,-0.040,-0.085
2.166,0.020,-0.070
2.168,0.000,-0.055
2.170,0.000,-0.040
2.172,-0.005,-0.025
2.174,0.010,-0.015
2.176,-0.025,-0.010
2.178,-0.030,-0.010
2.180,-0.030,-0.015
2.182,-0.015,-0.020
2.184,-0.035,-0.025
2.186,0.015,-0.030
2.188,0.015,-0.035
2.190,-0.005,-0.035
2.192,-0.005,-0.030
2.194,0.020,-0.025
2.196,-0.020,-0.020
2.198,0.000,-0.015
2.200,0.005,-0.010
2.202,-0.010,-0.005
2.204,-0.025,-0.005
2.206,0.030,-0.005
2.208,0.030,-0.005
2.210,0.005,-0.010
2.212,-0.025,-0.010
2.214,0.005,-0.015
2.216,-0.025,-0.020
2.218,-0.035,-0.020
2.220,-0.010,-0.020
2.222,0.010,-0.020
2.224,0.005,-0.020
2.226,0.030,-0.015
2.228,0.045,-0.010
2.230,0.050,-0.005
2.232,0.025,0.000
2.234,0.005,0.005
2.236,-0.025,0.005
2.238,-0.015,0.005
2.240,-0.005,0.005
2.242,0.020,0.005
2.244,0.030,0.005
2.246,0.035,0.005
2.248,0.040,0.000
2.250,0.005,0.000
2.252,-0.005,0.000
2.254,0.050,0.000
2.256,0.010,0.005
2.258,0.010,0.010
2.260,0.025,0.015
2.262,0.030,0.015
2.264,0.020,0.020
2.266,0.040,0.020
2.268,0.020,0.020
2.270,0.020,0.020
2.272,0.020,0.015
2.274,0.050,0.010
2.276,0.010,0.005
2.278,0.010,0.000
2.280,0.015,-0.005
2.282,0.035,0.000
2.284,0.035,0.005
2.286,0.060,0.010
2.288,0.045,0.020
2.290,0.045,0.025
2.292,0.065,0.035
2.294,0.080,0.040
2.296,0.035,0.045
2.298,0.035,0.045
2.300,0.050,0.050
2.302,0.080,0.055
2.304,0.065,0.060
2.306,0.100,0.065
2.308,0.075,0.075
2.310,0.105,0.080
2.312,0.090,0.090
2.314,0.090,0.095
2.316,0.100,0.095
2.318,0.090,0.100
2.320,0.095,0.100
2.322,0.110,0.100
2.324,0.125,0.100
2.326,0.115,0.105
2.328,0.135,0.110
2.330,0.135,0.120
2.332,0.165,0.125
2.334,0.160,0.135
2.336,0.145,0.140
2.338,0.145,0.150
2.340,0.160,0.155
2.342,0.165,0.165
2.344,0.165,0.170
2.346,0.215,0.180
2.348,0.200,0.190
2.350,0.195,0.200
2.352,0.220,0.210
2.354,0.215,0.215
2.356,0.235,0.220
2.358,0.220,0.220
2.360,0.215,0.220
2.362,0.215,0.220
2.364,0.220,0.215
2.366,0.205,0.210
2.368,0.210,0.210
2.370,0.190,0.210
2.372,0.235,0.215
2.374,0.215,0.220
2.376,0.205,0.220
2.378,0.195,0.220
2.380,0.195,0.220
2.382,0.200,0.215
2.384,0.220,0.205
2.386,0.195,0.195
2.388,0.185,0.185
2.390,0.165,0.175
2.392,0.155,0.165
2.394,0.150,0.155
2.396,0.140,0.145
2.398,0.120,0.140
2.400,0.125,0.130
2.402,0.105,0.125
2.404,0.105,0.115
2.406,0.080,0.100
2.408,0.045,0.090
2.410,0.035,0.075
2.412,0.040,0.065
2.414,0.015,0.055
2.416,0.020,0.045
2.418,0.025,0.035
2.420,0.035,0.030
2.422,0.005,0.020
2.424,0.030,0.005
2.426,0.000,-0.005
2.428,-0.010,-0.015
2.430,-0.010,-0.025
2.432,-0.015,-0.030
2.434,-0.070,-0.035
2.436,-0.055,-0.035
2.438,-0.060,-0.035
2.440,-0.065,-0.035
2.442,-0.080,-0.035
2.444,-0.020,-0.035
2.446,-0.020,-0.040
2.448,-0.055,-0.045
2.450,-0.055,-0.050
2.452,-0.045,-0.055
2.454,-0.080,-0.065
2.456,-0.080,-0.065
2.458,-0.080,-0.070
2.460,-0.085,-0.070
2.462,-0.085,-0.070
2.464,-0.065,-0.065
2.466,-0.065,-0.065
2.468,-0.060,-0.065
2.470,-0.090,-0.065
2.472,-0.075,-0.065
2.474,-0.110,-0.065
2.476,-0.080,-0.060
2.478,-0.085,-0.055
2.480,-0.060,-0.050
2.482,-0.065,-0.040
2.484,-0.035,-0.035
2.486,-0.035,-0.035
2.488,-0.045,-0.035
2.490,-0.085,-0.040
2.492,-0.085,-0.050
2.494,-0.105,-0.055
2.496,-0.090,-0.065
2.498,-0.090,-0.070
2.500,-0.090,-0.070
2.502,-0.105,-0.070
2.504,-0.065,-0.060
2.506,-0.070,-0.055
2.508,-0.060,-0.045
2.510,-0.070,-0.040
2.512,-0.075,-0.035
2.514,-0.085,-0.035
2.516,-0.075,-0.040
2.518,-0.075,-0.045
2.520,-0.070,-0.055
2.522,-0.100,-0.060
2.524,-0.090,-0.065
2.526,-0.070,-0.070
2.528,-0.080,-0.070
2.530,-0.075,-0.065
2.532,-0.085,-0.060
2.534,-0.110,-0.055
2.536,-0.090,-0.045
2.538,-0.055,-0.040
2.540,-0.055,-0.035
2.542,-0.080,-0.030
2.544,-0.050,-0.030
2.546,-0.060,-0.035
2.548,-0.065,-0.040
2.550,-0.080,-0.045
2.552,-0.080,-0.050
2.554,-0.110,-0.055
2.556,-0.090,-0.060
2.558,-0.075,-0.060
2.560,-0.070,-0.055
2.562,-0.050,-0.050
2.564,-0.030,-0.040
2.566,-0.050,-0.035
2.568,-0.075,-0.030
2.570,-0.085,-0.025
2.572,-0.060,-0.025
2.574,-0.080,-0.030
2.576,-0.090,-0.035
2.578,-0.065,-0.040
2.580,-0.060,-0.045
2.582,-0.060,-0.045
2.584,-0.060,-0.045
2.586,-0.085,-0.040
2.588,-0.070,-0.035
2.590,-0.080,-0.030
2.592,-0.065,-0.025
2.594,-0.080,-0.025
2.596,-0.080,-0.025
2.598,-0.050,-0.025
2.600,-0.055,-0.025
2.602,-0.055,-0.030
2.604,-0.050,-0.030
2.606,-0.080,-0.030
2.608,-0.065,-0.030
2.610,-0.075,-0.025
2.612,-0.065,-0.025
2.614,-0.060,-0.020
2.616,-0.065,-0.020
2.618,-0.050,-0.020
2.620,-0.065,-0.025
2.622,-0.060,-0.030
2.624,-0.050,-0.035
2.626,-0.070,-0.040
2.628,-0.085,-0.045
2.630,-0.095,-0.045
2.632,-0.070,-0.045
2.634,-0.070,-0.045
2.636,-0.060,-0.040
2.638,-0.060,-0.035
2.640,-0.065,-0.035
2.642,-0.055,-0.030
2.644,-0.075,-0.030
2.646,-0.060,-0.030
2.648,-0.060,-0.030
2.650,-0.070,-0.030
2.652,-0.110,-0.030
2.654,-0.100,-0.035
2.656,-0.095,-0.035
2.658,-0.050,-0.035
2.660,-0.070,-0.035
2.662,-0.065,-0.035
2.664,-0.045,-0.035
2.666,-0.065,-0.035
2.668,-0.075,-0.040
2.670,-0.070,-0.040
2.672,-0.100,-0.040
2.674,-0.100,-0.045
2.676,-0.095,-0.045
2.678,-0.090,-0.045
2.680,-0.080,-0.040
2.682,-0.065,-0.040
2.684,-0.065,-0.040
2.686,-0.090,-0.035
2.688,-0.095,-0.035
2.690,-0.075,-0.035
2.692,-0.090,-0.035
2.694,-0.085,-0.035
2.696,-0.095,-0.035
2.698,-0.080,-0.040
2.700,-0.110,-0.040
2.702,-0.070,-0.040
2.704,-0.055,-0.045
2.706,-0.095,-0.045
2.708,-0.095,-0.045
2.710,-0.085,-0.045
2.712,-0.110,-0.045
2.714,-0.085,-0.045
2.716,-0.085,-0.045
2.718,-0.075,-0.040
2.720,-0.100,-0.040
2.722,-0.085,-0.040
2.724,-0.075,-0.040
2.726,-0.085,-0.040
2.728,-0.085,-0.040
2.730,-0.080,-0.040
2.732,-0.115,-0.040
2.734,-0.100,-0.040
2.736,-0.075,-0.035
2.738,-0.060,-0.030
2.740,-0.080,-0.025
2.742,-0.060,-0.020
2.744,-0.075,-0.015
2.746,-0.105,-0.015
2.748,-0.075,-0.015
2.750,-0.070,-0.015
2.752,-0.100,-0.020
2.754,-0.110,-0.030
2.756,-0.110,-0.035
2.758,-0.090,-0.040
2.760,-0.080,-0.040
2.762,-0.060,-0.040
2.764,-0.065,-0.040
2.766,-0.105,-0.035
2.768,-0.125,-0.030
2.770,-0.100,-0.025
2.772,-0.120,-0.025
2.774,-0.085,-0.025
2.776,-0.060,-0.030
2.778,-0.035,-0.030
2.780,-0.090,-0.035
2.782,-0.065,-0.035
2.784,-0.085,-0.030
2.786,-0.085,-0.025
2.788,-0.085,-0.015
2.790,-0.030,-0.005
2.792,-0.085,0.005
2.794,-0.060,0.015
2.796,-0.065,0.020
2.798,-0.060,0.025
2.800,-0.070,0.025
2.802,-0.045,0.020
2.804,-0.050,0.015
2.806,-0.045,0.010
2.808,-0.040,0.010
2.810,-0.040,0.010
2.812,-0.060,0.015
2.814,-0.075,0.025
2.816,-0.075,0.030
2.818,-0.020,0.040
2.820,-0.020,0.045
2.822,-0.020,0.045
2.824,-0.040,0.040
2.826,-0.080,0.030
2.828,-0.090,0.020
2.830,-0.065,0.010
2.832,-0.075,0.000
2.834,-0.060,-0.005
2.836,-0.085,-0.005
2.838,-0.055,-0.005
2.840,-0.070,0.000
2.842,-0.050,0.005
2.844,-0.065,0.010
2.846,-0.090,0.010
2.848,-0.110,0.010
2.850,-0.130,0.005
2.852,-0.125,-0.005
2.854,-0.125,-0.015
2.856,-0.110,-0.025
2.858,-0.080,-0.035
2.860,-0.085,-0.040
2.862,-0.070,-0.045
2.864,-0.080,-0.040
2.866,-0.115,-0.035
2.868,-0.130,-0.030
2.870,-0.120,-0.025
2.872,-0.135,-0.020
2.874,-0.135,-0.015
2.876,-0.105,-0.015
2.878,-0.115,-0.020
2.880,-0.105,-0.025
2.882,-0.085,-0.030
2.884,-0.095,-0.040
2.886,-0.130,-0.045
2.888,-0.125,-0.050
2.890,-0.130,-0.050
2.892,-0.160,-0.050
2.894,-0.150,-0.050
2.896,-0.125,-0.045
2.898,-0.120,-0.045
2.900,-0.105,-0.040
2.902,-0.105,-0.040
2.904,-0.130,-0.045
2.906,-0.145,-0.045
2.908,-0.145,-0.045
2.910,-0.155,-0.045
2.912,-0.125,-0.045
2.914,-0.120,-0.040
2.916,-0.135,-0.035
2.918,-0.110,-0.030
2.920,-0.090,-0.030
2.922,-0.115,-0.030
2.924,-0.140,-0.035
2.926,-0.160,-0.050
2.928,-0.165,-0.065
2.930,-0.195,-0.080
2.932,-0.220,-0.095
2.934,-0.220,-0.100
2.936,-0.195,-0.095
2.938,-0.155,-0.070
2.940,-0.105,-0.030
2.942,-0.035,0.025
2.944,0.050,0.090
2.946,0.085,0.165
2.948,0.170,0.235
2.950,0.240,0.295
2.952,0.295,0.345
2.954,0.295,0.370
2.956,0.270,0.375
2.958,0.220,0.360
2.960,0.180,0.320
2.962,0.135,0.270
2.964,0.125,0.205
2.966,0.075,0.140
2.968,0.005,0.070
2.970,-0.115,0.005
2.972,-0.220,-0.050
2.974,-0.285,-0.095
2.976,-0.260,-0.130
2.978,-0.270,-0.150
2.980,-0.210,-0.165
2.982,-0.225,-0.170
2.984,-0.255,-0.165
2.986,-0.255,-0.160
2.988,-0.265,-0.150
2.990,-0.250,-0.140
2.992,-0.245,-0.130
2.994,-0.225,-0.120
2.996,-0.195,-0.110
2.998,-0.200,-0.100
3.000,-0.175,-0.095
3.002,-0.155,-0.085
3.004,-0.145,-0.075
3.006,-0.145,-0.065
3.008,-0.125,-0.055
3.010,-0.180,-0.045
3.012,-0.150,-0.040
3.014,-0.140,-0.030
3.016,-0.120,-0.025
3.018,-0.135,-0.015
3.020,-0.085,-0.015
3.022,-0.120,-0.010
3.024,-0.100,-0.010
3.026,-0.120,-0.010
3.028,-0.110,-0.010
3.030,-0.150,-0.010
3.032,-0.155,-0.010
3.034,-0.135,-0.010
3.036,-0.105,-0.010
3.038,-0.105,-0.010
3.040,-0.090,-0.005
3.042,-0.095,0.000
3.044,-0.120,0.005
3.046,-0.110,0.005
3.048,-0.085,0.010
3.050,-0.125,0.010
3.052,-0.130,0.010
3.054,-0.105,0.010
3.056,-0.105,0.010
3.058,-0.120,0.010
3.060,-0.095,0.010
3.062,-0.095,0.005
3.064,-0.110,0.000
3.066,-0.140,0.000
3.068,-0.135,-0.005
3.070,-0.155,-0.010
3.072,-0.140,-0.010
3.074,-0.105,-0.010
3.076,-0.065,-0.005
3.078,-0.095,0.000
3.080,-0.075,0.010
3.082,-0.110,0.020
3.084,-0.090,0.030
3.086,-0.115,0.035
3.088,-0.090,0.040
3.090,-0.110,0.040
3.092,-0.120,0.040
3.094,-0.125,0.035
3.096,-0.065,0.030
3.098,-0.065,0.025
3.100,-0.040,0.020
3.102,-0.080,0.020
3.104,-0.090,0.020
3.106,-0.110,0.025
3.108,-0.095,0.030
3.110,-0.115,0.030
3.112,-0.095,0.035
3.114,-0.090,0.040
3.116,-0.075,0.040
3.118,-0.080,0.045
3.120,-0.045,0.050
3.122,-0.045,0.055
3.124,-0.055,0.060
3.126,-0.055,0.065
3.128,-0.075,0.070
3.130,-0.065,0.075
3.132,-0.070,0.075
3.134,-0.055,0.080
3.136,-0.045,0.080
3.138,-0.060,0.080
3.140,-0.040,0.080
3.142,-0.040,0.080
3.144,-0.050,0.080
3.146,-0.045,0.085
3.148,-0.045,0.085
3.150,-0.040,0.090
3.152,-0.010,0.100
3.154,0.000,0.105
3.156,0.015,0.115
3.158,-0.015,0.120
3.160,0.015,0.130
3.162,0.025,0.135
3.164,0.000,0.140
3.166,0.005,0.145
3.168,0.015,0.145
3.170,0.015,0.150
3.172,0.030,0.155
3.174,0.045,0.160
3.176,0.030,0.165
3.178,0.065,0.175
3.180,0.080,0.185
3.182,0.085,0.195
3.184,0.085,0.205
3.186,0.075,0.215
3.188,0.090,0.225
3.190,0.065,0.230
3.192,0.100,0.235
3.194,0.120,0.240
3.196,0.100,0.240
3.198,0.090,0.240
3.200,0.125,0.240
3.202,0.110,0.235
3.204,0.085,0.230
3.206,0.085,0.225
3.208,0.065,0.225
3.210,0.045,0.220
3.212,0.065,0.215
3.214,0.070,0.215
3.216,0.070,0.215
3.218,0.090,0.215
3.220,0.090,0.215
3.222,0.090,0.210
3.224,0.080,0.210
3.226,0.055,0.200
3.228,0.005,0.190
3.230,0.005,0.180
3.232,0.000,0.165
3.234,0.005,0.150
3.236,-0.030,0.135
3.238,-0.020,0.120
3.240,-0.035,0.110
3.242,-0.065,0.100
3.244,-0.060,0.090
3.246,-0.060,0.085
3.248,-0.080,0.075
3.250,-0.095,0.070
3.252,-0.090,0.065
3.254,-0.065,0.055
3.256,-0.095,0.045
3.258,-0.090,0.040
3.260,-0.100,0.030
3.262,-0.120,0.025
3.264,-0.140,0.020
3.266,-0.115,0.015
3.268,-0.160,0.015
3.270,-0.155,0.015
3.272,-0.155,0.015
3.274,-0.170,0.010
3.276,-0.180,0.010
3.278,-0.145,0.005
3.280,-0.135,-0.005
3.282,-0.135,-0.010
3.284,-0.155,-0.020
3.286,-0.160,-0.025
3.288,-0.215,-0.035
3.290,-0.215,-0.040
3.292,-0.215,-0.040
3.294,-0.195,-0.045
3.296,-0.200,-0.045
3.298,-0.140,-0.045
3.300,-0.190,-0.045
3.302,-0.190,-0.050
3.304,-0.190,-0.050
3.306,-0.190,-0.050
3.308,-0.230,-0.055
3.310,-0.230,-0.055
3.312,-0.210,-0.050
3.314,-0.210,-0.050
3.316,-0.210,-0.050
3.318,-0.175,-0.045
3.320,-0.195,-0.045
3.322,-0.195,-0.050
3.324,-0.195,-0.055
3.326,-0.185,-0.060
3.328,-0.250,-0.065
3.330,-0.250,-0.070
3.332,-0.215,-0.075
3.334,-0.205,-0.080
3.336,-0.235,-0.075
3.338,-0.195,-0.070
3.340,-0.195,-0.065
3.342,-0.190,-0.060
3.344,-0.205,-0.050
3.346,-0.200,-0.050
3.348,-0.235,-0.045
3.350,-0.245,-0.045
3.352,-0.250,-0.045
3.354,-0.210,-0.050
3.356,-0.210,-0.055
3.358,-0.190,-0.060
3.360,-0.190,-0.065
3.362,-0.220,-0.065
3.364,-0.250,-0.065
3.366,-0.225,-0.060
3.368,-0.240,-0.055
3.370,-0.230,-0.050
3.372,-0.200,-0.050
3.374,-0.180,-0.045
3.376,-0.220,-0.045
3.378,-0.190,-0.045
3.380,-0.190,-0.050
3.382,-0.225,-0.055
3.384,-0.235,-0.060
3.386,-0.220,-0.070
3.388,-0.240,-0.070
3.390,-0.235,-0.075
3.392,-0.220,-0.070
3.394,-0.205,-0.065
3.396,-0.215,-0.060
3.398,-0.175,-0.055
3.400,-0.205,-0.045
3.402,-0.195,-0.040
3.404,-0.200,-0.035
3.406,-0.195,-0.030
3.408,-0.210,-0.030
3.410,-0.215,-0.035
3.412,-0.200,-0.040
3.414,-0.200,-0.040
3.416,-0.205,-0.045
3.418,-0.155,-0.045
3.420,-0.195,-0.045
3.422,-0.200,-0.045
3.424,-0.205,-0.040
3.426,-0.195,-0.040
3.428,-0.210,-0.035
3.430,-0.190,-0.035
3.432,-0.205,-0.035
3.434,-0.200,-0.035
3.436,-0.195,-0.035
3.438,-0.160,-0.035
3.440,-0.195,-0.040
3.442,-0.205,-0.040
3.444,-0.215,-0.040
3.446,-0.230,-0.040
3.448,-0.245,-0.035
3.450,-0.205,-0.035
3.452,-0.215,-0.030
3.454,-0.205,-0.030
3.456,-0.210,-0.035
3.458,-0.215,-0.040
3.460,-0.225,-0.045
3.462,-0.225,-0.055
3.464,-0.225,-0.060
3.466,-0.220,-0.070
3.468,-0.250,-0.075
3.470,-0.235,-0.075
3.472,-0.220,-0.075
3.474,-0.215,-0.070
3.476,-0.205,-0.065
3.478,-0.195,-0.060
3.480,-0.200,-0.055
3.482,-0.195,-0.050
3.484,-0.220,-0.045
3.486,-0.215,-0.045
3.488,-0.215,-0.045
3.490,-0.235,-0.045
3.492,-0.225,-0.045
3.494,-0.235,-0.045
3.496,-0.235,-0.040
3.498,-0.180,-0.035
3.500,-0.185,-0.035
3.502,-0.210,-0.035
3.504,-0.195,-0.035
3.506,-0.230,-0.040
3.508,-0.255,-0.050
3.510,-0.250,-0.060
3.512,-0.250,-0.070
3.514,-0.240,-0.075
3.516,-0.210,-0.085
3.518,-0.235,-0.085
3.520,-0.235,-0.085
3.522,-0.235,-0.080
3.524,-0.230,-0.075
3.526,-0.250,-0.070
3.528,-0.250,-0.065
3.530,-0.235,-0.060
3.532,-0.235,-0.055
3.534,-0.265,-0.055
3.536,-0.225,-0.060
3.538,-0.230,-0.060
3.540,-0.230,-0.060
3.542,-0.225,-0.065
3.544,-0.245,-0.065
3.546,-0.270,-0.065
3.548,-0.240,-0.060
3.550,-0.220,-0.060
3.552,-0.200,-0.055
3.554,-0.225,-0.055
3.556,-0.195,-0.050
3.558,-0.210,-0.050
3.560,-0.220,-0.045
3.562,-0.225,-0.045
3.564,-0.200,-0.040
3.566,-0.215,-0.035
3.568,-0.230,-0.030
3.570,-0.210,-0.030
3.572,-0.225,-0.030
3.574,-0.230,-0.030
3.576,-0.200,-0.030
3.578,-0.175,-0.030
3.580,-0.180,-0.035
3.582,-0.180,-0.035
3.584,-0.175,-0.035
3.586,-0.225,-0.030
3.588,-0.250,-0.025
3.590,-0.210,-0.020
3.592,-0.200,-0.015
3.594,-0.205,-0.010
3.596,-0.195,-0.010
3.598,-0.190,-0.010
3.600,-0.205,-0.015
3.602,-0.195,-0.025
3.604,-0.180,-0.030
3.606,-0.200,-0.035
3.608,-0.235,-0.040
3.610,-0.225,-0.045
3.612,-0.210,-0.045
3.614,-0.240,-0.045
3.616,-0.220,-0.045
3.618,-0.225,-0.045
3.620,-0.240,-0.050
3.622,-0.250,-0.055
3.624,-0.245,-0.065
3.626,-0.290,-0.075
3.628,-0.270,-0.090
3.630,-0.260,-0.095
3.632,-0.250,-0.100
3.634,-0.245,-0.095
3.636,-0.240,-0.090
3.638,-0.230,-0.080
3.640,-0.225,-0.070
3.642,-0.245,-0.060
3.644,-0.250,-0.055
3.646,-0.265,-0.050
3.648,-0.250,-0.050
3.650,-0.240,-0.050
3.652,-0.240,-0.055
3.654,-0.260,-0.065
3.656,-0.245,-0.070
3.658,-0.250,-0.075
3.660,-0.255,-0.075
3.662,-0.250,-0.080
3.664,-0.240,-0.080
3.666,-0.260,-0.075
3.668,-0.260,-0.075
3.670,-0.270,-0.075
3.672,-0.255,-0.075
3.674,-0.255,-0.075
3.676,-0.240,-0.075
3.678,-0.255,-0.075
3.680,-0.290,-0.075
3.682,-0.265,-0.075
3.684,-0.265,-0.075
3.686,-0.265,-0.075
3.688,-0.260,-0.075
3.690,-0.265,-0.075
3.692,-0.240,-0.075
3.694,-0.250,-0.075
3.696,-0.245,-0.075
3.698,-0.245,-0.075
3.700,-0.270,-0.080
3.702,-0.290,-0.085
3.704,-0.290,-0.090
3.706,-0.335,-0.105
3.708,-0.325,-0.115
3.710,-0.325,-0.125
3.712,-0.320,-0.130
3.714,-0.300,-0.130
3.716,-0.305,-0.120
3.718,-0.270,-0.095
3.720,-0.240,-0.060
3.722,-0.165,-0.010
3.724,-0.105,0.050
3.726,-0.075,0.120
3.728,0.010,0.185
3.730,0.095,0.245
3.732,0.180,0.295
3.734,0.210,0.330
3.736,0.215,0.345
3.738,0.170,0.340
3.740,0.085,0.315
3.742,0.015,0.275
3.744,-0.010,0.215
3.746,-0.030,0.150
3.748,-0.095,0.080
3.750,-0.165,0.010
3.752,-0.295,-0.055
3.754,-0.355,-0.110
3.756,-0.350,-0.150
3.758,-0.370,-0.180
3.760,-0.370,-0.195
3.762,-0.390,-0.200
3.764,-0.385,-0.200
3.766,-0.395,-0.190
3.768,-0.370,-0.180
3.770,-0.335,-0.165
3.772,-0.310,-0.155
3.774,-0.275,-0.140
3.776,-0.295,-0.130
3.778,-0.290,-0.120
3.780,-0.310,-0.110
3.782,-0.260,-0.095
3.784,-0.260,-0.085
3.786,-0.250,-0.075
3.788,-0.255,-0.065
3.790,-0.230,-0.055
3.792,-0.225,-0.050
3.794,-0.205,-0.040
3.796,-0.180,-0.035
3.798,-0.200,-0.030
3.800,-0.205,-0.030
3.802,-0.180,-0.025
3.804,-0.230,-0.020
3.806,-0.235,-0.015
3.808,-0.210,-0.010
3.810,-0.195,-0.010
3.812,-0.195,-0.005
3.814,-0.175,-0.005
3.816,-0.175,-0.010
3.818,-0.200,-0.010
3.820,-0.200,-0.015
3.822,-0.195,-0.025
3.824,-0.245,-0.030
3.826,-0.225,-0.035
3.828,-0.220,-0.035
3.830,-0.210,-0.035
3.832,-0.210,-0.035
3.834,-0.175,-0.030
3.836,-0.175,-0.025
3.838,-0.190,-0.020
3.840,-0.190,-0.015
3.842,-0.190,-0.010
3.844,-0.225,-0.010
3.846,-0.230,-0.010
3.848,-0.185,-0.005
3.850,-0.190,-0.005
3.852,-0.200,-0.005
3.854,-0.175,-0.005
3.856,-0.185,-0.005
3.858,-0.175,0.000
3.860,-0.190,0.000
3.862,-0.175,0.005
3.864,-0.205,0.010
3.866,-0.205,0.015
3.868,-0.210,0.015
3.870,-0.175,0.015
3.872,-0.175,0.015
3.874,-0.175,0.015
3.876,-0.170,0.010
3.878,-0.180,0.010
3.880,-0.210,0.005
3.882,-0.195,0.005
3.884,-0.200,0.010
3.886,-0.175,0.010
3.888,-0.145,0.015
3.890,-0.140,0.020
3.892,-0.170,0.025
3.894,-0.140,0.025
3.896,-0.150,0.030
3.898,-0.150,0.030
3.900,-0.165,0.035
3.902,-0.145,0.035
3.904,-0.135,0.040
3.906,-0.145,0.045
3.908,-0.150,0.055
3.910,-0.125,0.065
3.912,-0.140,0.075
3.914,-0.095,0.085
3.916,-0.100,0.090
3.918,-0.100,0.090
3.920,-0.105,0.090
3.922,-0.090,0.090
3.924,-0.130,0.085
3.926,-0.110,0.080
3.928,-0.110,0.080
3.930,-0.115,0.085
3.932,-0.090,0.090
3.934,-0.065,0.095
3.936,-0.070,0.105
3.938,-0.065,0.115
3.940,-0.055,0.125
3.942,-0.055,0.130
3.944,-0.085,0.140
3.946,-0.045,0.140
3.948,-0.035,0.145
3.950,-0.045,0.145
3.952,-0.030,0.145
3.954,-0.005,0.145
3.956,0.010,0.150
3.958,-0.045,0.155
3.960,-0.030,0.165
3.962,0.010,0.175
3.964,-0.025,0.185
3.966,0.005,0.195
3.968,0.015,0.200
3.970,0.040,0.210
3.972,0.040,0.215
3.974,0.055,0.220
3.976,0.035,0.220
3.978,0.015,0.220
3.980,0.020,0.215
3.982,0.020,0.215
3.984,0.020,0.210
3.986,0.030,0.210
3.988,0.025,0.215
3.990,0.015,0.215
3.992,0.015,0.215
3.994,0.060,0.215
3.996,0.055,0.215
3.998,0.005,0.205
4.000,0.005,0.195
4.002,-0.025,0.185
4.004,-0.050,0.170
4.006,-0.045,0.155
4.008,-0.050,0.145
4.010,-0.070,0.135
4.012,-0.060,0.130
4.014,-0.055,0.125
4.016,-0.060,0.120
4.018,-0.080,0.115
4.020,-0.080,0.105
4.022,-0.130,0.095
4.024,-0.155,0.080
4.026,-0.125,0.060
4.028,-0.130,0.045
4.030,-0.160,0.030
4.032,-0.155,0.020
4.034,-0.180,0.015
4.036,-0.200,0.010
4.038,-0.170,0.010
4.040,-0.195,0.010
4.042,-0.210,0.010
4.044,-0.210,0.005
4.046,-0.215,0.000
4.048,-0.215,-0.005
4.050,-0.230,-0.015
4.052,-0.215,-0.025
4.054,-0.230,-0.035
4.056,-0.240,-0.040
4.058,-0.230,-0.045
4.060,-0.235,-0.050
4.062,-0.245,-0.055
4.064,-0.245,-0.055
4.066,-0.265,-0.060
4.068,-0.250,-0.065
4.070,-0.240,-0.070
4.072,-0.240,-0.075
4.074,-0.290,-0.080
4.076,-0.260,-0.085
4.078,-0.260,-0.085
4.080,-0.255,-0.080
4.082,-0.270,-0.080
4.084,-0.285,-0.070
4.086,-0.250,-0.065
4.088,-0.245,-0.060
4.090,-0.240,-0.055
4.092,-0.220,-0.050
4.094,-0.220,-0.050
4.096,-0.250,-0.050
4.098,-0.265,-0.050
4.100,-0.255,-0.050
4.102,-0.265,-0.050
4.104,-0.260,-0.050
4.106,-0.250,-0.050
4.108,-0.250,-0.050
4.110,-0.245,-0.050
4.112,-0.245,-0.055
4.114,-0.270,-0.060
4.116,-0.260,-0.065
4.118,-0.255,-0.070
4.120,-0.260,-0.075
4.122,-0.285,-0.075
4.124,-0.285,-0.075
4.126,-0.240,-0.075
4.128,-0.245,-0.075
4.130,-0.240,-0.070
4.132,-0.215,-0.070
4.134,-0.255,-0.070
4.136,-0.270,-0.070
4.138,-0.270,-0.070
4.140,-0.270,-0.075
4.142,-0.280,-0.075
4.144,-0.250,-0.075
4.146,-0.235,-0.075
4.148,-0.245,-0.070
4.150,-0.260,-0.065
4.152,-0.235,-0.065
4.154,-0.255,-0.060
4.156,-0.255,-0.060
4.158,-0.265,-0.055
4.160,-0.240,-0.060
4.162,-0.270,-0.060
4.164,-0.260,-0.065
4.166,-0.240,-0.065
4.168,-0.230,-0.065
4.170,-0.245,-0.065
4.172,-0.215,-0.060
4.174,-0.215,-0.055
4.176,-0.220,-0.050
4.178,-0.235,-0.045
4.180,-0.220,-0.040
4.182,-0.255,-0.035
4.184,-0.235,-0.035
4.186,-0.235,-0.035
4.188,-0.200,-0.035
4.190,-0.225,-0.040
4.192,-0.225,-0.040
4.194,-0.225,-0.045
4.196,-0.235,-0.050
4.198,-0.230,-0.050
4.200,-0.220,-0.050
4.202,-0.245,-0.055
4.204,-0.255,-0.055
4.206,-0.255,-0.055
4.208,-0.230,-0.055
4.210,-0.240,-0.055
4.212,-0.220,-0.055
4.214,-0.220,-0.050
4.216,-0.225,-0.050
4.218,-0.250,-0.050
4.220,-0.230,-0.045
4.222,-0.245,-0.045
4.224,-0.235,-0.040
4.226,-0.210,-0.035
4.228,-0.215,-0.035
4.230,-0.200,-0.035
4.232,-0.185,-0.035
4.234,-0.200,-0.035
4.236,-0.230,-0.035
4.238,-0.235,-0.040
4.240,-0.235,-0.045
4.242,-0.260,-0.045
4.244,-0.245,-0.045
4.246,-0.230,-0.045
4.248,-0.230,-0.040
4.250,-0.235,-0.040
4.252,-0.195,-0.035
4.254,-0.225,-0.035
4.256,-0.245,-0.035
4.258,-0.230,-0.035
4.260,-0.235,-0.035
4.262,-0.235,-0.035
4.264,-0.240,-0.035
4.266,-0.225,-0.035
4.268,-0.220,-0.035
4.270,-0.220,-0.035
4.272,-0.210,-0.035
4.274,-0.225,-0.035
4.276,-0.230,-0.035
4.278,-0.235,-0.035
4.280,-0.230,-0.035
4.282,-0.250,-0.040
4.284,-0.230,-0.045
4.286,-0.235,-0.045
4.288,-0.235,-0.050
4.290,-0.215,-0.050
4.292,-0.205,-0.050
4.294,-0.215,-0.045
4.296,-0.215,-0.040
4.298,-0.230,-0.035
4.300,-0.230,-0.025
4.302,-0.230,-0.020
4.304,-0.230,-0.020
4.306,-0.200,-0.020
4.308,-0.215,-0.025
4.310,-0.225,-0.035
4.312,-0.205,-0.045
4.314,-0.195,-0.055
4.316,-0.250,-0.065
4.318,-0.250,-0.075
4.320,-0.250,-0.080
4.322,-0.250,-0.080
4.324,-0.245,-0.075
4.326,-0.240,-0.070
4.328,-0.220,-0.060
4.330,-0.220,-0.050
4.332,-0.190,-0.045
4.334,-0.185,-0.040
4.336,-0.215,-0.035
4.338,-0.230,-0.035
4.340,-0.245,-0.035
4.342,-0.260,-0.035
4.344,-0.245,-0.035
4.346,-0.210,-0.035
4.348,-0.215,-0.035
4.350,-0.215,-0.030
4.352,-0.175,-0.030
4.354,-0.190,-0.025
4.356,-0.195,-0.025
4.358,-0.190,-0.025
4.360,-0.240,-0.030
4.362,-0.250,-0.030
4.364,-0.250,-0.035
4.366,-0.215,-0.040
4.368,-0.215,-0.040
4.370,-0.215,-0.040
4.372,-0.210,-0.040
4.374,-0.220,-0.040
4.376,-0.210,-0.040
4.378,-0.225,-0.035
4.380,-0.240,-0.035
4.382,-0.240,-0.030
4.384,-0.220,-0.030
4.386,-0.205,-0.025
4.388,-0.205,-0.025
4.390,-0.185,-0.020
4.392,-0.190,-0.015
4.394,-0.200,-0.010
4.396,-0.195,-0.005
4.398,-0.175,-0.005
4.400,-0.205,-0.005
4.402,-0.210,-0.005
4.404,-0.185,-0.010
4.406,-0.170,-0.010
4.408,-0.200,-0.015
4.410,-0.170,-0.020
4.412,-0.170,-0.020
4.414,-0.195,-0.015
4.416,-0.200,-0.015
4.418,-0.190,-0.010
4.420,-0.220,-0.010
4.422,-0.190,-0.005
4.424,-0.185,-0.005
4.426,-0.175,-0.010
4.428,-0.205,-0.010
4.430,-0.190,-0.015
4.432,-0.200,-0.020
4.434,-0.190,-0.025
4.436,-0.215,-0.030
4.438,-0.220,-0.035
4.440,-0.245,-0.040
4.442,-0.225,-0.040
4.444,-0.215,-0.040
4.446,-0.210,-0.040
4.448,-0.230,-0.040
4.450,-0.215,-0.040
4.452,-0.215,-0.035
4.454,-0.215,-0.035
4.456,-0.225,-0.030
4.458,-0.200,-0.030
4.460,-0.225,-0.030
4.462,-0.215,-0.030
4.464,-0.230,-0.030
4.466,-0.235,-0.035
4.468,-0.215,-0.040
4.470,-0.215,-0.045
4.472,-0.215,-0.050
4.474,-0.230,-0.055
4.476,-0.225,-0.055
4.478,-0.225,-0.060
4.480,-0.260,-0.060
4.482,-0.240,-0.055
4.484,-0.210,-0.055
4.486,-0.230,-0.050
4.488,-0.235,-0.045
4.490,-0.180,-0.045
4.492,-0.225,-0.040
4.494,-0.235,-0.040
4.496,-0.225,-0.035
4.498,-0.240,-0.035
4.500,-0.260,-0.035
4.502,-0.225,-0.035
4.504,-0.215,-0.030
4.506,-0.210,-0.030
4.508,-0.215,-0.030
4.510,-0.190,-0.030
4.512,-0.205,-0.035
4.514,-0.200,-0.045
4.516,-0.255,-0.055
4.518,-0.275,-0.070
4.520,-0.315,-0.085
4.522,-0.300,-0.100
4.524,-0.310,-0.115
4.526,-0.290,-0.120
4.528,-0.290,-0.115
4.530,-0.250,-0.090
4.532,-0.220,-0.055
4.534,-0.180,0.000
4.536,-0.090,0.065
4.538,-0.020,0.140
4.540,0.045,0.220
4.542,0.120,0.295
4.544,0.210,0.355
4.546,0.275,0.395
4.548,0.295,0.415
4.550,0.275,0.410
4.552,0.205,0.385
4.554,0.065,0.335
4.556,0.060,0.280
4.558,0.060,0.210
4.560,-0.035,0.140
4.562,-0.105,0.075
4.564,-0.195,0.020
4.566,-0.280,-0.030
4.568,-0.300,-0.070
4.570,-0.295,-0.105
4.572,-0.325,-0.125
4.574,-0.300,-0.140
4.576,-0.320,-0.145
4.578,-0.340,-0.145
4.580,-0.340,-0.140
4.582,-0.315,-0.130
4.584,-0.280,-0.120
4.586,-0.225,-0.105
4.588,-0.200,-0.090
4.590,-0.210,-0.070
4.592,-0.220,-0.055
4.594,-0.220,-0.045
4.596,-0.220,-0.035
4.598,-0.230,-0.025
4.600,-0.200,-0.020
4.602,-0.195,-0.015
4.604,-0.180,-0.015
4.606,-0.165,-0.015
4.608,-0.185,-0.015
4.610,-0.185,-0.015
4.612,-0.185,-0.015
4.614,-0.205,-0.015
4.616,-0.225,-0.010
4.618,-0.210,-0.010
4.620,-0.185,-0.005
4.622,-0.185,0.000
4.624,-0.140,0.005
4.626,-0.135,0.010
4.628,-0.140,0.015
4.630,-0.165,0.015
4.632,-0.165,0.015
4.634,-0.195,0.015
4.636,-0.185,0.010
4.638,-0.185,0.010
4.640,-0.165,0.010
4.642,-0.165,0.010
4.644,-0.155,0.010
4.646,-0.155,0.010
4.648,-0.180,0.015
4.650,-0.160,0.015
4.652,-0.140,0.020
4.654,-0.155,0.025
4.656,-0.160,0.030
4.658,-0.160,0.035
4.660,-0.160,0.040
4.662,-0.190,0.040
4.664,-0.125,0.040
4.666,-0.120,0.040
4.668,-0.120,0.040
4.670,-0.155,0.035
4.672,-0.135,0.030
4.674,-0.175,0.030
4.676,-0.165,0.025
4.678,-0.140,0.030
4.680,-0.115,0.030
4.682,-0.125,0.035
4.684,-0.095,0.045
4.686,-0.090,0.055
4.688,-0.120,0.065
4.690,-0.160,0.070
4.692,-0.125,0.075
4.694,-0.125,0.075
4.696,-0.130,0.075
4.698,-0.100,0.075
4.700,-0.110,0.070
4.702,-0.105,0.070
4.704,-0.070,0.065
4.706,-0.085,0.065
4.708,-0.125,0.065
4.710,-0.145,0.065
4.712,-0.100,0.065
4.714,-0.140,0.070
4.716,-0.110,0.070
4.718,-0.110,0.075
4.720,-0.070,0.080
4.722,-0.075,0.085
4.724,-0.050,0.095
4.726,-0.045,0.100
4.728,-0.055,0.110
4.730,-0.050,0.120
4.732,-0.010,0.125
4.734,-0.055,0.135
4.736,-0.035,0.140
4.738,-0.035,0.145
4.740,-0.020,0.150
4.742,-0.015,0.155
4.744,0.005,0.165
4.746,-0.005,0.170
4.748,0.015,0.175
4.750,0.000,0.180
4.752,0.000,0.180
4.754,-0.030,0.185
4.756,0.010,0.185
4.758,0.030,0.185
4.760,0.030,0.185
4.762,0.030,0.185
4.764,0.050,0.190
4.766,0.045,0.195
4.768,0.030,0.200
4.770,0.025,0.205
4.772,0.030,0.210
4.774,0.020,0.215
4.776,0.035,0.215
4.778,0.050,0.215
4.780,0.050,0.215
4.782,0.055,0.210
4.784,0.070,0.205
4.786,0.050,0.200
4.788,0.035,0.195
4.790,0.025,0.190
4.792,0.015,0.185
4.794,-0.015,0.180
4.796,-0.010,0.175
4.798,-0.035,0.165
4.800,-0.035,0.155
4.802,-0.035,0.145
4.804,-0.030,0.135
4.806,-0.060,0.115
4.808,-0.080,0.100
4.810,-0.110,0.085
4.812,-0.100,0.070
4.814,-0.125,0.060
4.816,-0.120,0.055
4.818,-0.120,0.050
4.820,-0.115,0.050
4.822,-0.115,0.050
4.824,-0.110,0.055
4.826,-0.120,0.055
4.828,-0.135,0.055
4.830,-0.150,0.045
4.832,-0.160,0.040
4.834,-0.215,0.025
4.836,-0.200,0.010
4.838,-0.185,0.000
4.840,-0.190,-0.015
4.842,-0.190,-0.020
4.844,-0.200,-0.025
4.846,-0.180,-0.025
4.848,-0.190,-0.020
4.850,-0.220,-0.015
4.852,-0.170,-0.005
4.854,-0.180,0.000
4.856,-0.200,0.000
4.858,-0.200,0.000
4.860,-0.210,-0.005
4.862,-0.200,-0.015
4.864,-0.180,-0.025
4.866,-0.200,-0.035
4.868,-0.220,-0.040
4.870,-0.195,-0.045
4.872,-0.220,-0.050
4.874,-0.215,-0.050
4.876,-0.205,-0.045
4.878,-0.205,-0.045
4.880,-0.210,-0.040
4.882,-0.205,-0.040
4.884,-0.185,-0.040
4.886,-0.210,-0.040
4.888,-0.210,-0.040
4.890,-0.180,-0.040
4.892,-0.215,-0.045
4.894,-0.215,-0.040
4.896,-0.230,-0.040
4.898,-0.215,-0.040
4.900,-0.215,-0.040
4.902,-0.200,-0.040
4.904,-0.210,-0.040
4.906,-0.220,-0.045
4.908,-0.205,-0.045
4.910,-0.185,-0.050
4.912,-0.240,-0.055
4.914,-0.225,-0.055
4.916,-0.220,-0.055
4.918,-0.185,-0.055
4.920,-0.200,-0.050
4.922,-0.200,-0.045
4.924,-0.185,-0.035
4.926,-0.210,-0.030
4.928,-0.215,-0.030
4.930,-0.210,-0.025
4.932,-0.215,-0.025
4.934,-0.235,-0.030
4.936,-0.235,-0.030
4.938,-0.195,-0.035
4.940,-0.205,-0.040
4.942,-0.170,-0.040
4.944,-0.195,-0.040
4.946,-0.205,-0.040
4.948,-0.215,-0.040
4.950,-0.205,-0.035
4.952,-0.205,-0.035
4.954,-0.215,-0.030
4.956,-0.215,-0.030
4.958,-0.190,-0.030
4.960,-0.205,-0.030
4.962,-0.165,-0.035
4.964,-0.170,-0.040
4.966,-0.180,-0.045
4.968,-0.225,-0.045
4.970,-0.225,-0.045
4.972,-0.235,-0.045
4.974,-0.235,-0.040
4.976,-0.195,-0.030
4.978,-0.195,-0.025
4.980,-0.195,-0.015
4.982,-0.130,-0.010
4.984,-0.130,-0.010
4.986,-0.150,-0.010
4.988,-0.200,-0.015
4.990,-0.200,-0.020
4.992,-0.245,-0.030
4.994,-0.220,-0.035
4.996,-0.215,-0.035
4.998,-0.180,-0.035
5.000,-0.200,-0.030
5.002,-0.145,-0.020
5.004,-0.150,-0.015
5.006,-0.175,-0.010
5.008,-0.200,-0.005
5.010,-0.195,-0.005
5.012,-0.220,-0.010
5.014,-0.220,-0.020
5.016,-0.220,-0.030
5.018,-0.220,-0.035
5.020,-0.190,-0.040
5.022,-0.155,-0.045
5.024,-0.160,-0.045
5.026,-0.170,-0.040
5.028,-0.200,-0.030
5.030,-0.195,-0.025
5.032,-0.215,-0.015
5.034,-0.205,-0.010
5.036,-0.200,-0.005
5.038,-0.190,-0.005
5.040,-0.190,-0.010
5.042,-0.185,-0.020
5.044,-0.185,-0.030
5.046,-0.195,-0.040
5.048,-0.200,-0.045
5.050,-0.190,-0.050
5.052,-0.225,-0.055
5.054,-0.205,-0.050
5.056,-0.215,-0.045
5.058,-0.215,-0.040
5.060,-0.225,-0.030
5.062,-0.155,-0.025
5.064,-0.170,-0.025
5.066,-0.205,-0.030
5.068,-0.190,-0.035
5.070,-0.215,-0.045
5.072,-0.250,-0.060
5.074,-0.245,-0.070
5.076,-0.225,-0.075
5.078,-0.215,-0.080
5.080,-0.215,-0.075
5.082,-0.210,-0.070
5.084,-0.190,-0.065
5.086,-0.190,-0.055
5.088,-0.205,-0.045
5.090,-0.180,-0.035
5.092,-0.235,-0.030
5.094,-0.210,-0.030
5.096,-0.185,-0.030
5.098,-0.190,-0.030
5.100,-0.190,-0.030
5.102,-0.155,-0.035
5.104,-0.180,-0.035
5.106,-0.220,-0.040
5.108,-0.220,-0.040
5.110,-0.200,-0.045
5.112,-0.225,-0.050
5.114,-0.220,-0.055
5.116,-0.240,-0.055
5.118,-0.215,-0.060
5.120,-0.195,-0.060
5.122,-0.165,-0.060
5.124,-0.210,-0.055
5.126,-0.225,-0.050
5.128,-0.200,-0.050
5.130,-0.205,-0.045
5.132,-0.215,-0.040
5.134,-0.200,-0.040
5.136,-0.205,-0.040
5.138,-0.195,-0.045
5.140,-0.175,-0.045
5.142,-0.180,-0.045
5.144,-0.205,-0.045
5.146,-0.225,-0.045
5.148,-0.210,-0.040
5.150,-0.210,-0.040
5.152,-0.205,-0.035
5.154,-0.200,-0.035
5.156,-0.205,-0.035
5.158,-0.190,-0.035
5.160,-0.170,-0.040
5.162,-0.170,-0.040
5.164,-0.170,-0.040
5.166,-0.190,-0.040
5.168,-0.190,-0.035
5.170,-0.200,-0.030
5.172,-0.225,-0.025
5.174,-0.170,-0.020
5.176,-0.165,-0.015
5.178,-0.170,-0.010
5.180,-0.160,-0.010
5.182,-0.160,-0.015
5.184,-0.185,-0.015
5.186,-0.175,-0.015
5.188,-0.175,-0.020
5.190,-0.200,-0.020
5.192,-0.210,-0.025
5.194,-0.170,-0.025
5.196,-0.195,-0.025
5.198,-0.200,-0.030
5.200,-0.185,-0.030
5.202,-0.175,-0.030
5.204,-0.175,-0.030
5.206,-0.180,-0.030
5.208,-0.160,-0.025
5.210,-0.165,-0.020
5.212,-0.170,-0.010
5.214,-0.155,-0.005
5.216,-0.120,0.000
5.218,-0.125,0.005
5.220,-0.120,0.005
5.222,-0.165,0.000
5.224,-0.195,0.000
5.226,-0.175,-0.010
5.228,-0.160,-0.010
5.230,-0.170,-0.015
5.232,-0.170,-0.020
5.234,-0.160,-0.015
5.236,-0.140,-0.015
5.238,-0.180,-0.015
5.240,-0.130,-0.010
5.242,-0.135,-0.010
5.244,-0.135,-0.010
5.246,-0.150,-0.010
5.248,-0.155,-0.010
5.250,-0.210,-0.015
5.252,-0.190,-0.015
5.254,-0.165,-0.020
5.256,-0.165,-0.020
5.258,-0.170,-0.025
5.260,-0.145,-0.030
5.262,-0.185,-0.035
5.264,-0.185,-0.040
5.266,-0.205,-0.045
5.268,-0.205,-0.050
5.270,-0.220,-0.055
5.272,-0.215,-0.050
5.274,-0.175,-0.050
5.276,-0.145,-0.040
5.278,-0.180,-0.035
5.280,-0.135,-0.025
5.282,-0.170,-0.020
5.284,-0.170,-0.015
5.286,-0.180,-0.015
5.288,-0.170,-0.020
5.290,-0.220,-0.030
5.292,-0.195,-0.040
5.294,-0.205,-0.050
5.296,-0.155,-0.055
5.298,-0.190,-0.060
5.300,-0.190,-0.060
5.302,-0.170,-0.055
5.304,-0.200,-0.045
5.306,-0.235,-0.040
5.308,-0.200,-0.035
5.310,-0.215,-0.035
5.312,-0.215,-0.035
5.314,-0.215,-0.045
5.316,-0.175,-0.050
5.318,-0.195,-0.060
5.320,-0.170,-0.070
5.322,-0.195,-0.070
5.324,-0.210,-0.070
5.326,-0.230,-0.065
5.328,-0.210,-0.060
5.330,-0.230,-0.050
5.332,-0.230,-0.045
5.334,-0.225,-0.045
5.336,-0.220,-0.055
5.338,-0.245,-0.065
5.340,-0.230,-0.085
5.342,-0.235,-0.100
5.344,-0.265,-0.110
5.346,-0.280,-0.110
5.348,-0.245,-0.100
5.350,-0.225,-0.065
5.352,-0.160,-0.015
5.354,-0.090,0.050
5.356,-0.005,0.120
5.358,0.080,0.200
5.360,0.190,0.270
5.362,0.255,0.330
5.364,0.295,0.370
5.366,0.305,0.390
5.368,0.225,0.385
5.370,0.140,0.360
5.372,0.065,0.310
5.374,0.080,0.250
5.376,0.085,0.185
5.378,0.035,0.115
5.380,-0.040,0.045
5.382,-0.175,-0.020
5.384,-0.310,-0.070
5.386,-0.325,-0.110
5.388,-0.345,-0.140
5.390,-0.350,-0.160
5.392,-0.325,-0.165
5.394,-0.300,-0.165
5.396,-0.275,-0.155
5.398,-0.275,-0.145
5.400,-0.235,-0.130
5.402,-0.235,-0.115
5.404,-0.245,-0.100
5.406,-0.225,-0.090
5.408,-0.205,-0.080
5.410,-0.235,-0.070
5.412,-0.230,-0.065
5.414,-0.190,-0.065
5.416,-0.190,-0.060
5.418,-0.170,-0.055
5.420,-0.165,-0.055
5.422,-0.165,-0.050
5.424,-0.145,-0.045
5.426,-0.165,-0.040
5.428,-0.175,-0.035
5.430,-0.190,-0.030
5.432,-0.170,-0.025
5.434,-0.155,-0.025
5.436,-0.165,-0.025
5.438,-0.160,-0.030
5.440,-0.160,-0.030
5.442,-0.185,-0.035
5.444,-0.195,-0.035
5.446,-0.175,-0.035
5.448,-0.165,-0.035
5.450,-0.175,-0.030
5.452,-0.155,-0.025
5.454,-0.150,-0.015
5.456,-0.155,-0.010
5.458,-0.130,-0.005
5.460,-0.150,0.000
5.462,-0.160,0.005
5.464,-0.165,0.005
5.466,-0.135,0.005
5.468,-0.165,0.000
5.470,-0.145,-0.005
5.472,-0.155,-0.010
5.474,-0.135,-0.015
5.476,-0.150,-0.015
5.478,-0.135,-0.015
5.480,-0.125,-0.015
5.482,-0.140,-0.010
5.484,-0.145,-0.005
5.486,-0.130,-0.005
5.488,-0.135,0.000
5.490,-0.160,0.005
5.492,-0.160,0.005
5.494,-0.155,0.000
5.496,-0.130,-0.005
5.498,-0.100,-0.010
5.500,-0.130,-0.015
5.502,-0.160,-0.020
5.504,-0.145,-0.020
5.506,-0.145,-0.020
5.508,-0.145,-0.015
5.510,-0.135,-0.005
5.512,-0.115,0.000
5.514,-0.115,0.010
5.516,-0.130,0.020
5.518,-0.100,0.025
5.520,-0.120,0.030
5.522,-0.110,0.030
5.524,-0.125,0.030
5.526,-0.115,0.025
5.528,-0.135,0.025
5.530,-0.115,0.025
5.532,-0.105,0.030
5.534,-0.105,0.035
5.536,-0.110,0.040
5.538,-0.050,0.045
5.540,-0.055,0.050
5.542,-0.090,0.050
5.544,-0.095,0.050
5.546,-0.060,0.050
5.548,-0.110,0.045
5.550,-0.095,0.045
5.552,-0.075,0.045
5.554,-0.050,0.045
5.556,-0.075,0.055
5.558,-0.030,0.060
5.560,-0.030,0.070
5.562,-0.040,0.080
5.564,-0.040,0.090
5.566,-0.040,0.095
5.568,-0.065,0.100
5.570,-0.065,0.100
5.572,-0.025,0.100
5.574,-0.005,0.100
5.576,0.000,0.105
5.578,0.025,0.110
5.580,0.015,0.115
5.582,0.020,0.125
5.584,0.020,0.140
5.586,0.030,0.150
5.588,0.020,0.160
5.590,0.020,0.170
5.592,0.040,0.175
5.594,0.065,0.175
5.596,0.060,0.175
5.598,0.070,0.175
5.600,0.045,0.170
5.602,0.055,0.170
5.604,0.055,0.170
5.606,0.055,0.170
5.608,0.025,0.175
5.610,0.060,0.180
5.612,0.065,0.185
5.614,0.080,0.190
5.616,0.090,0.195
5.618,0.120,0.195
5.620,0.090,0.195
5.622,0.075,0.195
5.624,0.070,0.195
5.626,0.080,0.195
5.628,0.040,0.195
5.630,0.060,0.195
5.632,0.060,0.195
5.634,0.040,0.195
5.636,0.035,0.190
5.638,0.095,0.180
5.640,0.060,0.170
5.642,0.010,0.155
5.644,-0.020,0.140
5.646,0.000,0.120
5.648,-0.045,0.100
5.650,-0.065,0.085
5.652,-0.075,0.075
5.654,-0.050,0.065
5.656,-0.070,0.065
5.658,-0.060,0.060
5.660,-0.060,0.060
5.662,-0.070,0.060
5.664,-0.080,0.055
5.666,-0.100,0.050
5.668,-0.125,0.040
5.670,-0.120,0.030
5.672,-0.135,0.015
5.674,-0.115,0.000
5.676,-0.140,-0.010
5.678,-0.120,-0.020
5.680,-0.140,-0.025
5.682,-0.155,-0.030
5.684,-0.160,-0.030
5.686,-0.165,-0.030
5.688,-0.165,-0.030
5.690,-0.170,-0.030
5.692,-0.170,-0.030
5.694,-0.170,-0.035
5.696,-0.140,-0.035
5.698,-0.150,-0.040
5.700,-0.160,-0.045
5.702,-0.165,-0.045
5.704,-0.160,-0.045
5.706,-0.175,-0.040
5.708,-0.160,-0.040
5.710,-0.165,-0.035
5.712,-0.175,-0.035
5.714,-0.185,-0.035
5.716,-0.175,-0.035
5.718,-0.140,-0.040
5.720,-0.160,-0.050
5.722,-0.170,-0.055
5.724,-0.155,-0.060
5.726,-0.195,-0.065
5.728,-0.195,-0.065
5.730,-0.175,-0.060
5.732,-0.175,-0.060
5.734,-0.175,-0.055
5.736,-0.160,-0.050
5.738,-0.130,-0.045
5.740,-0.140,-0.045
5.742,-0.185,-0.045
5.744,-0.180,-0.045
5.746,-0.195,-0.050
5.748,-0.215,-0.050
5.750,-0.215,-0.055
5.752,-0.180,-0.060
5.754,-0.180,-0.065
5.756,-0.150,-0.070
5.758,-0.175,-0.070
5.760,-0.160,-0.070
5.762,-0.165,-0.065
5.764,-0.180,-0.065
5.766,-0.185,-0.060
5.768,-0.185,-0.050
5.770,-0.155,-0.045
5.772,-0.155,-0.035
5.774,-0.180,-0.030
5.776,-0.140,-0.030
5.778,-0.155,-0.030
5.780,-0.160,-0.030
5.782,-0.165,-0.035
5.784,-0.155,-0.040
5.786,-0.175,-0.040
5.788,-0.180,-0.045
5.790,-0.165,-0.045
5.792,-0.165,-0.045
5.794,-0.175,-0.045
5.796,-0.160,-0.040
5.798,-0.160,-0.040
5.800,-0.165,-0.045
5.802,-0.165,-0.045
5.804,-0.140,-0.050
5.806,-0.185,-0.050
5.808,-0.150,-0.050
5.810,-0.140,-0.050
5.812,-0.140,-0.050
5.814,-0.140,-0.050
5.816,-0.130,-0.045
5.818,-0.145,-0.045
5.820,-0.165,-0.045
5.822,-0.170,-0.045
5.824,-0.140,-0.045
5.826,-0.180,-0.045
5.828,-0.170,-0.040
5.830,-0.145,-0.040
5.832,-0.145,-0.030
5.834,-0.155,-0.025
5.836,-0.110,-0.020
5.838,-0.130,-0.015
5.840,-0.150,-0.010
5.842,-0.130,-0.015
5.844,-0.105,-0.020
5.846,-0.170,-0.025
5.848,-0.180,-0.035
5.850,-0.150,-0.040
5.852,-0.130,-0.040
5.854,-0.140,-0.040
5.856,-0.115,-0.035
5.858,-0.115,-0.030
5.860,-0.125,-0.025
5.862,-0.145,-0.020
5.864,-0.130,-0.020
5.866,-0.160,-0.025
5.868,-0.190,-0.030
5.870,-0.175,-0.040
5.872,-0.165,-0.050
5.874,-0.150,-0.055
5.876,-0.120,-0.060
5.878,-0.160,-0.060
5.880,-0.155,-0.060
5.882,-0.150,-0.055
5.884,-0.165,-0.050
5.886,-0.195,-0.045
5.888,-0.195,-0.045
5.890,-0.190,-0.045
5.892,-0.185,-0.045
5.894,-0.190,-0.050
5.896,-0.140,-0.055
5.898,-0.150,-0.055
5.900,-0.170,-0.055
5.902,-0.180,-0.055
5.904,-0.155,-0.050
5.906,-0.165,-0.045
5.908,-0.165,-0.040
5.910,-0.165,-0.035
5.912,-0.170,-0.035
5.914,-0.175,-0.035
5.916,-0.150,-0.040
5.918,-0.155,-0.045
5.920,-0.160,-0.050
5.922,-0.135,-0.055
5.924,-0.130,-0.055
5.926,-0.180,-0.060
5.928,-0.195,-0.060
5.930,-0.180,-0.055
5.932,-0.185,-0.055
5.934,-0.185,-0.050
5.936,-0.145,-0.050
5.938,-0.130,-0.045
5.940,-0.150,-0.045
5.942,-0.160,-0.045
5.944,-0.160,-0.050
5.946,-0.165,-0.050
5.948,-0.175,-0.055
5.950,-0.165,-0.060
5.952,-0.175,-0.060
5.954,-0.175,-0.065
5.956,-0.160,-0.070
5.958,-0.160,-0.070
5.960,-0.160,-0.070
5.962,-0.160,-0.070
5.964,-0.180,-0.070
5.966,-0.180,-0.065
5.968,-0.180,-0.060
5.970,-0.190,-0.060
5.972,-0.155,-0.055
5.974,-0.140,-0.055
5.976,-0.135,-0.055
5.978,-0.165,-0.055
5.980,-0.170,-0.055
5.982,-0.170,-0.055
5.984,-0.175,-0.055
5.986,-0.195,-0.050
5.988,-0.160,-0.045
5.990,-0.125,-0.035
5.992,-0.125,-0.030
5.994,-0.125,-0.025
5.996,-0.120,-0.025
5.998,-0.135,-0.025
6.000,-0.160,-0.030
6.002,-0.165,-0.035
6.004,-0.160,-0.045
6.006,-0.195,-0.055
6.008,-0.195,-0.065
6.010,-0.180,-0.070
6.012,-0.175,-0.075
6.014,-0.165,-0.075
6.016,-0.165,-0.075
6.018,-0.170,-0.070
6.020,-0.155,-0.065
6.022,-0.155,-0.060
6.024,-0.130,-0.055
6.026,-0.140,-0.050
6.028,-0.145,-0.045
6.030,-0.145,-0.045
6.032,-0.190,-0.045
6.034,-0.165,-0.045
6.036,-0.120,-0.040
6.038,-0.135,-0.040
6.040,-0.155,-0.035
6.042,-0.125,-0.030
6.044,-0.150,-0.030
6.046,-0.125,-0.025
6.048,-0.115,-0.020
6.050,-0.125,-0.015
6.052,-0.125,-0.010
6.054,-0.105,-0.005
6.056,-0.100,-0.005
6.058,-0.095,0.000
6.060,-0.105,0.000
6.062,-0.135,0.005
6.064,-0.155,0.005
6.066,-0.115,0.005
6.068,-0.085,0.000
6.070,-0.085,0.000
6.072,-0.115,-0.005
6.074,-0.075,-0.005
6.076,-0.100,-0.005
6.078,-0.115,-0.005
6.080,-0.090,0.000
6.082,-0.105,0.005
6.084,-0.130,0.010
6.086,-0.110,0.015
6.088,-0.110,0.015
6.090,-0.100,0.015
6.092,-0.100,0.010
6.094,-0.065,0.005
6.096,-0.120,-0.005
6.098,-0.140,-0.015
6.100,-0.125,-0.030
6.102,-0.110,-0.035
6.104,-0.135,-0.040
6.106,-0.135,-0.040
6.108,-0.135,-0.040
6.110,-0.130,-0.035
6.112,-0.155,-0.030
6.114,-0.110,-0.025
6.116,-0.120,-0.025
6.118,-0.120,-0.025
6.120,-0.140,-0.025
6.122,-0.125,-0.030
6.124,-0.155,-0.030
6.126,-0.145,-0.035
6.128,-0.120,-0.035
6.130,-0.120,-0.035
6.132,-0.140,-0.035
6.134,-0.130,-0.035
6.136,-0.150,-0.030
6.138,-0.170,-0.030
6.140,-0.145,-0.030
6.142,-0.145,-0.030
6.144,-0.155,-0.035
6.146,-0.155,-0.035
6.148,-0.155,-0.040
6.150,-0.135,-0.040
6.152,-0.150,-0.045
6.154,-0.120,-0.050
6.156,-0.140,-0.055
6.158,-0.150,-0.055
6.160,-0.150,-0.055
6.162,-0.130,-0.060
6.164,-0.170,-0.055
6.166,-0.160,-0.055
6.168,-0.170,-0.055
6.170,-0.145,-0.050
6.172,-0.140,-0.050
6.174,-0.120,-0.050
6.176,-0.130,-0.055
6.178,-0.170,-0.060
6.180,-0.190,-0.070
6.182,-0.185,-0.080
6.184,-0.230,-0.090
6.186,-0.230,-0.100
6.188,-0.245,-0.095
6.190,-0.215,-0.085
6.192,-0.195,-0.060
6.194,-0.075,-0.025
6.196,-0.020,0.025
6.198,0.045,0.085
6.200,0.075,0.150
6.202,0.105,0.215
6.204,0.175,0.280
6.206,0.290,0.330
6.208,0.325,0.370
6.210,0.325,0.385
6.212,0.275,0.380
6.214,0.225,0.355
6.216,0.150,0.310
6.218,0.125,0.250
6.220,0.125,0.175
6.222,0.030,0.100
6.224,-0.090,0.025
6.226,-0.205,-0.045
6.228,-0.290,-0.100
6.230,-0.270,-0.140
6.232,-0.265,-0.165
6.234,-0.250,-0.180
6.236,-0.225,-0.180
6.238,-0.235,-0.170
6.240,-0.240,-0.160
6.242,-0.235,-0.145
6.244,-0.240,-0.130
6.246,-0.215,-0.120
6.248,-0.195,-0.110
6.250,-0.195,-0.100
6.252,-0.195,-0.090
6.254,-0.130,-0.080
6.256,-0.135,-0.070
6.258,-0.120,-0.065
6.260,-0.135,-0.055
6.262,-0.145,-0.045
6.264,-0.145,-0.040
6.266,-0.140,-0.035
6.268,-0.140,-0.030
6.270,-0.160,-0.025
6.272,-0.090,-0.020
6.274,-0.090,-0.015
6.276,-0.090,-0.010
6.278,-0.120,-0.010
6.280,-0.120,-0.005
6.282,-0.130,-0.005
6.284,-0.135,-0.005
6.286,-0.135,-0.005
6.288,-0.115,-0.005
6.290,-0.095,-0.005
6.292,-0.075,-0.010
6.294,-0.080,-0.010
6.296,-0.085,-0.005
6.298,-0.095,-0.005
6.300,-0.110,0.000
6.302,-0.115,0.000
6.304,-0.120,0.000
6.306,-0.125,-0.005
6.308,-0.110,-0.005
6.310,-0.110,-0.010
6.312,-0.110,-0.015
6.314,-0.105,-0.015
6.316,-0.100,-0.015
6.318,-0.125,-0.015
6.320,-0.080,-0.010
6.322,-0.105,-0.005
6.324,-0.120,0.000
6.326,-0.105,0.005
6.328,-0.100,0.005
6.330,-0.100,0.005
6.332,-0.085,0.000
6.334,-0.100,-0.005
6.336,-0.105,-0.010
6.338,-0.105,-0.015
6.340,-0.075,-0.020
6.342,-0.120,-0.020
6.344,-0.110,-0.020
6.346,-0.095,-0.020
6.348,-0.080,-0.010
6.350,-0.080,-0.005
6.352,-0.050,0.005
6.354,-0.080,0.010
6.356,-0.070,0.020
6.358,-0.090,0.030
6.360,-0.060,0.035
6.362,-0.075,0.040
6.364,-0.075,0.045
6.366,-0.040,0.045
6.368,-0.040,0.045
6.370,-0.075,0.045
6.372,-0.025,0.045
6.374,-0.030,0.040
6.376,-0.025,0.040
6.378,-0.025,0.040
6.380,-0.025,0.040
6.382,-0.055,0.045
6.384,-0.060,0.050
6.386,-0.030,0.055
6.388,-0.005,0.065
6.390,-0.005,0.070
6.392,0.000,0.075
6.394,-0.015,0.080
6.396,-0.015,0.080
6.398,-0.020,0.080
6.400,-0.025,0.080
6.402,-0.020,0.075
6.404,-0.005,0.075
6.406,-0.020,0.075
6.408,0.015,0.075
6.410,0.025,0.080
6.412,0.025,0.085
6.414,0.015,0.095
6.416,0.025,0.105
6.418,0.030,0.115
6.420,0.040,0.125
6.422,0.025,0.135
6.424,0.050,0.145
6.426,0.080,0.155
6.428,0.085,0.160
6.430,0.060,0.165
6.432,0.110,0.165
6.434,0.070,0.170
6.436,0.090,0.170
6.438,0.080,0.175
6.440,0.090,0.185
6.442,0.075,0.190
6.444,0.120,0.200
6.446,0.140,0.205
6.448,0.145,0.210
6.450,0.135,0.215
6.452,0.145,0.220
6.454,0.145,0.220
6.456,0.130,0.220
6.458,0.135,0.220
6.460,0.130,0.220
6.462,0.095,0.220
6.464,0.090,0.220
6.466,0.140,0.215
6.468,0.105,0.215
6.470,0.145,0.210
6.472,0.195,0.205
6.474,0.155,0.200
6.476,0.100,0.195
6.478,0.085,0.190
6.480,0.100,0.185
6.482,0.070,0.175
6.484,0.070,0.170
6.486,0.080,0.165
6.488,0.055,0.160
6.490,0.050,0.155
6.492,0.050,0.145
6.494,0.045,0.130
6.496,0.020,0.115
6.498,-0.005,0.095
6.500,-0.050,0.080
6.502,-0.060,0.065
6.504,-0.055,0.055
6.506,-0.055,0.045
6.508,-0.035,0.035
6.510,-0.010,0.035
6.512,-0.010,0.035
6.514,-0.045,0.030
6.516,-0.050,0.030
6.518,-0.075,0.030
6.520,-0.090,0.025
6.522,-0.090,0.020
6.524,-0.100,0.015
6.526,-0.100,0.010
6.528,-0.095,0.000
6.530,-0.065,-0.005
6.532,-0.065,-0.010
6.534,-0.080,-0.015
6.536,-0.090,-0.020
6.538,-0.080,-0.025
6.540,-0.140,-0.030
6.542,-0.130,-0.030
6.544,-0.135,-0.035
6.546,-0.120,-0.035
6.548,-0.115,-0.035
6.550,-0.095,-0.030
6.552,-0.085,-0.030
6.554,-0.095,-0.035
6.556,-0.105,-0.035
6.558,-0.115,-0.035
6.560,-0.135,-0.040
6.562,-0.140,-0.040
6.564,-0.130,-0.045
6.566,-0.130,-0.050
6.568,-0.130,-0.050
6.570,-0.130,-0.050
6.572,-0.130,-0.055
6.574,-0.145,-0.055
6.576,-0.115,-0.055
6.578,-0.105,-0.050
6.580,-0.140,-0.050
6.582,-0.125,-0.045
6.584,-0.125,-0.040
6.586,-0.135,-0.035
6.588,-0.125,-0.030
6.590,-0.075,-0.025
6.592,-0.090,-0.025
6.594,-0.100,-0.025
6.596,-0.125,-0.030
6.598,-0.120,-0.035
6.600,-0.135,-0.040
6.602,-0.125,-0.045
6.604,-0.140,-0.045
6.606,-0.110,-0.050
6.608,-0.110,-0.045
6.610,-0.085,-0.040
6.612,-0.100,-0.030
6.614,-0.100,-0.020
6.616,-0.110,-0.015
6.618,-0.085,-0.010
6.620,-0.105,-0.005
6.622,-0.105,-0.005
6.624,-0.105,-0.005
6.626,-0.070,-0.010
6.628,-0.085,-0.015
6.630,-0.075,-0.020
6.632,-0.085,-0.020
6.634,-0.105,-0.025
6.636,-0.130,-0.025
6.638,-0.110,-0.020
6.640,-0.115,-0.020
6.642,-0.115,-0.015
6.644,-0.100,-0.010
6.646,-0.085,-0.010
6.648,-0.085,-0.010
6.650,-0.040,-0.010
6.652,-0.060,-0.010
6.654,-0.095,-0.010
6.656,-0.105,-0.010
6.658,-0.070,-0.010
6.660,-0.105,-0.010
6.662,-0.100,-0.010
6.664,-0.105,-0.010
6.666,-0.105,-0.010
6.668,-0.125,-0.010
6.670,-0.085,-0.010
6.672,-0.080,-0.010
6.674,-0.070,-0.015
6.676,-0.090,-0.015
6.678,-0.080,-0.020
6.680,-0.105,-0.025
6.682,-0.105,-0.030
6.684,-0.095,-0.035
6.686,-0.105,-0.035
6.688,-0.100,-0.035
6.690,-0.075,-0.035
6.692,-0.095,-0.030
6.694,-0.095,-0.025
6.696,-0.110,-0.020
6.698,-0.080,-0.020
6.700,-0.110,-0.020
6.702,-0.110,-0.025
6.704,-0.105,-0.030
6.706,-0.085,-0.035
6.708,-0.120,-0.045
6.710,-0.100,-0.050
6.712,-0.105,-0.055
6.714,-0.105,-0.055
6.716,-0.105,-0.055
6.718,-0.090,-0.050
6.720,-0.120,-0.040
6.722,-0.120,-0.030
6.724,-0.125,-0.025
6.726,-0.085,-0.015
6.728,-0.085,-0.010
6.730,-0.085,-0.010
6.732,-0.095,-0.015
6.734,-0.100,-0.015
6.736,-0.110,-0.025
6.738,-0.110,-0.030
6.740,-0.150,-0.035
6.742,-0.130,-0.040
6.744,-0.105,-0.040
6.746,-0.100,-0.040
6.748,-0.115,-0.040
6.750,-0.090,-0.040
6.752,-0.080,-0.040
6.754,-0.090,-0.040
6.756,-0.100,-0.040
6.758,-0.105,-0.045
6.760,-0.150,-0.045
6.762,-0.145,-0.050
6.764,-0.130,-0.050
6.766,-0.115,-0.050
6.768,-0.120,-0.050
6.770,-0.080,-0.050
6.772,-0.100,-0.050
6.774,-0.125,-0.045
6.776,-0.120,-0.045
6.778,-0.110,-0.045
6.780,-0.135,-0.050
6.782,-0.130,-0.050
6.784,-0.115,-0.050
6.786,-0.120,-0.050
6.788,-0.100,-0.050
6.790,-0.075,-0.045
6.792,-0.095,-0.045
6.794,-0.110,-0.045
6.796,-0.110,-0.045
6.798,-0.110,-0.045
6.800,-0.135,-0.050
6.802,-0.120,-0.055
6.804,-0.125,-0.060
6.806,-0.110,-0.060
6.808,-0.105,-0.060
6.810,-0.085,-0.060
6.812,-0.095,-0.055
6.814,-0.090,-0.050
6.816,-0.100,-0.040
6.818,-0.100,-0.035
6.820,-0.105,-0.030
6.822,-0.105,-0.030
6.824,-0.105,-0.030
6.826,-0.110,-0.035
6.828,-0.105,-0.040
6.830,-0.100,-0.040
6.832,-0.090,-0.040
6.834,-0.075,-0.040
6.836,-0.075,-0.035
6.838,-0.105,-0.030
6.840,-0.095,-0.025
6.842,-0.080,-0.020
6.844,-0.075,-0.015
6.846,-0.075,-0.015
6.848,-0.065,-0.015
6.850,-0.065,-0.020
6.852,-0.085,-0.020
6.854,-0.090,-0.020
6.856,-0.075,-0.025
6.858,-0.100,-0.025
6.860,-0.080,-0.020
6.862,-0.080,-0.020
6.864,-0.085,-0.015
6.866,-0.080,-0.015
6.868,-0.045,-0.010
6.870,-0.055,-0.010
6.872,-0.075,-0.010
6.874,-0.085,-0.010
6.876,-0.090,-0.010
6.878,-0.100,-0.015
6.880,-0.105,-0.015
6.882,-0.105,-0.020
6.884,-0.100,-0.025
6.886,-0.100,-0.035
6.888,-0.085,-0.040
6.890,-0.090,-0.045
6.892,-0.120,-0.050
6.894,-0.130,-0.055
6.896,-0.110,-0.055
6.898,-0.125,-0.055
6.900,-0.130,-0.050
6.902,-0.120,-0.050
6.904,-0.120,-0.050
6.906,-0.120,-0.055
6.908,-0.105,-0.060
6.910,-0.100,-0.065
6.912,-0.140,-0.075
6.914,-0.135,-0.080
6.916,-0.125,-0.085
6.918,-0.175,-0.090
6.920,-0.120,-0.085
6.922,-0.120,-0.085
6.924,-0.120,-0.080
6.926,-0.150,-0.075
6.928,-0.090,-0.070
6.930,-0.115,-0.070
6.932,-0.125,-0.070
6.934,-0.140,-0.065
6.936,-0.130,-0.065
6.938,-0.140,-0.060
6.940,-0.135,-0.060
6.942,-0.135,-0.055
6.944,-0.090,-0.050
6.946,-0.120,-0.050
6.948,-0.100,-0.055
6.950,-0.100,-0.060
6.952,-0.105,-0.065
6.954,-0.105,-0.070
6.956,-0.100,-0.075
6.958,-0.175,-0.080
6.960,-0.155,-0.080
6.962,-0.115,-0.080
6.964,-0.120,-0.080
6.966,-0.155,-0.085
6.968,-0.145,-0.095
6.970,-0.165,-0.105
6.972,-0.180,-0.120
6.974,-0.225,-0.130
6.976,-0.200,-0.130
6.978,-0.160,-0.110
6.980,-0.120,-0.075
6.982,-0.045,-0.020
6.984,0.020,0.055
6.986,0.095,0.135
6.988,0.220,0.220
6.990,0.295,0.290
6.992,0.365,0.345
6.994,0.360,0.375
6.996,0.345,0.380
6.998,0.250,0.355
7.000,0.180,0.315
7.002,0.135,0.255
7.004,0.160,0.190
7.006,0.130,0.125
7.008,0.080,0.065
7.010,-0.015,0.005
7.012,-0.135,-0.045
7.014,-0.250,-0.090
7.016,-0.230,-0.130
7.018,-0.250,-0.160
7.020,-0.260,-0.180
7.022,-0.235,-0.195
7.024,-0.220,-0.200
7.026,-0.220,-0.200
7.028,-0.190,-0.185
7.030,-0.175,-0.170
7.032,-0.175,-0.145
7.034,-0.160,-0.125
7.036,-0.145,-0.100
7.038,-0.165,-0.085
7.040,-0.150,-0.070
7.042,-0.100,-0.060
7.044,-0.090,-0.050
7.046,-0.070,-0.045
7.048,-0.070,-0.045
7.050,-0.070,-0.040
7.052,-0.080,-0.035
7.054,-0.080,-0.035
7.056,-0.080,-0.030
7.058,-0.095,-0.025
7.060,-0.095,-0.025
7.062,-0.070,-0.020
7.064,-0.070,-0.020
7.066,-0.075,-0.020
7.068,-0.060,-0.020
7.070,-0.060,-0.020
7.072,-0.075,-0.020
7.074,-0.075,-0.020
7.076,-0.070,-0.020
7.078,-0.075,-0.020
7.080,-0.075,-0.015
7.082,-0.045,-0.015
7.084,-0.020,-0.010
7.086,-0.020,-0.005
7.088,-0.050,0.000
7.090,-0.075,0.005
7.092,-0.060,0.010
7.094,-0.065,0.010
7.096,-0.070,0.010
7.098,-0.070,0.005
7.100,-0.040,0.000
7.102,-0.040,-0.005
7.104,-0.035,-0.015
7.106,-0.035,-0.020
7.108,-0.040,-0.020
7.110,-0.040,-0.020
7.112,-0.070,-0.020
7.114,-0.055,-0.010
7.116,-0.055,-0.005
7.118,-0.065,0.005
7.120,-0.040,0.010
7.122,-0.045,0.015
7.124,-0.015,0.020
7.126,-0.010,0.020
7.128,-0.015,0.020
7.130,-0.030,0.020
7.132,-0.035,0.020
7.134,-0.015,0.020
7.136,-0.030,0.025
7.138,-0.030,0.025
7.140,-0.050,0.030
7.142,-0.015,0.030
7.144,-0.015,0.030
7.146,-0.005,0.030
7.148,-0.005,0.025
7.150,-0.010,0.025
7.152,-0.010,0.020
7.154,-0.010,0.020
7.156,-0.040,0.025
7.158,-0.020,0.030
7.160,0.010,0.040
7.162,0.015,0.045
7.164,0.000,0.055
7.166,0.040,0.060
7.168,0.040,0.065
7.170,0.025,0.065
7.172,0.025,0.065
7.174,0.035,0.060
7.176,0.025,0.055
7.178,0.025,0.055
7.180,0.030,0.055
7.182,0.030,0.055
7.184,0.040,0.060
7.186,0.085,0.070
7.188,0.040,0.085
7.190,0.060,0.100
7.192,0.025,0.110
7.194,0.070,0.120
7.196,0.065,0.125
7.198,0.075,0.130
7.200,0.100,0.130
7.202,0.090,0.125
7.204,0.090,0.120
7.206,0.090,0.120
7.208,0.105,0.115
7.210,0.105,0.120
7.212,0.105,0.125
7.214,0.130,0.135
7.216,0.095,0.145
7.218,0.115,0.155
7.220,0.140,0.170
7.222,0.145,0.185
7.224,0.170,0.195
7.226,0.200,0.200
7.228,0.190,0.210
7.230,0.195,0.210
7.232,0.180,0.215
7.234,0.180,0.215
7.236,0.140,0.210
7.238,0.155,0.210
7.240,0.150,0.210
7.242,0.170,0.205
7.244,0.170,0.205
7.246,0.185,0.200
7.248,0.190,0.200
7.250,0.170,0.200
7.252,0.160,0.200
7.254,0.165,0.195
7.256,0.140,0.195
7.258,0.145,0.195
7.260,0.145,0.190
7.262,0.175,0.190
7.264,0.145,0.190
7.266,0.160,0.185
7.268,0.160,0.180
7.270,0.140,0.175
7.272,0.115,0.165
7.274,0.115,0.150
7.276,0.040,0.130
7.278,0.030,0.110
7.280,0.045,0.090
7.282,0.025,0.070
7.284,0.010,0.055
7.286,0.030,0.040
7.288,-0.005,0.025
7.290,-0.020,0.020
7.292,-0.025,0.015
7.294,-0.005,0.010
7.296,-0.030,0.010
7.298,-0.050,0.005
7.300,-0.050,0.000
7.302,-0.040,-0.010
7.304,-0.030,-0.020
7.306,-0.025,-0.025
7.308,-0.070,-0.035
7.310,-0.075,-0.040
7.312,-0.065,-0.040
7.314,-0.065,-0.040
7.316,-0.080,-0.040
7.318,-0.055,-0.035
7.320,-0.040,-0.030
7.322,-0.040,-0.030
7.324,-0.055,-0.030
7.326,-0.040,-0.030
7.328,-0.090,-0.035
7.330,-0.085,-0.035
7.332,-0.085,-0.035
7.334,-0.060,-0.035
7.336,-0.075,-0.035
7.338,-0.080,-0.030
7.340,-0.055,-0.025
7.342,-0.050,-0.020
7.344,-0.055,-0.015
7.346,-0.060,-0.015
7.348,-0.055,-0.015
7.350,-0.075,-0.025
7.352,-0.070,-0.030
7.354,-0.070,-0.040
7.356,-0.120,-0.050
7.358,-0.095,-0.055
7.360,-0.070,-0.060
7.362,-0.075,-0.060
7.364,-0.070,-0.060
7.366,-0.050,-0.055
7.368,-0.065,-0.050
7.370,-0.100,-0.050
7.372,-0.105,-0.045
7.374,-0.070,-0.045
7.376,-0.110,-0.045
7.378,-0.100,-0.045
7.380,-0.085,-0.050
7.382,-0.065,-0.050
7.384,-0.065,-0.050
7.386,-0.055,-0.050
7.388,-0.055,-0.050
7.390,-0.080,-0.045
7.392,-0.100,-0.045
7.394,-0.090,-0.045
7.396,-0.100,-0.045
7.398,-0.100,-0.050
7.400,-0.090,-0.050
7.402,-0.090,-0.055
7.404,-0.070,-0.060
7.406,-0.080,-0.065
7.408,-0.070,-0.070
7.410,-0.060,-0.065
7.412,-0.085,-0.065
7.414,-0.095,-0.060
7.416,-0.095,-0.055
7.418,-0.070,-0.050
7.420,-0.060,-0.045
7.422,-0.070,-0.045
7.424,-0.055,-0.045
7.426,-0.075,-0.050
7.428,-0.075,-0.050
7.430,-0.060,-0.055
7.432,-0.045,-0.055
7.434,-0.100,-0.055
7.436,-0.075,-0.050
7.438,-0.075,-0.045
7.440,-0.050,-0.040
7.442,-0.070,-0.035
7.444,-0.025,-0.025
7.446,-0.025,-0.020
7.448,-0.035,-0.015
7.450,-0.060,-0.015
7.452,-0.055,-0.015
7.454,-0.070,-0.020
7.456,-0.085,-0.025
7.458,-0.070,-0.030
7.460,-0.045,-0.035
7.462,-0.045,-0.040
7.464,-0.035,-0.040
7.466,-0.030,-0.040
7.468,-0.045,-0.035
7.470,-0.045,-0.030
7.472,-0.045,-0.020
7.474,-0.055,-0.015
7.476,-0.055,-0.010
7.478,-0.070,-0.010
7.480,-0.070,-0.015
7.482,-0.065,-0.020
7.484,-0.035,-0.030
7.486,-0.080,-0.040
7.488,-0.070,-0.045
7.490,-0.075,-0.050
7.492,-0.080,-0.055
7.494,-0.095,-0.050
7.496,-0.060,-0.045
7.498,-0.050,-0.035
7.500,-0.050,-0.025
7.502,-0.060,-0.020
7.504,-0.040,-0.010
7.506,-0.045,-0.010
7.508,-0.050,-0.015
7.510,-0.055,-0.020
7.512,-0.045,-0.030
7.514,-0.085,-0.035
7.516,-0.070,-0.045
7.518,-0.075,-0.050
7.520,-0.055,-0.050
7.522,-0.070,-0.050
7.524,-0.040,-0.045
7.526,-0.045,-0.045
7.528,-0.045,-0.040
7.530,-0.045,-0.045
7.532,-0.035,-0.045
7.534,-0.095,-0.055
7.536,-0.100,-0.065
7.538,-0.090,-0.070
7.540,-0.085,-0.080
7.542,-0.075,-0.080
7.544,-0.070,-0.080
7.546,-0.070,-0.075
7.548,-0.070,-0.070
7.550,-0.085,-0.060
7.552,-0.075,-0.050
7.554,-0.075,-0.040
7.556,-0.060,-0.035
7.558,-0.055,-0.035
7.560,-0.060,-0.035
7.562,-0.095,-0.040
7.564,-0.080,-0.045
7.566,-0.075,-0.050
7.568,-0.060,-0.055
7.570,-0.080,-0.060
7.572,-0.060,-0.060
7.574,-0.080,-0.060
7.576,-0.070,-0.055
7.578,-0.070,-0.050
7.580,-0.050,-0.045
7.582,-0.070,-0.045
7.584,-0.050,-0.040
7.586,-0.070,-0.040
7.588,-0.070,-0.045
7.590,-0.075,-0.045
7.592,-0.055,-0.050
7.594,-0.100,-0.055
7.596,-0.080,-0.060
7.598,-0.065,-0.060
7.600,-0.080,-0.065
7.602,-0.085,-0.065
7.604,-0.035,-0.060
7.606,-0.035,-0.060
7.608,-0.075,-0.055
7.610,-0.080,-0.050
7.612,-0.080,-0.045
7.614,-0.085,-0.040
7.616,-0.090,-0.035
7.618,-0.060,-0.035
7.620,-0.040,-0.030
7.622,-0.030,-0.030
7.624,-0.010,-0.025
7.626,-0.020,-0.025
7.628,-0.030,-0.020
7.630,-0.030,-0.020
7.632,-0.055,-0.015
7.634,-0.055,-0.015
7.636,-0.060,-0.015
7.638,-0.040,-0.015
7.640,-0.045,-0.020
7.642,-0.030,-0.025
7.644,-0.025,-0.025
7.646,-0.025,-0.025
7.648,-0.025,-0.025
7.650,-0.040,-0.025
7.652,-0.040,-0.015
7.654,-0.055,-0.010
7.656,-0.030,-0.005
7.658,-0.020,0.005
7.660,-0.010,0.005
7.662,-0.020,0.010
7.664,-0.020,0.005
7.666,-0.035,0.000
7.668,-0.055,-0.010
7.670,-0.050,-0.015
7.672,-0.045,-0.025
7.674,-0.070,-0.030
7.676,-0.070,-0.030
7.678,-0.070,-0.030
7.680,-0.050,-0.030
7.682,-0.050,-0.030
7.684,-0.050,-0.030
7.686,-0.065,-0.035
7.688,-0.060,-0.040
7.690,-0.080,-0.045
7.692,-0.090,-0.050
7.694,-0.080,-0.055
7.696,-0.085,-0.055
7.698,-0.050,-0.060
7.700,-0.060,-0.060
7.702,-0.060,-0.060
7.704,-0.060,-0.055
7.706,-0.070,-0.055
7.708,-0.090,-0.055
7.710,-0.090,-0.055
7.712,-0.100,-0.055
7.714,-0.095,-0.060
7.716,-0.085,-0.060
7.718,-0.060,-0.060
7.720,-0.070,-0.060
7.722,-0.055,-0.060
7.724,-0.060,-0.060
7.726,-0.065,-0.055
7.728,-0.080,-0.050
7.730,-0.070,-0.050
7.732,-0.100,-0.050
7.734,-0.105,-0.050
7.736,-0.090,-0.055
7.738,-0.085,-0.060
7.740,-0.080,-0.065
7.742,-0.080,-0.070
7.744,-0.080,-0.075
7.746,-0.090,-0.080
7.748,-0.090,-0.080
7.750,-0.110,-0.080
7.752,-0.130,-0.080
7.754,-0.110,-0.085
7.756,-0.115,-0.090
7.758,-0.135,-0.095
7.760,-0.155,-0.105
7.762,-0.155,-0.115
7.764,-0.155,-0.120
7.766,-0.155,-0.115
7.768,-0.120,-0.100
7.770,-0.075,-0.070
7.772,-0.040,-0.020
7.774,0.060,0.040
7.776,0.120,0.110
7.778,0.200,0.185
7.780,0.270,0.255
7.782,0.365,0.315
7.784,0.400,0.360
7.786,0.400,0.380
7.788,0.340,0.380
7.790,0.295,0.360
7.792,0.215,0.315
7.794,0.215,0.255
7.796,0.205,0.190
7.798,0.145,0.115
7.800,0.050,0.045
7.802,-0.060,-0.025
7.804,-0.190,-0.080
7.806,-0.215,-0.130
7.808,-0.225,-0.165
7.810,-0.205,-0.185
7.812,-0.205,-0.190
7.814,-0.180,-0.190
7.816,-0.175,-0.175
7.818,-0.155,-0.155
7.820,-0.120,-0.135
7.822,-0.095,-0.115
7.824,-0.095,-0.095
7.826,-0.105,-0.080
7.828,-0.125,-0.070
7.830,-0.080,-0.060
7.832,-0.110,-0.060
7.834,-0.105,-0.055
7.836,-0.070,-0.055
7.838,-0.020,-0.055
7.840,-0.050,-0.050
7.842,-0.015,-0.045
7.844,-0.020,-0.040
7.846,-0.020,-0.040
7.848,-0.035,-0.035
7.850,-0.025,-0.035
7.852,-0.075,-0.030
7.854,-0.080,-0.030
7.856,-0.055,-0.030
7.858,-0.025,-0.030
7.860,-0.050,-0.025
7.862,0.010,-0.020
7.864,0.000,-0.015
7.866,0.000,-0.010
7.868,-0.050,-0.010
7.870,-0.015,-0.005
7.872,-0.060,0.000
7.874,-0.065,0.000
7.876,-0.035,-0.005
7.878,-0.025,-0.005
7.880,-0.010,-0.005
7.882,-0.015,-0.005
7.884,-0.010,-0.005
7.886,0.020,-0.005
7.888,0.010,0.000
7.890,-0.025,0.000
7.892,-0.040,0.000
7.894,-0.040,0.000
7.896,-0.010,-0.005
7.898,-0.005,-0.005
7.900,-0.030,-0.010
7.902,-0.010,-0.010
7.904,-0.020,-0.010
7.906,-0.020,-0.010
7.908,-0.010,-0.005
7.910,-0.010,0.000
7.912,-0.020,0.010
7.914,-0.025,0.015
7.916,0.005,0.020
7.918,0.015,0.020
7.920,0.015,0.020
7.922,0.025,0.015
7.924,-0.025,0.010
7.926,-0.010,0.000
7.928,0.000,-0.005
7.930,-0.020,-0.005
7.932,-0.010,-0.005
7.934,-0.010,-0.005
7.936,0.020,0.000
7.938,0.020,0.010
7.940,0.040,0.015
7.942,0.035,0.020
7.944,0.015,0.020
7.946,0.005,0.025
7.948,0.010,0.025
7.950,0.015,0.025
7.952,0.000,0.030
7.954,0.025,0.035
7.956,0.030,0.040
7.958,0.020,0.045
7.960,0.045,0.050
7.962,0.070,0.060
7.964,0.060,0.065
7.966,0.040,0.070
7.968,0.030,0.070
7.970,0.025,0.070
7.972,0.040,0.070
7.974,0.050,0.070
7.976,0.070,0.070
7.978,0.080,0.075
7.980,0.095,0.075
7.982,0.085,0.080
7.984,0.070,0.080
7.986,0.095,0.085
7.988,0.095,0.090
7.990,0.095,0.095
7.992,0.105,0.100
7.994,0.110,0.105
7.996,0.120,0.110
7.998,0.125,0.120
8.000,0.160,0.125
8.002,0.135,0.135
8.004,0.125,0.145
8.006,0.140,0.150
8.008,0.150,0.155
8.010,0.130,0.155
8.012,0.135,0.160
8.014,0.140,0.160
8.016,0.140,0.165
8.018,0.165,0.170
8.020,0.200,0.175
8.022,0.195,0.180
8.024,0.190,0.190
8.026,0.205,0.195
8.028,0.235,0.205
8.030,0.190,0.210
8.032,0.180,0.210
8.034,0.205,0.210
8.036,0.185,0.205
8.038,0.185,0.200
8.040,0.215,0.195
8.042,0.225,0.190
8.044,0.180,0.185
8.046,0.180,0.180
8.048,0.205,0.180
8.050,0.145,0.180
8.052,0.155,0.180
8.054,0.150,0.175
8.056,0.160,0.175
8.058,0.145,0.165
8.060,0.160,0.160
8.062,0.140,0.145
8.064,0.130,0.135
8.066,0.110,0.120
8.068,0.110,0.105
8.070,0.045,0.090
8.072,0.045,0.080
8.074,0.055,0.070
8.076,0.070,0.065
8.078,0.030,0.060
8.080,0.105,0.055
8.082,0.060,0.050
8.084,0.015,0.045
8.086,0.015,0.040
8.088,0.010,0.030
8.090,-0.025,0.020
8.092,-0.020,0.005
8.094,-0.010,-0.005
8.096,-0.045,-0.015
8.098,-0.050,-0.020
8.100,-0.015,-0.025
8.102,-0.015,-0.030
8.104,-0.020,-0.030
8.106,-0.020,-0.025
8.108,-0.025,-0.025
8.110,-0.055,-0.025
8.112,-0.060,-0.030
8.114,-0.035,-0.030
8.116,-0.040,-0.035
8.118,-0.075,-0.040
8.120,-0.045,-0.045
8.122,-0.050,-0.050
8.124,-0.070,-0.050
8.126,-0.060,-0.050
8.128,-0.060,-0.045
8.130,-0.070,-0.045
8.132,-0.050,-0.040
8.134,-0.050,-0.035
8.136,-0.065,-0.035
8.138,-0.070,-0.040
8.140,-0.030,-0.045
8.142,-0.055,-0.050
8.144,-0.080,-0.060
8.146,-0.095,-0.070
8.148,-0.085,-0.075
8.150,-0.120,-0.080
8.152,-0.080,-0.085
8.154,-0.080,-0.080
8.156,-0.065,-0.080
8.158,-0.060,-0.070
8.160,-0.040,-0.065
8.162,-0.045,-0.060
8.164,-0.045,-0.055
8.166,-0.075,-0.050
8.168,-0.070,-0.050
8.170,-0.075,-0.050
8.172,-0.070,-0.050
8.174,-0.070,-0.050
8.176,-0.060,-0.045
8.178,-0.060,-0.045
8.180,-0.035,-0.040
8.182,-0.030,-0.035
8.184,-0.045,-0.030
8.186,-0.055,-0.030
8.188,-0.040,-0.030
8.190,-0.060,-0.030
8.192,-0.060,-0.030
8.194,-0.060,-0.035
8.196,-0.040,-0.040
8.198,-0.040,-0.040
8.200,-0.045,-0.045
8.202,-0.040,-0.045
8.204,-0.025,-0.040
8.206,-0.030,-0.040
8.208,-0.030,-0.035
8.210,-0.035,-0.035
8.212,-0.040,-0.030
8.214,-0.035,-0.030
8.216,-0.040,-0.030
8.218,-0.040,-0.035
8.220,-0.040,-0.035
8.222,-0.070,-0.035
8.224,-0.045,-0.040
8.226,-0.040,-0.040
8.228,-0.055,-0.040
8.230,-0.045,-0.040
8.232,-0.060,-0.035
8.234,-0.025,-0.035
8.236,-0.010,-0.035
8.238,-0.010,-0.035
8.240,-0.010,-0.035
8.242,-0.045,-0.030
8.244,-0.045,-0.030
8.246,-0.055,-0.025
8.248,-0.035,-0.020
8.250,-0.055,-0.020
8.252,-0.050,-0.020
8.254,0.005,-0.020
8.256,0.025,-0.025
8.258,-0.005,-0.030
8.260,-0.005,-0.035
8.262,-0.055,-0.045
8.264,-0.075,-0.055
8.266,-0.075,-0.060
8.268,-0.060,-0.065
8.270,-0.065,-0.065
8.272,-0.065,-0.060
8.274,-0.035,-0.060
8.276,-0.025,-0.050
8.278,-0.010,-0.045
8.280,-0.010,-0.040
8.282,-0.025,-0.035
8.284,-0.030,-0.035
8.286,-0.030,-0.035
8.288,-0.075,-0.040
8.290,-0.065,-0.045
8.292,-0.050,-0.045
8.294,-0.045,-0.050
8.296,-0.055,-0.050
8.298,-0.040,-0.050
8.300,-0.045,-0.050
8.302,-0.035,-0.050
8.304,-0.045,-0.050
8.306,-0.035,-0.050
8.308,-0.075,-0.050
8.310,-0.075,-0.050
8.312,-0.055,-0.055
8.314,-0.050,-0.055
8.316,-0.060,-0.055
8.318,-0.040,-0.055
8.320,-0.030,-0.055
8.322,-0.030,-0.055
8.324,-0.035,-0.050
8.326,-0.040,-0.045
8.328,-0.060,-0.040
8.330,-0.055,-0.040
8.332,-0.060,-0.035
8.334,-0.065,-0.035
8.336,-0.065,-0.035
8.338,-0.020,-0.035
8.340,-0.025,-0.035
8.342,-0.040,-0.035
8.344,-0.040,-0.040
8.346,-0.025,-0.040
8.348,-0.050,-0.040
8.350,-0.040,-0.045
8.352,-0.060,-0.045
8.354,-0.050,-0.045
8.356,-0.035,-0.050
8.358,0.005,-0.050
8.360,-0.030,-0.050
8.362,-0.080,-0.055
8.364,-0.045,-0.055
8.366,-0.040,-0.050
8.368,-0.070,-0.050
8.370,-0.090,-0.045
8.372,-0.055,-0.040
8.374,-0.040,-0.040
8.376,-0.040,-0.035
8.378,-0.010,-0.035
8.380,-0.030,-0.035
8.382,-0.040,-0.035
8.384,-0.015,-0.040
8.386,-0.005,-0.040
8.388,-0.060,-0.045
8.390,-0.080,-0.045
8.392,-0.055,-0.045
8.394,-0.045,-0.045
8.396,-0.045,-0.045
8.398,0.000,-0.045
8.400,-0.030,-0.045
8.402,-0.045,-0.050
8.404,-0.045,-0.050
8.406,-0.045,-0.055
8.408,-0.115,-0.060
8.410,-0.060,-0.065
8.412,-0.060,-0.065
8.414,-0.035,-0.060
8.416,-0.020,-0.055
8.418,-0.010,-0.050
8.420,-0.010,-0.035
8.422,-0.020,-0.025
8.424,-0.010,-0.015
8.426,0.010,-0.010
8.428,-0.010,-0.005
8.430,-0.010,0.000
8.432,-0.020,-0.005
8.434,-0.010,-0.005
8.436,-0.020,-0.010
8.438,0.020,-0.015
8.440,0.005,-0.020
8.442,0.005,-0.025
8.444,-0.030,-0.030
8.446,-0.030,-0.030
8.448,-0.035,-0.035
8.450,-0.020,-0.030
8.452,-0.005,-0.025
8.454,-0.005,-0.020
8.456,-0.005,-0.015
8.458,0.030,-0.010
8.460,0.005,-0.005
8.462,0.005,-0.005
8.464,-0.005,-0.005
8.466,-0.030,-0.010
8.468,-0.065,-0.015
8.470,-0.065,-0.025
8.472,-0.060,-0.035
8.474,-0.055,-0.045
8.476,-0.055,-0.050
8.478,-0.045,-0.060
8.480,-0.030,-0.065
8.482,-0.050,-0.065
8.484,-0.030,-0.060
8.486,-0.030,-0.060
8.488,-0.055,-0.055
8.490,-0.060,-0.045
8.492,-0.030,-0.045
8.494,-0.030,-0.040
8.496,-0.040,-0.035
8.498,-0.035,-0.035
8.500,-0.040,-0.035
8.502,-0.045,-0.035
8.504,-0.050,-0.040
8.506,-0.030,-0.045
8.508,-0.050,-0.050
8.510,-0.055,-0.055
8.512,-0.050,-0.060
8.514,-0.040,-0.065
8.516,-0.040,-0.065
8.518,-0.040,-0.065
8.520,-0.050,-0.065
8.522,-0.055,-0.060
8.524,-0.045,-0.055
8.526,-0.040,-0.055
8.528,-0.045,-0.050
8.530,-0.065,-0.055
8.532,-0.045,-0.055
8.534,-0.040,-0.065
8.536,-0.060,-0.070
8.538,-0.055,-0.080
8.540,-0.045,-0.085
8.542,-0.070,-0.085
8.544,-0.050,-0.085
8.546,-0.100,-0.085
8.548,-0.110,-0.085
8.550,-0.080,-0.085
8.552,-0.080,-0.090
8.554,-0.085,-0.095
8.556,-0.110,-0.105
8.558,-0.130,-0.110
8.560,-0.120,-0.110
8.562,-0.070,-0.095
8.564,-0.065,-0.065
8.566,-0.015,-0.020
8.568,0.065,0.045
8.570,0.140,0.120
8.572,0.225,0.195
8.574,0.320,0.275
8.576,0.430,0.335
8.578,0.460,0.380
8.580,0.465,0.405
8.582,0.425,0.400
8.584,0.325,0.375
8.586,0.240,0.330
8.588,0.265,0.270
8.590,0.255,0.200
8.592,0.185,0.125
8.594,0.095,0.055
8.596,-0.020,-0.010
8.598,-0.140,-0.065
8.600,-0.175,-0.115
8.602,-0.185,-0.150
8.604,-0.180,-0.170
8.606,-0.190,-0.180
8.608,-0.190,-0.185
8.610,-0.155,-0.175
8.612,-0.130,-0.155
8.614,-0.130,-0.135
8.616,-0.045,-0.115
8.618,-0.015,-0.095
8.620,-0.015,-0.080
8.622,-0.075,-0.070
8.624,-0.070,-0.065
8.626,-0.100,-0.060
8.628,-0.080,-0.065
8.630,-0.070,-0.065
8.632,-0.045,-0.065
8.634,-0.040,-0.060
8.636,0.015,-0.055
8.638,0.000,-0.045
8.640,0.005,-0.040
8.642,0.005,-0.035
8.644,-0.040,-0.030
8.646,-0.040,-0.030
8.648,-0.060,-0.030
8.650,-0.060,-0.040
8.652,-0.030,-0.045
8.654,-0.035,-0.050
8.656,-0.015,-0.050
8.658,-0.005,-0.050
8.660,-0.005,-0.050
8.662,-0.010,-0.045
8.664,0.025,-0.035
8.666,-0.020,-0.030
8.668,-0.035,-0.020
8.670,-0.015,-0.020
8.672,0.005,-0.015
8.674,0.005,-0.020
8.676,0.015,-0.020
8.678,0.000,-0.025
8.680,-0.015,-0.030
8.682,-0.025,-0.035
8.684,-0.015,-0.035
8.686,-0.030,-0.035
8.688,-0.010,-0.035
8.690,0.000,-0.030
8.692,0.000,-0.025
8.694,0.000,-0.015
8.696,0.045,-0.010
8.698,0.045,0.000
8.700,0.035,0.005
8.702,0.030,0.015
8.704,0.045,0.020
8.706,0.020,0.020
8.708,0.035,0.020
8.710,0.035,0.020
8.712,0.020,0.015
8.714,0.025,0.010
8.716,0.040,0.010
8.718,0.020,0.005
8.720,0.020,0.000
8.722,0.045,0.000
8.724,0.050,0.005
8.726,0.005,0.010
8.728,0.035,0.015
8.730,0.035,0.015
8.732,0.065,0.020
8.734,0.055,0.025
8.736,0.055,0.025
8.738,0.045,0.025
8.740,0.035,0.020
8.742,0.060,0.020
8.744,0.065,0.020
8.746,0.025,0.020
8.748,0.020,0.020
8.750,0.040,0.025
8.752,0.055,0.030
8.754,0.055,0.040
8.756,0.085,0.045
8.758,0.085,0.055
8.760,0.065,0.060
8.762,0.085,0.065
8.764,0.085,0.070
8.766,0.075,0.075
8.768,0.100,0.080
8.770,0.085,0.085
8.772,0.090,0.085
8.774,0.090,0.090
8.776,0.130,0.095
8.778,0.130,0.100
8.780,0.130,0.105
8.782,0.115,0.105
8.784,0.115,0.110
8.786,0.125,0.115
8.788,0.140,0.115
8.790,0.160,0.120
8.792,0.200,0.125
8.794,0.200,0.135
8.796,0.170,0.140
8.798,0.170,0.150
8.800,0.185,0.160
8.802,0.195,0.170
8.804,0.195,0.180
8.806,0.210,0.185
8.808,0.200,0.190
8.810,0.215,0.190
8.812,0.215,0.195
8.814,0.235,0.195
8.816,0.255,0.195
8.818,0.255,0.195
8.820,0.230,0.195
8.822,0.230,0.195
8.824,0.220,0.195
8.826,0.220,0.200
8.828,0.230,0.200
8.830,0.225,0.205
8.832,0.235,0.205
8.834,0.265,0.210
8.836,0.255,0.215
8.838,0.255,0.215
8.840,0.240,0.220
8.842,0.240,0.220
8.844,0.215,0.215
8.846,0.200,0.210
8.848,0.200,0.195
8.850,0.185,0.185
8.852,0.165,0.170
8.854,0.185,0.155
8.856,0.180,0.135
8.858,0.150,0.125
8.860,0.140,0.115
8.862,0.140,0.105
8.864,0.115,0.100
8.866,0.115,0.095
8.868,0.105,0.095
8.870,0.085,0.090
8.872,0.075,0.080
8.874,0.105,0.075
8.876,0.095,0.065
8.878,0.100,0.050
8.880,0.055,0.040
8.882,0.055,0.035
8.884,0.030,0.025
8.886,0.025,0.020
8.888,0.050,0.015
8.890,0.025,0.010
8.892,0.020,0.005
8.894,0.030,-0.005
8.896,0.050,-0.010
8.898,0.010,-0.015
8.900,0.000,-0.025
8.902,0.015,-0.025
8.904,-0.015,-0.030
8.906,-0.015,-0.030
8.908,0.005,-0.025
8.910,0.020,-0.020
8.912,0.020,-0.020
8.914,0.060,-0.015
8.916,0.025,-0.015
8.918,0.020,-0.015
8.920,-0.005,-0.015
8.922,0.005,-0.020
8.924,-0.020,-0.020
8.926,-0.020,-0.025
8.928,-0.015,-0.025
8.930,0.035,-0.025
8.932,0.015,-0.025
8.934,0.045,-0.025
8.936,0.025,-0.025
8.938,0.005,-0.025
8.940,-0.015,-0.030
8.942,0.005,-0.030
8.944,-0.035,-0.030
8.946,-0.010,-0.030
8.948,0.000,-0.030
8.950,0.010,-0.030
8.952,-0.040,-0.030
8.954,0.010,-0.030
8.956,0.005,-0.035
8.958,0.020,-0.040
8.960,0.025,-0.045
8.962,0.035,-0.045
8.964,-0.040,-0.050
8.966,-0.040,-0.050
8.968,0.000,-0.050
8.970,0.005,-0.045
8.972,0.005,-0.040
8.974,0.045,-0.030
8.976,0.020,-0.030
8.978,0.010,-0.025
8.980,-0.005,-0.025
8.982,0.000,-0.025
8.984,-0.025,-0.030
8.986,-0.005,-0.030
8.988,0.015,-0.030
8.990,0.020,-0.030
8.992,0.015,-0.025
8.994,0.035,-0.020
8.996,0.030,-0.015
8.998,0.025,-0.010
9.000,0.000,-0.010
9.002,-0.010,-0.010
9.004,-0.030,-0.015
9.006,-0.015,-0.020
9.008,0.010,-0.025
9.010,0.005,-0.025
9.012,0.010,-0.025
9.014,0.030,-0.025
9.016,0.025,-0.025
9.018,0.030,-0.025
9.020,-0.010,-0.025
9.022,0.015,-0.030
9.024,-0.025,-0.030
9.026,-0.010,-0.035
9.028,0.005,-0.035
9.030,-0.005,-0.035
9.032,0.025,-0.035
9.034,0.050,-0.025
9.036,0.040,-0.020
9.038,0.045,-0.010
9.040,0.020,0.000
9.042,-0.010,0.005
9.044,-0.020,0.005
9.046,0.015,0.005
9.048,0.015,-0.005
9.050,0.030,-0.010
9.052,0.030,-0.020
9.054,0.040,-0.025
9.056,0.025,-0.030
9.058,0.035,-0.030
9.060,0.020,-0.030
9.062,0.030,-0.025
9.064,0.005,-0.020
9.066,0.005,-0.015
9.068,0.005,-0.010
9.070,0.025,-0.010
9.072,0.025,-0.010
9.074,0.030,-0.015
9.076,-0.005,-0.020
9.078,-0.020,-0.020
9.080,-0.025,-0.025
9.082,0.010,-0.025
9.084,0.045,-0.025
9.086,0.030,-0.025
9.088,0.040,-0.025
9.090,0.015,-0.025
9.092,0.025,-0.030
9.094,0.020,-0.030
9.096,0.025,-0.030
9.098,0.005,-0.030
9.100,0.000,-0.035
9.102,0.010,-0.035
9.104,-0.010,-0.035
9.106,-0.010,-0.030
9.108,0.010,-0.030
9.110,0.030,-0.030
9.112,0.025,-0.030
9.114,0.030,-0.030
9.116,0.005,-0.035
9.118,-0.015,-0.035
9.120,-0.010,-0.035
9.122,-0.015,-0.030
9.124,0.005,-0.030
9.126,0.005,-0.025
9.128,0.010,-0.025
9.130,0.000,-0.025
9.132,0.025,-0.025
9.134,0.015,-0.030
9.136,0.015,-0.035
9.138,0.030,-0.040
9.140,0.005,-0.045
9.142,-0.015,-0.045
9.144,-0.020,-0.045
9.146,0.005,-0.040
9.148,0.020,-0.030
9.150,0.015,-0.020
9.152,0.050,-0.015
9.154,0.050,-0.005
9.156,0.030,-0.005
9.158,0.005,-0.005
9.160,0.020,-0.010
9.162,-0.005,-0.015
9.164,-0.015,-0.025
9.166,-0.005,-0.035
9.168,0.015,-0.040
9.170,0.005,-0.040
9.172,0.035,-0.035
9.174,0.030,-0.030
9.176,0.000,-0.025
9.178,0.035,-0.020
9.180,0.025,-0.015
9.182,0.015,-0.010
9.184,0.010,-0.010
9.186,0.020,-0.015
9.188,0.040,-0.020
9.190,0.035,-0.020
9.192,0.050,-0.025
9.194,0.035,-0.020
9.196,0.035,-0.015
9.198,0.035,-0.010
9.200,0.065,-0.005
9.202,0.035,0.005
9.204,0.020,0.010
9.206,0.045,0.015
9.208,0.055,0.015
9.210,0.010,0.020
9.212,0.080,0.020
9.214,0.085,0.020
9.216,0.080,0.015
9.218,0.050,0.015
9.220,0.045,0.010
9.222,0.020,0.005
9.224,0.020,-0.005
9.226,0.030,-0.010
9.228,0.030,-0.020
9.230,-0.015,-0.030
9.232,0.015,-0.035
9.234,0.020,-0.040
9.236,0.015,-0.040
9.238,-0.025,-0.040
9.240,0.000,-0.040
9.242,-0.025,-0.040
9.244,0.005,-0.040
9.246,0.000,-0.040
9.248,0.000,-0.045
9.250,0.010,-0.050
9.252,0.040,-0.055
9.254,0.000,-0.060
9.256,-0.005,-0.060
9.258,-0.010,-0.060
9.260,0.025,-0.060
9.262,-0.035,-0.050
9.264,-0.015,-0.045
9.266,0.015,-0.040
9.268,0.015,-0.035
9.270,0.000,-0.035
9.272,0.030,-0.040
9.274,-0.005,-0.045
9.276,-0.040,-0.050
9.278,-0.015,-0.060
9.280,-0.020,-0.065
9.282,-0.040,-0.065
9.284,-0.015,-0.065
9.286,-0.010,-0.060
9.288,0.005,-0.055
9.290,-0.010,-0.050
9.292,0.020,-0.050
9.294,0.020,-0.050
9.296,0.000,-0.050
9.298,0.005,-0.055
9.300,0.010,-0.060
9.302,-0.025,-0.065
9.304,-0.020,-0.065
9.306,-0.010,-0.065
9.308,-0.025,-0.065
9.310,-0.050,-0.065
9.312,-0.015,-0.065
9.314,-0.010,-0.075
9.316,-0.030,-0.085
9.318,-0.040,-0.095
9.320,-0.035,-0.105
9.322,-0.075,-0.115
9.324,-0.075,-0.110
9.326,-0.060,-0.100
9.328,-0.040,-0.070
9.330,0.025,-0.030
9.332,0.120,0.025
9.334,0.190,0.090
9.336,0.235,0.155
9.338,0.295,0.215
9.340,0.360,0.270
9.342,0.375,0.310
9.344,0.415,0.335
9.346,0.405,0.340
9.348,0.335,0.325
9.350,0.275,0.290
9.352,0.275,0.245
9.354,0.260,0.185
9.356,0.215,0.120
9.358,0.165,0.055
9.360,0.045,-0.015
9.362,-0.125,-0.075
9.364,-0.190,-0.125
9.366,-0.165,-0.165
9.368,-0.150,-0.190
9.370,-0.115,-0.205
9.372,-0.120,-0.205
9.374,-0.100,-0.200
9.376,-0.125,-0.190
9.378,-0.125,-0.170
9.380,-0.125,-0.155
9.382,-0.130,-0.140
9.384,-0.085,-0.125
9.386,-0.035,-0.110
9.388,-0.030,-0.100
9.390,-0.020,-0.090
9.392,0.000,-0.075
9.394,0.030,-0.065
9.396,0.010,-0.060
9.398,0.010,-0.050
9.400,0.010,-0.040
9.402,0.025,-0.035
9.404,0.005,-0.030
9.406,0.000,-0.030
9.408,0.030,-0.025
9.410,0.070,-0.025
9.412,0.060,-0.025
9.414,0.055,-0.020
9.416,0.030,-0.015
9.418,0.040,-0.010
9.420,0.020,-0.005
9.422,0.030,0.000
9.424,0.030,0.005
9.426,0.035,0.005
9.428,0.055,0.005
9.430,0.070,0.005
9.432,0.065,0.000
9.434,0.075,0.000
9.436,0.055,-0.005
9.438,0.045,-0.010
9.440,0.025,-0.010
9.442,0.030,-0.010
9.444,0.030,-0.005
9.446,0.055,-0.005
9.448,0.025,0.000
9.450,0.075,0.005
9.452,0.075,0.010
9.454,0.070,0.015
9.456,0.090,0.020
9.458,0.075,0.020
9.460,0.045,0.025
9.462,0.045,0.025
9.464,0.055,0.020
9.466,0.055,0.020
9.468,0.055,0.015
9.470,0.075,0.010
9.472,0.080,0.005
9.474,0.050,0.000
9.476,0.050,-0.005
9.478,0.075,-0.005
9.480,0.035,0.000
9.482,0.055,0.000
9.484,0.085,0.010
9.486,0.090,0.015
9.488,0.080,0.020
9.490,0.085,0.020
9.492,0.085,0.025
9.494,0.080,0.020
9.496,0.080,0.020
9.498,0.090,0.015
9.500,0.060,0.015
9.502,0.065,0.020
9.504,0.085,0.025
9.506,0.085,0.030
9.508,0.100,0.040
9.510,0.135,0.045
9.512,0.120,0.050
9.514,0.110,0.055
9.516,0.110,0.055
9.518,0.125,0.050
9.520,0.135,0.050
9.522,0.105,0.050
9.524,0.115,0.050
9.526,0.125,0.055
9.528,0.120,0.060
9.530,0.150,0.070
9.532,0.160,0.075
9.534,0.145,0.080
9.536,0.145,0.085
9.538,0.170,0.085
9.540,0.110,0.085
9.542,0.115,0.080
9.544,0.115,0.080
9.546,0.150,0.085
9.548,0.145,0.090
9.550,0.180,0.105
9.552,0.190,0.115
9.554,0.190,0.130
9.556,0.180,0.145
9.558,0.220,0.155
9.560,0.200,0.165
9.562,0.195,0.165
9.564,0.215,0.165
9.566,0.235,0.165
9.568,0.230,0.165
9.570,0.235,0.165
9.572,0.235,0.170
9.574,0.250,0.180
9.576,0.230,0.190
9.578,0.270,0.200
9.580,0.250,0.210
9.582,0.265,0.215
9.584,0.265,0.220
9.586,0.270,0.220
9.588,0.235,0.215
9.590,0.260,0.210
9.592,0.260,0.205
9.594,0.255,0.205
9.596,0.245,0.200
9.598,0.260,0.195
9.600,0.245,0.195
9.602,0.235,0.190
9.604,0.245,0.190
9.606,0.255,0.185
9.608,0.230,0.180
9.610,0.250,0.175
9.612,0.240,0.170
9.614,0.230,0.165
9.616,0.210,0.165
9.618,0.215,0.160
9.620,0.195,0.155
9.622,0.175,0.150
9.624,0.170,0.140
9.626,0.180,0.130
9.628,0.160,0.115
9.630,0.165,0.100
9.632,0.135,0.085
9.634,0.115,0.070
9.636,0.100,0.060
9.638,0.100,0.050
9.640,0.065,0.035
9.642,0.080,0.030
9.644,0.080,0.020
9.646,0.100,0.015
9.648,0.065,0.005
9.650,0.075,0.000
9.652,0.055,-0.005
9.654,0.055,-0.005
9.656,0.050,-0.005
9.658,0.040,-0.005
9.660,0.020,-0.005
9.662,0.015,-0.010
9.664,0.050,-0.015
9.666,0.015,-0.020
9.668,0.045,-0.030
9.670,0.040,-0.045
9.672,-0.005,-0.055
9.674,-0.005,-0.070
9.676,-0.010,-0.080
9.678,-0.010,-0.080
9.680,0.000,-0.080
9.682,0.005,-0.075
9.684,0.015,-0.070
9.686,-0.010,-0.060
9.688,-0.035,-0.050
9.690,0.005,-0.045
9.692,-0.005,-0.040
9.694,-0.005,-0.040
9.696,0.010,-0.045
9.698,0.005,-0.050
9.700,-0.005,-0.055
9.702,-0.005,-0.055
9.704,0.010,-0.060
9.706,0.015,-0.060
9.708,0.035,-0.055
9.710,0.025,-0.055
9.712,0.000,-0.050
9.714,-0.015,-0.050
9.716,-0.015,-0.050
9.718,-0.015,-0.055
9.720,-0.010,-0.055
9.722,0.000,-0.060
9.724,0.005,-0.065
9.726,-0.025,-0.065
9.728,-0.010,-0.070
9.730,0.010,-0.070
9.732,-0.010,-0.075
9.734,-0.005,-0.075
9.736,0.015,-0.075
9.738,-0.030,-0.075
9.740,-0.015,-0.070
9.742,-0.015,-0.070
9.744,0.005,-0.065
9.746,-0.005,-0.065
9.748,0.005,-0.060
9.750,0.050,-0.060
9.752,-0.015,-0.065
9.754,-0.015,-0.065
9.756,0.005,-0.070
9.758,-0.030,-0.075
9.760,-0.030,-0.080
9.762,-0.010,-0.080
9.764,0.010,-0.075
9.766,-0.005,-0.070
9.768,0.015,-0.060
9.770,0.025,-0.055
9.772,0.010,-0.045
9.774,-0.010,-0.040
9.776,0.000,-0.040
9.778,-0.015,-0.045
9.780,-0.015,-0.045
9.782,0.005,-0.050
9.784,0.030,-0.055
9.786,0.010,-0.050
9.788,0.055,-0.050
9.790,0.040,-0.045
9.792,0.035,-0.035
9.794,0.035,-0.030
9.796,0.030,-0.025
9.798,0.005,-0.020
9.800,0.000,-0.025
9.802,0.000,-0.030
9.804,0.015,-0.040
9.806,0.005,-0.050
9.808,0.025,-0.055
9.810,0.025,-0.065
9.812,-0.015,-0.070
9.814,-0.025,-0.070
9.816,0.000,-0.070
9.818,-0.020,-0.065
9.820,-0.020,-0.065
9.822,-0.015,-0.060
9.824,-0.005,-0.055
9.826,0.030,-0.050
9.828,0.030,-0.050
9.830,0.015,-0.045
9.832,0.015,-0.040
9.834,0.000,-0.035
9.836,0.020,-0.035
9.838,0.020,-0.035
9.840,0.005,-0.035
9.842,-0.010,-0.040
9.844,0.005,-0.050
9.846,-0.025,-0.060
9.848,-0.005,-0.075
9.850,-0.005,-0.085
9.852,-0.005,-0.090
9.854,-0.010,-0.090
9.856,0.000,-0.090
9.858,-0.005,-0.085
9.860,-0.015,-0.070
9.862,0.015,-0.060
9.864,0.000,-0.050
9.866,-0.030,-0.040
9.868,0.020,-0.035
9.870,0.000,-0.035
9.872,-0.010,-0.040
9.874,-0.010,-0.050
9.876,0.025,-0.055
9.878,-0.005,-0.065
9.880,0.005,-0.070
9.882,0.015,-0.075
9.884,0.015,-0.075
9.886,0.015,-0.070
9.888,0.025,-0.065
9.890,-0.005,-0.060
9.892,-0.015,-0.055
9.894,-0.020,-0.050
9.896,0.010,-0.050
9.898,0.010,-0.050
9.900,-0.005,-0.050
9.902,-0.010,-0.050
9.904,0.015,-0.050
9.906,0.000,-0.045
9.908,0.030,-0.045
9.910,0.035,-0.045
9.912,0.020,-0.040
9.914,0.035,-0.040
9.916,0.025,-0.035
9.918,0.020,-0.035
9.920,0.020,-0.030
9.922,0.035,-0.030
9.924,0.030,-0.030
9.926,0.020,-0.030
9.928,0.040,-0.030
9.930,0.040,-0.025
9.932,0.025,-0.025
9.934,0.045,-0.020
9.936,0.030,-0.020
9.938,0.015,-0.020
9.940,0.010,-0.015
9.942,0.030,-0.015
9.944,0.065,-0.010
9.946,0.050,-0.010
9.948,0.055,-0.005
9.950,0.050,-0.005
9.952,0.035,-0.005
9.954,0.020,-0.010
9.956,0.030,-0.015
9.958,-0.005,-0.020
9.960,0.005,-0.025
9.962,0.020,-0.035
9.964,0.005,-0.045
9.966,0.020,-0.050
9.968,0.010,-0.055
9.970,0.020,-0.055
9.972,0.005,-0.055
9.974,0.000,-0.055
9.976,-0.010,-0.050
9.978,0.010,-0.050
9.980,0.015,-0.055
9.982,-0.020,-0.055
9.984,-0.020,-0.060
9.986,-0.010,-0.065
9.988,-0.010,-0.070
9.990,0.000,-0.075
9.992,-0.020,-0.075
9.994,-0.005,-0.070
9.996,-0.040,-0.065
9.998,0.000,-0.060
