'Elapsed time','ECG I','ECG I filtered'
'seconds','mV','mV'
0.000,-0.090,-0.050
0.002,-0.050,0.010
0.004,0.035,0.050
0.006,0.075,0.080
0.008,0.250,0.095
0.010,0.080,0.090
0.012,0.040,0.075
0.014,-0.090,0.060
0.016,-0.130,0.045
0.018,-0.125,0.045
0.020,0.015,0.055
0.022,0.050,0.075
0.024,0.140,0.095
0.026,0.200,0.120
0.028,0.220,0.135
0.030,0.175,0.140
0.032,0.120,0.140
0.034,-0.035,0.125
0.036,-0.050,0.115
0.038,-0.025,0.100
0.040,0.030,0.095
0.042,0.050,0.095
0.044,0.115,0.105
0.046,0.210,0.120
0.048,0.250,0.130
0.050,0.165,0.140
0.052,0.090,0.145
0.054,-0.015,0.145
0.056,-0.090,0.135
0.058,-0.060,0.130
0.060,-0.020,0.120
0.062,0.110,0.115
0.064,0.180,0.110
0.066,0.210,0.110
0.068,0.205,0.115
0.070,0.160,0.115
0.072,0.030,0.115
0.074,0.000,0.110
0.076,-0.100,0.100
0.078,-0.125,0.085
0.080,-0.040,0.070
0.082,-0.010,0.055
0.084,0.065,0.040
0.086,0.190,0.030
0.088,0.165,0.025
0.090,0.020,0.025
0.092,-0.120,0.020
0.094,-0.110,0.020
0.096,-0.205,0.015
0.098,-0.160,0.010
0.100,-0.120,0.005
0.102,-0.040,-0.005
0.104,0.045,-0.015
0.106,0.065,-0.025
0.108,0.050,-0.030
0.110,0.005,-0.040
0.112,-0.175,-0.040
0.114,-0.205,-0.045
0.116,-0.200,-0.045
0.118,-0.220,-0.045
0.120,-0.130,-0.045
0.122,-0.005,-0.040
0.124,-0.010,-0.040
0.126,0.035,-0.045
0.128,-0.010,-0.045
0.130,-0.010,-0.050
0.132,-0.170,-0.050
0.134,-0.160,-0.055
0.136,-0.310,-0.060
0.138,-0.220,-0.065
0.140,-0.175,-0.070
0.142,-0.065,-0.075
0.144,-0.040,-0.080
0.146,0.025,-0.075
0.148,-0.030,-0.075
0.150,-0.065,-0.070
0.152,-0.205,-0.065
0.154,-0.205,-0.055
0.156,-0.235,-0.050
0.158,-0.175,-0.045
0.160,-0.145,-0.045
0.162,-0.060,-0.045
0.164,0.000,-0.045
0.166,0.000,-0.050
0.168,0.005,-0.055
0.170,-0.090,-0.060
0.172,-0.195,-0.065
0.174,-0.155,-0.065
0.176,-0.310,-0.065
0.178,-0.220,-0.060
0.180,-0.110,-0.055
0.182,-0.060,-0.050
0.184,0.005,-0.050
0.186,0.085,-0.045
0.188,-0.050,-0.040
0.190,0.025,-0.040
0.192,-0.165,-0.035
0.194,-0.200,-0.035
0.196,-0.315,-0.035
0.198,-0.185,-0.030
0.200,-0.100,-0.030
0.202,-0.020,-0.035
0.204,-0.020,-0.035
0.206,0.050,-0.040
0.208,-0.015,-0.050
0.210,-0.120,-0.060
0.212,-0.195,-0.065
0.214,-0.175,-0.075
0.216,-0.275,-0.075
0.218,-0.220,-0.075
0.220,-0.145,-0.070
0.222,-0.075,-0.055
0.224,0.015,-0.045
0.226,0.075,-0.030
0.228,0.020,-0.015
0.230,-0.070,-0.010
0.232,-0.170,-0.010
0.234,-0.160,-0.010
0.236,-0.240,-0.020
0.238,-0.210,-0.030
0.240,-0.105,-0.040
0.242,-0.020,-0.050
0.244,-0.065,-0.050
0.246,0.065,-0.050
0.248,0.025,-0.045
0.250,-0.115,-0.040
0.252,-0.195,-0.030
0.254,-0.080,-0.020
0.256,-0.245,-0.015
0.258,-0.180,-0.015
0.260,-0.080,-0.015
0.262,-0.005,-0.015
0.264,0.020,-0.020
0.266,0.065,-0.020
0.268,-0.020,-0.020
0.270,-0.110,-0.025
0.272,-0.230,-0.025
0.274,-0.120,-0.030
0.276,-0.230,-0.035
0.278,-0.230,-0.040
0.280,-0.155,-0.050
0.282,-0.050,-0.060
0.284,0.020,-0.065
0.286,0.085,-0.065
0.288,-0.090,-0.065
0.290,-0.090,-0.060
0.292,-0.200,-0.050
0.294,-0.220,-0.045
0.296,-0.240,-0.035
0.298,-0.155,-0.030
0.300,-0.165,-0.030
0.302,-0.085,-0.030
0.304,0.045,-0.035
0.306,0.055,-0.040
0.308,-0.005,-0.045
0.310,-0.090,-0.050
0.312,-0.175,-0.050
0.314,-0.235,-0.050
0.316,-0.245,-0.050
0.318,-0.225,-0.045
0.320,-0.110,-0.045
0.322,-0.070,-0.045
0.324,0.000,-0.045
0.326,0.080,-0.045
0.328,-0.030,-0.045
0.330,-0.120,-0.045
0.332,-0.145,-0.040
0.334,-0.215,-0.035
0.336,-0.225,-0.030
0.338,-0.270,-0.025
0.340,-0.100,-0.020
0.342,0.040,-0.015
0.344,0.055,-0.015
0.346,0.030,-0.020
0.348,0.080,-0.025
0.350,-0.135,-0.025
0.352,-0.210,-0.030
0.354,-0.170,-0.030
0.356,-0.250,-0.030
0.358,-0.215,-0.030
0.360,-0.130,-0.025
0.362,0.020,-0.020
0.364,0.055,-0.015
0.366,0.040,-0.010
0.368,0.035,-0.005
0.370,-0.065,-0.005
0.372,-0.125,0.000
0.374,-0.240,0.000
0.376,-0.185,0.000
0.378,-0.175,0.000
0.380,-0.110,0.000
0.382,0.005,0.000
0.384,0.065,-0.005
0.386,0.060,-0.010
0.388,-0.010,-0.020
0.390,-0.135,-0.030
0.392,-0.195,-0.040
0.394,-0.285,-0.050
0.396,-0.275,-0.055
0.398,-0.165,-0.055
0.400,-0.060,-0.055
0.402,0.015,-0.050
0.404,-0.010,-0.045
0.406,-0.080,-0.040
0.408,-0.040,-0.040
0.410,-0.125,-0.040
0.412,-0.185,-0.040
0.414,-0.250,-0.045
0.416,-0.315,-0.050
0.418,-0.150,-0.055
0.420,-0.050,-0.060
0.422,-0.045,-0.060
0.424,0.010,-0.055
0.426,0.040,-0.050
0.428,-0.065,-0.050
0.430,-0.170,-0.045
0.432,-0.245,-0.050
0.434,-0.315,-0.050
0.436,-0.195,-0.055
0.438,-0.205,-0.055
0.440,-0.120,-0.060
0.442,-0.065,-0.060
0.444,0.035,-0.060
0.446,0.005,-0.055
0.448,-0.090,-0.055
0.450,-0.160,-0.050
0.452,-0.225,-0.050
0.454,-0.235,-0.045
0.456,-0.210,-0.045
0.458,-0.185,-0.045
0.460,-0.095,-0.050
0.462,-0.010,-0.050
0.464,0.050,-0.045
0.466,0.005,-0.045
0.468,-0.095,-0.045
0.470,-0.165,-0.045
0.472,-0.250,-0.050
0.474,-0.310,-0.050
0.476,-0.185,-0.055
0.478,-0.235,-0.055
0.480,-0.055,-0.060
0.482,-0.035,-0.055
0.484,0.045,-0.050
0.486,-0.035,-0.045
0.488,-0.045,-0.035
0.490,-0.120,-0.030
0.492,-0.155,-0.020
0.494,-0.215,-0.020
0.496,-0.245,-0.020
0.498,-0.220,-0.025
0.500,-0.095,-0.030
0.502,-0.075,-0.035
0.504,0.145,-0.040
0.506,0.015,-0.045
0.508,-0.045,-0.040
0.510,-0.190,-0.025
0.512,-0.185,-0.010
0.514,-0.205,0.015
0.516,-0.115,0.040
0.518,-0.115,0.075
0.520,0.140,0.105
0.522,0.210,0.140
0.524,0.215,0.175
0.526,0.230,0.210
0.528,0.165,0.240
0.530,0.200,0.270
0.532,0.175,0.290
0.534,0.085,0.300
0.536,0.095,0.300
0.538,0.140,0.290
0.540,0.195,0.270
0.542,0.230,0.235
0.544,0.275,0.200
0.546,0.220,0.155
0.548,0.075,0.110
0.550,-0.065,0.065
0.552,-0.205,0.030
0.554,-0.285,-0.005
0.556,-0.205,-0.030
0.558,-0.140,-0.045
0.560,-0.025,-0.060
0.562,-0.030,-0.065
0.564,0.000,-0.065
0.566,-0.065,-0.060
0.568,-0.095,-0.055
0.570,-0.175,-0.045
0.572,-0.160,-0.040
0.574,-0.285,-0.030
0.576,-0.195,-0.030
0.578,-0.070,-0.025
0.580,-0.080,-0.030
0.582,-0.070,-0.035
0.584,0.030,-0.040
0.586,-0.035,-0.045
0.588,-0.090,-0.045
0.590,-0.120,-0.045
0.592,-0.185,-0.040
0.594,-0.320,-0.035
0.596,-0.265,-0.030
0.598,-0.050,-0.025
0.600,-0.050,-0.020
0.602,0.030,-0.020
0.604,0.060,-0.025
0.606,-0.025,-0.030
0.608,-0.130,-0.035
0.610,-0.175,-0.040
0.612,-0.170,-0.040
0.614,-0.260,-0.040
0.616,-0.215,-0.035
0.618,-0.190,-0.030
0.620,-0.020,-0.020
0.622,-0.010,-0.015
0.624,0.095,-0.010
0.626,0.015,-0.005
0.628,-0.095,-0.005
0.630,-0.150,-0.005
0.632,-0.185,-0.010
0.634,-0.200,-0.010
0.636,-0.200,-0.015
0.638,-0.135,-0.020
0.640,-0.065,-0.020
0.642,0.005,-0.020
0.644,0.020,-0.025
0.646,-0.005,-0.025
0.648,-0.085,-0.020
0.650,-0.090,-0.015
0.652,-0.195,-0.010
0.654,-0.270,-0.005
0.656,-0.200,-0.005
0.658,-0.175,-0.005
0.660,0.000,-0.010
0.662,0.065,-0.025
0.664,0.000,-0.050
0.666,-0.075,-0.075
0.668,-0.215,-0.110
0.670,-0.320,-0.145
0.672,-0.370,-0.175
0.674,-0.435,-0.200
0.676,-0.455,-0.215
0.678,-0.305,-0.220
0.680,-0.225,-0.210
0.682,-0.105,-0.195
0.684,-0.115,-0.170
0.686,-0.180,-0.145
0.688,-0.260,-0.120
0.690,-0.230,-0.100
0.692,-0.290,-0.085
0.694,-0.300,-0.080
0.696,-0.280,-0.080
0.698,-0.180,-0.080
0.700,-0.075,-0.085
0.702,-0.005,-0.085
0.704,0.010,-0.085
0.706,-0.075,-0.080
0.708,-0.190,-0.065
0.710,-0.240,-0.055
0.712,-0.265,-0.040
0.714,-0.285,-0.030
0.716,-0.105,-0.020
0.718,-0.075,-0.015
0.720,-0.050,-0.015
0.722,-0.035,-0.020
0.724,0.045,-0.020
0.726,-0.030,-0.020
0.728,-0.105,-0.020
0.730,-0.145,-0.010
0.732,-0.175,0.005
0.734,-0.155,0.020
0.736,-0.130,0.040
0.738,-0.020,0.060
0.740,0.120,0.070
0.742,0.090,0.080
0.744,0.120,0.085
0.746,0.065,0.080
0.748,-0.035,0.075
0.750,-0.100,0.065
0.752,-0.180,0.055
0.754,-0.160,0.045
0.756,-0.090,0.045
0.758,0.020,0.040
0.760,0.100,0.045
0.762,0.155,0.055
0.764,0.090,0.070
0.766,0.045,0.085
0.768,-0.005,0.100
0.770,-0.075,0.115
0.772,-0.160,0.130
0.774,-0.015,0.145
0.776,0.050,0.155
0.778,0.145,0.160
0.780,0.120,0.160
0.782,0.265,0.155
0.784,0.155,0.150
0.786,0.120,0.140
0.788,-0.045,0.130
0.790,0.010,0.125
0.792,-0.135,0.120
0.794,-0.100,0.115
0.796,0.000,0.110
0.798,0.070,0.110
0.800,0.110,0.110
0.802,0.180,0.110
0.804,0.110,0.105
0.806,0.030,0.105
0.808,-0.015,0.095
0.810,-0.040,0.090
0.812,-0.210,0.080
0.814,-0.085,0.070
0.816,-0.055,0.055
0.818,-0.025,0.045
0.820,0.025,0.035
0.822,0.115,0.025
0.824,0.025,0.015
0.826,-0.055,0.005
0.828,-0.130,0.000
0.830,-0.185,-0.005
0.832,-0.325,-0.005
0.834,-0.160,-0.005
0.836,-0.130,-0.005
0.838,-0.065,-0.005
0.840,-0.015,-0.005
0.842,0.090,-0.010
0.844,-0.025,-0.010
0.846,-0.085,-0.020
0.848,-0.215,-0.025
0.850,-0.210,-0.030
0.852,-0.275,-0.040
0.854,-0.170,-0.045
0.856,-0.140,-0.045
0.858,-0.130,-0.045
0.860,-0.115,-0.045
0.862,-0.030,-0.045
0.864,0.050,-0.045
0.866,-0.060,-0.045
0.868,-0.215,-0.045
0.870,-0.275,-0.045
0.872,-0.310,-0.045
0.874,-0.205,-0.045
0.876,-0.175,-0.040
0.878,-0.085,-0.040
0.880,-0.090,-0.040
0.882,0.120,-0.035
0.884,0.000,-0.035
0.886,-0.055,-0.040
0.888,-0.210,-0.040
0.890,-0.245,-0.045
0.892,-0.325,-0.055
0.894,-0.310,-0.060
0.896,-0.190,-0.065
0.898,-0.065,-0.070
0.900,-0.045,-0.070
0.902,0.030,-0.070
0.904,-0.005,-0.070
0.906,-0.180,-0.065
0.908,-0.240,-0.060
0.910,-0.275,-0.055
0.912,-0.250,-0.050
0.914,-0.165,-0.050
0.916,-0.165,-0.050
0.918,-0.105,-0.055
0.920,-0.035,-0.055
0.922,0.000,-0.060
0.924,0.000,-0.060
0.926,-0.165,-0.060
0.928,-0.225,-0.055
0.930,-0.200,-0.045
0.932,-0.260,-0.035
0.934,-0.215,-0.020
0.936,-0.065,-0.015
0.938,-0.025,-0.010
0.940,-0.035,-0.010
0.942,0.005,-0.020
0.944,-0.025,-0.030
0.946,-0.140,-0.040
0.948,-0.240,-0.055
0.950,-0.255,-0.060
0.952,-0.255,-0.065
0.954,-0.235,-0.060
0.956,-0.120,-0.050
0.958,-0.045,-0.035
0.960,-0.010,-0.025
0.962,0.040,-0.010
0.964,0.040,-0.005
0.966,-0.105,-0.005
0.968,-0.200,-0.015
0.970,-0.270,-0.025
0.972,-0.300,-0.035
0.974,-0.230,-0.050
0.976,-0.170,-0.060
0.978,-0.075,-0.065
0.980,-0.050,-0.060
0.982,0.025,-0.050
0.984,-0.045,-0.040
0.986,-0.145,-0.030
0.988,-0.260,-0.015
0.990,-0.170,-0.010
0.992,-0.200,-0.005
0.994,-0.220,-0.005
0.996,-0.165,-0.010
0.998,-0.030,-0.020
1.000,0.040,-0.030
1.002,-0.005,-0.035
1.004,-0.020,-0.035
1.006,-0.130,-0.035
1.008,-0.250,-0.030
1.010,-0.215,-0.025
1.012,-0.280,-0.020
1.014,-0.180,-0.015
1.016,-0.080,-0.015
1.018,-0.015,-0.015
1.020,0.015,-0.020
1.022,0.020,-0.030
1.024,-0.060,-0.040
1.026,-0.135,-0.045
1.028,-0.220,-0.050
1.030,-0.245,-0.055
1.032,-0.295,-0.050
1.034,-0.200,-0.045
1.036,-0.135,-0.040
1.038,-0.015,-0.030
1.040,-0.010,-0.020
1.042,0.020,-0.010
1.044,-0.005,-0.005
1.046,-0.070,0.000
1.048,-0.160,-0.005
1.050,-0.185,-0.005
1.052,-0.240,-0.010
1.054,-0.190,-0.020
1.056,-0.115,-0.025
1.058,-0.050,-0.030
1.060,0.000,-0.030
1.062,0.050,-0.025
1.064,-0.050,-0.020
1.066,-0.120,-0.015
1.068,-0.210,-0.005
1.070,-0.135,0.000
1.072,-0.230,0.000
1.074,-0.185,0.000
1.076,-0.075,-0.005
1.078,-0.035,-0.015
1.080,0.060,-0.025
1.082,-0.050,-0.030
1.084,-0.055,-0.040
1.086,-0.135,-0.045
1.088,-0.175,-0.045
1.090,-0.320,-0.045
1.092,-0.270,-0.050
1.094,-0.185,-0.050
1.096,-0.130,-0.050
1.098,-0.040,-0.050
1.100,0.030,-0.055
1.102,-0.045,-0.055
1.104,-0.115,-0.055
1.106,-0.150,-0.055
1.108,-0.260,-0.055
1.110,-0.300,-0.055
1.112,-0.245,-0.055
1.114,-0.190,-0.060
1.116,-0.095,-0.065
1.118,-0.075,-0.070
1.120,-0.025,-0.075
1.122,-0.115,-0.080
1.124,-0.100,-0.080
1.126,-0.160,-0.080
1.128,-0.275,-0.075
1.130,-0.320,-0.065
1.132,-0.200,-0.055
1.134,-0.185,-0.045
1.136,-0.135,-0.035
1.138,-0.045,-0.030
1.140,0.020,-0.030
1.142,-0.015,-0.035
1.144,-0.080,-0.040
1.146,-0.210,-0.045
1.148,-0.170,-0.050
1.150,-0.325,-0.055
1.152,-0.280,-0.055
1.154,-0.190,-0.055
1.156,-0.095,-0.050
1.158,-0.015,-0.045
1.160,0.015,-0.040
1.162,-0.085,-0.035
1.164,-0.035,-0.035
1.166,-0.155,-0.030
1.168,-0.225,-0.030
1.170,-0.295,-0.030
1.172,-0.275,-0.030
1.174,-0.225,-0.035
1.176,-0.080,-0.035
1.178,-0.010,-0.040
1.180,0.065,-0.040
1.182,0.010,-0.045
1.184,-0.150,-0.045
1.186,-0.215,-0.045
1.188,-0.220,-0.050
1.190,-0.300,-0.050
1.192,-0.225,-0.055
1.194,-0.195,-0.055
1.196,-0.135,-0.055
1.198,-0.140,-0.055
1.200,0.025,-0.055
1.202,-0.030,-0.055
1.204,-0.060,-0.055
1.206,-0.200,-0.050
1.208,-0.240,-0.040
1.210,-0.330,-0.030
1.212,-0.195,-0.015
1.214,-0.085,0.005
1.216,0.010,0.025
1.218,0.055,0.050
1.220,0.125,0.080
1.222,0.145,0.110
1.224,0.065,0.145
1.226,0.030,0.175
1.228,0.005,0.200
1.230,-0.030,0.220
1.232,0.080,0.235
1.234,0.120,0.240
1.236,0.305,0.240
1.238,0.195,0.230
1.240,0.170,0.215
1.242,0.180,0.195
1.244,0.120,0.165
1.246,-0.035,0.135
1.248,-0.045,0.105
1.250,-0.155,0.070
1.252,-0.145,0.040
1.254,-0.155,0.010
1.256,-0.130,-0.015
1.258,-0.090,-0.040
1.260,-0.010,-0.060
1.262,-0.065,-0.080
1.264,-0.180,-0.090
1.266,-0.245,-0.095
1.268,-0.285,-0.090
1.270,-0.340,-0.085
1.272,-0.240,-0.070
1.274,-0.140,-0.055
1.276,-0.035,-0.040
1.278,-0.020,-0.030
1.280,-0.050,-0.015
1.282,-0.015,-0.010
1.284,-0.095,-0.005
1.286,-0.170,-0.005
1.288,-0.190,-0.010
1.290,-0.260,-0.010
1.292,-0.220,-0.015
1.294,-0.155,-0.015
1.296,-0.035,-0.010
1.298,0.055,-0.010
1.300,-0.005,-0.005
1.302,0.020,-0.005
1.304,-0.055,-0.005
1.306,-0.190,-0.005
1.308,-0.230,-0.010
1.310,-0.295,-0.020
1.312,-0.220,-0.025
1.314,-0.125,-0.030
1.316,-0.015,-0.030
1.318,0.020,-0.030
1.320,0.060,-0.025
1.322,-0.025,-0.015
1.324,-0.120,-0.010
1.326,-0.225,-0.005
1.328,-0.210,0.000
1.330,-0.240,0.000
1.332,-0.175,-0.005
1.334,-0.140,-0.010
1.336,-0.060,-0.020
1.338,0.010,-0.020
1.340,0.065,-0.020
1.342,0.025,-0.015
1.344,-0.105,-0.010
1.346,-0.135,0.000
1.348,-0.245,0.010
1.350,-0.275,0.020
1.352,-0.190,0.025
1.354,-0.130,0.030
1.356,0.045,0.025
1.358,0.090,0.020
1.360,0.065,0.010
1.362,0.015,0.005
1.364,-0.135,0.000
1.366,-0.225,0.000
1.368,-0.215,0.005
1.370,-0.225,0.010
1.372,-0.180,0.015
1.374,-0.055,0.020
1.376,0.005,0.025
1.378,0.045,0.030
1.380,0.025,0.030
1.382,-0.030,0.030
1.384,-0.025,0.030
1.386,-0.160,0.030
1.388,-0.220,0.030
1.390,-0.220,0.035
1.392,-0.090,0.035
1.394,0.005,0.040
1.396,0.015,0.040
1.398,0.045,0.040
1.400,0.075,0.040
1.402,0.035,0.040
1.404,-0.030,0.040
1.406,-0.145,0.040
1.408,-0.240,0.040
1.410,-0.240,0.040
1.412,-0.100,0.045
1.414,-0.010,0.045
1.416,0.045,0.050
1.418,0.095,0.050
1.420,0.080,0.055
1.422,-0.045,0.060
1.424,-0.055,0.060
1.426,-0.080,0.065
1.428,-0.165,0.070
1.430,-0.105,0.080
1.432,-0.100,0.090
1.434,0.025,0.095
1.436,0.080,0.105
1.438,0.170,0.120
1.440,0.115,0.130
1.442,0.120,0.140
1.444,0.025,0.145
1.446,-0.020,0.155
1.448,-0.085,0.160
1.450,-0.035,0.165
1.452,0.000,0.170
1.454,0.120,0.170
1.456,0.150,0.170
1.458,0.210,0.165
1.460,0.160,0.160
1.462,0.070,0.150
1.464,0.055,0.145
1.466,-0.060,0.145
1.468,-0.165,0.145
1.470,-0.060,0.145
1.472,0.020,0.150
1.474,0.180,0.160
1.476,0.140,0.165
1.478,0.230,0.170
1.480,0.190,0.175
1.482,0.130,0.175
1.484,0.005,0.175
1.486,-0.090,0.170
1.488,-0.095,0.165
1.490,-0.060,0.160
1.492,0.040,0.155
1.494,0.140,0.155
1.496,0.130,0.155
1.498,0.205,0.155
1.500,0.180,0.155
1.502,0.100,0.155
1.504,-0.025,0.145
1.506,-0.075,0.135
1.508,-0.130,0.125
1.510,-0.100,0.110
1.512,-0.055,0.095
1.514,0.065,0.085
1.516,0.070,0.080
1.518,0.080,0.075
1.520,0.070,0.080
1.522,0.035,0.080
1.524,-0.005,0.085
1.526,-0.080,0.085
1.528,-0.190,0.080
1.530,-0.165,0.065
1.532,-0.095,0.050
1.534,0.000,0.030
1.536,-0.090,0.005
1.538,0.070,-0.010
1.540,-0.030,-0.025
1.542,-0.105,-0.030
1.544,-0.155,-0.035
1.546,-0.170,-0.030
1.548,-0.290,-0.025
1.550,-0.280,-0.025
1.552,-0.195,-0.020
1.554,-0.080,-0.020
1.556,-0.020,-0.020
1.558,0.080,-0.025
1.560,-0.025,-0.030
1.562,-0.105,-0.030
1.564,-0.170,-0.030
1.566,-0.205,-0.030
1.568,-0.350,-0.030
1.570,-0.235,-0.030
1.572,-0.160,-0.030
1.574,-0.065,-0.035
1.576,-0.050,-0.040
1.578,0.005,-0.050
1.580,-0.050,-0.055
1.582,-0.115,-0.060
1.584,-0.220,-0.060
1.586,-0.275,-0.060
1.588,-0.300,-0.060
1.590,-0.250,-0.055
1.592,-0.180,-0.050
1.594,-0.075,-0.050
1.596,-0.050,-0.045
1.598,-0.040,-0.045
1.600,-0.055,-0.045
1.602,-0.085,-0.045
1.604,-0.220,-0.040
1.606,-0.200,-0.040
1.608,-0.305,-0.035
1.610,-0.325,-0.030
1.612,-0.140,-0.025
1.614,0.035,-0.020
1.616,0.010,-0.020
1.618,-0.065,-0.025
1.620,-0.070,-0.030
1.622,-0.070,-0.035
1.624,-0.140,-0.040
1.626,-0.260,-0.045
1.628,-0.315,-0.045
1.630,-0.250,-0.045
1.632,-0.180,-0.040
1.634,-0.120,-0.035
1.636,-0.005,-0.030
1.638,0.085,-0.025
1.640,-0.035,-0.025
1.642,-0.130,-0.025
1.644,-0.190,-0.020
1.646,-0.215,-0.020
1.648,-0.265,-0.020
1.650,-0.230,-0.015
1.652,-0.115,-0.010
1.654,-0.045,-0.005
1.656,-0.030,-0.005
1.658,0.050,0.000
1.660,0.000,0.000
1.662,-0.130,-0.005
1.664,-0.170,-0.005
1.666,-0.250,-0.010
1.668,-0.245,-0.015
1.670,-0.190,-0.020
1.672,-0.095,-0.020
1.674,-0.050,-0.015
1.676,0.035,-0.015
1.678,-0.030,-0.010
1.680,-0.010,0.000
1.682,-0.075,0.005
1.684,-0.140,0.010
1.686,-0.225,0.015
1.688,-0.250,0.015
1.690,-0.185,0.015
1.692,-0.060,0.010
1.694,-0.005,0.000
1.696,-0.020,-0.010
1.698,-0.020,-0.020
1.700,-0.030,-0.025
1.702,-0.120,-0.030
1.704,-0.215,-0.030
1.706,-0.310,-0.025
1.708,-0.280,-0.015
1.710,-0.160,0.000
1.712,-0.095,0.010
1.714,-0.030,0.020
1.716,0.000,0.025
1.718,0.170,0.020
1.720,0.000,0.015
1.722,-0.225,0.005
1.724,-0.195,-0.010
1.726,-0.245,-0.020
1.728,-0.295,-0.030
1.730,-0.220,-0.035
1.732,-0.065,-0.030
1.734,-0.060,-0.025
1.736,-0.020,-0.020
1.738,0.095,-0.010
1.740,-0.040,0.000
1.742,-0.145,0.010
1.744,-0.195,0.015
1.746,-0.240,0.020
1.748,-0.235,0.025
1.750,-0.170,0.025
1.752,-0.040,0.030
1.754,0.045,0.030
1.756,0.080,0.035
1.758,0.050,0.035
1.760,-0.055,0.035
1.762,-0.095,0.030
1.764,-0.185,0.025
1.766,-0.265,0.020
1.768,-0.205,0.015
1.770,-0.115,0.010
1.772,-0.065,0.005
1.774,-0.065,0.000
1.776,0.055,0.000
1.778,0.015,0.005
1.780,-0.005,0.005
1.782,-0.150,0.005
1.784,-0.170,0.005
1.786,-0.285,0.005
1.788,-0.240,0.000
1.790,-0.220,-0.005
1.792,-0.050,-0.010
1.794,0.030,-0.015
1.796,0.015,-0.020
1.798,-0.045,-0.030
1.800,-0.125,-0.035
1.802,-0.180,-0.045
1.804,-0.275,-0.055
1.806,-0.310,-0.065
1.808,-0.240,-0.070
1.810,-0.295,-0.080
1.812,-0.150,-0.080
1.814,-0.060,-0.080
1.816,0.010,-0.075
1.818,-0.045,-0.065
1.820,-0.110,-0.060
1.822,-0.195,-0.050
1.824,-0.250,-0.045
1.826,-0.280,-0.050
1.828,-0.320,-0.050
1.830,-0.220,-0.060
1.832,-0.075,-0.070
1.834,-0.120,-0.075
1.836,-0.045,-0.080
1.838,-0.050,-0.080
1.840,-0.110,-0.075
1.842,-0.220,-0.070
1.844,-0.210,-0.060
1.846,-0.310,-0.055
1.848,-0.290,-0.050
1.850,-0.215,-0.050
1.852,-0.085,-0.055
1.854,-0.115,-0.060
1.856,-0.085,-0.070
1.858,-0.035,-0.085
1.860,-0.125,-0.090
1.862,-0.220,-0.095
1.864,-0.255,-0.095
1.866,-0.385,-0.090
1.868,-0.325,-0.085
1.870,-0.240,-0.075
1.872,-0.090,-0.060
1.874,-0.055,-0.055
1.876,-0.050,-0.050
1.878,0.005,-0.050
1.880,-0.130,-0.060
1.882,-0.220,-0.070
1.884,-0.270,-0.080
1.886,-0.360,-0.095
1.888,-0.325,-0.100
1.890,-0.230,-0.100
1.892,-0.125,-0.100
1.894,-0.135,-0.090
1.896,0.000,-0.075
1.898,-0.035,-0.065
1.900,-0.090,-0.055
1.902,-0.225,-0.050
1.904,-0.245,-0.045
1.906,-0.370,-0.050
1.908,-0.265,-0.055
1.910,-0.175,-0.060
1.912,-0.070,-0.060
1.914,-0.085,-0.055
1.916,0.040,-0.045
1.918,0.005,-0.025
1.920,-0.130,0.000
1.922,-0.180,0.025
1.924,-0.100,0.055
1.926,-0.175,0.085
1.928,-0.150,0.110
1.930,-0.030,0.135
1.932,0.160,0.165
1.934,0.190,0.195
1.936,0.225,0.225
1.938,0.355,0.250
1.940,0.240,0.275
1.942,0.170,0.290
1.944,0.035,0.295
1.946,-0.040,0.290
1.948,0.005,0.265
1.950,0.090,0.230
1.952,0.155,0.190
1.954,0.185,0.140
1.956,0.140,0.090
1.958,-0.010,0.045
1.960,-0.115,0.010
1.962,-0.215,-0.020
1.964,-0.320,-0.040
1.966,-0.400,-0.055
1.968,-0.250,-0.070
1.970,-0.235,-0.075
1.972,-0.065,-0.080
1.974,-0.035,-0.085
1.976,0.005,-0.090
1.978,-0.130,-0.090
1.980,-0.200,-0.085
1.982,-0.260,-0.075
1.984,-0.325,-0.070
1.986,-0.225,-0.060
1.988,-0.295,-0.050
1.990,-0.130,-0.045
1.992,-0.125,-0.045
1.994,-0.045,-0.045
1.996,0.015,-0.050
1.998,0.010,-0.050
2.000,-0.150,-0.050
2.002,-0.220,-0.050
2.004,-0.255,-0.045
2.006,-0.355,-0.040
2.008,-0.285,-0.040
2.010,-0.135,-0.035
2.012,-0.055,-0.035
2.014,0.015,-0.040
2.016,-0.055,-0.040
2.018,-0.080,-0.045
2.020,-0.085,-0.045
2.022,-0.235,-0.050
2.024,-0.335,-0.050
2.026,-0.320,-0.045
2.028,-0.225,-0.045
2.030,-0.145,-0.045
2.032,-0.060,-0.050
2.034,-0.025,-0.055
2.036,-0.050,-0.055
2.038,-0.090,-0.060
2.040,-0.200,-0.060
2.042,-0.230,-0.055
2.044,-0.275,-0.045
2.046,-0.280,-0.035
2.048,-0.295,-0.025
2.050,-0.055,-0.015
2.052,-0.030,-0.010
2.054,-0.010,-0.010
2.056,-0.005,-0.015
2.058,-0.110,-0.020
2.060,-0.180,-0.030
2.062,-0.260,-0.035
2.064,-0.300,-0.040
2.066,-0.330,-0.040
2.068,-0.190,-0.040
2.070,-0.125,-0.035
2.072,-0.005,-0.030
2.074,0.030,-0.025
2.076,-0.050,-0.025
2.078,-0.085,-0.020
2.080,-0.150,-0.020
2.082,-0.175,-0.020
2.084,-0.275,-0.015
2.086,-0.280,-0.010
2.088,-0.150,-0.005
2.090,-0.055,0.000
2.092,-0.075,0.005
2.094,0.055,0.010
2.096,0.050,0.010
2.098,-0.050,0.005
2.100,-0.165,0.005
2.102,-0.190,0.000
2.104,-0.305,-0.005
2.106,-0.305,-0.010
2.108,-0.155,-0.015
2.110,-0.065,-0.015
2.112,-0.065,-0.015
2.114,0.045,-0.015
2.116,-0.025,-0.015
2.118,-0.080,-0.010
2.120,-0.105,-0.005
2.122,-0.170,0.005
2.124,-0.225,0.015
2.126,-0.200,0.025
2.128,-0.145,0.040
2.130,-0.005,0.055
2.132,0.040,0.060
2.134,0.095,0.065
2.136,0.085,0.070
2.138,0.040,0.065
2.140,-0.095,0.060
2.142,-0.205,0.055
2.144,-0.240,0.050
2.146,-0.160,0.055
2.148,-0.055,0.065
2.150,0.060,0.075
2.152,0.105,0.090
2.154,0.115,0.110
2.156,0.095,0.120
2.158,0.070,0.135
2.160,-0.010,0.140
2.162,-0.130,0.135
2.164,-0.180,0.135
2.166,-0.030,0.130
2.168,-0.035,0.125
2.170,0.035,0.125
2.172,0.105,0.135
2.174,0.235,0.145
2.176,0.175,0.160
2.178,0.100,0.175
2.180,-0.040,0.190
2.182,0.045,0.200
2.184,-0.055,0.205
2.186,-0.050,0.205
2.188,0.050,0.200
2.190,0.105,0.185
2.192,0.130,0.175
2.194,0.215,0.165
2.196,0.150,0.155
2.198,0.055,0.150
2.200,-0.055,0.145
2.202,0.005,0.145
2.204,-0.155,0.145
2.206,-0.100,0.145
2.208,-0.025,0.140
2.210,0.045,0.135
2.212,0.085,0.125
2.214,0.215,0.115
2.216,0.090,0.105
2.218,0.025,0.095
2.220,-0.090,0.085
2.222,-0.140,0.075
2.224,-0.195,0.065
2.226,-0.140,0.060
2.228,-0.135,0.050
2.230,0.015,0.045
2.232,0.005,0.035
2.234,0.055,0.030
2.236,0.010,0.025
2.238,-0.105,0.020
2.240,-0.130,0.015
2.242,-0.195,0.010
2.244,-0.220,0.000
2.246,-0.190,-0.005
2.248,-0.240,-0.015
2.250,-0.080,-0.025
2.252,0.000,-0.030
2.254,0.035,-0.035
2.256,-0.085,-0.040
2.258,-0.125,-0.040
2.260,-0.170,-0.035
2.262,-0.205,-0.030
2.264,-0.295,-0.025
2.266,-0.290,-0.020
2.268,-0.145,-0.020
2.270,-0.110,-0.020
2.272,-0.080,-0.025
2.274,0.000,-0.035
2.276,-0.045,-0.040
2.278,-0.115,-0.040
2.280,-0.255,-0.040
2.282,-0.245,-0.040
2.284,-0.290,-0.035
2.286,-0.285,-0.030
2.288,-0.175,-0.030
2.290,-0.055,-0.030
2.292,-0.035,-0.040
2.294,-0.045,-0.050
2.296,-0.105,-0.060
2.298,-0.175,-0.065
2.300,-0.205,-0.070
2.302,-0.245,-0.065
2.304,-0.350,-0.060
2.306,-0.240,-0.045
2.308,-0.125,-0.035
2.310,-0.100,-0.025
2.312,-0.085,-0.015
2.314,0.015,-0.015
2.316,-0.010,-0.025
2.318,-0.175,-0.035
2.320,-0.280,-0.050
2.322,-0.265,-0.060
2.324,-0.345,-0.075
2.326,-0.240,-0.080
2.328,-0.220,-0.080
2.330,-0.140,-0.075
2.332,-0.065,-0.070
2.334,0.000,-0.060
2.336,-0.035,-0.050
2.338,-0.140,-0.045
2.340,-0.225,-0.040
2.342,-0.275,-0.035
2.344,-0.335,-0.035
2.346,-0.210,-0.035
2.348,-0.180,-0.040
2.350,-0.065,-0.040
2.352,-0.065,-0.040
2.354,-0.035,-0.040
2.356,-0.075,-0.040
2.358,-0.185,-0.040
2.360,-0.135,-0.040
2.362,-0.305,-0.035
2.364,-0.305,-0.035
2.366,-0.275,-0.025
2.368,-0.150,-0.020
2.370,-0.015,-0.015
2.372,0.025,-0.015
2.374,-0.010,-0.015
2.376,-0.100,-0.015
2.378,-0.195,-0.020
2.380,-0.165,-0.030
2.382,-0.285,-0.035
2.384,-0.365,-0.040
2.386,-0.260,-0.045
2.388,-0.130,-0.045
2.390,-0.050,-0.040
2.392,-0.010,-0.035
2.394,0.010,-0.025
2.396,-0.070,-0.020
2.398,-0.230,-0.015
2.400,-0.190,-0.015
2.402,-0.310,-0.015
2.404,-0.300,-0.020
2.406,-0.200,-0.030
2.408,-0.085,-0.035
2.410,-0.080,-0.035
2.412,-0.050,-0.035
2.414,0.010,-0.035
2.416,-0.080,-0.025
2.418,-0.155,-0.020
2.420,-0.195,-0.010
2.422,-0.300,-0.005
2.424,-0.255,0.000
2.426,-0.185,0.000
2.428,-0.115,-0.005
2.430,-0.060,-0.010
2.432,0.010,-0.025
2.434,-0.015,-0.035
2.436,-0.155,-0.050
2.438,-0.200,-0.060
2.440,-0.230,-0.065
2.442,-0.365,-0.070
2.444,-0.280,-0.070
2.446,-0.205,-0.065
2.448,-0.195,-0.060
2.450,-0.105,-0.050
2.452,0.040,-0.045
2.454,-0.035,-0.040
2.456,-0.115,-0.040
2.458,-0.245,-0.040
2.460,-0.295,-0.045
2.462,-0.300,-0.045
2.464,-0.255,-0.050
2.466,-0.220,-0.055
2.468,-0.205,-0.060
2.470,-0.070,-0.060
2.472,-0.015,-0.060
2.474,-0.050,-0.055
2.476,-0.110,-0.055
2.478,-0.245,-0.050
2.480,-0.240,-0.045
2.482,-0.340,-0.045
2.484,-0.295,-0.040
2.486,-0.170,-0.040
2.488,-0.120,-0.040
2.490,-0.065,-0.045
2.492,-0.020,-0.045
2.494,-0.085,-0.050
2.496,-0.145,-0.050
2.498,-0.215,-0.050
2.500,-0.225,-0.045
2.502,-0.325,-0.040
2.504,-0.200,-0.025
2.506,-0.135,-0.015
2.508,-0.065,-0.005
2.510,-0.050,0.005
2.512,0.005,0.005
2.514,-0.035,0.005
2.516,-0.085,-0.005
2.518,-0.185,-0.020
2.520,-0.245,-0.040
2.522,-0.355,-0.060
2.524,-0.320,-0.075
2.526,-0.270,-0.090
2.528,-0.150,-0.095
2.530,-0.145,-0.100
2.532,-0.050,-0.095
2.534,-0.120,-0.090
2.536,-0.180,-0.085
2.538,-0.225,-0.080
2.540,-0.255,-0.075
2.542,-0.355,-0.075
2.544,-0.305,-0.075
2.546,-0.215,-0.075
2.548,-0.130,-0.075
2.550,-0.110,-0.075
2.552,-0.055,-0.075
2.554,-0.095,-0.070
2.556,-0.160,-0.070
2.558,-0.255,-0.065
2.560,-0.285,-0.065
2.562,-0.380,-0.070
2.564,-0.255,-0.070
2.566,-0.240,-0.075
2.568,-0.145,-0.075
2.570,-0.095,-0.075
2.572,-0.040,-0.075
2.574,-0.075,-0.070
2.576,-0.140,-0.070
2.578,-0.260,-0.065
2.580,-0.355,-0.065
2.582,-0.325,-0.065
2.584,-0.315,-0.065
2.586,-0.155,-0.070
2.588,-0.180,-0.075
2.590,-0.095,-0.075
2.592,-0.075,-0.075
2.594,-0.120,-0.070
2.596,-0.200,-0.065
2.598,-0.230,-0.060
2.600,-0.265,-0.050
2.602,-0.260,-0.045
2.604,-0.265,-0.045
2.606,-0.190,-0.045
2.608,-0.080,-0.050
2.610,-0.090,-0.055
2.612,-0.035,-0.060
2.614,-0.155,-0.065
2.616,-0.170,-0.065
2.618,-0.225,-0.065
2.620,-0.260,-0.060
2.622,-0.330,-0.055
2.624,-0.295,-0.050
2.626,-0.160,-0.040
2.628,-0.110,-0.040
2.630,-0.095,-0.040
2.632,-0.105,-0.040
2.634,-0.070,-0.050
2.636,-0.170,-0.055
2.638,-0.255,-0.060
2.640,-0.275,-0.065
2.642,-0.350,-0.065
2.644,-0.285,-0.060
2.646,-0.140,-0.050
2.648,-0.080,-0.040
2.650,-0.045,-0.025
2.652,-0.035,-0.010
2.654,-0.090,0.015
2.656,-0.075,0.035
2.658,-0.005,0.065
2.660,-0.170,0.100
2.662,-0.215,0.140
2.664,-0.070,0.180
2.666,0.110,0.220
2.668,0.265,0.260
2.670,0.310,0.290
2.672,0.365,0.310
2.674,0.305,0.320
2.676,0.125,0.315
2.678,0.060,0.295
2.680,0.000,0.270
2.682,-0.055,0.230
2.684,0.015,0.190
2.686,0.010,0.150
2.688,0.070,0.110
2.690,0.050,0.075
2.692,0.015,0.040
2.694,-0.080,0.010
2.696,-0.200,-0.015
2.698,-0.315,-0.035
2.700,-0.300,-0.050
2.702,-0.320,-0.060
2.704,-0.220,-0.065
2.706,-0.190,-0.065
2.708,-0.080,-0.060
2.710,-0.075,-0.050
2.712,-0.020,-0.040
2.714,-0.115,-0.030
2.716,-0.205,-0.025
2.718,-0.235,-0.025
2.720,-0.250,-0.025
2.722,-0.270,-0.035
2.724,-0.250,-0.040
2.726,-0.190,-0.050
2.728,-0.110,-0.055
2.730,-0.050,-0.060
2.732,-0.045,-0.055
2.734,-0.120,-0.045
2.736,-0.205,-0.035
2.738,-0.250,-0.025
2.740,-0.295,-0.015
2.742,-0.290,-0.010
2.744,-0.185,-0.010
2.746,-0.120,-0.010
2.748,-0.130,-0.020
2.750,0.010,-0.025
2.752,-0.025,-0.030
2.754,-0.130,-0.040
2.756,-0.220,-0.040
2.758,-0.280,-0.040
2.760,-0.295,-0.040
2.762,-0.310,-0.035
2.764,-0.265,-0.035
2.766,-0.100,-0.035
2.768,-0.065,-0.030
2.770,-0.010,-0.035
2.772,-0.015,-0.035
2.774,-0.165,-0.030
2.776,-0.175,-0.030
2.778,-0.230,-0.030
2.780,-0.335,-0.025
2.782,-0.255,-0.020
2.784,-0.185,-0.020
2.786,-0.065,-0.020
2.788,-0.070,-0.025
2.790,-0.035,-0.025
2.792,-0.050,-0.030
2.794,-0.100,-0.035
2.796,-0.195,-0.035
2.798,-0.265,-0.035
2.800,-0.340,-0.030
2.802,-0.280,-0.025
2.804,-0.170,-0.020
2.806,-0.105,-0.015
2.808,-0.085,-0.010
2.810,-0.005,-0.010
2.812,-0.050,-0.010
2.814,-0.135,-0.010
2.816,-0.210,-0.010
2.818,-0.185,-0.010
2.820,-0.275,-0.010
2.822,-0.205,-0.015
2.824,-0.185,-0.015
2.826,-0.185,-0.015
2.828,-0.085,-0.015
2.830,-0.060,-0.015
2.832,-0.035,-0.020
2.834,-0.115,-0.020
2.836,-0.170,-0.015
2.838,-0.215,-0.010
2.840,-0.230,-0.005
2.842,-0.170,0.005
2.844,-0.165,0.015
2.846,-0.130,0.020
2.848,-0.055,0.030
2.850,0.005,0.030
2.852,-0.025,0.030
2.854,-0.075,0.030
2.856,-0.175,0.025
2.858,-0.170,0.020
2.860,-0.240,0.020
2.862,-0.245,0.025
2.864,-0.130,0.030
2.866,-0.070,0.035
2.868,0.050,0.045
2.870,0.080,0.060
2.872,0.000,0.065
2.874,-0.025,0.075
2.876,-0.115,0.080
2.878,-0.145,0.085
2.880,-0.195,0.085
2.882,-0.135,0.090
2.884,-0.070,0.090
2.886,-0.010,0.095
2.888,0.050,0.105
2.890,0.120,0.110
2.892,0.115,0.125
2.894,0.050,0.135
2.896,-0.020,0.145
2.898,-0.040,0.150
2.900,-0.170,0.155
2.902,-0.095,0.155
2.904,-0.065,0.155
2.906,0.025,0.155
2.908,0.105,0.150
2.910,0.290,0.150
2.912,0.145,0.150
2.914,0.025,0.150
2.916,-0.065,0.150
2.918,-0.115,0.155
2.920,-0.180,0.160
2.922,-0.070,0.165
2.924,0.005,0.165
2.926,0.160,0.165
2.928,0.090,0.165
2.930,0.195,0.160
2.932,0.200,0.155
2.934,0.045,0.150
2.936,-0.115,0.145
2.938,-0.145,0.140
2.940,-0.240,0.135
2.942,-0.110,0.130
2.944,-0.035,0.125
2.946,0.030,0.115
2.948,0.080,0.110
2.950,0.130,0.105
2.952,0.075,0.100
2.954,-0.080,0.090
2.956,-0.080,0.085
2.958,-0.215,0.080
2.960,-0.225,0.070
2.962,-0.190,0.065
2.964,-0.145,0.055
2.966,-0.045,0.045
2.968,0.005,0.040
2.970,0.075,0.030
2.972,0.010,0.025
2.974,-0.135,0.025
2.976,-0.225,0.020
2.978,-0.190,0.020
2.980,-0.320,0.025
2.982,-0.180,0.025
2.984,-0.125,0.020
2.986,-0.110,0.020
2.988,-0.065,0.010
2.990,0.040,0.005
2.992,-0.065,-0.005
2.994,-0.195,-0.015
2.996,-0.220,-0.020
2.998,-0.285,-0.020
3.000,-0.275,-0.020
3.002,-0.210,-0.015
3.004,-0.155,-0.010
3.006,-0.120,-0.005
3.008,-0.095,-0.005
3.010,-0.010,-0.005
3.012,-0.120,-0.015
3.014,-0.185,-0.025
3.016,-0.265,-0.040
3.018,-0.290,-0.050
3.020,-0.275,-0.060
3.022,-0.300,-0.065
3.024,-0.205,-0.065
3.026,-0.130,-0.060
3.028,-0.080,-0.050
3.030,-0.025,-0.040
3.032,-0.105,-0.030
3.034,-0.195,-0.020
3.036,-0.240,-0.020
3.038,-0.310,-0.025
3.040,-0.350,-0.030
3.042,-0.270,-0.040
3.044,-0.150,-0.045
3.046,-0.110,-0.050
3.048,-0.085,-0.045
3.050,-0.040,-0.040
3.052,-0.080,-0.035
3.054,-0.200,-0.025
3.056,-0.295,-0.020
3.058,-0.300,-0.015
3.060,-0.275,-0.015
3.062,-0.180,-0.020
3.064,-0.180,-0.030
3.066,-0.115,-0.035
3.068,-0.050,-0.040
3.070,-0.095,-0.045
3.072,-0.070,-0.045
3.074,-0.235,-0.040
3.076,-0.340,-0.035
3.078,-0.395,-0.025
3.080,-0.275,-0.020
3.082,-0.140,-0.020
3.084,-0.150,-0.020
3.086,-0.125,-0.020
3.088,0.030,-0.025
3.090,-0.055,-0.025
3.092,-0.135,-0.025
3.094,-0.190,-0.025
3.096,-0.285,-0.025
3.098,-0.315,-0.020
3.100,-0.300,-0.020
3.102,-0.240,-0.020
3.104,-0.145,-0.020
3.106,-0.085,-0.025
3.108,-0.025,-0.025
3.110,-0.040,-0.030
3.112,-0.140,-0.030
3.114,-0.270,-0.035
3.116,-0.290,-0.030
3.118,-0.305,-0.030
3.120,-0.260,-0.030
3.122,-0.235,-0.030
3.124,-0.150,-0.030
3.126,-0.085,-0.030
3.128,-0.040,-0.035
3.130,-0.070,-0.035
3.132,-0.140,-0.035
3.134,-0.170,-0.035
3.136,-0.235,-0.030
3.138,-0.375,-0.030
3.140,-0.330,-0.025
3.142,-0.165,-0.030
3.144,-0.150,-0.030
3.146,-0.115,-0.035
3.148,-0.075,-0.040
3.150,-0.015,-0.040
3.152,-0.135,-0.045
3.154,-0.310,-0.045
3.156,-0.295,-0.040
3.158,-0.340,-0.035
3.160,-0.325,-0.030
3.162,-0.230,-0.025
3.164,-0.100,-0.020
3.166,-0.095,-0.020
3.168,0.055,-0.020
3.170,-0.050,-0.025
3.172,-0.110,-0.030
3.174,-0.320,-0.040
3.176,-0.300,-0.045
3.178,-0.380,-0.045
3.180,-0.330,-0.045
3.182,-0.270,-0.045
3.184,-0.055,-0.040
3.186,-0.095,-0.040
3.188,-0.075,-0.040
3.190,-0.110,-0.040
3.192,-0.140,-0.040
3.194,-0.265,-0.040
3.196,-0.315,-0.040
3.198,-0.360,-0.040
3.200,-0.315,-0.040
3.202,-0.160,-0.040
3.204,-0.095,-0.035
3.206,-0.100,-0.040
3.208,-0.070,-0.040
3.210,-0.095,-0.040
3.212,-0.145,-0.045
3.214,-0.265,-0.045
3.216,-0.310,-0.045
3.218,-0.350,-0.045
3.220,-0.300,-0.040
3.222,-0.190,-0.035
3.224,-0.120,-0.030
3.226,-0.060,-0.025
3.228,-0.040,-0.025
3.230,-0.125,-0.030
3.232,-0.210,-0.035
3.234,-0.255,-0.040
3.236,-0.320,-0.045
3.238,-0.380,-0.050
3.240,-0.305,-0.050
3.242,-0.170,-0.040
3.244,-0.080,-0.030
3.246,-0.015,-0.020
3.248,-0.025,-0.005
3.250,-0.070,0.005
3.252,-0.095,0.010
3.254,-0.220,0.010
3.256,-0.275,0.005
3.258,-0.350,-0.005
3.260,-0.285,-0.015
3.262,-0.165,-0.025
3.264,-0.080,-0.030
3.266,-0.080,-0.030
3.268,-0.025,-0.025
3.270,-0.115,-0.020
3.272,-0.160,-0.005
3.274,-0.185,0.005
3.276,-0.265,0.015
3.278,-0.315,0.020
3.280,-0.275,0.025
3.282,-0.110,0.025
3.284,-0.045,0.020
3.286,-0.125,0.015
3.288,0.045,0.010
3.290,-0.040,0.000
3.292,-0.160,-0.005
3.294,-0.250,-0.015
3.296,-0.285,-0.020
3.298,-0.290,-0.030
3.300,-0.335,-0.035
3.302,-0.250,-0.040
3.304,-0.105,-0.040
3.306,-0.065,-0.045
3.308,-0.050,-0.040
3.310,-0.095,-0.040
3.312,-0.205,-0.035
3.314,-0.240,-0.030
3.316,-0.290,-0.025
3.318,-0.370,-0.025
3.320,-0.265,-0.030
3.322,-0.200,-0.035
3.324,-0.120,-0.040
3.326,-0.115,-0.050
3.328,-0.080,-0.055
3.330,-0.110,-0.065
3.332,-0.225,-0.070
3.334,-0.300,-0.070
3.336,-0.330,-0.070
3.338,-0.355,-0.065
3.340,-0.305,-0.060
3.342,-0.180,-0.055
3.344,-0.140,-0.050
3.346,-0.095,-0.045
3.348,-0.065,-0.045
3.350,-0.125,-0.045
3.352,-0.205,-0.050
3.354,-0.300,-0.050
3.356,-0.360,-0.055
3.358,-0.430,-0.060
3.360,-0.295,-0.060
3.362,-0.240,-0.060
3.364,-0.165,-0.060
3.366,-0.020,-0.055
3.368,-0.065,-0.050
3.370,-0.075,-0.040
3.372,-0.205,-0.035
3.374,-0.290,-0.030
3.376,-0.305,-0.030
3.378,-0.365,-0.030
3.380,-0.220,-0.035
3.382,-0.195,-0.040
3.384,-0.185,-0.050
3.386,-0.080,-0.060
3.388,-0.075,-0.065
3.390,-0.175,-0.070
3.392,-0.280,-0.070
3.394,-0.320,-0.065
3.396,-0.300,-0.055
3.398,-0.310,-0.045
3.400,-0.330,-0.035
3.402,-0.140,-0.030
3.404,-0.100,-0.025
3.406,-0.055,-0.025
3.408,-0.060,-0.025
3.410,-0.080,-0.030
3.412,-0.225,-0.040
3.414,-0.345,-0.045
3.416,-0.400,-0.050
3.418,-0.330,-0.050
3.420,-0.245,-0.045
3.422,-0.080,-0.035
3.424,-0.165,-0.015
3.426,0.025,0.005
3.428,0.015,0.030
3.430,-0.005,0.060
3.432,-0.110,0.090
3.434,-0.105,0.125
3.436,-0.195,0.160
3.438,-0.115,0.195
3.440,0.015,0.230
3.442,0.170,0.260
3.444,0.245,0.280
3.446,0.345,0.295
3.448,0.270,0.295
3.450,0.165,0.285
3.452,0.060,0.265
3.454,-0.065,0.235
3.456,-0.130,0.195
3.458,-0.095,0.150
3.460,-0.145,0.105
3.462,-0.120,0.060
3.464,0.010,0.025
3.466,0.025,-0.010
3.468,-0.130,-0.030
3.470,-0.225,-0.045
3.472,-0.210,-0.050
3.474,-0.290,-0.045
3.476,-0.365,-0.045
3.478,-0.295,-0.035
3.480,-0.230,-0.030
3.482,-0.190,-0.025
3.484,-0.140,-0.025
3.486,-0.005,-0.025
3.488,-0.070,-0.030
3.490,-0.180,-0.035
3.492,-0.270,-0.035
3.494,-0.290,-0.040
3.496,-0.325,-0.040
3.498,-0.295,-0.040
3.500,-0.215,-0.035
3.502,-0.165,-0.030
3.504,-0.115,-0.030
3.506,-0.035,-0.025
3.508,-0.090,-0.030
3.510,-0.115,-0.030
3.512,-0.270,-0.035
3.514,-0.265,-0.040
3.516,-0.350,-0.045
3.518,-0.400,-0.050
3.520,-0.275,-0.055
3.522,-0.110,-0.055
3.524,-0.090,-0.050
3.526,0.000,-0.045
3.528,-0.145,-0.040
3.530,-0.150,-0.030
3.532,-0.190,-0.025
3.534,-0.295,-0.025
3.536,-0.385,-0.020
3.538,-0.325,-0.020
3.540,-0.155,-0.015
3.542,-0.075,-0.015
3.544,-0.110,-0.010
3.546,-0.030,-0.010
3.548,-0.060,-0.005
3.550,-0.120,-0.005
3.552,-0.210,-0.005
3.554,-0.255,-0.005
3.556,-0.340,-0.010
3.558,-0.290,-0.015
3.560,-0.165,-0.020
3.562,-0.150,-0.025
3.564,-0.090,-0.030
3.566,-0.045,-0.025
3.568,-0.070,-0.020
3.570,-0.085,-0.010
3.572,-0.245,-0.005
3.574,-0.255,0.000
3.576,-0.305,0.005
3.578,-0.285,0.005
3.580,-0.190,0.000
3.582,-0.080,-0.005
3.584,-0.080,-0.010
3.586,-0.050,-0.015
3.588,-0.085,-0.015
3.590,-0.135,-0.010
3.592,-0.260,0.000
3.594,-0.270,0.010
3.596,-0.290,0.015
3.598,-0.175,0.020
3.600,-0.160,0.025
3.602,-0.030,0.020
3.604,-0.060,0.015
3.606,-0.085,0.010
3.608,-0.045,0.005
3.610,-0.145,0.000
3.612,-0.250,0.005
3.614,-0.265,0.010
3.616,-0.290,0.020
3.618,-0.180,0.030
3.620,-0.100,0.040
3.622,-0.080,0.045
3.624,-0.025,0.045
3.626,-0.010,0.045
3.628,-0.010,0.040
3.630,-0.070,0.035
3.632,-0.185,0.035
3.634,-0.185,0.035
3.636,-0.310,0.040
3.638,-0.245,0.045
3.640,-0.080,0.055
3.642,0.045,0.065
3.644,-0.010,0.070
3.646,0.060,0.075
3.648,0.045,0.080
3.650,-0.065,0.075
3.652,-0.150,0.075
3.654,-0.195,0.075
3.656,-0.230,0.080
3.658,-0.155,0.085
3.660,-0.060,0.095
3.662,0.030,0.110
3.664,0.075,0.130
3.666,0.175,0.145
3.668,0.075,0.160
3.670,-0.020,0.170
3.672,-0.065,0.180
3.674,-0.055,0.180
3.676,-0.075,0.180
3.678,-0.110,0.170
3.680,-0.045,0.160
3.682,0.025,0.150
3.684,0.065,0.140
3.686,0.120,0.130
3.688,0.040,0.125
3.690,-0.010,0.120
3.692,-0.050,0.125
3.694,-0.130,0.125
3.696,-0.145,0.135
3.698,-0.100,0.145
3.700,-0.030,0.150
3.702,0.115,0.160
3.704,0.145,0.165
3.706,0.120,0.165
3.708,0.010,0.165
3.710,0.005,0.160
3.712,-0.090,0.155
3.714,-0.165,0.145
3.716,-0.135,0.135
3.718,-0.055,0.125
3.720,0.000,0.115
3.722,0.000,0.100
3.724,0.050,0.090
3.726,0.060,0.080
3.728,-0.035,0.065
3.730,-0.155,0.055
3.732,-0.215,0.040
3.734,-0.280,0.030
3.736,-0.280,0.020
3.738,-0.180,0.015
3.740,-0.125,0.015
3.742,-0.025,0.015
3.744,-0.025,0.020
3.746,-0.005,0.020
3.748,-0.065,0.020
3.750,-0.180,0.015
3.752,-0.285,0.010
3.754,-0.345,0.000
3.756,-0.345,-0.015
3.758,-0.225,-0.025
3.760,-0.170,-0.035
3.762,-0.065,-0.035
3.764,0.005,-0.035
3.766,-0.035,-0.030
3.768,-0.105,-0.025
3.770,-0.250,-0.020
3.772,-0.280,-0.020
3.774,-0.360,-0.025
3.776,-0.405,-0.030
3.778,-0.240,-0.035
3.780,-0.080,-0.045
3.782,-0.120,-0.050
3.784,-0.035,-0.050
3.786,-0.025,-0.040
3.788,-0.110,-0.030
3.790,-0.295,-0.020
3.792,-0.220,-0.010
3.794,-0.375,-0.005
3.796,-0.295,-0.010
3.798,-0.205,-0.015
3.800,-0.215,-0.030
3.802,-0.150,-0.045
3.804,-0.010,-0.055
3.806,-0.080,-0.060
3.808,-0.115,-0.060
3.810,-0.195,-0.050
3.812,-0.305,-0.035
3.814,-0.340,-0.020
3.816,-0.285,-0.010
3.818,-0.265,-0.005
3.820,-0.170,-0.010
3.822,-0.075,-0.020
3.824,-0.030,-0.035
3.826,-0.140,-0.050
3.828,-0.145,-0.060
3.830,-0.240,-0.065
3.832,-0.315,-0.065
3.834,-0.380,-0.055
3.836,-0.325,-0.045
3.838,-0.225,-0.035
3.840,-0.085,-0.025
3.842,-0.095,-0.020
3.844,0.015,-0.020
3.846,-0.120,-0.025
3.848,-0.140,-0.035
3.850,-0.210,-0.040
3.852,-0.275,-0.040
3.854,-0.315,-0.040
3.856,-0.375,-0.035
3.858,-0.235,-0.025
3.860,-0.105,-0.020
3.862,-0.075,-0.015
3.864,-0.005,-0.010
3.866,-0.015,-0.010
3.868,-0.175,-0.015
3.870,-0.235,-0.015
3.872,-0.270,-0.020
3.874,-0.330,-0.020
3.876,-0.240,-0.020
3.878,-0.200,-0.020
3.880,-0.110,-0.020
3.882,-0.140,-0.020
3.884,-0.025,-0.020
3.886,-0.095,-0.020
3.888,-0.165,-0.020
3.890,-0.205,-0.025
3.892,-0.235,-0.030
3.894,-0.310,-0.030
3.896,-0.285,-0.035
3.898,-0.205,-0.035
3.900,-0.190,-0.035
3.902,-0.105,-0.035
3.904,0.000,-0.035
3.906,-0.055,-0.035
3.908,-0.185,-0.030
3.910,-0.280,-0.030
3.912,-0.335,-0.030
3.914,-0.295,-0.025
3.916,-0.240,-0.025
3.918,-0.165,-0.020
3.920,-0.060,-0.015
3.922,-0.125,-0.015
3.924,-0.020,-0.015
3.926,-0.075,-0.015
3.928,-0.140,-0.020
3.930,-0.225,-0.030
3.932,-0.380,-0.040
3.934,-0.355,-0.050
3.936,-0.340,-0.060
3.938,-0.205,-0.060
3.940,-0.115,-0.060
3.942,-0.140,-0.055
3.944,-0.085,-0.050
3.946,-0.035,-0.035
3.948,-0.165,-0.025
3.950,-0.220,-0.020
3.952,-0.260,-0.015
3.954,-0.315,-0.015
3.956,-0.285,-0.020
3.958,-0.275,-0.030
3.960,-0.145,-0.040
3.962,-0.080,-0.055
3.964,-0.045,-0.065
3.966,-0.110,-0.070
3.968,-0.250,-0.070
3.970,-0.285,-0.070
3.972,-0.335,-0.060
3.974,-0.285,-0.055
3.976,-0.285,-0.045
3.978,-0.190,-0.040
3.980,-0.155,-0.035
3.982,-0.115,-0.040
3.984,-0.090,-0.040
3.986,-0.110,-0.045
3.988,-0.120,-0.050
3.990,-0.265,-0.050
3.992,-0.270,-0.040
3.994,-0.310,-0.030
3.996,-0.255,-0.015
3.998,-0.190,0.000
4.000,-0.065,0.010
4.002,-0.035,0.015
4.004,-0.030,0.010
4.006,-0.070,0.000
4.008,-0.195,-0.015
4.010,-0.270,-0.035
4.012,-0.295,-0.050
4.014,-0.390,-0.060
4.016,-0.320,-0.060
4.018,-0.165,-0.050
4.020,-0.050,-0.035
4.022,-0.020,-0.015
4.024,-0.055,0.005
4.026,-0.060,0.020
4.028,-0.165,0.025
4.030,-0.145,0.025
4.032,-0.320,0.010
4.034,-0.305,-0.005
4.036,-0.320,-0.020
4.038,-0.145,-0.040
4.040,-0.100,-0.050
4.042,-0.095,-0.055
4.044,-0.040,-0.055
4.046,-0.145,-0.050
4.048,-0.220,-0.045
4.050,-0.315,-0.040
4.052,-0.315,-0.040
4.054,-0.275,-0.045
4.056,-0.240,-0.050
4.058,-0.240,-0.055
4.060,-0.140,-0.065
4.062,-0.075,-0.070
4.064,-0.085,-0.075
4.066,-0.110,-0.075
4.068,-0.245,-0.065
4.070,-0.255,-0.060
4.072,-0.365,-0.050
4.074,-0.330,-0.040
4.076,-0.280,-0.030
4.078,-0.180,-0.030
4.080,-0.100,-0.030
4.082,0.005,-0.035
4.084,-0.055,-0.045
4.086,-0.195,-0.055
4.088,-0.255,-0.065
4.090,-0.265,-0.075
4.092,-0.325,-0.075
4.094,-0.370,-0.075
4.096,-0.315,-0.070
4.098,-0.205,-0.060
4.100,-0.185,-0.050
4.102,0.000,-0.040
4.104,-0.030,-0.030
4.106,-0.090,-0.030
4.108,-0.205,-0.030
4.110,-0.285,-0.030
4.112,-0.375,-0.035
4.114,-0.335,-0.040
4.116,-0.230,-0.050
4.118,-0.155,-0.055
4.120,-0.125,-0.055
4.122,-0.060,-0.060
4.124,-0.100,-0.060
4.126,-0.175,-0.060
4.128,-0.240,-0.060
4.130,-0.300,-0.060
4.132,-0.380,-0.060
4.134,-0.300,-0.055
4.136,-0.210,-0.050
4.138,-0.190,-0.050
4.140,-0.090,-0.045
4.142,-0.005,-0.045
4.144,-0.060,-0.040
4.146,-0.105,-0.045
4.148,-0.325,-0.045
4.150,-0.310,-0.050
4.152,-0.370,-0.050
4.154,-0.285,-0.050
4.156,-0.200,-0.050
4.158,-0.130,-0.050
4.160,-0.150,-0.045
4.162,-0.060,-0.040
4.164,-0.040,-0.040
4.166,-0.180,-0.035
4.168,-0.160,-0.035
4.170,-0.215,-0.030
4.172,-0.385,-0.025
4.174,-0.335,-0.015
4.176,-0.175,-0.005
4.178,-0.105,0.015
4.180,0.050,0.040
4.182,0.095,0.070
4.184,0.090,0.100
4.186,0.035,0.125
4.188,-0.070,0.155
4.190,-0.065,0.175
4.192,-0.090,0.195
4.194,-0.020,0.205
4.196,0.070,0.210
4.198,0.110,0.210
4.200,0.125,0.200
4.202,0.175,0.185
4.204,0.110,0.160
4.206,0.040,0.130
4.208,-0.125,0.090
4.210,-0.200,0.045
4.212,-0.320,0.005
4.214,-0.280,-0.040
4.216,-0.300,-0.070
4.218,-0.240,-0.095
4.220,-0.195,-0.110
4.222,-0.095,-0.110
4.224,-0.120,-0.100
4.226,-0.190,-0.085
4.228,-0.300,-0.065
4.230,-0.265,-0.050
4.232,-0.340,-0.040
4.234,-0.320,-0.035
4.236,-0.230,-0.035
4.238,-0.145,-0.045
4.240,-0.135,-0.055
4.242,-0.050,-0.070
4.244,-0.035,-0.080
4.246,-0.250,-0.085
4.248,-0.305,-0.085
4.250,-0.305,-0.080
4.252,-0.335,-0.070
4.254,-0.285,-0.055
4.256,-0.260,-0.040
4.258,-0.140,-0.025
4.260,-0.080,-0.015
4.262,-0.055,-0.015
4.264,-0.085,-0.015
4.266,-0.140,-0.020
4.268,-0.215,-0.030
4.270,-0.330,-0.040
4.272,-0.365,-0.045
4.274,-0.295,-0.045
4.276,-0.185,-0.045
4.278,-0.125,-0.040
4.280,-0.125,-0.035
4.282,0.010,-0.030
4.284,-0.080,-0.030
4.286,-0.185,-0.025
4.288,-0.245,-0.025
4.290,-0.270,-0.025
4.292,-0.355,-0.025
4.294,-0.235,-0.025
4.296,-0.165,-0.025
4.298,-0.085,-0.020
4.300,-0.070,-0.015
4.302,-0.010,-0.010
4.304,-0.085,-0.010
4.306,-0.170,-0.010
4.308,-0.245,-0.010
4.310,-0.285,-0.020
4.312,-0.295,-0.025
4.314,-0.320,-0.035
4.316,-0.220,-0.040
4.318,-0.090,-0.040
4.320,-0.055,-0.035
4.322,0.010,-0.030
4.324,-0.065,-0.020
4.326,-0.165,-0.005
4.328,-0.265,0.005
4.330,-0.295,0.010
4.332,-0.310,0.015
4.334,-0.245,0.015
4.336,-0.185,0.015
4.338,0.015,0.010
4.340,0.025,0.005
4.342,-0.015,0.000
4.344,-0.085,0.000
4.346,-0.175,0.005
4.348,-0.180,0.005
4.350,-0.265,0.010
4.352,-0.385,0.010
4.354,-0.205,0.010
4.356,-0.115,0.010
4.358,-0.015,0.005
4.360,-0.030,0.000
4.362,0.025,0.000
4.364,-0.080,0.000
4.366,-0.150,0.005
4.368,-0.225,0.015
4.370,-0.245,0.030
4.372,-0.190,0.040
4.374,-0.155,0.050
4.376,-0.100,0.060
4.378,-0.020,0.060
4.380,0.020,0.060
4.382,0.005,0.055
4.384,-0.025,0.050
4.386,-0.120,0.045
4.388,-0.175,0.045
4.390,-0.215,0.045
4.392,-0.200,0.055
4.394,-0.140,0.070
4.396,-0.020,0.080
4.398,0.005,0.095
4.400,0.100,0.105
4.402,0.105,0.110
4.404,0.075,0.110
4.406,-0.050,0.110
4.408,-0.165,0.110
4.410,-0.190,0.115
4.412,-0.140,0.120
4.414,-0.105,0.130
4.416,0.040,0.140
4.418,0.090,0.150
4.420,0.180,0.160
4.422,0.140,0.165
4.424,0.090,0.165
4.426,-0.020,0.165
4.428,-0.080,0.160
4.430,-0.135,0.155
4.432,-0.115,0.150
4.434,-0.100,0.150
4.436,0.050,0.155
4.438,0.120,0.165
4.440,0.185,0.180
4.442,0.160,0.190
4.444,0.095,0.205
4.446,0.010,0.210
4.448,-0.075,0.210
4.450,-0.080,0.205
4.452,-0.040,0.190
4.454,-0.020,0.175
4.456,0.050,0.160
4.458,0.080,0.145
4.460,0.105,0.130
4.462,0.080,0.125
4.464,0.030,0.120
4.466,-0.010,0.120
4.468,-0.135,0.120
4.470,-0.210,0.120
4.472,-0.155,0.115
4.474,-0.095,0.100
4.476,-0.015,0.085
4.478,0.020,0.065
4.480,0.090,0.045
4.482,0.000,0.030
4.484,-0.135,0.015
4.486,-0.210,0.010
4.488,-0.230,0.010
4.490,-0.295,0.020
4.492,-0.185,0.025
4.494,-0.135,0.035
4.496,-0.090,0.040
4.498,-0.005,0.035
4.500,0.005,0.025
4.502,-0.045,0.010
4.504,-0.130,-0.010
4.506,-0.260,-0.030
4.508,-0.295,-0.050
4.510,-0.435,-0.060
4.512,-0.300,-0.065
4.514,-0.185,-0.065
4.516,-0.065,-0.055
4.518,-0.070,-0.045
4.520,0.000,-0.030
4.522,-0.155,-0.020
4.524,-0.185,-0.015
4.526,-0.190,-0.015
4.528,-0.275,-0.015
4.530,-0.305,-0.020
4.532,-0.280,-0.030
4.534,-0.230,-0.040
4.536,-0.215,-0.045
4.538,-0.080,-0.050
4.540,0.000,-0.055
4.542,-0.100,-0.055
4.544,-0.195,-0.055
4.546,-0.245,-0.055
4.548,-0.285,-0.050
4.550,-0.360,-0.045
4.552,-0.325,-0.045
4.554,-0.140,-0.040
4.556,-0.055,-0.040
4.558,-0.150,-0.040
4.560,-0.055,-0.045
4.562,-0.095,-0.050
4.564,-0.175,-0.055
4.566,-0.240,-0.060
4.568,-0.315,-0.065
4.570,-0.385,-0.070
4.572,-0.350,-0.070
4.574,-0.210,-0.065
4.576,-0.135,-0.055
4.578,-0.140,-0.050
4.580,-0.005,-0.040
4.582,-0.085,-0.035
4.584,-0.145,-0.030
4.586,-0.250,-0.035
4.588,-0.295,-0.040
4.590,-0.345,-0.050
4.592,-0.310,-0.060
4.594,-0.185,-0.065
4.596,-0.170,-0.065
4.598,-0.095,-0.060
4.600,-0.045,-0.050
4.602,-0.060,-0.035
4.604,-0.145,-0.025
4.606,-0.200,-0.010
4.608,-0.275,0.000
4.610,-0.335,0.000
4.612,-0.255,-0.005
4.614,-0.165,-0.010
4.616,-0.110,-0.020
4.618,-0.060,-0.030
4.620,-0.050,-0.035
4.622,-0.085,-0.030
4.624,-0.145,-0.025
4.626,-0.205,-0.015
4.628,-0.230,-0.005
4.630,-0.285,0.005
4.632,-0.230,0.010
4.634,-0.130,0.010
4.636,-0.065,0.005
4.638,-0.090,0.000
4.640,-0.030,-0.010
4.642,-0.090,-0.020
4.644,-0.150,-0.025
4.646,-0.230,-0.030
4.648,-0.320,-0.025
4.650,-0.345,-0.020
4.652,-0.220,-0.015
4.654,-0.190,-0.010
4.656,-0.085,-0.005
4.658,-0.040,-0.005
4.660,0.015,-0.010
4.662,-0.060,-0.015
4.664,-0.200,-0.025
4.666,-0.260,-0.030
4.668,-0.285,-0.030
4.670,-0.320,-0.030
4.672,-0.310,-0.025
4.674,-0.130,-0.020
4.676,-0.085,-0.015
4.678,-0.070,-0.015
4.680,-0.065,-0.015
4.682,-0.095,-0.020
4.684,-0.185,-0.025
4.686,-0.265,-0.030
4.688,-0.315,-0.035
4.690,-0.320,-0.035
4.692,-0.210,-0.035
4.694,-0.195,-0.035
4.696,-0.065,-0.030
4.698,-0.055,-0.030
4.700,-0.095,-0.030
4.702,-0.190,-0.035
4.704,-0.180,-0.035
4.706,-0.270,-0.040
4.708,-0.275,-0.040
4.710,-0.325,-0.040
4.712,-0.230,-0.035
4.714,-0.120,-0.025
4.716,-0.090,-0.015
4.718,-0.075,-0.005
4.720,-0.010,0.000
4.722,-0.110,0.000
4.724,-0.200,-0.005
4.726,-0.200,-0.010
4.728,-0.340,-0.025
4.730,-0.280,-0.035
4.732,-0.250,-0.045
4.734,-0.170,-0.050
4.736,-0.095,-0.050
4.738,-0.025,-0.045
4.740,-0.060,-0.035
4.742,-0.135,-0.030
4.744,-0.170,-0.020
4.746,-0.185,-0.010
4.748,-0.330,-0.005
4.750,-0.315,-0.005
4.752,-0.260,-0.005
4.754,-0.180,-0.010
4.756,-0.035,-0.010
4.758,0.060,-0.015
4.760,0.010,-0.020
4.762,-0.135,-0.020
4.764,-0.200,-0.020
4.766,-0.215,-0.025
4.768,-0.440,-0.025
4.770,-0.290,-0.025
4.772,-0.245,-0.025
4.774,-0.125,-0.025
4.776,-0.050,-0.025
4.778,-0.005,-0.025
4.780,-0.035,-0.025
4.782,-0.150,-0.025
4.784,-0.215,-0.025
4.786,-0.300,-0.030
4.788,-0.355,-0.035
4.790,-0.350,-0.040
4.792,-0.275,-0.045
4.794,-0.135,-0.050
4.796,-0.060,-0.055
4.798,-0.075,-0.060
4.800,-0.070,-0.055
4.802,-0.105,-0.055
4.804,-0.260,-0.050
4.806,-0.300,-0.045
4.808,-0.335,-0.045
4.810,-0.315,-0.045
4.812,-0.250,-0.045
4.814,-0.150,-0.055
4.816,-0.090,-0.060
4.818,-0.040,-0.070
4.820,-0.100,-0.075
4.822,-0.255,-0.080
4.824,-0.325,-0.085
4.826,-0.305,-0.080
4.828,-0.360,-0.075
4.830,-0.315,-0.065
4.832,-0.250,-0.060
4.834,-0.135,-0.050
4.836,-0.095,-0.040
4.838,-0.040,-0.040
4.840,-0.080,-0.035
4.842,-0.125,-0.035
4.844,-0.255,-0.040
4.846,-0.275,-0.045
4.848,-0.380,-0.050
4.850,-0.355,-0.055
4.852,-0.270,-0.060
4.854,-0.110,-0.065
4.856,-0.115,-0.065
4.858,-0.020,-0.060
4.860,-0.010,-0.055
4.862,-0.195,-0.050
4.864,-0.260,-0.040
4.866,-0.380,-0.035
4.868,-0.305,-0.030
4.870,-0.285,-0.025
4.872,-0.160,-0.030
4.874,-0.140,-0.030
4.876,-0.120,-0.040
4.878,-0.030,-0.045
4.880,-0.080,-0.045
4.882,-0.190,-0.050
4.884,-0.255,-0.045
4.886,-0.280,-0.040
4.888,-0.360,-0.035
4.890,-0.255,-0.030
4.892,-0.190,-0.025
4.894,-0.135,-0.025
4.896,-0.100,-0.030
4.898,-0.055,-0.035
4.900,-0.105,-0.040
4.902,-0.140,-0.045
4.904,-0.305,-0.045
4.906,-0.245,-0.035
4.908,-0.325,-0.020
4.910,-0.210,0.000
4.912,-0.120,0.025
4.914,-0.060,0.050
4.916,-0.050,0.075
4.918,0.100,0.100
4.920,0.070,0.120
4.922,-0.020,0.145
4.924,-0.070,0.165
4.926,-0.045,0.185
4.928,-0.060,0.210
4.930,0.070,0.230
4.932,0.140,0.250
4.934,0.215,0.260
4.936,0.180,0.265
4.938,0.190,0.260
4.940,0.140,0.240
4.942,0.065,0.205
4.944,-0.005,0.165
4.946,-0.085,0.115
4.948,-0.240,0.065
4.950,-0.285,0.020
4.952,-0.185,-0.020
4.954,-0.190,-0.050
4.956,-0.115,-0.070
4.958,-0.015,-0.080
4.960,-0.200,-0.085
4.962,-0.185,-0.075
4.964,-0.215,-0.070
4.966,-0.315,-0.055
4.968,-0.365,-0.045
4.970,-0.390,-0.035
4.972,-0.215,-0.030
4.974,-0.130,-0.025
4.976,-0.015,-0.025
4.978,0.000,-0.025
4.980,-0.075,-0.030
4.982,-0.180,-0.030
4.984,-0.300,-0.035
4.986,-0.330,-0.035
4.988,-0.280,-0.035
4.990,-0.300,-0.035
4.992,-0.195,-0.035
4.994,-0.115,-0.035
4.996,-0.040,-0.035
4.998,-0.040,-0.040
5.000,-0.090,-0.045
5.002,-0.210,-0.055
5.004,-0.290,-0.060
5.006,-0.340,-0.060
5.008,-0.315,-0.060
5.010,-0.255,-0.055
5.012,-0.150,-0.045
5.014,-0.170,-0.035
5.016,-0.010,-0.020
5.018,0.020,-0.015
5.020,-0.095,-0.010
5.022,-0.230,-0.010
5.024,-0.220,-0.015
5.026,-0.305,-0.020
5.028,-0.375,-0.030
5.030,-0.255,-0.040
5.032,-0.145,-0.045
5.034,-0.085,-0.045
5.036,-0.065,-0.040
5.038,-0.045,-0.035
5.040,-0.130,-0.030
5.042,-0.195,-0.025
5.044,-0.315,-0.020
5.046,-0.275,-0.020
5.048,-0.225,-0.025
5.050,-0.275,-0.030
5.052,-0.170,-0.030
5.054,-0.065,-0.030
5.056,-0.065,-0.030
5.058,0.010,-0.020
5.060,-0.120,-0.010
5.062,-0.180,0.000
5.064,-0.235,0.010
5.066,-0.280,0.015
5.068,-0.240,0.020
5.070,-0.190,0.015
5.072,-0.110,0.010
5.074,-0.115,0.005
5.076,0.010,0.000
5.078,0.005,-0.005
5.080,-0.100,-0.005
5.082,-0.200,-0.005
5.084,-0.280,-0.005
5.086,-0.350,-0.005
5.088,-0.325,0.000
5.090,-0.145,0.000
5.092,-0.095,0.000
5.094,-0.060,0.000
5.096,0.015,0.005
5.098,0.025,0.010
5.100,-0.095,0.015
5.102,-0.185,0.025
5.104,-0.195,0.035
5.106,-0.280,0.040
5.108,-0.200,0.045
5.110,-0.145,0.045
5.112,-0.045,0.040
5.114,-0.055,0.035
5.116,0.020,0.025
5.118,-0.040,0.015
5.120,-0.080,0.015
5.122,-0.140,0.020
5.124,-0.140,0.030
5.126,-0.270,0.045
5.128,-0.220,0.065
5.130,-0.115,0.080
5.132,-0.055,0.100
5.134,0.065,0.110
5.136,0.165,0.115
5.138,0.065,0.115
5.140,0.050,0.110
5.142,-0.065,0.105
5.144,-0.135,0.105
5.146,-0.285,0.110
5.148,-0.155,0.120
5.150,-0.010,0.135
5.152,0.090,0.145
5.154,0.095,0.160
5.156,0.180,0.170
5.158,0.145,0.170
5.160,0.040,0.170
5.162,-0.035,0.165
5.164,-0.085,0.155
5.166,-0.195,0.150
5.168,-0.105,0.145
5.170,-0.020,0.145
5.172,0.105,0.150
5.174,0.125,0.160
5.176,0.185,0.170
5.178,0.110,0.175
5.180,0.035,0.180
5.182,-0.020,0.180
5.184,-0.010,0.175
5.186,-0.165,0.170
5.188,-0.070,0.160
5.190,-0.050,0.150
5.192,0.055,0.145
5.194,0.150,0.145
5.196,0.170,0.145
5.198,0.085,0.150
5.200,-0.025,0.155
5.202,-0.090,0.155
5.204,-0.020,0.150
5.206,-0.145,0.140
5.208,-0.100,0.130
5.210,-0.095,0.115
5.212,-0.025,0.105
5.214,0.060,0.090
5.216,0.060,0.075
5.218,-0.020,0.065
5.220,-0.055,0.060
5.222,-0.140,0.050
5.224,-0.270,0.045
5.226,-0.240,0.040
5.228,-0.175,0.040
5.230,-0.125,0.035
5.232,-0.055,0.030
5.234,-0.055,0.030
5.236,0.015,0.025
5.238,-0.060,0.025
5.240,-0.145,0.015
5.242,-0.210,0.010
5.244,-0.250,0.000
5.246,-0.310,-0.010
5.248,-0.270,-0.020
5.250,-0.175,-0.030
5.252,-0.075,-0.035
5.254,-0.095,-0.040
5.256,-0.055,-0.040
5.258,-0.130,-0.035
5.260,-0.230,-0.035
5.262,-0.205,-0.030
5.264,-0.250,-0.030
5.266,-0.330,-0.035
5.268,-0.275,-0.040
5.270,-0.185,-0.045
5.272,-0.140,-0.050
5.274,-0.070,-0.055
5.276,-0.045,-0.055
5.278,-0.080,-0.045
5.280,-0.170,-0.040
5.282,-0.355,-0.030
5.284,-0.310,-0.025
5.286,-0.265,-0.020
5.288,-0.225,-0.020
5.290,-0.175,-0.030
5.292,-0.150,-0.040
5.294,-0.095,-0.050
5.296,-0.060,-0.060
5.298,-0.140,-0.065
5.300,-0.190,-0.070
5.302,-0.260,-0.070
5.304,-0.290,-0.065
5.306,-0.365,-0.060
5.308,-0.315,-0.055
5.310,-0.205,-0.050
5.312,-0.065,-0.045
5.314,-0.070,-0.040
5.316,-0.040,-0.035
5.318,-0.140,-0.035
5.320,-0.175,-0.030
5.322,-0.275,-0.025
5.324,-0.235,-0.020
5.326,-0.320,-0.020
5.328,-0.305,-0.020
5.330,-0.140,-0.020
5.332,-0.110,-0.025
5.334,-0.075,-0.025
5.336,-0.020,-0.030
5.338,-0.105,-0.035
5.340,-0.230,-0.035
5.342,-0.335,-0.040
5.344,-0.275,-0.040
5.346,-0.240,-0.035
5.348,-0.300,-0.035
5.350,-0.170,-0.035
5.352,-0.105,-0.030
5.354,-0.055,-0.030
5.356,-0.015,-0.025
5.358,-0.095,-0.025
5.360,-0.205,-0.020
5.362,-0.255,-0.020
5.364,-0.270,-0.020
5.366,-0.280,-0.020
5.368,-0.315,-0.020
5.370,-0.185,-0.020
5.372,-0.100,-0.025
5.374,0.025,-0.025
5.376,-0.045,-0.030
5.378,-0.090,-0.030
5.380,-0.200,-0.025
5.382,-0.255,-0.025
5.384,-0.315,-0.020
5.386,-0.305,-0.020
5.388,-0.285,-0.020
5.390,-0.200,-0.020
5.392,-0.045,-0.020
5.394,-0.005,-0.020
5.396,-0.060,-0.025
5.398,-0.100,-0.025
5.400,-0.175,-0.020
5.402,-0.260,-0.020
5.404,-0.315,-0.015
5.406,-0.270,-0.010
5.408,-0.220,-0.005
5.410,-0.115,-0.005
5.412,-0.070,-0.005
5.414,-0.035,-0.010
5.416,-0.025,-0.015
5.418,-0.080,-0.025
5.420,-0.255,-0.030
5.422,-0.295,-0.035
5.424,-0.340,-0.040
5.426,-0.310,-0.040
5.428,-0.255,-0.040
5.430,-0.165,-0.040
5.432,-0.090,-0.040
5.434,-0.020,-0.040
5.436,-0.035,-0.040
5.438,-0.170,-0.045
5.440,-0.260,-0.045
5.442,-0.285,-0.050
5.444,-0.300,-0.055
5.446,-0.325,-0.055
5.448,-0.310,-0.055
5.450,-0.165,-0.055
5.452,-0.105,-0.050
5.454,-0.030,-0.045
5.456,-0.090,-0.040
5.458,-0.135,-0.035
5.460,-0.155,-0.025
5.462,-0.250,-0.020
5.464,-0.380,-0.020
5.466,-0.275,-0.020
5.468,-0.225,-0.020
5.470,-0.180,-0.030
5.472,-0.080,-0.040
5.474,-0.025,-0.050
5.476,-0.075,-0.055
5.478,-0.175,-0.055
5.480,-0.220,-0.055
5.482,-0.265,-0.040
5.484,-0.370,-0.025
5.486,-0.290,-0.010
5.488,-0.140,0.005
5.490,-0.070,0.020
5.492,-0.025,0.025
5.494,-0.030,0.020
5.496,-0.030,0.010
5.498,-0.150,-0.005
5.500,-0.225,-0.015
5.502,-0.220,-0.025
5.504,-0.325,-0.025
5.506,-0.270,-0.025
5.508,-0.235,-0.015
5.510,-0.085,0.000
5.512,-0.045,0.015
5.514,0.045,0.025
5.516,-0.035,0.030
5.518,-0.135,0.025
5.520,-0.130,0.015
5.522,-0.250,0.005
5.524,-0.340,-0.010
5.526,-0.230,-0.020
5.528,-0.230,-0.030
5.530,-0.165,-0.035
5.532,-0.105,-0.040
5.534,-0.045,-0.045
5.536,-0.075,-0.050
5.538,-0.170,-0.055
5.540,-0.240,-0.055
5.542,-0.290,-0.060
5.544,-0.380,-0.060
5.546,-0.275,-0.060
5.548,-0.245,-0.055
5.550,-0.145,-0.050
5.552,-0.160,-0.045
5.554,-0.025,-0.040
5.556,-0.045,-0.040
5.558,-0.185,-0.040
5.560,-0.275,-0.045
5.562,-0.280,-0.050
5.564,-0.370,-0.055
5.566,-0.305,-0.060
5.568,-0.220,-0.060
5.570,-0.090,-0.060
5.572,-0.105,-0.055
5.574,-0.025,-0.050
5.576,-0.135,-0.045
5.578,-0.155,-0.045
5.580,-0.295,-0.045
5.582,-0.295,-0.050
5.584,-0.380,-0.055
5.586,-0.285,-0.060
5.588,-0.185,-0.065
5.590,-0.090,-0.065
5.592,-0.145,-0.065
5.594,-0.010,-0.060
5.596,-0.120,-0.055
5.598,-0.190,-0.050
5.600,-0.285,-0.050
5.602,-0.320,-0.050
5.604,-0.405,-0.050
5.606,-0.285,-0.055
5.608,-0.155,-0.060
5.610,-0.120,-0.065
5.612,-0.095,-0.065
5.614,-0.065,-0.065
5.616,-0.120,-0.065
5.618,-0.220,-0.060
5.620,-0.290,-0.055
5.622,-0.270,-0.055
5.624,-0.365,-0.050
5.626,-0.360,-0.050
5.628,-0.165,-0.050
5.630,-0.105,-0.050
5.632,-0.095,-0.050
5.634,-0.050,-0.045
5.636,-0.065,-0.045
5.638,-0.200,-0.040
5.640,-0.245,-0.040
5.642,-0.310,-0.035
5.644,-0.365,-0.035
5.646,-0.260,-0.040
5.648,-0.190,-0.040
5.650,-0.140,-0.040
5.652,-0.070,-0.040
5.654,-0.100,-0.035
5.656,-0.030,-0.030
5.658,-0.160,-0.020
5.660,-0.190,-0.005
5.662,-0.310,0.010
5.664,-0.205,0.030
5.666,-0.205,0.055
5.668,-0.120,0.080
5.670,0.070,0.115
5.672,0.130,0.145
5.674,0.185,0.185
5.676,0.145,0.220
5.678,0.165,0.255
5.680,0.155,0.280
5.682,0.095,0.300
5.684,0.015,0.310
5.686,0.055,0.300
5.688,0.075,0.280
5.690,0.125,0.250
5.692,0.215,0.210
5.694,0.160,0.165
5.696,0.060,0.120
5.698,-0.110,0.075
5.700,-0.195,0.040
5.702,-0.290,0.010
5.704,-0.310,-0.015
5.706,-0.290,-0.030
5.708,-0.220,-0.045
5.710,-0.140,-0.055
5.712,-0.100,-0.060
5.714,-0.050,-0.065
5.716,-0.120,-0.065
5.718,-0.210,-0.065
5.720,-0.295,-0.060
5.722,-0.285,-0.050
5.724,-0.360,-0.040
5.726,-0.230,-0.030
5.728,-0.160,-0.020
5.730,-0.090,-0.010
5.732,0.025,-0.010
5.734,-0.035,-0.015
5.736,-0.125,-0.020
5.738,-0.215,-0.030
5.740,-0.235,-0.035
5.742,-0.350,-0.040
5.744,-0.350,-0.045
5.746,-0.315,-0.040
5.748,-0.165,-0.035
5.750,-0.075,-0.025
5.752,0.015,-0.020
5.754,-0.010,-0.015
5.756,-0.085,-0.015
5.758,-0.235,-0.015
5.760,-0.275,-0.020
5.762,-0.310,-0.025
5.764,-0.270,-0.030
5.766,-0.230,-0.030
5.768,-0.150,-0.030
5.770,-0.015,-0.025
5.772,-0.035,-0.015
5.774,-0.015,-0.005
5.776,-0.120,0.000
5.778,-0.235,0.000
5.780,-0.215,0.000
5.782,-0.305,-0.010
5.784,-0.275,-0.020
5.786,-0.190,-0.030
5.788,-0.140,-0.040
5.790,-0.140,-0.045
5.792,-0.020,-0.045
5.794,-0.080,-0.040
5.796,-0.145,-0.035
5.798,-0.155,-0.025
5.800,-0.265,-0.015
5.802,-0.360,-0.010
5.804,-0.250,-0.010
5.806,-0.215,-0.020
5.808,-0.170,-0.030
5.810,-0.090,-0.045
5.812,0.000,-0.065
5.814,-0.110,-0.075
5.816,-0.165,-0.080
5.818,-0.245,-0.080
5.820,-0.310,-0.075
5.822,-0.430,-0.060
5.824,-0.250,-0.050
5.826,-0.190,-0.035
5.828,-0.135,-0.025
5.830,-0.165,-0.020
5.832,0.045,-0.020
5.834,-0.075,-0.020
5.836,-0.170,-0.025
5.838,-0.190,-0.030
5.840,-0.225,-0.030
5.842,-0.355,-0.025
5.844,-0.235,-0.025
5.846,-0.180,-0.015
5.848,-0.115,-0.010
5.850,-0.105,-0.010
5.852,0.005,-0.005
5.854,-0.065,-0.005
5.856,-0.160,-0.010
5.858,-0.220,-0.010
5.860,-0.220,-0.010
5.862,-0.250,-0.005
5.864,-0.245,0.000
5.866,-0.205,0.010
5.868,-0.080,0.020
5.870,-0.055,0.030
5.872,0.030,0.035
5.874,0.035,0.040
5.876,-0.060,0.045
5.878,-0.155,0.045
5.880,-0.230,0.050
5.882,-0.280,0.050
5.884,-0.170,0.060
5.886,-0.140,0.070
5.888,-0.005,0.080
5.890,0.020,0.090
5.892,0.155,0.095
5.894,0.085,0.105
5.896,-0.020,0.110
5.898,-0.145,0.110
5.900,-0.220,0.110
5.902,-0.175,0.110
5.904,-0.110,0.110
5.906,0.015,0.115
5.908,0.075,0.120
5.910,0.035,0.130
5.912,0.140,0.135
5.914,0.095,0.140
5.916,0.015,0.145
5.918,-0.095,0.150
5.920,-0.110,0.150
5.922,-0.105,0.145
5.924,-0.080,0.145
5.926,0.005,0.145
5.928,0.095,0.145
5.930,0.105,0.145
5.932,0.130,0.150
5.934,0.110,0.155
5.936,-0.005,0.160
5.938,0.000,0.165
5.940,-0.110,0.165
5.942,-0.105,0.165
5.944,-0.095,0.165
5.946,-0.030,0.160
5.948,0.075,0.155
5.950,0.130,0.145
5.952,0.155,0.135
5.954,0.070,0.125
5.956,-0.035,0.115
5.958,-0.130,0.105
5.960,-0.235,0.090
5.962,-0.215,0.075
5.964,-0.155,0.060
5.966,-0.100,0.045
5.968,-0.010,0.030
5.970,-0.065,0.015
5.972,-0.025,0.005
5.974,-0.005,-0.005
5.976,-0.185,-0.005
5.978,-0.220,-0.005
5.980,-0.245,-0.005
5.982,-0.235,0.000
5.984,-0.220,0.005
5.986,-0.130,0.005
5.988,-0.105,0.005
5.990,-0.090,0.005
5.992,-0.005,0.000
5.994,-0.085,-0.010
5.996,-0.160,-0.015
5.998,-0.210,-0.025
6.000,-0.325,-0.035
6.002,-0.310,-0.040
6.004,-0.280,-0.045
6.006,-0.185,-0.050
6.008,-0.080,-0.050
6.010,-0.085,-0.055
6.012,-0.045,-0.055
6.014,-0.170,-0.055
6.016,-0.240,-0.060
6.018,-0.275,-0.060
6.020,-0.270,-0.060
6.022,-0.310,-0.060
6.024,-0.280,-0.060
6.026,-0.215,-0.060
6.028,-0.185,-0.060
6.030,-0.105,-0.060
6.032,-0.040,-0.055
6.034,-0.115,-0.055
6.036,-0.215,-0.055
6.038,-0.295,-0.055
6.040,-0.360,-0.055
6.042,-0.370,-0.060
6.044,-0.295,-0.060
6.046,-0.190,-0.065
6.048,-0.130,-0.065
6.050,-0.045,-0.065
6.052,-0.055,-0.065
6.054,-0.095,-0.065
6.056,-0.255,-0.065
6.058,-0.335,-0.065
6.060,-0.300,-0.065
6.062,-0.405,-0.070
6.064,-0.280,-0.070
6.066,-0.195,-0.070
6.068,-0.155,-0.065
6.070,-0.055,-0.065
6.072,-0.085,-0.060
6.074,-0.140,-0.050
6.076,-0.240,-0.045
6.078,-0.255,-0.040
6.080,-0.345,-0.035
6.082,-0.350,-0.035
6.084,-0.315,-0.040
6.086,-0.085,-0.040
6.088,-0.105,-0.045
6.090,-0.085,-0.050
6.092,-0.080,-0.050
6.094,-0.125,-0.050
6.096,-0.205,-0.045
6.098,-0.245,-0.045
6.100,-0.325,-0.040
6.102,-0.315,-0.035
6.104,-0.230,-0.035
6.106,-0.185,-0.035
6.108,-0.145,-0.040
6.110,-0.045,-0.045
6.112,-0.030,-0.050
6.114,-0.135,-0.055
6.116,-0.250,-0.055
6.118,-0.275,-0.055
6.120,-0.370,-0.055
6.122,-0.320,-0.050
6.124,-0.270,-0.045
6.126,-0.175,-0.040
6.128,-0.115,-0.040
6.130,0.000,-0.040
6.132,-0.035,-0.040
6.134,-0.130,-0.045
6.136,-0.300,-0.045
6.138,-0.290,-0.045
6.140,-0.365,-0.045
6.142,-0.320,-0.045
6.144,-0.220,-0.040
6.146,-0.125,-0.040
6.148,-0.075,-0.040
6.150,-0.015,-0.035
6.152,-0.105,-0.040
6.154,-0.195,-0.040
6.156,-0.260,-0.040
6.158,-0.250,-0.045
6.160,-0.310,-0.045
6.162,-0.345,-0.050
6.164,-0.225,-0.050
6.166,-0.130,-0.050
6.168,-0.125,-0.050
6.170,-0.035,-0.050
6.172,-0.060,-0.050
6.174,-0.225,-0.050
6.176,-0.260,-0.050
6.178,-0.260,-0.050
6.180,-0.350,-0.045
6.182,-0.335,-0.040
6.184,-0.200,-0.040
6.186,-0.115,-0.035
6.188,-0.095,-0.035
6.190,-0.090,-0.035
6.192,-0.140,-0.040
6.194,-0.225,-0.045
6.196,-0.240,-0.055
6.198,-0.235,-0.065
6.200,-0.285,-0.075
6.202,-0.360,-0.080
6.204,-0.300,-0.085
6.206,-0.205,-0.085
6.208,-0.170,-0.080
6.210,-0.055,-0.075
6.212,-0.090,-0.065
6.214,-0.145,-0.060
6.216,-0.230,-0.055
6.218,-0.315,-0.050
6.220,-0.380,-0.050
6.222,-0.340,-0.050
6.224,-0.250,-0.050
6.226,-0.155,-0.050
6.228,-0.130,-0.050
6.230,0.035,-0.045
6.232,-0.050,-0.040
6.234,-0.220,-0.035
6.236,-0.320,-0.035
6.238,-0.305,-0.030
6.240,-0.325,-0.035
6.242,-0.320,-0.035
6.244,-0.190,-0.040
6.246,-0.070,-0.040
6.248,-0.075,-0.040
6.250,-0.040,-0.040
6.252,-0.090,-0.035
6.254,-0.175,-0.025
6.256,-0.300,-0.015
6.258,-0.220,-0.010
6.260,-0.285,0.000
6.262,-0.315,0.005
6.264,-0.170,0.010
6.266,-0.065,0.015
6.268,-0.030,0.015
6.270,0.035,0.010
6.272,-0.025,0.010
6.274,-0.150,0.005
6.276,-0.250,0.000
6.278,-0.265,-0.005
6.280,-0.315,-0.015
6.282,-0.285,-0.020
6.284,-0.175,-0.030
6.286,-0.065,-0.035
6.288,-0.115,-0.035
6.290,-0.115,-0.035
6.292,-0.085,-0.035
6.294,-0.105,-0.025
6.296,-0.230,-0.020
6.298,-0.305,-0.020
6.300,-0.365,-0.015
6.302,-0.285,-0.020
6.304,-0.190,-0.030
6.306,-0.130,-0.035
6.308,-0.080,-0.045
6.310,-0.030,-0.050
6.312,-0.060,-0.055
6.314,-0.215,-0.055
6.316,-0.285,-0.050
6.318,-0.330,-0.045
6.320,-0.325,-0.045
6.322,-0.330,-0.040
6.324,-0.155,-0.040
6.326,-0.080,-0.045
6.328,-0.135,-0.050
6.330,-0.145,-0.055
6.332,-0.185,-0.055
6.334,-0.205,-0.050
6.336,-0.205,-0.040
6.338,-0.270,-0.030
6.340,-0.310,-0.025
6.342,-0.320,-0.020
6.344,-0.145,-0.020
6.346,-0.145,-0.025
6.348,-0.080,-0.040
6.350,-0.050,-0.055
6.352,-0.120,-0.065
6.354,-0.245,-0.075
6.356,-0.305,-0.075
6.358,-0.360,-0.065
6.360,-0.315,-0.055
6.362,-0.285,-0.045
6.364,-0.180,-0.030
6.366,-0.060,-0.025
6.368,-0.030,-0.030
6.370,-0.130,-0.035
6.372,-0.180,-0.050
6.374,-0.240,-0.065
6.376,-0.275,-0.075
6.378,-0.405,-0.085
6.380,-0.325,-0.085
6.382,-0.270,-0.080
6.384,-0.185,-0.065
6.386,-0.105,-0.055
6.388,-0.060,-0.040
6.390,-0.045,-0.030
6.392,-0.130,-0.025
6.394,-0.190,-0.025
6.396,-0.245,-0.030
6.398,-0.375,-0.035
6.400,-0.330,-0.040
6.402,-0.245,-0.045
6.404,-0.190,-0.050
6.406,-0.095,-0.050
6.408,-0.040,-0.050
6.410,-0.095,-0.045
6.412,-0.135,-0.045
6.414,-0.220,-0.045
6.416,-0.305,-0.040
6.418,-0.345,-0.035
6.420,-0.290,-0.025
6.422,-0.260,-0.010
6.424,-0.120,0.015
6.426,0.005,0.045
6.428,0.015,0.080
6.430,0.150,0.120
6.432,0.035,0.160
6.434,-0.025,0.195
6.436,-0.005,0.230
6.438,-0.030,0.260
6.440,0.070,0.280
6.442,0.125,0.290
6.444,0.215,0.295
6.446,0.180,0.290
6.448,0.155,0.275
6.450,0.200,0.255
6.452,0.090,0.230
6.454,0.050,0.195
6.456,-0.060,0.160
6.458,-0.175,0.120
6.460,-0.200,0.080
6.462,-0.235,0.040
6.464,-0.160,0.005
6.466,-0.145,-0.025
6.468,-0.045,-0.045
6.470,-0.100,-0.060
6.472,-0.210,-0.070
6.474,-0.265,-0.070
6.476,-0.270,-0.070
6.478,-0.395,-0.060
6.480,-0.310,-0.045
6.482,-0.230,-0.035
6.484,-0.160,-0.025
6.486,-0.125,-0.015
6.488,-0.025,-0.010
6.490,-0.045,-0.010
6.492,-0.170,-0.010
6.494,-0.265,-0.020
6.496,-0.280,-0.025
6.498,-0.355,-0.035
6.500,-0.335,-0.040
6.502,-0.210,-0.045
6.504,-0.135,-0.040
6.506,-0.070,-0.035
6.508,-0.030,-0.025
6.510,-0.060,-0.020
6.512,-0.100,-0.010
6.514,-0.240,-0.005
6.516,-0.280,-0.005
6.518,-0.300,-0.005
6.520,-0.285,-0.015
6.522,-0.265,-0.025
6.524,-0.165,-0.035
6.526,-0.130,-0.050
6.528,-0.070,-0.055
6.530,-0.150,-0.060
6.532,-0.125,-0.055
6.534,-0.250,-0.050
6.536,-0.360,-0.035
6.538,-0.340,-0.025
6.540,-0.305,-0.010
6.542,-0.175,0.000
6.544,-0.090,0.005
6.546,-0.030,0.005
6.548,-0.005,0.000
6.550,-0.155,-0.015
6.552,-0.170,-0.025
6.554,-0.200,-0.040
6.556,-0.340,-0.050
6.558,-0.360,-0.055
6.560,-0.305,-0.050
6.562,-0.230,-0.040
6.564,-0.105,-0.025
6.566,-0.110,-0.010
6.568,0.035,0.010
6.570,-0.055,0.020
6.572,-0.175,0.030
6.574,-0.250,0.030
6.576,-0.240,0.025
6.578,-0.240,0.010
6.580,-0.225,-0.005
6.582,-0.285,-0.020
6.584,-0.165,-0.030
6.586,-0.100,-0.035
6.588,-0.045,-0.035
6.590,-0.095,-0.030
6.592,-0.135,-0.020
6.594,-0.235,-0.010
6.596,-0.300,0.000
6.598,-0.395,0.010
6.600,-0.190,0.015
6.602,-0.215,0.020
6.604,-0.090,0.020
6.606,-0.040,0.015
6.608,0.035,0.015
6.610,-0.055,0.015
6.612,-0.135,0.015
6.614,-0.210,0.015
6.616,-0.300,0.020
6.618,-0.325,0.025
6.620,-0.205,0.030
6.622,-0.115,0.030
6.624,-0.055,0.035
6.626,-0.050,0.040
6.628,-0.015,0.045
6.630,-0.025,0.050
6.632,-0.100,0.060
6.634,-0.200,0.070
6.636,-0.270,0.080
6.638,-0.215,0.085
6.640,-0.175,0.090
6.642,-0.085,0.095
6.644,0.025,0.095
6.646,0.060,0.090
6.648,0.040,0.085
6.650,-0.010,0.080
6.652,-0.105,0.080
6.654,-0.195,0.080
6.656,-0.230,0.085
6.658,-0.215,0.095
6.660,-0.085,0.105
6.662,-0.050,0.115
6.664,0.050,0.125
6.666,0.095,0.140
6.668,0.070,0.145
6.670,0.055,0.155
6.672,0.000,0.160
6.674,-0.080,0.160
6.676,-0.100,0.165
6.678,-0.150,0.170
6.680,-0.150,0.170
6.682,0.025,0.170
6.684,0.080,0.170
6.686,0.125,0.170
6.688,0.080,0.170
6.690,0.020,0.170
6.692,0.000,0.170
6.694,-0.080,0.175
6.696,-0.135,0.175
6.698,-0.145,0.180
6.700,-0.075,0.185
6.702,-0.015,0.190
6.704,0.110,0.190
6.706,0.160,0.190
6.708,0.115,0.185
6.710,0.010,0.175
6.712,-0.080,0.165
6.714,-0.075,0.155
6.716,-0.160,0.145
6.718,-0.180,0.135
6.720,-0.100,0.125
6.722,-0.090,0.115
6.724,-0.040,0.110
6.726,0.060,0.105
6.728,0.040,0.095
6.730,-0.040,0.085
6.732,-0.115,0.075
6.734,-0.185,0.065
6.736,-0.250,0.050
6.738,-0.240,0.040
6.740,-0.250,0.035
6.742,-0.175,0.030
6.744,-0.105,0.025
6.746,0.050,0.025
6.748,-0.060,0.020
6.750,-0.145,0.020
6.752,-0.250,0.015
6.754,-0.220,0.010
6.756,-0.345,0.000
6.758,-0.275,-0.005
6.760,-0.270,-0.015
6.762,-0.170,-0.015
6.764,-0.125,-0.020
6.766,-0.080,-0.015
6.768,-0.035,-0.010
6.770,-0.140,-0.005
6.772,-0.250,0.005
6.774,-0.205,0.005
6.776,-0.405,0.005
6.778,-0.310,0.000
6.780,-0.250,-0.005
6.782,-0.145,-0.015
6.784,-0.090,-0.020
6.786,-0.050,-0.030
6.788,-0.150,-0.030
6.790,-0.170,-0.030
6.792,-0.210,-0.025
6.794,-0.295,-0.015
6.796,-0.380,-0.005
6.798,-0.320,0.005
6.800,-0.220,0.010
6.802,-0.150,0.010
6.804,-0.080,0.005
6.806,-0.060,-0.005
6.808,-0.100,-0.015
6.810,-0.170,-0.025
6.812,-0.310,-0.035
6.814,-0.310,-0.040
6.816,-0.425,-0.040
6.818,-0.315,-0.040
6.820,-0.245,-0.030
6.822,-0.120,-0.020
6.824,-0.155,-0.005
6.826,-0.030,0.000
6.828,-0.080,0.005
6.830,-0.145,0.010
6.832,-0.260,0.005
6.834,-0.260,0.000
6.836,-0.350,-0.010
6.838,-0.330,-0.015
6.840,-0.245,-0.020
6.842,-0.205,-0.020
6.844,-0.110,-0.015
6.846,-0.020,-0.010
6.848,-0.085,-0.005
6.850,-0.160,0.000
6.852,-0.275,0.005
6.854,-0.245,0.005
6.856,-0.420,0.000
6.858,-0.305,-0.005
6.860,-0.255,-0.010
6.862,-0.105,-0.015
6.864,-0.120,-0.015
6.866,-0.025,-0.015
6.868,-0.115,-0.015
6.870,-0.165,-0.010
6.872,-0.245,0.000
6.874,-0.255,0.005
6.876,-0.345,0.010
6.878,-0.315,0.015
6.880,-0.190,0.010
6.882,-0.145,0.005
6.884,-0.070,0.000
6.886,0.010,-0.005
6.888,-0.125,-0.010
6.890,-0.170,-0.010
6.892,-0.290,-0.010
6.894,-0.330,-0.005
6.896,-0.340,0.000
6.898,-0.305,0.005
6.900,-0.260,0.010
6.902,-0.080,0.010
6.904,-0.100,0.010
6.906,-0.005,0.005
6.908,-0.030,0.000
6.910,-0.220,-0.005
6.912,-0.320,-0.010
6.914,-0.325,-0.015
6.916,-0.335,-0.015
6.918,-0.300,-0.015
6.920,-0.270,-0.015
6.922,-0.145,-0.015
6.924,-0.135,-0.015
6.926,-0.045,-0.015
6.928,-0.095,-0.015
6.930,-0.250,-0.015
6.932,-0.285,-0.015
6.934,-0.285,-0.010
6.936,-0.280,-0.005
6.938,-0.290,0.000
6.940,-0.225,0.000
6.942,-0.135,0.005
6.944,-0.105,0.005
6.946,-0.050,0.000
6.948,-0.100,-0.005
6.950,-0.230,-0.015
6.952,-0.305,-0.025
6.954,-0.350,-0.035
6.956,-0.345,-0.045
6.958,-0.265,-0.055
6.960,-0.245,-0.065
6.962,-0.270,-0.070
6.964,-0.205,-0.075
6.966,-0.120,-0.085
6.968,-0.205,-0.090
6.970,-0.360,-0.095
6.972,-0.410,-0.095
6.974,-0.390,-0.095
6.976,-0.350,-0.090
6.978,-0.285,-0.080
6.980,-0.215,-0.070
6.982,-0.240,-0.050
6.984,-0.140,-0.040
6.986,-0.080,-0.025
6.988,-0.135,-0.020
6.990,-0.250,-0.020
6.992,-0.325,-0.030
6.994,-0.415,-0.040
6.996,-0.440,-0.055
6.998,-0.330,-0.065
7.000,-0.190,-0.070
7.002,-0.200,-0.070
7.004,-0.120,-0.060
7.006,-0.095,-0.050
7.008,-0.145,-0.035
7.010,-0.255,-0.015
7.012,-0.325,-0.005
7.014,-0.300,0.005
7.016,-0.335,0.005
7.018,-0.300,0.005
7.020,-0.175,0.005
7.022,-0.065,0.000
7.024,-0.150,0.000
7.026,-0.025,0.005
7.028,-0.125,0.010
7.030,-0.230,0.015
7.032,-0.275,0.020
7.034,-0.290,0.025
7.036,-0.335,0.025
7.038,-0.280,0.020
7.040,-0.155,0.020
7.042,-0.110,0.015
7.044,-0.085,0.010
7.046,-0.070,0.010
7.048,-0.145,0.010
7.050,-0.235,0.015
7.052,-0.265,0.015
7.054,-0.310,0.015
7.056,-0.350,0.010
7.058,-0.305,0.000
7.060,-0.190,-0.010
7.062,-0.170,-0.020
7.064,-0.120,-0.035
7.066,-0.180,-0.040
7.068,-0.165,-0.045
7.070,-0.200,-0.045
7.072,-0.330,-0.035
7.074,-0.365,-0.030
7.076,-0.355,-0.020
7.078,-0.310,-0.015
7.080,-0.195,-0.015
7.082,-0.155,-0.020
7.084,-0.090,-0.025
7.086,-0.095,-0.035
7.088,-0.200,-0.045
7.090,-0.265,-0.050
7.092,-0.320,-0.050
7.094,-0.415,-0.045
7.096,-0.375,-0.040
7.098,-0.325,-0.030
7.100,-0.135,-0.020
7.102,-0.120,-0.010
7.104,-0.120,-0.005
7.106,-0.080,-0.005
7.108,-0.185,-0.005
7.110,-0.285,-0.010
7.112,-0.320,-0.015
7.114,-0.375,-0.020
7.116,-0.360,-0.025
7.118,-0.280,-0.025
7.120,-0.230,-0.025
7.122,-0.115,-0.025
7.124,-0.065,-0.025
7.126,-0.120,-0.025
7.128,-0.165,-0.025
7.130,-0.310,-0.025
7.132,-0.330,-0.020
7.134,-0.385,-0.020
7.136,-0.335,-0.015
7.138,-0.285,-0.015
7.140,-0.210,-0.010
7.142,-0.175,-0.010
7.144,-0.055,-0.010
7.146,-0.115,-0.015
7.148,-0.165,-0.015
7.150,-0.265,-0.020
7.152,-0.290,-0.025
7.154,-0.415,-0.030
7.156,-0.380,-0.030
7.158,-0.255,-0.030
7.160,-0.165,-0.030
7.162,-0.180,-0.025
7.164,-0.090,-0.020
7.166,-0.095,-0.020
7.168,-0.165,-0.015
7.170,-0.270,-0.010
7.172,-0.345,-0.005
7.174,-0.425,0.000
7.176,-0.260,0.005
7.178,-0.275,0.015
7.180,-0.125,0.025
7.182,-0.150,0.040
7.184,0.045,0.055
7.186,-0.010,0.075
7.188,-0.055,0.100
7.190,-0.145,0.125
7.192,-0.175,0.155
7.194,-0.190,0.185
7.196,-0.120,0.215
7.198,0.045,0.245
7.200,0.165,0.270
7.202,0.200,0.295
7.204,0.315,0.310
7.206,0.190,0.320
7.208,0.035,0.320
7.210,-0.010,0.305
7.212,0.005,0.280
7.214,-0.070,0.245
7.216,-0.070,0.205
7.218,-0.090,0.160
7.220,-0.090,0.115
7.222,-0.095,0.070
7.224,-0.130,0.030
7.226,-0.120,0.000
7.228,-0.185,-0.020
7.230,-0.305,-0.030
7.232,-0.355,-0.035
7.234,-0.380,-0.030
7.236,-0.310,-0.020
7.238,-0.240,-0.015
7.240,-0.165,-0.005
7.242,-0.125,-0.005
7.244,-0.095,-0.010
7.246,-0.140,-0.015
7.248,-0.285,-0.025
7.250,-0.285,-0.040
7.252,-0.380,-0.055
7.254,-0.460,-0.070
7.256,-0.345,-0.080
7.258,-0.345,-0.090
7.260,-0.240,-0.095
7.262,-0.165,-0.105
7.264,-0.155,-0.115
7.266,-0.280,-0.125
7.268,-0.320,-0.140
7.270,-0.395,-0.155
7.272,-0.465,-0.175
7.274,-0.650,-0.200
7.276,-0.595,-0.220
7.278,-0.445,-0.240
7.280,-0.355,-0.255
7.282,-0.375,-0.265
7.284,-0.350,-0.275
7.286,-0.380,-0.275
7.288,-0.465,-0.275
7.290,-0.575,-0.270
7.292,-0.615,-0.265
7.294,-0.685,-0.255
7.296,-0.540,-0.240
7.298,-0.405,-0.225
7.300,-0.330,-0.205
7.302,-0.320,-0.190
7.304,-0.230,-0.170
7.306,-0.285,-0.155
7.308,-0.330,-0.145
7.310,-0.420,-0.140
7.312,-0.525,-0.135
7.314,-0.535,-0.135
7.316,-0.370,-0.135
7.318,-0.350,-0.135
7.320,-0.315,-0.135
7.322,-0.200,-0.130
7.324,-0.210,-0.120
7.326,-0.235,-0.110
7.328,-0.305,-0.100
7.330,-0.330,-0.090
7.332,-0.415,-0.080
7.334,-0.400,-0.075
7.336,-0.395,-0.075
7.338,-0.330,-0.075
7.340,-0.230,-0.085
7.342,-0.210,-0.090
7.344,-0.185,-0.100
7.346,-0.190,-0.105
7.348,-0.320,-0.110
7.350,-0.370,-0.105
7.352,-0.430,-0.100
7.354,-0.445,-0.090
7.356,-0.385,-0.080
7.358,-0.295,-0.065
7.360,-0.140,-0.055
7.362,-0.045,-0.045
7.364,-0.115,-0.035
7.366,-0.265,-0.030
7.368,-0.270,-0.030
7.370,-0.290,-0.035
7.372,-0.380,-0.035
7.374,-0.360,-0.035
7.376,-0.295,-0.035
7.378,-0.190,-0.030
7.380,-0.185,-0.020
7.382,-0.080,-0.010
7.384,-0.075,0.005
7.386,-0.160,0.020
7.388,-0.200,0.035
7.390,-0.185,0.045
7.392,-0.300,0.055
7.394,-0.275,0.055
7.396,-0.250,0.055
7.398,-0.120,0.050
7.400,-0.070,0.050
7.402,-0.015,0.045
7.404,-0.095,0.045
7.406,-0.175,0.050
7.408,-0.150,0.055
7.410,-0.230,0.065
7.412,-0.295,0.070
7.414,-0.235,0.080
7.416,-0.160,0.090
7.418,-0.130,0.095
7.420,0.045,0.100
7.422,-0.005,0.105
7.424,0.030,0.110
7.426,-0.045,0.115
7.428,-0.110,0.125
7.430,-0.200,0.130
7.432,-0.270,0.135
7.434,-0.150,0.140
7.436,-0.120,0.140
7.438,-0.080,0.140
7.440,-0.030,0.135
7.442,0.075,0.135
7.444,0.080,0.135
7.446,-0.015,0.140
7.448,-0.050,0.145
7.450,-0.175,0.160
7.452,-0.185,0.170
7.454,-0.115,0.180
7.456,-0.090,0.190
7.458,-0.020,0.190
7.460,0.025,0.185
7.462,0.100,0.180
7.464,0.070,0.165
7.466,-0.010,0.155
7.468,-0.050,0.150
7.470,-0.115,0.140
7.472,-0.245,0.140
7.474,-0.150,0.140
7.476,-0.125,0.140
7.478,-0.095,0.135
7.480,-0.015,0.125
7.482,0.055,0.110
7.484,0.035,0.095
7.486,-0.115,0.075
7.488,-0.255,0.055
7.490,-0.200,0.040
7.492,-0.350,0.035
7.494,-0.275,0.030
7.496,-0.185,0.040
7.498,-0.095,0.045
7.500,-0.055,0.055
7.502,-0.035,0.060
7.504,-0.090,0.060
7.506,-0.175,0.050
7.508,-0.185,0.035
7.510,-0.260,0.015
7.512,-0.365,-0.005
7.514,-0.375,-0.025
7.516,-0.290,-0.035
7.518,-0.170,-0.040
7.520,-0.150,-0.040
7.522,-0.060,-0.030
7.524,-0.120,-0.020
7.526,-0.235,-0.010
7.528,-0.250,0.000
7.530,-0.320,0.000
7.532,-0.380,-0.005
7.534,-0.355,-0.015
7.536,-0.270,-0.025
7.538,-0.195,-0.035
7.540,-0.130,-0.040
7.542,-0.060,-0.045
7.544,-0.155,-0.040
7.546,-0.215,-0.030
7.548,-0.260,-0.025
7.550,-0.340,-0.015
7.552,-0.340,-0.010
7.554,-0.325,-0.010
7.556,-0.245,-0.015
7.558,-0.160,-0.025
7.560,-0.190,-0.035
7.562,-0.160,-0.045
7.564,-0.105,-0.045
7.566,-0.155,-0.045
7.568,-0.250,-0.035
7.570,-0.310,-0.025
7.572,-0.405,-0.015
7.574,-0.305,-0.005
7.576,-0.290,0.000
7.578,-0.150,0.000
7.580,-0.090,-0.010
7.582,-0.085,-0.020
7.584,-0.155,-0.035
7.586,-0.265,-0.045
7.588,-0.295,-0.055
7.590,-0.315,-0.055
7.592,-0.395,-0.055
7.594,-0.335,-0.045
7.596,-0.310,-0.030
7.598,-0.120,-0.020
7.600,-0.055,-0.005
7.602,-0.075,0.000
7.604,-0.100,0.010
7.606,-0.190,0.010
7.608,-0.290,0.010
7.610,-0.290,0.005
7.612,-0.315,0.000
7.614,-0.280,-0.005
7.616,-0.240,-0.010
7.618,-0.170,-0.010
7.620,-0.095,-0.010
7.622,-0.070,-0.010
7.624,-0.115,-0.010
7.626,-0.185,-0.010
7.628,-0.295,-0.010
7.630,-0.335,-0.015
7.632,-0.320,-0.015
7.634,-0.340,-0.020
7.636,-0.215,-0.025
7.638,-0.155,-0.030
7.640,-0.095,-0.030
7.642,-0.065,-0.030
7.644,-0.155,-0.030
7.646,-0.190,-0.025
7.648,-0.245,-0.015
7.650,-0.320,-0.010
7.652,-0.385,-0.005
7.654,-0.315,0.000
7.656,-0.190,0.000
7.658,-0.120,0.000
7.660,-0.055,-0.005
7.662,-0.095,-0.010
7.664,-0.085,-0.015
7.666,-0.235,-0.020
7.668,-0.310,-0.020
7.670,-0.315,-0.025
7.672,-0.300,-0.020
7.674,-0.310,-0.020
7.676,-0.205,-0.020
7.678,-0.085,-0.020
7.680,-0.080,-0.020
7.682,-0.130,-0.020
7.684,-0.155,-0.015
7.686,-0.215,-0.015
7.688,-0.295,-0.005
7.690,-0.260,0.000
7.692,-0.295,0.005
7.694,-0.285,0.010
7.696,-0.140,0.010
7.698,-0.115,0.010
7.700,-0.065,0.000
7.702,-0.085,-0.010
7.704,-0.170,-0.020
7.706,-0.220,-0.030
7.708,-0.310,-0.040
7.710,-0.385,-0.040
7.712,-0.350,-0.035
7.714,-0.250,-0.030
7.716,-0.185,-0.020
7.718,-0.095,-0.015
7.720,-0.035,-0.010
7.722,-0.095,-0.010
7.724,-0.160,-0.015
7.726,-0.220,-0.020
7.728,-0.305,-0.025
7.730,-0.345,-0.025
7.732,-0.360,-0.030
7.734,-0.255,-0.025
7.736,-0.205,-0.025
7.738,-0.080,-0.020
7.740,-0.060,-0.020
7.742,-0.080,-0.020
7.744,-0.140,-0.025
7.746,-0.310,-0.030
7.748,-0.335,-0.040
7.750,-0.365,-0.045
7.752,-0.285,-0.045
7.754,-0.290,-0.045
7.756,-0.180,-0.040
7.758,-0.100,-0.030
7.760,-0.045,-0.020
7.762,-0.070,-0.015
7.764,-0.190,-0.010
7.766,-0.205,-0.010
7.768,-0.280,-0.010
7.770,-0.395,-0.015
7.772,-0.320,-0.020
7.774,-0.235,-0.025
7.776,-0.115,-0.020
7.778,-0.085,-0.015
7.780,-0.010,-0.010
7.782,-0.055,0.000
7.784,-0.135,0.010
7.786,-0.225,0.015
7.788,-0.230,0.015
7.790,-0.295,0.015
7.792,-0.265,0.005
7.794,-0.215,-0.005
7.796,-0.210,-0.010
7.798,-0.125,-0.015
7.800,0.020,-0.010
7.802,-0.110,-0.005
7.804,-0.055,0.005
7.806,-0.235,0.015
7.808,-0.225,0.025
7.810,-0.295,0.030
7.812,-0.270,0.025
7.814,-0.175,0.020
7.816,-0.115,0.010
7.818,-0.100,-0.005
7.820,-0.025,-0.015
7.822,-0.110,-0.025
7.824,-0.210,-0.035
7.826,-0.250,-0.040
7.828,-0.260,-0.040
7.830,-0.370,-0.040
7.832,-0.350,-0.035
7.834,-0.245,-0.035
7.836,-0.065,-0.035
7.838,-0.175,-0.035
7.840,-0.055,-0.035
7.842,-0.085,-0.030
7.844,-0.160,-0.030
7.846,-0.205,-0.025
7.848,-0.290,-0.025
7.850,-0.360,-0.025
7.852,-0.345,-0.025
7.854,-0.280,-0.025
7.856,-0.210,-0.030
7.858,-0.075,-0.040
7.860,-0.070,-0.045
7.862,-0.040,-0.050
7.864,-0.175,-0.050
7.866,-0.295,-0.050
7.868,-0.320,-0.045
7.870,-0.325,-0.040
7.872,-0.315,-0.040
7.874,-0.250,-0.035
7.876,-0.155,-0.035
7.878,-0.060,-0.035
7.880,0.035,-0.035
7.882,-0.095,-0.035
7.884,-0.205,-0.035
7.886,-0.275,-0.035
7.888,-0.300,-0.035
7.890,-0.320,-0.035
7.892,-0.295,-0.035
7.894,-0.255,-0.035
7.896,-0.130,-0.030
7.898,-0.105,-0.030
7.900,-0.055,-0.030
7.902,-0.090,-0.035
7.904,-0.145,-0.035
7.906,-0.245,-0.035
7.908,-0.265,-0.040
7.910,-0.370,-0.040
7.912,-0.330,-0.045
7.914,-0.250,-0.050
7.916,-0.150,-0.050
7.918,-0.035,-0.050
7.920,0.005,-0.050
7.922,-0.055,-0.045
7.924,-0.230,-0.035
7.926,-0.300,-0.025
7.928,-0.295,-0.020
7.930,-0.325,-0.015
7.932,-0.285,-0.010
7.934,-0.140,-0.010
7.936,-0.060,-0.015
7.938,-0.060,-0.015
7.940,-0.075,-0.015
7.942,-0.115,-0.005
7.944,-0.085,0.010
7.946,-0.170,0.035
7.948,-0.150,0.070
7.950,-0.195,0.105
7.952,-0.115,0.145
7.954,-0.005,0.180
7.956,0.135,0.215
7.958,0.285,0.240
7.960,0.285,0.260
7.962,0.255,0.265
7.964,0.120,0.270
7.966,-0.020,0.260
7.968,-0.115,0.245
7.970,-0.100,0.225
7.972,-0.050,0.195
7.974,0.050,0.160
7.976,0.085,0.120
7.978,0.045,0.080
7.980,-0.010,0.035
7.982,-0.100,0.000
7.984,-0.240,-0.035
7.986,-0.315,-0.065
7.988,-0.335,-0.080
7.990,-0.335,-0.090
7.992,-0.355,-0.090
7.994,-0.240,-0.085
7.996,-0.145,-0.080
7.998,-0.040,-0.070
8.000,-0.030,-0.060
8.002,-0.100,-0.055
8.004,-0.195,-0.050
8.006,-0.290,-0.050
8.008,-0.320,-0.050
8.010,-0.305,-0.050
8.012,-0.250,-0.050
8.014,-0.160,-0.055
8.016,-0.130,-0.055
8.018,-0.075,-0.055
8.020,-0.040,-0.055
8.022,-0.110,-0.055
8.024,-0.215,-0.050
8.026,-0.265,-0.050
8.028,-0.415,-0.045
8.030,-0.365,-0.045
8.032,-0.200,-0.045
8.034,-0.175,-0.040
8.036,-0.005,-0.040
8.038,-0.025,-0.035
8.040,-0.025,-0.030
8.042,-0.100,-0.025
8.044,-0.250,-0.020
8.046,-0.290,-0.010
8.048,-0.345,-0.005
8.050,-0.250,-0.005
8.052,-0.165,-0.005
8.054,-0.105,-0.010
8.056,-0.060,-0.015
8.058,-0.015,-0.025
8.060,-0.075,-0.035
8.062,-0.120,-0.040
8.064,-0.205,-0.045
8.066,-0.225,-0.045
8.068,-0.320,-0.045
8.070,-0.300,-0.035
8.072,-0.220,-0.030
8.074,-0.120,-0.020
8.076,-0.060,-0.010
8.078,0.015,-0.005
8.080,-0.020,-0.005
8.082,-0.080,-0.005
8.084,-0.165,-0.010
8.086,-0.180,-0.015
8.088,-0.365,-0.015
8.090,-0.320,-0.020
8.092,-0.255,-0.025
8.094,-0.085,-0.025
8.096,-0.030,-0.030
8.098,0.005,-0.030
8.100,-0.010,-0.030
8.102,-0.120,-0.030
8.104,-0.190,-0.025
8.106,-0.230,-0.020
8.108,-0.335,-0.010
8.110,-0.250,-0.005
8.112,-0.150,0.005
8.114,-0.100,0.010
8.116,-0.035,0.010
8.118,0.050,0.010
8.120,0.025,0.010
8.122,-0.105,0.010
8.124,-0.250,0.005
8.126,-0.185,0.010
8.128,-0.300,0.010
8.130,-0.190,0.020
8.132,-0.150,0.025
8.134,-0.075,0.030
8.136,-0.015,0.030
8.138,0.070,0.030
8.140,0.020,0.025
8.142,-0.120,0.020
8.144,-0.170,0.015
8.146,-0.160,0.010
8.148,-0.270,0.005
8.150,-0.210,0.010
8.152,-0.135,0.020
8.154,-0.065,0.030
8.156,0.000,0.040
8.158,0.115,0.055
8.160,0.090,0.060
8.162,-0.030,0.070
8.164,-0.090,0.070
8.166,-0.135,0.070
8.168,-0.250,0.070
8.170,-0.150,0.070
8.172,-0.040,0.075
8.174,0.040,0.080
8.176,0.040,0.085
8.178,0.120,0.095
8.180,0.075,0.105
8.182,0.070,0.110
8.184,-0.085,0.120
8.186,-0.135,0.125
8.188,-0.165,0.135
8.190,-0.060,0.140
8.192,0.055,0.150
8.194,0.130,0.160
8.196,0.135,0.170
8.198,0.130,0.175
8.200,0.180,0.175
8.202,0.065,0.170
8.204,-0.035,0.165
8.206,-0.070,0.155
8.208,-0.120,0.145
8.210,-0.150,0.135
8.212,0.015,0.125
8.214,0.085,0.125
8.216,0.175,0.130
8.218,0.195,0.135
8.220,0.070,0.145
8.222,0.050,0.155
8.224,0.005,0.160
8.226,-0.050,0.160
8.228,-0.110,0.150
8.230,-0.105,0.140
8.232,-0.080,0.120
8.234,0.030,0.100
8.236,0.080,0.085
8.238,0.130,0.070
8.240,0.070,0.065
8.242,-0.040,0.060
8.244,-0.100,0.060
8.246,-0.210,0.060
8.248,-0.155,0.065
8.250,-0.180,0.060
8.252,-0.125,0.055
8.254,-0.050,0.040
8.256,0.010,0.025
8.258,0.085,0.010
8.260,-0.015,-0.010
8.262,-0.165,-0.020
8.264,-0.190,-0.025
8.266,-0.210,-0.025
8.268,-0.280,-0.020
8.270,-0.215,-0.010
8.272,-0.100,-0.005
8.274,-0.015,0.000
8.276,-0.025,0.000
8.278,0.045,-0.010
8.280,-0.055,-0.025
8.282,-0.145,-0.040
8.284,-0.305,-0.060
8.286,-0.345,-0.075
8.288,-0.285,-0.080
8.290,-0.255,-0.080
8.292,-0.165,-0.075
8.294,-0.075,-0.070
8.296,-0.040,-0.060
8.298,-0.025,-0.050
8.300,-0.090,-0.045
8.302,-0.195,-0.050
8.304,-0.260,-0.055
8.306,-0.280,-0.070
8.308,-0.320,-0.080
8.310,-0.235,-0.085
8.312,-0.205,-0.090
8.314,-0.105,-0.090
8.316,-0.040,-0.085
8.318,-0.035,-0.075
8.320,-0.100,-0.065
8.322,-0.165,-0.060
8.324,-0.230,-0.055
8.326,-0.290,-0.055
8.328,-0.305,-0.060
8.330,-0.305,-0.065
8.332,-0.195,-0.070
8.334,-0.065,-0.075
8.336,-0.060,-0.075
8.338,-0.005,-0.080
8.340,-0.065,-0.080
8.342,-0.265,-0.075
8.344,-0.230,-0.075
8.346,-0.320,-0.075
8.348,-0.315,-0.070
8.350,-0.315,-0.070
8.352,-0.185,-0.065
8.354,-0.020,-0.060
8.356,0.035,-0.055
8.358,-0.035,-0.045
8.360,-0.120,-0.035
8.362,-0.120,-0.030
8.364,-0.240,-0.030
8.366,-0.295,-0.030
8.368,-0.265,-0.040
8.370,-0.280,-0.050
8.372,-0.130,-0.065
8.374,-0.070,-0.075
8.376,-0.065,-0.080
8.378,-0.010,-0.080
8.380,-0.080,-0.070
8.382,-0.210,-0.055
8.384,-0.205,-0.040
8.386,-0.255,-0.025
8.388,-0.280,-0.015
8.390,-0.175,-0.005
8.392,-0.045,-0.005
8.394,-0.025,-0.015
8.396,0.010,-0.030
8.398,-0.025,-0.045
8.400,-0.140,-0.060
8.402,-0.230,-0.070
8.404,-0.235,-0.075
8.406,-0.330,-0.075
8.408,-0.290,-0.065
8.410,-0.175,-0.055
8.412,-0.090,-0.045
8.414,-0.055,-0.035
8.416,0.000,-0.030
8.418,-0.050,-0.030
8.420,-0.080,-0.035
8.422,-0.165,-0.045
8.424,-0.205,-0.055
8.426,-0.340,-0.065
8.428,-0.305,-0.070
8.430,-0.220,-0.075
8.432,-0.135,-0.075
8.434,-0.160,-0.070
8.436,0.015,-0.065
8.438,-0.045,-0.060
8.440,-0.145,-0.055
8.442,-0.150,-0.055
8.444,-0.195,-0.055
8.446,-0.350,-0.055
8.448,-0.250,-0.055
8.450,-0.155,-0.055
8.452,-0.125,-0.055
8.454,-0.060,-0.050
8.456,0.020,-0.045
8.458,0.000,-0.040
8.460,-0.105,-0.035
8.462,-0.165,-0.035
8.464,-0.185,-0.035
8.466,-0.315,-0.035
8.468,-0.255,-0.040
8.470,-0.155,-0.035
8.472,-0.035,-0.035
8.474,-0.045,-0.030
8.476,0.035,-0.025
8.478,-0.025,-0.020
8.480,-0.085,-0.015
8.482,-0.185,-0.015
8.484,-0.170,-0.020
8.486,-0.285,-0.025
8.488,-0.240,-0.025
8.490,-0.165,-0.030
8.492,-0.060,-0.035
8.494,-0.070,-0.035
8.496,0.095,-0.030
8.498,-0.025,-0.025
8.500,-0.165,-0.025
8.502,-0.200,-0.025
8.504,-0.190,-0.025
8.506,-0.255,-0.030
8.508,-0.190,-0.035
8.510,-0.180,-0.040
8.512,-0.085,-0.040
8.514,0.000,-0.040
8.516,-0.010,-0.040
8.518,-0.020,-0.035
8.520,-0.115,-0.030
8.522,-0.245,-0.030
8.524,-0.215,-0.025
8.526,-0.250,-0.030
8.528,-0.235,-0.035
8.530,-0.220,-0.045
8.532,-0.100,-0.050
8.534,-0.080,-0.060
8.536,0.035,-0.065
8.538,-0.045,-0.065
8.540,-0.070,-0.060
8.542,-0.235,-0.055
8.544,-0.285,-0.050
8.546,-0.335,-0.050
8.548,-0.245,-0.045
8.550,-0.145,-0.045
8.552,-0.075,-0.045
8.554,-0.025,-0.050
8.556,-0.005,-0.055
8.558,-0.005,-0.060
8.560,-0.140,-0.060
8.562,-0.200,-0.065
8.564,-0.240,-0.065
8.566,-0.375,-0.065
8.568,-0.360,-0.065
8.570,-0.145,-0.065
8.572,-0.060,-0.060
8.574,-0.065,-0.060
8.576,0.005,-0.060
8.578,-0.060,-0.060
8.580,-0.140,-0.060
8.582,-0.220,-0.055
8.584,-0.315,-0.055
8.586,-0.335,-0.050
8.588,-0.180,-0.045
8.590,-0.175,-0.045
8.592,-0.050,-0.040
8.594,-0.025,-0.040
8.596,-0.020,-0.040
8.598,-0.025,-0.040
8.600,-0.120,-0.050
8.602,-0.255,-0.055
8.604,-0.295,-0.060
8.606,-0.285,-0.070
8.608,-0.265,-0.070
8.610,-0.165,-0.070
8.612,-0.065,-0.065
8.614,-0.025,-0.060
8.616,0.000,-0.055
8.618,-0.030,-0.050
8.620,-0.135,-0.045
8.622,-0.220,-0.045
8.624,-0.335,-0.045
8.626,-0.300,-0.050
8.628,-0.205,-0.055
8.630,-0.080,-0.060
8.632,-0.075,-0.065
8.634,-0.020,-0.065
8.636,-0.010,-0.060
8.638,-0.070,-0.050
8.640,-0.175,-0.040
8.642,-0.180,-0.030
8.644,-0.235,-0.020
8.646,-0.260,-0.010
8.648,-0.190,0.000
8.650,-0.055,0.010
8.652,0.010,0.020
8.654,0.050,0.035
8.656,0.100,0.050
8.658,0.070,0.070
8.660,-0.005,0.095
8.662,-0.025,0.115
8.664,-0.160,0.140
8.666,-0.035,0.165
8.668,0.060,0.180
8.670,0.215,0.195
8.672,0.185,0.205
8.674,0.140,0.205
8.676,0.195,0.195
8.678,0.140,0.175
8.680,0.030,0.145
8.682,-0.070,0.105
8.684,-0.185,0.060
8.686,-0.195,0.010
8.688,-0.230,-0.040
8.690,-0.235,-0.090
8.692,-0.200,-0.125
8.694,-0.140,-0.145
8.696,-0.130,-0.155
8.698,-0.145,-0.150
8.700,-0.210,-0.130
8.702,-0.295,-0.105
8.704,-0.295,-0.080
8.706,-0.265,-0.060
8.708,-0.180,-0.045
8.710,-0.085,-0.040
8.712,-0.080,-0.045
8.714,-0.035,-0.055
8.716,-0.030,-0.065
8.718,-0.135,-0.070
8.720,-0.185,-0.075
8.722,-0.220,-0.075
8.724,-0.285,-0.065
8.726,-0.280,-0.055
8.728,-0.220,-0.045
8.730,-0.090,-0.040
8.732,-0.055,-0.035
8.734,0.025,-0.035
8.736,-0.010,-0.035
8.738,-0.115,-0.040
8.740,-0.230,-0.045
8.742,-0.265,-0.045
8.744,-0.255,-0.045
8.746,-0.220,-0.045
8.748,-0.170,-0.045
8.750,-0.095,-0.040
8.752,-0.085,-0.040
8.754,-0.070,-0.040
8.756,-0.005,-0.040
8.758,-0.070,-0.045
8.760,-0.200,-0.045
8.762,-0.235,-0.045
8.764,-0.370,-0.045
8.766,-0.195,-0.045
8.768,-0.165,-0.040
8.770,-0.145,-0.035
8.772,-0.075,-0.035
8.774,0.045,-0.030
8.776,0.010,-0.030
8.778,-0.140,-0.030
8.780,-0.170,-0.030
8.782,-0.215,-0.035
8.784,-0.270,-0.035
8.786,-0.230,-0.035
8.788,-0.165,-0.030
8.790,-0.115,-0.030
8.792,-0.040,-0.025
8.794,0.040,-0.020
8.796,0.005,-0.015
8.798,-0.075,-0.010
8.800,-0.160,-0.010
8.802,-0.215,-0.005
8.804,-0.285,-0.005
8.806,-0.270,0.000
8.808,-0.110,0.000
8.810,-0.030,0.000
8.812,-0.005,0.000
8.814,0.035,-0.005
8.816,-0.025,-0.010
8.818,-0.125,-0.015
8.820,-0.200,-0.020
8.822,-0.165,-0.025
8.824,-0.305,-0.025
8.826,-0.205,-0.025
8.828,-0.095,-0.025
8.830,-0.110,-0.020
8.832,-0.020,-0.015
8.834,0.030,-0.010
8.836,-0.040,-0.005
8.838,-0.055,0.000
8.840,-0.125,0.005
8.842,-0.225,0.010
8.844,-0.200,0.010
8.846,-0.225,0.015
8.848,-0.095,0.015
8.850,-0.020,0.020
8.852,0.010,0.025
8.854,0.070,0.030
8.856,0.045,0.035
8.858,-0.085,0.040
8.860,-0.110,0.045
8.862,-0.095,0.055
8.864,-0.200,0.060
8.866,-0.130,0.070
8.868,-0.050,0.075
8.870,0.035,0.085
8.872,0.080,0.090
8.874,0.155,0.090
8.876,0.085,0.090
8.878,-0.050,0.090
8.880,-0.105,0.085
8.882,-0.130,0.085
8.884,-0.165,0.090
8.886,-0.080,0.095
8.888,0.035,0.110
8.890,0.060,0.125
8.892,0.155,0.140
8.894,0.135,0.155
8.896,0.190,0.165
8.898,0.055,0.175
8.900,-0.065,0.180
8.902,0.000,0.175
8.904,-0.105,0.170
8.906,-0.060,0.165
8.908,0.040,0.160
8.910,0.115,0.155
8.912,0.150,0.155
8.914,0.220,0.155
8.916,0.090,0.160
8.918,0.050,0.165
8.920,0.025,0.170
8.922,-0.070,0.170
8.924,-0.080,0.170
8.926,-0.085,0.165
8.928,0.030,0.160
8.930,0.165,0.150
8.932,0.115,0.140
8.934,0.175,0.130
8.936,0.100,0.125
8.938,0.030,0.120
8.940,-0.095,0.115
8.942,-0.105,0.110
8.944,-0.170,0.105
8.946,-0.135,0.100
8.948,-0.035,0.095
8.950,0.070,0.090
8.952,0.105,0.085
8.954,0.095,0.075
8.956,-0.020,0.065
8.958,-0.010,0.055
8.960,-0.145,0.040
8.962,-0.255,0.030
8.964,-0.220,0.020
8.966,-0.235,0.010
8.968,-0.165,0.005
8.970,-0.080,0.000
8.972,0.070,0.000
8.974,0.090,0.005
8.976,-0.045,0.005
8.978,-0.055,0.005
8.980,-0.175,0.010
8.982,-0.370,0.010
8.984,-0.285,0.005
8.986,-0.145,0.005
8.988,-0.035,0.000
8.990,-0.015,-0.005
8.992,0.000,-0.005
8.994,-0.080,-0.010
8.996,-0.090,-0.010
8.998,-0.100,-0.015
9.000,-0.200,-0.015
9.002,-0.250,-0.025
9.004,-0.280,-0.030
9.006,-0.175,-0.040
9.008,-0.220,-0.050
9.010,-0.120,-0.060
9.012,-0.050,-0.065
9.014,0.000,-0.065
9.016,-0.120,-0.060
9.018,-0.230,-0.055
9.020,-0.190,-0.045
9.022,-0.300,-0.035
9.024,-0.330,-0.030
9.026,-0.235,-0.025
9.028,-0.120,-0.030
9.030,-0.075,-0.030
9.032,-0.010,-0.035
9.034,-0.035,-0.035
9.036,-0.070,-0.035
9.038,-0.165,-0.035
9.040,-0.250,-0.030
9.042,-0.320,-0.025
9.044,-0.260,-0.025
9.046,-0.230,-0.025
9.048,-0.125,-0.025
9.050,-0.055,-0.025
9.052,-0.020,-0.025
9.054,-0.015,-0.025
9.056,-0.060,-0.020
9.058,-0.135,-0.015
9.060,-0.235,0.000
9.062,-0.210,0.010
9.064,-0.250,0.020
9.066,-0.160,0.030
9.068,-0.030,0.030
9.070,-0.040,0.030
9.072,-0.015,0.025
9.074,0.045,0.015
9.076,-0.050,0.005
9.078,-0.155,-0.005
9.080,-0.205,-0.010
9.082,-0.300,-0.015
9.084,-0.295,-0.015
9.086,-0.205,-0.015
9.088,-0.075,-0.010
9.090,-0.005,-0.010
9.092,0.040,-0.010
9.094,-0.010,-0.005
9.096,-0.085,-0.005
9.098,-0.150,0.000
9.100,-0.190,0.010
9.102,-0.295,0.015
9.104,-0.205,0.020
9.106,-0.185,0.025
9.108,-0.055,0.025
9.110,0.020,0.020
9.112,0.060,0.010
9.114,-0.040,0.005
9.116,-0.115,0.000
9.118,-0.165,-0.005
9.120,-0.255,0.000
9.122,-0.255,0.010
9.124,-0.200,0.020
9.126,-0.115,0.035
9.128,0.000,0.050
9.130,0.065,0.055
9.132,0.070,0.055
9.134,0.030,0.045
9.136,-0.120,0.035
9.138,-0.155,0.020
9.140,-0.170,0.005
9.142,-0.315,-0.005
9.144,-0.295,-0.005
9.146,-0.165,0.000
9.148,-0.055,0.015
9.150,-0.005,0.030
9.152,0.165,0.050
9.154,0.035,0.065
9.156,-0.020,0.070
9.158,-0.130,0.070
9.160,-0.225,0.065
9.162,-0.265,0.055
9.164,-0.255,0.045
9.166,-0.105,0.035
9.168,-0.045,0.025
9.170,-0.010,0.025
9.172,0.065,0.025
9.174,0.025,0.025
9.176,-0.045,0.030
9.178,-0.130,0.030
9.180,-0.185,0.030
9.182,-0.270,0.030
9.184,-0.245,0.025
9.186,-0.160,0.020
9.188,-0.005,0.020
9.190,-0.020,0.015
9.192,0.055,0.015
9.194,0.040,0.020
9.196,-0.080,0.025
9.198,-0.160,0.030
9.200,-0.190,0.035
9.202,-0.300,0.035
9.204,-0.195,0.035
9.206,-0.155,0.035
9.208,-0.005,0.030
9.210,0.010,0.020
9.212,0.055,0.015
9.214,-0.050,0.005
9.216,-0.160,0.000
9.218,-0.210,-0.005
9.220,-0.225,-0.010
9.222,-0.285,-0.010
9.224,-0.250,-0.010
9.226,-0.120,-0.005
9.228,-0.045,-0.005
9.230,-0.075,-0.005
9.232,-0.035,-0.005
9.234,-0.030,-0.005
9.236,-0.105,-0.005
9.238,-0.195,-0.005
9.240,-0.320,-0.005
9.242,-0.260,0.000
9.244,-0.195,0.005
9.246,-0.190,0.010
9.248,-0.030,0.015
9.250,-0.005,0.015
9.252,-0.015,0.015
9.254,0.045,0.015
9.256,-0.115,0.010
9.258,-0.255,0.005
9.260,-0.305,-0.005
9.262,-0.305,-0.005
9.264,-0.220,-0.010
9.266,-0.135,-0.010
9.268,-0.090,-0.010
9.270,0.000,-0.005
9.272,-0.030,-0.005
9.274,-0.025,-0.005
9.276,-0.145,-0.010
9.278,-0.235,-0.015
9.280,-0.255,-0.015
9.282,-0.380,-0.020
9.284,-0.285,-0.020
9.286,-0.115,-0.015
9.288,-0.060,-0.005
9.290,0.095,0.005
9.292,0.040,0.015
9.294,-0.105,0.025
9.296,-0.120,0.030
9.298,-0.190,0.030
9.300,-0.260,0.025
9.302,-0.290,0.015
9.304,-0.235,0.000
9.306,-0.185,-0.010
9.308,-0.040,-0.020
9.310,-0.050,-0.020
9.312,-0.015,-0.020
9.314,-0.020,-0.010
9.316,-0.145,0.000
9.318,-0.190,0.015
9.320,-0.225,0.030
9.322,-0.205,0.045
9.324,-0.210,0.055
9.326,-0.095,0.070
9.328,0.035,0.085
9.330,0.130,0.100
9.332,0.180,0.120
9.334,0.150,0.150
9.336,0.020,0.180
9.338,-0.045,0.210
9.340,-0.075,0.245
9.342,0.010,0.270
9.344,0.155,0.290
9.346,0.190,0.295
9.348,0.205,0.295
9.350,0.305,0.280
9.352,0.195,0.260
9.354,0.130,0.225
9.356,0.045,0.190
9.358,-0.020,0.155
9.360,-0.180,0.120
9.362,-0.260,0.085
9.364,-0.165,0.050
9.366,-0.085,0.025
9.368,-0.070,0.000
9.370,-0.025,-0.020
9.372,-0.030,-0.035
9.374,-0.170,-0.045
9.376,-0.240,-0.050
9.378,-0.220,-0.045
9.380,-0.325,-0.035
9.382,-0.345,-0.025
9.384,-0.240,-0.015
9.386,-0.080,-0.005
9.388,-0.050,0.000
9.390,0.075,0.005
9.392,-0.030,0.005
9.394,-0.110,0.000
9.396,-0.195,0.000
9.398,-0.235,0.000
9.400,-0.300,0.005
9.402,-0.240,0.010
9.404,-0.200,0.015
9.406,-0.050,0.025
9.408,0.015,0.030
9.410,0.045,0.035
9.412,-0.015,0.040
9.414,-0.065,0.040
9.416,-0.125,0.035
9.418,-0.210,0.030
9.420,-0.270,0.020
9.422,-0.245,0.010
9.424,-0.175,0.005
9.426,-0.085,-0.005
9.428,-0.050,-0.010
9.430,-0.005,-0.010
9.432,-0.015,-0.015
9.434,-0.135,-0.015
9.436,-0.185,-0.010
9.438,-0.245,0.000
9.440,-0.285,0.010
9.442,-0.250,0.020
9.444,-0.120,0.035
9.446,-0.010,0.045
9.448,0.020,0.050
9.450,0.080,0.055
9.452,-0.020,0.050
9.454,-0.105,0.040
9.456,-0.195,0.030
9.458,-0.145,0.015
9.460,-0.295,0.000
9.462,-0.280,-0.005
9.464,-0.220,-0.010
9.466,-0.140,-0.005
9.468,-0.075,0.000
9.470,0.035,0.010
9.472,0.015,0.025
9.474,-0.070,0.030
9.476,-0.200,0.040
9.478,-0.165,0.040
9.480,-0.280,0.035
9.482,-0.245,0.030
9.484,-0.115,0.025
9.486,-0.070,0.020
9.488,-0.040,0.020
9.490,0.010,0.025
9.492,0.085,0.030
9.494,-0.060,0.040
9.496,-0.225,0.050
9.498,-0.205,0.060
9.500,-0.260,0.060
9.502,-0.180,0.060
9.504,-0.095,0.060
9.506,-0.055,0.050
9.508,0.055,0.045
9.510,0.085,0.040
9.512,-0.020,0.040
9.514,-0.115,0.040
9.516,-0.150,0.045
9.518,-0.220,0.055
9.520,-0.255,0.065
9.522,-0.120,0.070
9.524,-0.050,0.075
9.526,-0.070,0.080
9.528,0.015,0.080
9.530,0.125,0.080
9.532,0.050,0.075
9.534,-0.015,0.080
9.536,-0.080,0.080
9.538,-0.175,0.090
9.540,-0.260,0.095
9.542,-0.180,0.100
9.544,-0.045,0.105
9.546,0.035,0.105
9.548,0.090,0.105
9.550,0.140,0.100
9.552,0.015,0.095
9.554,-0.040,0.090
9.556,-0.115,0.090
9.558,-0.115,0.085
9.560,-0.175,0.085
9.562,-0.140,0.085
9.564,-0.080,0.080
9.566,-0.005,0.075
9.568,0.040,0.060
9.570,0.035,0.045
9.572,-0.070,0.025
9.574,-0.175,0.000
9.576,-0.255,-0.020
9.578,-0.285,-0.040
9.580,-0.345,-0.060
9.582,-0.320,-0.080
9.584,-0.270,-0.095
9.586,-0.210,-0.110
9.588,-0.165,-0.125
9.590,-0.115,-0.140
9.592,-0.245,-0.155
9.594,-0.320,-0.160
9.596,-0.375,-0.160
9.598,-0.410,-0.155
9.600,-0.400,-0.145
9.602,-0.295,-0.130
9.604,-0.200,-0.115
9.606,-0.175,-0.100
9.608,-0.115,-0.085
9.610,-0.090,-0.080
9.612,-0.125,-0.080
9.614,-0.250,-0.085
9.616,-0.305,-0.085
9.618,-0.305,-0.090
9.620,-0.370,-0.090
9.622,-0.330,-0.090
9.624,-0.180,-0.080
9.626,-0.130,-0.075
9.628,-0.050,-0.070
9.630,-0.095,-0.065
9.632,-0.135,-0.065
9.634,-0.270,-0.070
9.636,-0.345,-0.075
9.638,-0.320,-0.080
9.640,-0.330,-0.090
9.642,-0.335,-0.095
9.644,-0.205,-0.095
9.646,-0.130,-0.100
9.648,-0.120,-0.100
9.650,-0.100,-0.105
9.652,-0.175,-0.110
9.654,-0.320,-0.120
9.656,-0.375,-0.125
9.658,-0.395,-0.135
9.660,-0.330,-0.135
9.662,-0.380,-0.135
9.664,-0.230,-0.130
9.666,-0.170,-0.120
9.668,-0.115,-0.110
9.670,-0.090,-0.105
9.672,-0.185,-0.100
9.674,-0.290,-0.095
9.676,-0.355,-0.100
9.678,-0.380,-0.105
9.680,-0.330,-0.110
9.682,-0.345,-0.115
9.684,-0.205,-0.115
9.686,-0.160,-0.110
9.688,-0.080,-0.100
9.690,-0.135,-0.095
9.692,-0.140,-0.085
9.694,-0.265,-0.075
9.696,-0.335,-0.075
9.698,-0.385,-0.075
9.700,-0.335,-0.080
9.702,-0.285,-0.090
9.704,-0.190,-0.095
9.706,-0.145,-0.100
9.708,-0.070,-0.100
9.710,-0.075,-0.100
9.712,-0.165,-0.100
9.714,-0.255,-0.100
9.716,-0.330,-0.100
9.718,-0.430,-0.100
9.720,-0.375,-0.105
9.722,-0.315,-0.115
9.724,-0.225,-0.120
9.726,-0.140,-0.120
9.728,-0.045,-0.120
9.730,-0.115,-0.115
9.732,-0.165,-0.105
9.734,-0.245,-0.090
9.736,-0.315,-0.075
9.738,-0.390,-0.065
9.740,-0.305,-0.060
9.742,-0.270,-0.055
9.744,-0.170,-0.060
9.746,-0.105,-0.065
9.748,0.025,-0.075
9.750,-0.090,-0.080
9.752,-0.195,-0.080
9.754,-0.255,-0.075
9.756,-0.360,-0.065
9.758,-0.445,-0.055
9.760,-0.235,-0.045
9.762,-0.180,-0.035
9.764,-0.095,-0.035
9.766,-0.125,-0.035
9.768,-0.045,-0.040
9.770,-0.075,-0.050
9.772,-0.120,-0.055
9.774,-0.215,-0.065
9.776,-0.290,-0.065
9.778,-0.360,-0.065
9.780,-0.335,-0.065
9.782,-0.210,-0.060
9.784,-0.105,-0.055
9.786,-0.080,-0.055
9.788,-0.085,-0.055
9.790,-0.075,-0.060
9.792,-0.170,-0.065
9.794,-0.220,-0.070
9.796,-0.270,-0.070
9.798,-0.390,-0.075
9.800,-0.290,-0.070
9.802,-0.245,-0.070
9.804,-0.155,-0.060
9.806,-0.065,-0.055
9.808,-0.015,-0.045
9.810,-0.045,-0.040
9.812,-0.150,-0.035
9.814,-0.180,-0.030
9.816,-0.290,-0.030
9.818,-0.335,-0.030
9.820,-0.345,-0.030
9.822,-0.205,-0.030
9.824,-0.110,-0.030
9.826,-0.050,-0.025
9.828,-0.035,-0.020
9.830,0.005,-0.020
9.832,-0.105,-0.015
9.834,-0.205,-0.015
9.836,-0.235,-0.010
9.838,-0.300,-0.010
9.840,-0.260,-0.015
9.842,-0.260,-0.015
9.844,-0.065,-0.015
9.846,-0.025,-0.020
9.848,0.035,-0.020
9.850,-0.025,-0.015
9.852,-0.120,-0.015
9.854,-0.215,-0.015
9.856,-0.270,-0.010
9.858,-0.255,-0.010
9.860,-0.200,-0.010
9.862,-0.140,-0.010
9.864,-0.090,-0.010
9.866,-0.090,-0.020
9.868,-0.065,-0.025
9.870,-0.025,-0.035
9.872,-0.135,-0.040
9.874,-0.250,-0.050
9.876,-0.260,-0.055
9.878,-0.335,-0.055
9.880,-0.265,-0.055
9.882,-0.240,-0.055
9.884,-0.135,-0.050
9.886,-0.045,-0.045
9.888,0.010,-0.040
9.890,-0.045,-0.035
9.892,-0.150,-0.035
9.894,-0.250,-0.035
9.896,-0.300,-0.040
9.898,-0.290,-0.045
9.900,-0.290,-0.050
9.902,-0.255,-0.060
9.904,-0.105,-0.065
9.906,-0.100,-0.075
9.908,-0.030,-0.080
9.910,-0.095,-0.085
9.912,-0.145,-0.085
9.914,-0.340,-0.080
9.916,-0.335,-0.075
9.918,-0.310,-0.070
9.920,-0.315,-0.060
9.922,-0.170,-0.050
9.924,-0.105,-0.040
9.926,-0.035,-0.035
9.928,0.020,-0.030
9.930,-0.040,-0.030
9.932,-0.135,-0.030
9.934,-0.215,-0.035
9.936,-0.340,-0.045
9.938,-0.415,-0.055
9.940,-0.310,-0.065
9.942,-0.135,-0.070
9.944,-0.085,-0.075
9.946,-0.070,-0.075
9.948,-0.120,-0.075
9.950,-0.125,-0.070
9.952,-0.150,-0.060
9.954,-0.220,-0.055
9.956,-0.310,-0.050
9.958,-0.280,-0.045
9.960,-0.260,-0.045
9.962,-0.210,-0.045
9.964,-0.125,-0.050
9.966,-0.070,-0.050
9.968,-0.030,-0.050
9.970,-0.095,-0.050
9.972,-0.140,-0.050
9.974,-0.220,-0.045
9.976,-0.260,-0.045
9.978,-0.355,-0.045
9.980,-0.270,-0.045
9.982,-0.150,-0.050
9.984,-0.055,-0.055
9.986,-0.050,-0.055
9.988,-0.085,-0.060
9.990,-0.125,-0.060
9.992,-0.165,-0.055
9.994,-0.195,-0.050
9.996,-0.285,-0.040
9.998,-0.300,-0.030
