'Elapsed time','ECG I','ECG I filtered'
'seconds','mV','mV'
0.000,0.110,0.100
0.002,0.115,0.035
0.004,0.025,-0.015
0.006,-0.040,-0.055
0.008,-0.115,-0.075
0.010,-0.155,-0.080
0.012,-0.175,-0.075
0.014,-0.120,-0.055
0.016,-0.010,-0.035
0.018,0.085,-0.015
0.020,0.120,-0.005
0.022,0.105,0.000
0.024,0.030,-0.010
0.026,-0.015,-0.025
0.028,-0.095,-0.040
0.030,-0.185,-0.055
0.032,-0.175,-0.070
0.034,-0.110,-0.070
0.036,-0.010,-0.065
0.038,0.055,-0.055
0.040,0.110,-0.045
0.042,0.125,-0.030
0.044,0.050,-0.020
0.046,-0.035,-0.020
0.048,-0.125,-0.020
0.050,-0.155,-0.025
0.052,-0.115,-0.035
0.054,-0.100,-0.040
0.056,-0.020,-0.045
0.058,0.075,-0.050
0.060,0.130,-0.045
0.062,0.135,-0.035
0.064,0.075,-0.025
0.066,-0.010,-0.015
0.068,-0.095,-0.005
0.070,-0.135,0.005
0.072,-0.110,0.010
0.074,-0.055,0.015
0.076,0.035,0.015
0.078,0.110,0.010
0.080,0.175,0.010
0.082,0.160,0.005
0.084,0.120,0.005
0.086,-0.025,0.010
0.088,-0.110,0.010
0.090,-0.135,0.015
0.092,-0.120,0.020
0.094,-0.060,0.025
0.096,0.060,0.025
0.098,0.135,0.020
0.100,0.170,0.015
0.102,0.120,0.005
0.104,0.085,-0.005
0.106,-0.035,-0.015
0.108,-0.135,-0.025
0.110,-0.165,-0.030
0.112,-0.145,-0.035
0.114,-0.110,-0.040
0.116,0.005,-0.040
0.118,0.100,-0.040
0.120,0.135,-0.035
0.122,0.105,-0.035
0.124,0.030,-0.035
0.126,-0.095,-0.040
0.128,-0.175,-0.040
0.130,-0.205,-0.045
0.132,-0.155,-0.050
0.134,-0.090,-0.050
0.136,0.020,-0.050
0.138,0.130,-0.050
0.140,0.120,-0.050
0.142,0.100,-0.050
0.144,0.025,-0.045
0.146,-0.095,-0.045
0.148,-0.180,-0.045
0.150,-0.200,-0.045
0.152,-0.165,-0.045
0.154,-0.100,-0.045
0.156,0.035,-0.040
0.158,0.105,-0.040
0.160,0.100,-0.035
0.162,0.100,-0.035
0.164,0.015,-0.035
0.166,-0.105,-0.035
0.168,-0.185,-0.040
0.170,-0.195,-0.045
0.172,-0.160,-0.050
0.174,-0.110,-0.055
0.176,0.015,-0.060
0.178,0.080,-0.060
0.180,0.105,-0.055
0.182,0.060,-0.055
0.184,-0.010,-0.055
0.186,-0.130,-0.060
0.188,-0.210,-0.070
0.190,-0.245,-0.080
0.192,-0.235,-0.095
0.194,-0.150,-0.110
0.196,-0.045,-0.115
0.198,0.020,-0.105
0.200,0.075,-0.085
0.202,0.080,-0.045
0.204,0.085,0.015
0.206,0.070,0.085
0.208,0.065,0.165
0.210,0.130,0.245
0.212,0.225,0.315
0.214,0.380,0.375
0.216,0.540,0.415
0.218,0.605,0.430
0.220,0.580,0.420
0.222,0.455,0.385
0.224,0.295,0.335
0.226,0.175,0.265
0.228,0.085,0.190
0.230,0.020,0.105
0.232,-0.030,0.025
0.234,-0.120,-0.050
0.236,-0.165,-0.120
0.238,-0.090,-0.170
0.240,-0.060,-0.210
0.242,-0.120,-0.235
0.244,-0.180,-0.245
0.246,-0.275,-0.240
0.248,-0.335,-0.230
0.250,-0.345,-0.210
0.252,-0.270,-0.190
0.254,-0.185,-0.170
0.256,-0.055,-0.155
0.258,0.035,-0.135
0.260,0.065,-0.125
0.262,0.025,-0.110
0.264,-0.045,-0.095
0.266,-0.130,-0.085
0.268,-0.165,-0.065
0.270,-0.170,-0.050
0.272,-0.120,-0.035
0.274,-0.045,-0.025
0.276,0.075,-0.015
0.278,0.120,-0.005
0.280,0.120,-0.005
0.282,0.065,-0.005
0.284,0.020,-0.010
0.286,-0.090,-0.015
0.288,-0.155,-0.020
0.290,-0.145,-0.025
0.292,-0.085,-0.025
0.294,0.005,-0.020
0.296,0.085,-0.015
0.298,0.150,-0.010
0.300,0.135,-0.010
0.302,0.080,-0.005
0.304,-0.020,0.000
0.306,-0.090,0.000
0.308,-0.140,0.000
0.310,-0.150,-0.005
0.312,-0.075,-0.005
0.314,0.015,-0.005
0.316,0.090,-0.005
0.318,0.145,0.000
0.320,0.130,0.000
0.322,0.105,0.005
0.324,0.005,0.005
0.326,-0.085,0.005
0.328,-0.140,0.005
0.330,-0.110,0.005
0.332,-0.075,0.005
0.334,0.030,0.000
0.336,0.135,0.000
0.338,0.195,0.000
0.340,0.170,0.005
0.342,0.095,0.010
0.344,0.005,0.020
0.346,-0.090,0.025
0.348,-0.100,0.035
0.350,-0.095,0.040
0.352,-0.050,0.045
0.354,0.080,0.050
0.356,0.160,0.050
0.358,0.190,0.050
0.360,0.175,0.050
0.362,0.110,0.045
0.364,0.015,0.045
0.366,-0.075,0.040
0.368,-0.115,0.035
0.370,-0.085,0.035
0.372,-0.020,0.035
0.374,0.095,0.035
0.376,0.160,0.035
0.378,0.215,0.035
0.380,0.200,0.040
0.382,0.130,0.045
0.384,0.030,0.050
0.386,-0.060,0.055
0.388,-0.080,0.060
0.390,-0.050,0.060
0.392,-0.025,0.065
0.394,0.150,0.070
0.396,0.235,0.070
0.398,0.235,0.075
0.400,0.220,0.085
0.402,0.170,0.095
0.404,0.055,0.105
0.406,0.020,0.115
0.408,-0.025,0.130
0.410,-0.010,0.140
0.412,0.050,0.145
0.414,0.185,0.150
0.416,0.280,0.150
0.418,0.305,0.150
0.420,0.265,0.150
0.422,0.230,0.150
0.424,0.160,0.155
0.426,0.045,0.160
0.428,0.045,0.170
0.430,0.080,0.185
0.432,0.130,0.200
0.434,0.260,0.210
0.436,0.355,0.220
0.438,0.375,0.225
0.440,0.370,0.230
0.442,0.290,0.230
0.444,0.215,0.230
0.446,0.150,0.230
0.448,0.080,0.230
0.450,0.105,0.235
0.452,0.190,0.245
0.454,0.325,0.250
0.456,0.425,0.260
0.458,0.445,0.270
0.460,0.420,0.275
0.462,0.355,0.280
0.464,0.220,0.280
0.466,0.135,0.280
0.468,0.115,0.275
0.470,0.140,0.270
0.472,0.200,0.265
0.474,0.310,0.260
0.476,0.390,0.250
0.478,0.395,0.245
0.480,0.360,0.235
0.482,0.295,0.225
0.484,0.150,0.215
0.486,0.065,0.205
0.488,0.040,0.195
0.490,0.065,0.180
0.492,0.095,0.165
0.494,0.215,0.150
0.496,0.270,0.135
0.498,0.255,0.120
0.500,0.205,0.105
0.502,0.145,0.090
0.504,0.010,0.075
0.506,-0.075,0.065
0.508,-0.115,0.060
0.510,-0.070,0.050
0.512,0.010,0.045
0.514,0.110,0.040
0.516,0.180,0.035
0.518,0.155,0.025
0.520,0.115,0.015
0.522,0.025,0.005
0.524,-0.090,-0.005
0.526,-0.160,-0.020
0.528,-0.195,-0.025
0.530,-0.135,-0.035
0.532,-0.065,-0.035
0.534,0.065,-0.040
0.536,0.115,-0.040
0.538,0.130,-0.040
0.540,0.070,-0.035
0.542,-0.015,-0.035
0.544,-0.130,-0.040
0.546,-0.205,-0.040
0.548,-0.200,-0.045
0.550,-0.165,-0.050
0.552,-0.090,-0.055
0.554,0.035,-0.055
0.556,0.085,-0.060
0.558,0.100,-0.065
0.560,0.015,-0.065
0.562,-0.035,-0.070
0.564,-0.180,-0.070
0.566,-0.215,-0.075
0.568,-0.210,-0.080
0.570,-0.145,-0.080
0.572,-0.085,-0.080
0.574,0.025,-0.080
0.576,0.075,-0.075
0.578,0.075,-0.070
0.580,0.010,-0.065
0.582,-0.065,-0.060
0.584,-0.165,-0.060
0.586,-0.220,-0.060
0.588,-0.240,-0.060
0.590,-0.180,-0.065
0.592,-0.045,-0.070
0.594,0.035,-0.070
0.596,0.050,-0.075
0.598,0.070,-0.075
0.600,0.050,-0.070
0.602,-0.045,-0.065
0.604,-0.135,-0.055
0.606,-0.205,-0.050
0.608,-0.190,-0.050
0.610,-0.160,-0.050
0.612,-0.090,-0.055
0.614,0.015,-0.060
0.616,0.100,-0.065
0.618,0.095,-0.070
0.620,0.035,-0.070
0.622,-0.055,-0.070
0.624,-0.165,-0.065
0.626,-0.215,-0.060
0.628,-0.200,-0.055
0.630,-0.155,-0.055
0.632,-0.045,-0.050
0.634,0.040,-0.050
0.636,0.090,-0.055
0.638,0.060,-0.060
0.640,0.015,-0.060
0.642,-0.065,-0.065
0.644,-0.150,-0.065
0.646,-0.210,-0.060
0.648,-0.185,-0.055
0.650,-0.120,-0.050
0.652,-0.020,-0.050
0.654,0.050,-0.045
0.656,0.090,-0.045
0.658,0.080,-0.045
0.660,0.020,-0.050
0.662,-0.095,-0.055
0.664,-0.170,-0.055
0.666,-0.210,-0.055
0.668,-0.180,-0.050
0.670,-0.120,-0.050
0.672,-0.030,-0.045
0.674,0.075,-0.040
0.676,0.100,-0.040
0.678,0.095,-0.040
0.680,0.025,-0.045
0.682,-0.100,-0.050
0.684,-0.170,-0.055
0.686,-0.215,-0.060
0.688,-0.190,-0.060
0.690,-0.135,-0.065
0.692,-0.025,-0.065
0.694,0.065,-0.060
0.696,0.095,-0.060
0.698,0.065,-0.055
0.700,0.005,-0.050
0.702,-0.105,-0.050
0.704,-0.165,-0.050
0.706,-0.190,-0.055
0.708,-0.190,-0.055
0.710,-0.125,-0.055
0.712,-0.025,-0.060
0.714,0.060,-0.060
0.716,0.095,-0.060
0.718,0.050,-0.060
0.720,0.000,-0.060
0.722,-0.125,-0.060
0.724,-0.180,-0.060
0.726,-0.200,-0.055
0.728,-0.180,-0.055
0.730,-0.120,-0.055
0.732,-0.010,-0.055
0.734,0.070,-0.055
0.736,0.095,-0.055
0.738,0.050,-0.060
0.740,-0.015,-0.060
0.742,-0.130,-0.060
0.744,-0.200,-0.065
0.746,-0.230,-0.070
0.748,-0.190,-0.075
0.750,-0.125,-0.075
0.752,-0.015,-0.080
0.754,0.060,-0.080
0.756,0.075,-0.080
0.758,0.045,-0.080
0.760,-0.030,-0.075
0.762,-0.155,-0.070
0.764,-0.185,-0.070
0.766,-0.225,-0.070
0.768,-0.195,-0.070
0.770,-0.135,-0.070
0.772,-0.035,-0.075
0.774,0.070,-0.080
0.776,0.070,-0.085
0.778,0.055,-0.090
0.780,-0.020,-0.090
0.782,-0.155,-0.085
0.784,-0.220,-0.080
0.786,-0.235,-0.070
0.788,-0.175,-0.065
0.790,-0.110,-0.060
0.792,0.015,-0.055
0.794,0.065,-0.055
0.796,0.070,-0.055
0.798,0.040,-0.060
0.800,-0.010,-0.070
0.802,-0.155,-0.075
0.804,-0.190,-0.075
0.806,-0.205,-0.075
0.808,-0.170,-0.070
0.810,-0.090,-0.065
0.812,0.030,-0.055
0.814,0.100,-0.050
0.816,0.105,-0.040
0.818,0.065,-0.035
0.820,0.000,-0.030
0.822,-0.125,-0.030
0.824,-0.185,-0.035
0.826,-0.195,-0.035
0.828,-0.145,-0.040
0.830,-0.085,-0.040
0.832,0.035,-0.040
0.834,0.100,-0.040
0.836,0.115,-0.035
0.838,0.060,-0.035
0.840,-0.010,-0.030
0.842,-0.135,-0.030
0.844,-0.205,-0.030
0.846,-0.185,-0.030
0.848,-0.150,-0.030
0.850,-0.085,-0.035
0.852,0.035,-0.045
0.854,0.080,-0.050
0.856,0.080,-0.060
0.858,0.010,-0.065
0.860,-0.070,-0.070
0.862,-0.185,-0.070
0.864,-0.205,-0.070
0.866,-0.220,-0.070
0.868,-0.200,-0.070
0.870,-0.100,-0.070
0.872,-0.010,-0.070
0.874,0.075,-0.070
0.876,0.070,-0.070
0.878,0.000,-0.075
0.880,-0.080,-0.075
0.882,-0.170,-0.075
0.884,-0.245,-0.075
0.886,-0.245,-0.080
0.888,-0.180,-0.085
0.890,-0.095,-0.085
0.892,0.005,-0.090
0.894,0.040,-0.095
0.896,0.045,-0.100
0.898,-0.005,-0.100
0.900,-0.080,-0.100
0.902,-0.200,-0.100
0.904,-0.255,-0.095
0.906,-0.245,-0.090
0.908,-0.170,-0.085
0.910,-0.085,-0.080
0.912,0.000,-0.080
0.914,0.045,-0.080
0.916,0.020,-0.085
0.918,-0.045,-0.090
0.920,-0.115,-0.090
0.922,-0.175,-0.095
0.924,-0.240,-0.095
0.926,-0.240,-0.095
0.928,-0.180,-0.095
0.930,-0.090,-0.095
0.932,-0.015,-0.100
0.934,-0.005,-0.110
0.936,-0.025,-0.120
0.938,-0.085,-0.135
0.940,-0.185,-0.150
0.942,-0.280,-0.155
0.944,-0.310,-0.145
0.946,-0.265,-0.125
0.948,-0.160,-0.085
0.950,-0.010,-0.025
0.952,0.165,0.045
0.954,0.295,0.130
0.956,0.365,0.215
0.958,0.370,0.295
0.960,0.370,0.365
0.962,0.335,0.415
0.964,0.340,0.440
0.966,0.315,0.440
0.968,0.290,0.410
0.970,0.295,0.360
0.972,0.350,0.285
0.974,0.390,0.200
0.976,0.270,0.105
0.978,0.105,0.010
0.980,-0.155,-0.075
0.982,-0.385,-0.145
0.984,-0.415,-0.200
0.986,-0.400,-0.235
0.988,-0.330,-0.250
0.990,-0.200,-0.255
0.992,-0.105,-0.245
0.994,-0.055,-0.225
0.996,-0.085,-0.205
0.998,-0.120,-0.185
1.000,-0.210,-0.165
1.002,-0.275,-0.150
1.004,-0.300,-0.135
1.006,-0.260,-0.120
1.008,-0.200,-0.105
1.010,-0.045,-0.090
1.012,0.055,-0.080
1.014,0.080,-0.070
1.016,0.065,-0.065
1.018,0.010,-0.060
1.020,-0.135,-0.060
1.022,-0.210,-0.060
1.024,-0.230,-0.065
1.026,-0.185,-0.060
1.028,-0.130,-0.060
1.030,0.000,-0.055
1.032,0.090,-0.045
1.034,0.095,-0.040
1.036,0.050,-0.030
1.038,-0.010,-0.030
1.040,-0.135,-0.025
1.042,-0.170,-0.030
1.044,-0.190,-0.030
1.046,-0.165,-0.035
1.048,-0.115,-0.035
1.050,0.000,-0.035
1.052,0.090,-0.035
1.054,0.105,-0.030
1.056,0.080,-0.030
1.058,-0.005,-0.025
1.060,-0.115,-0.030
1.062,-0.185,-0.030
1.064,-0.185,-0.035
1.066,-0.175,-0.040
1.068,-0.095,-0.040
1.070,0.020,-0.040
1.072,0.100,-0.040
1.074,0.110,-0.030
1.076,0.050,-0.025
1.078,0.005,-0.015
1.080,-0.115,-0.010
1.082,-0.170,-0.010
1.084,-0.170,-0.010
1.086,-0.125,-0.010
1.088,-0.080,-0.015
1.090,0.035,-0.020
1.092,0.085,-0.025
1.094,0.115,-0.025
1.096,0.085,-0.020
1.098,0.025,-0.010
1.100,-0.070,0.000
1.102,-0.130,0.015
1.104,-0.165,0.025
1.106,-0.110,0.030
1.108,-0.030,0.035
1.110,0.090,0.035
1.112,0.135,0.030
1.114,0.150,0.025
1.116,0.100,0.025
1.118,0.040,0.020
1.120,-0.095,0.020
1.122,-0.130,0.020
1.124,-0.140,0.025
1.126,-0.090,0.025
1.128,-0.030,0.030
1.130,0.110,0.030
1.132,0.140,0.030
1.134,0.170,0.035
1.136,0.130,0.035
1.138,0.060,0.040
1.140,-0.045,0.050
1.142,-0.120,0.055
1.144,-0.100,0.065
1.146,-0.025,0.075
1.148,0.030,0.085
1.150,0.145,0.090
1.152,0.205,0.095
1.154,0.225,0.095
1.156,0.175,0.090
1.158,0.110,0.090
1.160,-0.015,0.090
1.162,-0.055,0.095
1.164,-0.055,0.100
1.166,-0.005,0.110
1.168,0.070,0.120
1.170,0.215,0.135
1.172,0.270,0.145
1.174,0.280,0.155
1.176,0.240,0.165
1.178,0.185,0.165
1.180,0.060,0.170
1.182,0.025,0.170
1.184,0.040,0.175
1.186,0.085,0.180
1.188,0.175,0.185
1.190,0.275,0.200
1.192,0.310,0.210
1.194,0.345,0.220
1.196,0.290,0.230
1.198,0.185,0.240
1.200,0.095,0.240
1.202,0.070,0.240
1.204,0.065,0.235
1.206,0.135,0.230
1.208,0.225,0.225
1.210,0.320,0.225
1.212,0.345,0.225
1.214,0.345,0.225
1.216,0.300,0.230
1.218,0.195,0.230
1.220,0.095,0.230
1.222,0.045,0.230
1.224,0.040,0.225
1.226,0.090,0.220
1.228,0.190,0.210
1.230,0.260,0.200
1.232,0.290,0.185
1.234,0.260,0.175
1.236,0.200,0.165
1.238,0.110,0.150
1.240,-0.005,0.140
1.242,-0.060,0.125
1.244,-0.070,0.110
1.246,-0.035,0.095
1.248,0.045,0.080
1.250,0.150,0.060
1.252,0.155,0.045
1.254,0.145,0.030
1.256,0.075,0.020
1.258,-0.050,0.010
1.260,-0.135,0.005
1.262,-0.190,0.000
1.264,-0.170,-0.005
1.266,-0.120,-0.015
1.268,-0.005,-0.020
1.270,0.060,-0.025
1.272,0.080,-0.030
1.274,0.075,-0.040
1.276,0.005,-0.040
1.278,-0.090,-0.045
1.280,-0.195,-0.045
1.282,-0.245,-0.045
1.284,-0.215,-0.045
1.286,-0.150,-0.045
1.288,-0.030,-0.045
1.290,0.045,-0.045
1.292,0.110,-0.050
1.294,0.050,-0.055
1.296,0.000,-0.065
1.298,-0.135,-0.070
1.300,-0.220,-0.075
1.302,-0.260,-0.075
1.304,-0.220,-0.075
1.306,-0.160,-0.075
1.308,-0.055,-0.075
1.310,0.030,-0.075
1.312,0.055,-0.075
1.314,0.045,-0.075
1.316,-0.015,-0.070
1.318,-0.140,-0.075
1.320,-0.215,-0.075
1.322,-0.250,-0.075
1.324,-0.220,-0.075
1.326,-0.155,-0.075
1.328,-0.040,-0.070
1.330,0.040,-0.070
1.332,0.060,-0.070
1.334,0.010,-0.070
1.336,-0.040,-0.065
1.338,-0.155,-0.065
1.340,-0.220,-0.065
1.342,-0.250,-0.065
1.344,-0.210,-0.065
1.346,-0.150,-0.065
1.348,-0.020,-0.065
1.350,0.045,-0.060
1.352,0.055,-0.060
1.354,0.045,-0.060
1.356,-0.020,-0.060
1.358,-0.160,-0.055
1.360,-0.250,-0.055
1.362,-0.220,-0.055
1.364,-0.210,-0.050
1.366,-0.155,-0.050
1.368,-0.005,-0.050
1.370,0.055,-0.055
1.372,0.090,-0.055
1.374,0.030,-0.055
1.376,-0.040,-0.060
1.378,-0.145,-0.060
1.380,-0.225,-0.060
1.382,-0.220,-0.060
1.384,-0.195,-0.055
1.386,-0.120,-0.050
1.388,-0.005,-0.045
1.390,0.065,-0.040
1.392,0.080,-0.035
1.394,0.050,-0.035
1.396,-0.035,-0.030
1.398,-0.145,-0.030
1.400,-0.195,-0.030
1.402,-0.220,-0.030
1.404,-0.185,-0.035
1.406,-0.115,-0.035
1.408,0.010,-0.040
1.410,0.060,-0.040
1.412,0.065,-0.040
1.414,0.025,-0.040
1.416,-0.045,-0.040
1.418,-0.145,-0.040
1.420,-0.185,-0.035
1.422,-0.205,-0.035
1.424,-0.155,-0.030
1.426,-0.095,-0.030
1.428,0.025,-0.030
1.430,0.075,-0.030
1.432,0.085,-0.030
1.434,0.040,-0.030
1.436,-0.030,-0.035
1.438,-0.145,-0.035
1.440,-0.210,-0.035
1.442,-0.215,-0.035
1.444,-0.165,-0.040
1.446,-0.085,-0.040
1.448,0.030,-0.040
1.450,0.060,-0.040
1.452,0.085,-0.040
1.454,0.030,-0.040
1.456,-0.020,-0.035
1.458,-0.155,-0.035
1.460,-0.210,-0.030
1.462,-0.195,-0.030
1.464,-0.155,-0.025
1.466,-0.085,-0.025
1.468,0.045,-0.030
1.470,0.065,-0.035
1.472,0.070,-0.040
1.474,0.035,-0.050
1.476,-0.035,-0.055
1.478,-0.145,-0.055
1.480,-0.205,-0.050
1.482,-0.210,-0.045
1.484,-0.155,-0.035
1.486,-0.095,-0.025
1.488,0.050,-0.015
1.490,0.100,-0.005
1.492,0.100,-0.005
1.494,0.040,-0.005
1.496,-0.075,-0.015
1.498,-0.205,-0.025
1.500,-0.190,-0.035
1.502,-0.205,-0.045
1.504,-0.135,-0.050
1.506,-0.045,-0.055
1.508,0.045,-0.050
1.510,0.080,-0.045
1.512,0.080,-0.040
1.514,0.010,-0.035
1.516,-0.070,-0.035
1.518,-0.170,-0.035
1.520,-0.210,-0.040
1.522,-0.225,-0.045
1.524,-0.160,-0.050
1.526,-0.050,-0.055
1.528,0.040,-0.055
1.530,0.085,-0.050
1.532,0.085,-0.045
1.534,0.020,-0.040
1.536,-0.100,-0.035
1.538,-0.170,-0.030
1.540,-0.210,-0.030
1.542,-0.205,-0.030
1.544,-0.145,-0.030
1.546,-0.045,-0.035
1.548,0.045,-0.035
1.550,0.055,-0.035
1.552,0.065,-0.035
1.554,0.000,-0.035
1.556,-0.090,-0.035
1.558,-0.180,-0.035
1.560,-0.220,-0.035
1.562,-0.190,-0.035
1.564,-0.135,-0.040
1.566,-0.050,-0.040
1.568,0.045,-0.045
1.570,0.090,-0.050
1.572,0.050,-0.050
1.574,-0.005,-0.045
1.576,-0.100,-0.045
1.578,-0.185,-0.040
1.580,-0.210,-0.035
1.582,-0.200,-0.030
1.584,-0.115,-0.030
1.586,0.000,-0.030
1.588,0.060,-0.030
1.590,0.105,-0.030
1.592,0.060,-0.030
1.594,0.005,-0.030
1.596,-0.110,-0.030
1.598,-0.180,-0.030
1.600,-0.200,-0.030
1.602,-0.185,-0.030
1.604,-0.130,-0.030
1.606,-0.020,-0.030
1.608,0.065,-0.035
1.610,0.100,-0.035
1.612,0.075,-0.035
1.614,0.010,-0.035
1.616,-0.080,-0.030
1.618,-0.150,-0.025
1.620,-0.175,-0.015
1.622,-0.145,-0.005
1.624,-0.095,0.000
1.626,0.040,0.005
1.628,0.105,0.010
1.630,0.140,0.010
1.632,0.090,0.010
1.634,0.035,0.010
1.636,-0.070,0.005
1.638,-0.130,0.005
1.640,-0.175,0.005
1.642,-0.125,0.010
1.644,-0.090,0.010
1.646,0.015,0.005
1.648,0.080,0.005
1.650,0.130,0.000
1.652,0.080,-0.010
1.654,0.025,-0.015
1.656,-0.105,-0.025
1.658,-0.180,-0.030
1.660,-0.185,-0.035
1.662,-0.155,-0.035
1.664,-0.085,-0.030
1.666,0.010,-0.030
1.668,0.070,-0.025
1.670,0.090,-0.025
1.672,0.075,-0.025
1.674,-0.020,-0.025
1.676,-0.140,-0.030
1.678,-0.195,-0.030
1.680,-0.220,-0.035
1.682,-0.175,-0.040
1.684,-0.120,-0.040
1.686,0.010,-0.035
1.688,0.065,-0.035
1.690,0.075,-0.035
1.692,0.030,-0.030
1.694,-0.020,-0.030
1.696,-0.150,-0.030
1.698,-0.225,-0.035
1.700,-0.245,-0.040
1.702,-0.175,-0.040
1.704,-0.110,-0.045
1.706,0.020,-0.050
1.708,0.055,-0.050
1.710,0.090,-0.050
1.712,0.035,-0.050
1.714,-0.050,-0.050
1.716,-0.165,-0.050
1.718,-0.225,-0.050
1.720,-0.225,-0.050
1.722,-0.195,-0.050
1.724,-0.135,-0.045
1.726,0.020,-0.045
1.728,0.075,-0.040
1.730,0.075,-0.040
1.732,0.030,-0.035
1.734,-0.050,-0.035
1.736,-0.165,-0.040
1.738,-0.230,-0.050
1.740,-0.240,-0.060
1.742,-0.225,-0.075
1.744,-0.165,-0.095
1.746,-0.060,-0.110
1.748,-0.005,-0.115
1.750,0.020,-0.115
1.752,-0.040,-0.105
1.754,-0.080,-0.075
1.756,-0.160,-0.025
1.758,-0.135,0.035
1.760,-0.060,0.110
1.762,0.070,0.195
1.764,0.270,0.275
1.766,0.465,0.355
1.768,0.585,0.415
1.770,0.640,0.460
1.772,0.610,0.485
1.774,0.475,0.480
1.776,0.300,0.450
1.778,0.130,0.395
1.780,0.120,0.325
1.782,0.145,0.235
1.784,0.145,0.145
1.786,0.155,0.050
1.788,0.055,-0.035
1.790,-0.100,-0.105
1.792,-0.165,-0.160
1.794,-0.265,-0.195
1.796,-0.365,-0.215
1.798,-0.395,-0.215
1.800,-0.355,-0.205
1.802,-0.285,-0.185
1.804,-0.200,-0.160
1.806,-0.055,-0.135
1.808,0.040,-0.110
1.810,0.015,-0.095
1.812,-0.015,-0.080
1.814,-0.100,-0.070
1.816,-0.170,-0.065
1.818,-0.210,-0.055
1.820,-0.185,-0.050
1.822,-0.135,-0.045
1.824,-0.050,-0.035
1.826,0.040,-0.025
1.828,0.110,-0.015
1.830,0.095,-0.010
1.832,0.030,0.000
1.834,-0.075,0.000
1.836,-0.165,0.000
1.838,-0.180,0.000
1.840,-0.170,0.000
1.842,-0.125,-0.005
1.844,0.000,-0.010
1.846,0.080,-0.010
1.848,0.110,-0.010
1.850,0.090,-0.010
1.852,0.045,-0.010
1.854,-0.060,-0.005
1.856,-0.155,-0.005
1.858,-0.185,-0.005
1.860,-0.160,-0.005
1.862,-0.115,-0.005
1.864,0.000,-0.005
1.866,0.090,0.000
1.868,0.145,0.000
1.870,0.100,0.005
1.872,0.055,0.010
1.874,-0.045,0.015
1.876,-0.130,0.015
1.878,-0.165,0.020
1.880,-0.140,0.020
1.882,-0.080,0.015
1.884,0.020,0.010
1.886,0.110,0.010
1.888,0.115,0.005
1.890,0.110,0.005
1.892,0.070,0.005
1.894,-0.030,0.015
1.896,-0.115,0.020
1.898,-0.145,0.030
1.900,-0.130,0.040
1.902,-0.070,0.050
1.904,0.065,0.055
1.906,0.135,0.055
1.908,0.150,0.055
1.910,0.130,0.050
1.912,0.060,0.045
1.914,-0.045,0.040
1.916,-0.100,0.035
1.918,-0.135,0.035
1.920,-0.135,0.035
1.922,-0.045,0.040
1.924,0.075,0.045
1.926,0.145,0.050
1.928,0.170,0.055
1.930,0.160,0.060
1.932,0.080,0.065
1.934,-0.030,0.065
1.936,-0.090,0.060
1.938,-0.110,0.055
1.940,-0.100,0.050
1.942,-0.020,0.045
1.944,0.105,0.045
1.946,0.185,0.045
1.948,0.215,0.055
1.950,0.175,0.065
1.952,0.120,0.080
1.954,-0.005,0.095
1.956,-0.070,0.105
1.958,-0.060,0.120
1.960,-0.035,0.125
1.962,0.030,0.130
1.964,0.155,0.130
1.966,0.240,0.130
1.968,0.265,0.130
1.970,0.235,0.130
1.972,0.185,0.140
1.974,0.060,0.150
1.976,0.000,0.165
1.978,0.020,0.180
1.980,0.045,0.195
1.982,0.110,0.205
1.984,0.235,0.210
1.986,0.295,0.210
1.988,0.310,0.205
1.990,0.305,0.200
1.992,0.250,0.200
1.994,0.125,0.200
1.996,0.070,0.205
1.998,0.055,0.215
2.000,0.115,0.225
2.002,0.170,0.240
2.004,0.285,0.250
2.006,0.335,0.255
2.008,0.365,0.260
2.010,0.320,0.260
2.012,0.285,0.255
2.014,0.175,0.255
2.016,0.095,0.255
2.018,0.100,0.260
2.020,0.160,0.265
2.022,0.205,0.275
2.024,0.320,0.280
2.026,0.375,0.280
2.028,0.380,0.275
2.030,0.325,0.265
2.032,0.260,0.250
2.034,0.105,0.235
2.036,0.050,0.220
2.038,0.035,0.210
2.040,0.090,0.200
2.042,0.140,0.195
2.044,0.260,0.195
2.046,0.300,0.195
2.048,0.300,0.190
2.050,0.240,0.185
2.052,0.145,0.175
2.054,0.010,0.160
2.056,-0.070,0.140
2.058,-0.070,0.115
2.060,-0.025,0.095
2.062,0.040,0.075
2.064,0.135,0.060
2.066,0.170,0.050
2.068,0.150,0.045
2.070,0.105,0.040
2.072,0.015,0.035
2.074,-0.100,0.030
2.076,-0.140,0.025
2.078,-0.150,0.020
2.080,-0.095,0.010
2.082,-0.035,0.000
2.084,0.060,-0.010
2.086,0.105,-0.015
2.088,0.090,-0.025
2.090,0.040,-0.030
2.092,-0.065,-0.030
2.094,-0.180,-0.035
2.096,-0.205,-0.035
2.098,-0.180,-0.030
2.100,-0.100,-0.030
2.102,-0.045,-0.030
2.104,0.035,-0.035
2.106,0.055,-0.035
2.108,0.075,-0.040
2.110,0.015,-0.050
2.112,-0.060,-0.055
2.114,-0.180,-0.060
2.116,-0.220,-0.070
2.118,-0.210,-0.070
2.120,-0.150,-0.075
2.122,-0.050,-0.075
2.124,0.040,-0.070
2.126,0.070,-0.065
2.128,0.060,-0.060
2.130,0.015,-0.055
2.132,-0.080,-0.050
2.134,-0.170,-0.040
2.136,-0.240,-0.035
2.138,-0.175,-0.035
2.140,-0.140,-0.030
2.142,-0.050,-0.030
2.144,0.025,-0.035
2.146,0.060,-0.035
2.148,0.050,-0.040
2.150,0.025,-0.050
2.152,-0.105,-0.055
2.154,-0.185,-0.055
2.156,-0.215,-0.060
2.158,-0.195,-0.060
2.160,-0.140,-0.055
2.162,-0.025,-0.050
2.164,0.065,-0.045
2.166,0.070,-0.040
2.168,0.060,-0.040
2.170,0.035,-0.040
2.172,-0.095,-0.040
2.174,-0.175,-0.040
2.176,-0.210,-0.040
2.178,-0.185,-0.040
2.180,-0.120,-0.040
2.182,-0.015,-0.040
2.184,0.060,-0.040
2.186,0.100,-0.035
2.188,0.065,-0.035
2.190,0.015,-0.035
2.192,-0.105,-0.035
2.194,-0.170,-0.035
2.196,-0.205,-0.035
2.198,-0.165,-0.035
2.200,-0.115,-0.030
2.202,0.005,-0.030
2.204,0.070,-0.025
2.206,0.115,-0.020
2.208,0.075,-0.020
2.210,0.025,-0.020
2.212,-0.080,-0.025
2.214,-0.175,-0.025
2.216,-0.210,-0.030
2.218,-0.160,-0.030
2.220,-0.100,-0.030
2.222,0.005,-0.030
2.224,0.105,-0.025
2.226,0.130,-0.020
2.228,0.080,-0.010
2.230,0.020,-0.005
2.232,-0.090,-0.005
2.234,-0.170,-0.005
2.236,-0.185,-0.010
2.238,-0.160,-0.015
2.240,-0.110,-0.020
2.242,0.020,-0.025
2.244,0.115,-0.030
2.246,0.130,-0.030
2.248,0.095,-0.030
2.250,0.020,-0.030
2.252,-0.090,-0.025
2.254,-0.170,-0.020
2.256,-0.195,-0.015
2.258,-0.150,-0.015
2.260,-0.070,-0.015
2.262,0.040,-0.020
2.264,0.095,-0.020
2.266,0.130,-0.020
2.268,0.080,-0.025
2.270,0.015,-0.025
2.272,-0.115,-0.030
2.274,-0.185,-0.030
2.276,-0.205,-0.030
2.278,-0.165,-0.030
2.280,-0.100,-0.030
2.282,0.035,-0.030
2.284,0.105,-0.030
2.286,0.120,-0.030
2.288,0.055,-0.030
2.290,-0.025,-0.030
2.292,-0.160,-0.030
2.294,-0.170,-0.030
2.296,-0.200,-0.035
2.298,-0.160,-0.040
2.300,-0.085,-0.040
2.302,0.015,-0.045
2.304,0.090,-0.045
2.306,0.095,-0.045
2.308,0.035,-0.045
2.310,-0.025,-0.045
2.312,-0.135,-0.040
2.314,-0.190,-0.040
2.316,-0.205,-0.035
2.318,-0.135,-0.035
2.320,-0.080,-0.035
2.322,0.035,-0.040
2.324,0.085,-0.040
2.326,0.095,-0.040
2.328,0.045,-0.040
2.330,-0.025,-0.040
2.332,-0.135,-0.040
2.334,-0.210,-0.040
2.336,-0.185,-0.040
2.338,-0.150,-0.040
2.340,-0.065,-0.040
2.342,0.055,-0.045
2.344,0.080,-0.050
2.346,0.095,-0.055
2.348,0.050,-0.060
2.350,-0.055,-0.060
2.352,-0.150,-0.060
2.354,-0.190,-0.055
2.356,-0.210,-0.055
2.358,-0.160,-0.050
2.360,-0.070,-0.045
2.362,0.065,-0.045
2.364,0.100,-0.040
2.366,0.095,-0.040
2.368,0.015,-0.040
2.370,-0.050,-0.040
2.372,-0.160,-0.040
2.374,-0.185,-0.040
2.376,-0.195,-0.040
2.378,-0.145,-0.040
2.380,-0.065,-0.040
2.382,0.035,-0.040
2.384,0.085,-0.035
2.386,0.090,-0.035
2.388,0.065,-0.035
2.390,-0.025,-0.035
2.392,-0.135,-0.030
2.394,-0.190,-0.030
2.396,-0.190,-0.035
2.398,-0.130,-0.035
2.400,-0.055,-0.040
2.402,0.045,-0.045
2.404,0.095,-0.050
2.406,0.085,-0.055
2.408,0.030,-0.055
2.410,-0.055,-0.055
2.412,-0.150,-0.055
2.414,-0.190,-0.050
2.416,-0.180,-0.045
2.418,-0.130,-0.040
2.420,-0.035,-0.040
2.422,0.050,-0.040
2.424,0.085,-0.040
2.426,0.080,-0.045
2.428,0.040,-0.045
2.430,-0.055,-0.045
2.432,-0.130,-0.045
2.434,-0.190,-0.045
2.436,-0.165,-0.045
2.438,-0.125,-0.040
2.440,-0.015,-0.040
2.442,0.040,-0.040
2.444,0.055,-0.040
2.446,0.045,-0.045
2.448,0.015,-0.055
2.450,-0.050,-0.060
2.452,-0.195,-0.070
2.454,-0.200,-0.070
2.456,-0.175,-0.070
2.458,-0.110,-0.070
2.460,0.000,-0.060
2.462,0.085,-0.055
2.464,0.120,-0.045
2.466,0.085,-0.035
2.468,0.015,-0.030
2.470,-0.080,-0.030
2.472,-0.170,-0.030
2.474,-0.185,-0.030
2.476,-0.165,-0.035
2.478,-0.120,-0.040
2.480,0.005,-0.045
2.482,0.075,-0.050
2.484,0.090,-0.050
2.486,0.075,-0.050
2.488,0.030,-0.050
2.490,-0.080,-0.050
2.492,-0.170,-0.045
2.494,-0.200,-0.045
2.496,-0.170,-0.045
2.498,-0.105,-0.040
2.500,0.015,-0.040
2.502,0.095,-0.040
2.504,0.100,-0.035
2.506,0.105,-0.035
2.508,0.040,-0.035
2.510,-0.075,-0.030
2.512,-0.155,-0.030
2.514,-0.185,-0.025
2.516,-0.135,-0.025
2.518,-0.080,-0.025
2.520,0.055,-0.025
2.522,0.105,-0.025
2.524,0.135,-0.020
2.526,0.125,-0.020
2.528,0.070,-0.020
2.530,-0.055,-0.020
2.532,-0.155,-0.015
2.534,-0.160,-0.015
2.536,-0.135,-0.015
2.538,-0.075,-0.015
2.540,0.060,-0.015
2.542,0.120,-0.015
2.544,0.125,-0.020
2.546,0.065,-0.030
2.548,0.040,-0.035
2.550,-0.095,-0.040
2.552,-0.160,-0.045
2.554,-0.210,-0.050
2.556,-0.145,-0.050
2.558,-0.090,-0.050
2.560,0.035,-0.045
2.562,0.100,-0.040
2.564,0.110,-0.040
2.566,0.050,-0.035
2.568,-0.005,-0.040
2.570,-0.110,-0.045
2.572,-0.180,-0.055
2.574,-0.230,-0.065
2.576,-0.200,-0.075
2.578,-0.100,-0.080
2.580,0.030,-0.085
2.582,0.065,-0.085
2.584,0.100,-0.085
2.586,0.040,-0.080
2.588,-0.035,-0.070
2.590,-0.145,-0.065
2.592,-0.185,-0.065
2.594,-0.215,-0.065
2.596,-0.165,-0.065
2.598,-0.100,-0.070
2.600,0.030,-0.075
2.602,0.075,-0.080
2.604,0.090,-0.085
2.606,0.040,-0.085
2.608,-0.045,-0.085
2.610,-0.155,-0.080
2.612,-0.200,-0.080
2.614,-0.200,-0.085
2.616,-0.150,-0.085
2.618,-0.095,-0.090
2.620,0.010,-0.095
2.622,0.055,-0.100
2.624,0.065,-0.100
2.626,0.025,-0.100
2.628,-0.050,-0.095
2.630,-0.155,-0.090
2.632,-0.235,-0.090
2.634,-0.225,-0.090
2.636,-0.185,-0.095
2.638,-0.125,-0.100
2.640,-0.015,-0.105
2.642,0.035,-0.105
2.644,0.070,-0.090
2.646,0.075,-0.060
2.648,0.040,-0.005
2.650,0.005,0.060
2.652,0.055,0.145
2.654,0.135,0.235
2.656,0.260,0.320
2.658,0.420,0.395
2.660,0.600,0.445
2.662,0.700,0.470
2.664,0.665,0.465
2.666,0.510,0.425
2.668,0.325,0.370
2.670,0.170,0.290
2.672,0.115,0.200
2.674,0.035,0.110
2.676,-0.020,0.020
2.678,-0.060,-0.060
2.680,-0.120,-0.125
2.682,-0.100,-0.175
2.684,-0.095,-0.215
2.686,-0.160,-0.235
2.688,-0.215,-0.245
2.690,-0.270,-0.240
2.692,-0.310,-0.225
2.694,-0.295,-0.200
2.696,-0.220,-0.175
2.698,-0.090,-0.150
2.700,0.010,-0.125
2.702,0.070,-0.105
2.704,0.075,-0.090
2.706,0.015,-0.080
2.708,-0.065,-0.080
2.710,-0.150,-0.075
2.712,-0.190,-0.075
2.714,-0.170,-0.075
2.716,-0.110,-0.075
2.718,0.005,-0.070
2.720,0.080,-0.060
2.722,0.125,-0.050
2.724,0.095,-0.040
2.726,0.060,-0.035
2.728,-0.045,-0.025
2.730,-0.105,-0.020
2.732,-0.145,-0.020
2.734,-0.135,-0.020
2.736,-0.075,-0.025
2.738,0.015,-0.025
2.740,0.105,-0.030
2.742,0.130,-0.030
2.744,0.135,-0.030
2.746,0.070,-0.030
2.748,-0.045,-0.025
2.750,-0.135,-0.025
2.752,-0.150,-0.020
2.754,-0.130,-0.020
2.756,-0.065,-0.020
2.758,0.020,-0.020
2.760,0.105,-0.025
2.762,0.180,-0.030
2.764,0.145,-0.035
2.766,0.100,-0.040
2.768,-0.050,-0.040
2.770,-0.120,-0.035
2.772,-0.155,-0.030
2.774,-0.110,-0.025
2.776,-0.030,-0.020
2.778,0.055,-0.015
2.780,0.140,-0.010
2.782,0.165,-0.010
2.784,0.145,-0.010
2.786,0.080,-0.010
2.788,-0.005,-0.010
2.790,-0.095,-0.010
2.792,-0.145,-0.010
2.794,-0.105,-0.005
2.796,-0.035,0.000
2.798,0.065,0.000
2.800,0.155,0.005
2.802,0.180,0.005
2.804,0.150,0.005
2.806,0.105,0.005
2.808,-0.010,0.000
2.810,-0.080,0.000
2.812,-0.110,0.000
2.814,-0.080,0.000
2.816,-0.005,0.005
2.818,0.115,0.010
2.820,0.190,0.020
2.822,0.195,0.025
2.824,0.190,0.030
2.826,0.135,0.035
2.828,0.025,0.040
2.830,-0.060,0.040
2.832,-0.080,0.040
2.834,-0.060,0.040
2.836,0.000,0.040
2.838,0.165,0.045
2.840,0.200,0.045
2.842,0.250,0.050
2.844,0.205,0.055
2.846,0.185,0.060
2.848,0.055,0.070
2.850,-0.020,0.075
2.852,-0.020,0.080
2.854,0.025,0.090
2.856,0.095,0.100
2.858,0.215,0.105
2.860,0.300,0.110
2.862,0.315,0.115
2.864,0.290,0.120
2.866,0.220,0.120
2.868,0.090,0.120
2.870,0.025,0.125
2.872,0.030,0.125
2.874,0.085,0.130
2.876,0.165,0.135
2.878,0.285,0.140
2.880,0.355,0.150
2.882,0.395,0.165
2.884,0.345,0.175
2.886,0.275,0.185
2.888,0.160,0.195
2.890,0.100,0.200
2.892,0.095,0.205
2.894,0.150,0.210
2.896,0.225,0.210
2.898,0.350,0.210
2.900,0.415,0.215
2.902,0.435,0.215
2.904,0.365,0.220
2.906,0.285,0.225
2.908,0.200,0.230
2.910,0.135,0.235
2.912,0.115,0.235
2.914,0.185,0.235
2.916,0.260,0.235
2.918,0.375,0.235
2.920,0.415,0.235
2.922,0.410,0.230
2.924,0.380,0.225
2.926,0.295,0.220
2.928,0.160,0.215
2.930,0.090,0.205
2.932,0.100,0.195
2.934,0.125,0.180
2.936,0.190,0.165
2.938,0.295,0.150
2.940,0.315,0.130
2.942,0.305,0.115
2.944,0.220,0.100
2.946,0.150,0.085
2.948,0.030,0.075
2.950,-0.020,0.065
2.952,-0.025,0.055
2.954,-0.015,0.050
2.956,0.060,0.040
2.958,0.155,0.030
2.960,0.210,0.020
2.962,0.185,0.010
2.964,0.135,0.000
2.966,0.065,-0.015
2.968,-0.055,-0.020
2.970,-0.125,-0.030
2.972,-0.130,-0.030
2.974,-0.085,-0.035
2.976,-0.005,-0.035
2.978,0.105,-0.035
2.980,0.150,-0.040
2.982,0.150,-0.040
2.984,0.090,-0.045
2.986,0.005,-0.050
2.988,-0.100,-0.060
2.990,-0.145,-0.065
2.992,-0.155,-0.070
2.994,-0.095,-0.075
2.996,0.005,-0.080
2.998,0.075,-0.080
3.000,0.130,-0.080
3.002,0.130,-0.080
3.004,0.075,-0.080
3.006,-0.005,-0.080
3.008,-0.100,-0.075
3.010,-0.175,-0.075
3.012,-0.165,-0.075
3.014,-0.110,-0.080
3.016,-0.005,-0.080
3.018,0.105,-0.085
3.020,0.140,-0.085
3.022,0.110,-0.090
3.024,0.060,-0.090
3.026,-0.025,-0.085
3.028,-0.130,-0.080
3.030,-0.175,-0.080
3.032,-0.140,-0.070
3.034,-0.090,-0.065
3.036,0.000,-0.065
3.038,0.120,-0.060
3.040,0.145,-0.060
3.042,0.125,-0.060
3.044,0.075,-0.060
3.046,-0.020,-0.060
3.048,-0.110,-0.065
3.050,-0.180,-0.065
3.052,-0.125,-0.065
3.054,-0.085,-0.065
3.056,0.015,-0.065
3.058,0.110,-0.065
3.060,0.145,-0.070
3.062,0.120,-0.075
3.064,0.055,-0.075
3.066,-0.055,-0.080
3.068,-0.120,-0.080
3.070,-0.150,-0.080
3.072,-0.105,-0.080
3.074,-0.045,-0.075
3.076,0.040,-0.070
3.078,0.130,-0.065
3.080,0.135,-0.065
3.082,0.120,-0.060
3.084,0.085,-0.060
3.086,-0.020,-0.055
3.088,-0.120,-0.055
3.090,-0.125,-0.050
3.092,-0.120,-0.050
3.094,-0.065,-0.045
3.096,0.070,-0.040
3.098,0.155,-0.035
3.100,0.175,-0.030
3.102,0.150,-0.030
3.104,0.075,-0.030
3.106,-0.030,-0.035
3.108,-0.110,-0.040
3.110,-0.130,-0.045
3.112,-0.105,-0.045
3.114,-0.045,-0.050
3.116,0.090,-0.045
3.118,0.160,-0.045
3.120,0.180,-0.040
3.122,0.160,-0.040
3.124,0.115,-0.035
3.126,-0.030,-0.035
3.128,-0.115,-0.040
3.130,-0.130,-0.045
3.132,-0.075,-0.055
3.134,-0.045,-0.065
3.136,0.075,-0.070
3.138,0.135,-0.075
3.140,0.165,-0.075
3.142,0.135,-0.075
3.144,0.070,-0.070
3.146,-0.050,-0.065
3.148,-0.135,-0.060
3.150,-0.135,-0.055
3.152,-0.115,-0.055
3.154,-0.035,-0.055
3.156,0.115,-0.055
3.158,0.170,-0.055
3.160,0.170,-0.060
3.162,0.110,-0.060
3.164,0.050,-0.065
3.166,-0.070,-0.065
3.168,-0.125,-0.065
3.170,-0.145,-0.070
3.172,-0.095,-0.070
3.174,-0.030,-0.070
3.176,0.105,-0.070
3.178,0.145,-0.070
3.180,0.135,-0.070
3.182,0.100,-0.070
3.184,0.065,-0.070
3.186,-0.045,-0.065
3.188,-0.125,-0.065
3.190,-0.130,-0.060
3.192,-0.100,-0.060
3.194,-0.020,-0.055
3.196,0.090,-0.055
3.198,0.145,-0.060
3.200,0.155,-0.060
3.202,0.115,-0.060
3.204,0.065,-0.060
3.206,-0.045,-0.060
3.208,-0.095,-0.060
3.210,-0.130,-0.060
3.212,-0.075,-0.060
3.214,-0.005,-0.060
3.216,0.100,-0.065
3.218,0.145,-0.065
3.220,0.165,-0.065
3.222,0.135,-0.065
3.224,0.080,-0.060
3.226,-0.025,-0.055
3.228,-0.105,-0.045
3.230,-0.115,-0.035
3.232,-0.045,-0.025
3.234,0.055,-0.020
3.236,0.155,-0.015
3.238,0.210,-0.010
3.240,0.215,-0.010
3.242,0.170,-0.010
3.244,0.070,-0.015
3.246,-0.020,-0.020
3.248,-0.100,-0.020
3.250,-0.075,-0.020
3.252,-0.030,-0.020
3.254,0.060,-0.020
3.256,0.155,-0.020
3.258,0.200,-0.020
3.260,0.200,-0.020
3.262,0.155,-0.025
3.264,0.095,-0.030
3.266,-0.040,-0.030
3.268,-0.065,-0.035
3.270,-0.085,-0.035
3.272,-0.030,-0.035
3.274,0.035,-0.030
3.276,0.150,-0.030
3.278,0.225,-0.025
3.280,0.225,-0.020
3.282,0.175,-0.020
3.284,0.075,-0.015
3.286,-0.045,-0.020
3.288,-0.070,-0.025
3.290,-0.085,-0.025
3.292,-0.030,-0.030
3.294,0.080,-0.035
3.296,0.195,-0.035
3.298,0.205,-0.035
3.300,0.195,-0.035
3.302,0.160,-0.030
3.304,0.065,-0.030
3.306,-0.050,-0.025
3.308,-0.075,-0.025
3.310,-0.055,-0.025
3.312,-0.025,-0.025
3.314,0.100,-0.025
3.316,0.170,-0.025
3.318,0.225,-0.025
3.320,0.210,-0.025
3.322,0.155,-0.025
3.324,0.040,-0.025
3.326,-0.055,-0.025
3.328,-0.085,-0.030
3.330,-0.060,-0.030
3.332,-0.010,-0.035
3.334,0.105,-0.035
3.336,0.205,-0.040
3.338,0.215,-0.035
3.340,0.165,-0.035
3.342,0.135,-0.030
3.344,0.055,-0.025
3.346,-0.030,-0.015
3.348,-0.075,-0.010
3.350,-0.075,-0.010
3.352,0.010,-0.010
3.354,0.120,-0.010
3.356,0.180,-0.015
3.358,0.210,-0.025
3.360,0.190,-0.030
3.362,0.150,-0.035
3.364,0.030,-0.035
3.366,-0.040,-0.035
3.368,-0.070,-0.035
3.370,-0.055,-0.025
3.372,-0.005,-0.020
3.374,0.120,-0.015
3.376,0.220,-0.010
3.378,0.250,-0.005
3.380,0.225,-0.005
3.382,0.155,-0.010
3.384,0.035,-0.015
3.386,-0.035,-0.020
3.388,-0.060,-0.025
3.390,-0.030,-0.025
3.392,0.035,-0.025
3.394,0.150,-0.020
3.396,0.230,-0.015
3.398,0.230,-0.010
3.400,0.210,0.000
3.402,0.205,0.005
3.404,0.065,0.015
3.406,-0.020,0.015
3.408,-0.040,0.020
3.410,-0.015,0.015
3.412,0.050,0.015
3.414,0.165,0.010
3.416,0.215,0.005
3.418,0.275,0.000
3.420,0.250,0.000
3.422,0.200,0.000
3.424,0.025,0.000
3.426,-0.015,0.000
3.428,-0.040,0.000
3.430,0.010,0.005
3.432,0.070,0.005
3.434,0.165,0.005
3.436,0.250,0.005
3.438,0.260,0.000
3.440,0.240,0.000
3.442,0.185,0.000
3.444,0.050,-0.005
3.446,-0.030,-0.005
3.448,-0.070,-0.005
3.450,-0.025,-0.005
3.452,0.040,-0.010
3.454,0.170,-0.010
3.456,0.255,-0.010
3.458,0.265,-0.010
3.460,0.200,-0.015
3.462,0.145,-0.020
3.464,0.005,-0.025
3.466,-0.055,-0.025
3.468,-0.060,-0.030
3.470,-0.015,-0.035
3.472,0.050,-0.035
3.474,0.160,-0.035
3.476,0.230,-0.035
3.478,0.220,-0.035
3.480,0.155,-0.035
3.482,0.105,-0.035
3.484,-0.010,-0.035
3.486,-0.075,-0.035
3.488,-0.090,-0.035
3.490,-0.015,-0.035
3.492,0.065,-0.040
3.494,0.180,-0.040
3.496,0.205,-0.040
3.498,0.230,-0.040
3.500,0.160,-0.040
3.502,0.090,-0.045
3.504,-0.025,-0.045
3.506,-0.065,-0.045
3.508,-0.065,-0.045
3.510,-0.030,-0.040
3.512,0.055,-0.040
3.514,0.155,-0.035
3.516,0.215,-0.030
3.518,0.250,-0.030
3.520,0.180,-0.025
3.522,0.090,-0.025
3.524,-0.020,-0.030
3.526,-0.075,-0.040
3.528,-0.090,-0.055
3.530,-0.080,-0.070
3.532,0.030,-0.085
3.534,0.115,-0.095
3.536,0.185,-0.095
3.538,0.160,-0.090
3.540,0.145,-0.070
3.542,0.090,-0.030
3.544,0.045,0.020
3.546,0.055,0.085
3.548,0.155,0.155
3.550,0.280,0.235
3.552,0.465,0.305
3.554,0.615,0.370
3.556,0.740,0.420
3.558,0.765,0.450
3.560,0.690,0.455
3.562,0.545,0.435
3.564,0.320,0.395
3.566,0.250,0.330
3.568,0.240,0.250
3.570,0.200,0.160
3.572,0.215,0.070
3.574,0.195,-0.020
3.576,0.085,-0.100
3.578,0.025,-0.165
3.580,-0.015,-0.210
3.582,-0.090,-0.240
3.584,-0.175,-0.245
3.586,-0.225,-0.240
3.588,-0.225,-0.220
3.590,-0.155,-0.195
3.592,-0.035,-0.165
3.594,0.085,-0.140
3.596,0.170,-0.115
3.598,0.160,-0.095
3.600,0.135,-0.080
3.602,0.065,-0.070
3.604,-0.010,-0.065
3.606,-0.055,-0.055
3.608,-0.040,-0.050
3.610,0.020,-0.045
3.612,0.120,-0.040
3.614,0.225,-0.030
3.616,0.260,-0.025
3.618,0.230,-0.015
3.620,0.190,-0.005
3.622,0.100,0.000
3.624,0.000,0.005
3.626,-0.005,0.005
3.628,-0.020,0.005
3.630,0.075,0.005
3.632,0.160,0.005
3.634,0.245,0.000
3.636,0.275,0.000
3.638,0.255,0.005
3.640,0.190,0.005
3.642,0.105,0.010
3.644,0.010,0.015
3.646,-0.045,0.020
3.648,0.035,0.020
3.650,0.090,0.025
3.652,0.190,0.025
3.654,0.260,0.020
3.656,0.280,0.020
3.658,0.275,0.015
3.660,0.215,0.015
3.662,0.100,0.015
3.664,0.015,0.015
3.666,-0.005,0.015
3.668,0.035,0.020
3.670,0.060,0.020
3.672,0.205,0.025
3.674,0.265,0.025
3.676,0.320,0.025
3.678,0.270,0.025
3.680,0.215,0.025
3.682,0.140,0.030
3.684,0.055,0.035
3.686,0.020,0.040
3.688,0.035,0.050
3.690,0.090,0.055
3.692,0.230,0.065
3.694,0.310,0.070
3.696,0.335,0.075
3.698,0.305,0.075
3.700,0.230,0.070
3.702,0.140,0.065
3.704,0.065,0.060
3.706,0.015,0.055
3.708,0.045,0.050
3.710,0.140,0.050
3.712,0.265,0.050
3.714,0.335,0.055
3.716,0.350,0.060
3.718,0.315,0.065
3.720,0.245,0.075
3.722,0.155,0.080
3.724,0.080,0.080
3.726,0.050,0.085
3.728,0.100,0.090
3.730,0.145,0.090
3.732,0.315,0.090
3.734,0.340,0.095
3.736,0.380,0.095
3.738,0.365,0.100
3.740,0.315,0.100
3.742,0.195,0.100
3.744,0.120,0.100
3.746,0.095,0.105
3.748,0.125,0.110
3.750,0.200,0.115
3.752,0.320,0.120
3.754,0.420,0.130
3.756,0.425,0.145
3.758,0.380,0.155
3.760,0.360,0.170
3.762,0.235,0.180
3.764,0.180,0.185
3.766,0.155,0.195
3.768,0.195,0.195
3.770,0.270,0.200
3.772,0.400,0.200
3.774,0.470,0.205
3.776,0.485,0.205
3.778,0.440,0.210
3.780,0.400,0.220
3.782,0.280,0.230
3.784,0.245,0.235
3.786,0.225,0.245
3.788,0.275,0.250
3.790,0.360,0.255
3.792,0.460,0.255
3.794,0.530,0.260
3.796,0.525,0.260
3.798,0.505,0.265
3.800,0.420,0.270
3.802,0.320,0.275
3.804,0.270,0.280
3.806,0.260,0.285
3.808,0.320,0.285
3.810,0.410,0.285
3.812,0.490,0.280
3.814,0.525,0.275
3.816,0.520,0.265
3.818,0.485,0.255
3.820,0.395,0.245
3.822,0.265,0.235
3.824,0.225,0.225
3.826,0.205,0.215
3.828,0.245,0.210
3.830,0.330,0.200
3.832,0.400,0.190
3.834,0.475,0.180
3.836,0.430,0.165
3.838,0.385,0.150
3.840,0.280,0.135
3.842,0.140,0.120
3.844,0.105,0.105
3.846,0.080,0.095
3.848,0.135,0.085
3.850,0.205,0.080
3.852,0.275,0.075
3.854,0.345,0.065
3.856,0.335,0.055
3.858,0.270,0.050
3.860,0.175,0.040
3.862,0.020,0.030
3.864,0.000,0.020
3.866,-0.010,0.010
3.868,0.050,0.005
3.870,0.125,0.000
3.872,0.230,-0.005
3.874,0.265,-0.010
3.876,0.255,-0.015
3.878,0.195,-0.020
3.880,0.110,-0.025
3.882,0.000,-0.030
3.884,-0.045,-0.035
3.886,-0.050,-0.040
3.888,0.000,-0.040
3.890,0.110,-0.045
3.892,0.205,-0.045
3.894,0.245,-0.045
3.896,0.235,-0.045
3.898,0.170,-0.045
3.900,0.080,-0.040
3.902,-0.035,-0.040
3.904,-0.060,-0.035
3.906,-0.045,-0.035
3.908,0.005,-0.040
3.910,0.095,-0.040
3.912,0.200,-0.045
3.914,0.250,-0.055
3.916,0.205,-0.060
3.918,0.150,-0.065
3.920,0.050,-0.075
3.922,-0.060,-0.075
3.924,-0.095,-0.075
3.926,-0.060,-0.075
3.928,-0.005,-0.070
3.930,0.110,-0.065
3.932,0.195,-0.055
3.934,0.215,-0.055
3.936,0.220,-0.050
3.938,0.150,-0.050
3.940,0.045,-0.050
3.942,-0.020,-0.055
3.944,-0.060,-0.055
3.946,-0.070,-0.055
3.948,-0.015,-0.050
3.950,0.120,-0.050
3.952,0.200,-0.045
3.954,0.235,-0.045
3.956,0.215,-0.045
3.958,0.145,-0.050
3.960,0.070,-0.055
3.962,-0.055,-0.060
3.964,-0.080,-0.065
3.966,-0.040,-0.070
3.968,0.045,-0.070
3.970,0.125,-0.070
3.972,0.220,-0.065
3.974,0.255,-0.060
3.976,0.220,-0.055
3.978,0.150,-0.050
3.980,0.030,-0.050
3.982,-0.035,-0.050
3.984,-0.070,-0.055
3.986,-0.035,-0.055
3.988,0.025,-0.060
3.990,0.135,-0.060
3.992,0.230,-0.060
3.994,0.235,-0.055
3.996,0.205,-0.045
3.998,0.150,-0.040
4.000,0.045,-0.035
4.002,-0.045,-0.030
4.004,-0.040,-0.030
4.006,-0.020,-0.035
4.008,0.030,-0.040
4.010,0.150,-0.045
4.012,0.255,-0.050
4.014,0.255,-0.055
4.016,0.225,-0.050
4.018,0.170,-0.045
4.020,0.055,-0.040
4.022,-0.030,-0.030
4.024,-0.075,-0.025
4.026,-0.005,-0.020
4.028,0.050,-0.025
4.030,0.205,-0.030
4.032,0.230,-0.035
4.034,0.235,-0.045
4.036,0.220,-0.050
4.038,0.155,-0.055
4.040,0.040,-0.060
4.042,-0.040,-0.055
4.044,-0.040,-0.055
4.046,-0.035,-0.055
4.048,0.035,-0.050
4.050,0.140,-0.055
4.052,0.240,-0.055
4.054,0.250,-0.060
4.056,0.200,-0.065
4.058,0.135,-0.065
4.060,-0.010,-0.065
4.062,-0.095,-0.060
4.064,-0.040,-0.055
4.066,0.000,-0.050
4.068,0.055,-0.040
4.070,0.165,-0.035
4.072,0.230,-0.035
4.074,0.240,-0.035
4.076,0.180,-0.040
4.078,0.140,-0.050
4.080,0.025,-0.055
4.082,-0.040,-0.060
4.084,-0.070,-0.060
4.086,-0.020,-0.065
4.088,0.035,-0.060
4.090,0.165,-0.060
4.092,0.240,-0.055
4.094,0.235,-0.055
4.096,0.175,-0.050
4.098,0.125,-0.050
4.100,0.010,-0.045
4.102,-0.030,-0.045
4.104,-0.060,-0.045
4.106,-0.025,-0.040
4.108,0.050,-0.040
4.110,0.175,-0.040
4.112,0.240,-0.045
4.114,0.250,-0.045
4.116,0.175,-0.050
4.118,0.100,-0.055
4.120,-0.005,-0.060
4.122,-0.050,-0.065
4.124,-0.065,-0.065
4.126,-0.005,-0.065
4.128,0.055,-0.065
4.130,0.150,-0.065
4.132,0.220,-0.065
4.134,0.225,-0.065
4.136,0.170,-0.065
4.138,0.105,-0.070
4.140,-0.020,-0.070
4.142,-0.075,-0.070
4.144,-0.075,-0.075
4.146,0.010,-0.070
4.148,0.085,-0.070
4.150,0.180,-0.065
4.152,0.215,-0.060
4.154,0.220,-0.060
4.156,0.155,-0.055
4.158,0.065,-0.055
4.160,0.005,-0.060
4.162,-0.065,-0.060
4.164,-0.105,-0.065
4.166,-0.015,-0.070
4.168,0.070,-0.075
4.170,0.185,-0.075
4.172,0.230,-0.080
4.174,0.220,-0.080
4.176,0.170,-0.080
4.178,0.045,-0.080
4.180,-0.035,-0.080
4.182,-0.085,-0.080
4.184,-0.070,-0.085
4.186,-0.010,-0.085
4.188,0.085,-0.085
4.190,0.175,-0.080
4.192,0.230,-0.080
4.194,0.235,-0.075
4.196,0.150,-0.070
4.198,0.085,-0.070
4.200,-0.040,-0.065
4.202,-0.090,-0.065
4.204,-0.065,-0.065
4.206,0.020,-0.065
4.208,0.105,-0.065
4.210,0.185,-0.065
4.212,0.205,-0.065
4.214,0.220,-0.065
4.216,0.135,-0.060
4.218,0.045,-0.060
4.220,-0.055,-0.060
4.222,-0.090,-0.060
4.224,-0.060,-0.060
4.226,0.015,-0.065
4.228,0.105,-0.065
4.230,0.190,-0.065
4.232,0.240,-0.065
4.234,0.220,-0.065
4.236,0.160,-0.060
4.238,0.060,-0.055
4.240,-0.040,-0.050
4.242,-0.075,-0.045
4.244,-0.035,-0.045
4.246,0.025,-0.045
4.248,0.120,-0.050
4.250,0.215,-0.050
4.252,0.235,-0.055
4.254,0.230,-0.060
4.256,0.150,-0.060
4.258,0.040,-0.055
4.260,-0.025,-0.050
4.262,-0.095,-0.040
4.264,0.000,-0.030
4.266,0.055,-0.020
4.268,0.150,-0.015
4.270,0.220,-0.010
4.272,0.255,-0.015
4.274,0.235,-0.020
4.276,0.210,-0.025
4.278,0.060,-0.030
4.280,0.000,-0.035
4.282,-0.025,-0.035
4.284,0.000,-0.035
4.286,0.065,-0.030
4.288,0.180,-0.025
4.290,0.255,-0.020
4.292,0.250,-0.020
4.294,0.265,-0.015
4.296,0.165,-0.020
4.298,0.080,-0.020
4.300,-0.030,-0.025
4.302,-0.060,-0.030
4.304,-0.015,-0.035
4.306,0.055,-0.035
4.308,0.170,-0.035
4.310,0.240,-0.035
4.312,0.240,-0.035
4.314,0.200,-0.040
4.316,0.150,-0.045
4.318,0.015,-0.055
4.320,-0.075,-0.065
4.322,-0.085,-0.080
4.324,-0.035,-0.090
4.326,-0.005,-0.095
4.328,0.115,-0.100
4.330,0.210,-0.100
4.332,0.230,-0.095
4.334,0.190,-0.090
4.336,0.115,-0.085
4.338,-0.010,-0.080
4.340,-0.075,-0.080
4.342,-0.090,-0.080
4.344,-0.050,-0.085
4.346,0.015,-0.085
4.348,0.135,-0.090
4.350,0.170,-0.090
4.352,0.205,-0.090
4.354,0.165,-0.090
4.356,0.095,-0.085
4.358,-0.010,-0.085
4.360,-0.080,-0.080
4.362,-0.115,-0.080
4.364,-0.030,-0.080
4.366,0.010,-0.085
4.368,0.130,-0.085
4.370,0.195,-0.085
4.372,0.225,-0.085
4.374,0.155,-0.080
4.376,0.105,-0.080
4.378,-0.020,-0.075
4.380,-0.095,-0.075
4.382,-0.085,-0.075
4.384,-0.065,-0.080
4.386,0.010,-0.090
4.388,0.110,-0.105
4.390,0.150,-0.120
4.392,0.140,-0.125
4.394,0.095,-0.125
4.396,0.055,-0.115
4.398,-0.020,-0.090
4.400,-0.040,-0.050
4.402,0.000,0.005
4.404,0.130,0.070
4.406,0.275,0.145
4.408,0.470,0.220
4.410,0.600,0.290
4.412,0.700,0.355
4.414,0.685,0.400
4.416,0.640,0.420
4.418,0.480,0.420
4.420,0.350,0.395
4.422,0.255,0.350
4.424,0.285,0.280
4.426,0.340,0.195
4.428,0.365,0.105
4.430,0.310,0.010
4.432,0.190,-0.075
4.434,-0.010,-0.145
4.436,-0.130,-0.200
4.438,-0.230,-0.235
4.440,-0.245,-0.250
4.442,-0.220,-0.250
4.444,-0.140,-0.235
4.446,-0.050,-0.215
4.448,0.040,-0.190
4.450,0.120,-0.165
4.452,0.130,-0.145
4.454,0.100,-0.125
4.456,0.055,-0.110
4.458,-0.040,-0.095
4.460,-0.090,-0.085
4.462,-0.075,-0.080
4.464,-0.030,-0.070
4.466,0.090,-0.065
4.468,0.185,-0.065
4.470,0.255,-0.060
4.472,0.225,-0.060
4.474,0.165,-0.055
4.476,0.085,-0.055
4.478,-0.020,-0.050
4.480,-0.045,-0.050
4.482,-0.045,-0.050
4.484,0.020,-0.045
4.486,0.125,-0.050
4.488,0.185,-0.050
4.490,0.240,-0.050
4.492,0.240,-0.055
4.494,0.180,-0.055
4.496,0.095,-0.055
4.498,0.010,-0.050
4.500,-0.035,-0.045
4.502,-0.030,-0.035
4.504,0.065,-0.020
4.506,0.130,-0.010
4.508,0.225,-0.005
4.510,0.260,0.000
4.512,0.255,0.000
4.514,0.200,-0.005
4.516,0.090,-0.010
4.518,0.015,-0.020
4.520,-0.025,-0.025
4.522,-0.010,-0.030
4.524,0.060,-0.030
4.526,0.150,-0.025
4.528,0.235,-0.020
4.530,0.270,-0.015
4.532,0.235,-0.005
4.534,0.200,0.000
4.536,0.085,0.000
4.538,-0.010,0.000
4.540,-0.035,0.000
4.542,-0.015,-0.005
4.544,0.065,-0.005
4.546,0.175,-0.005
4.548,0.255,-0.005
4.550,0.290,0.000
4.552,0.260,0.010
4.554,0.230,0.020
4.556,0.120,0.025
4.558,0.025,0.035
4.560,0.000,0.040
4.562,0.030,0.040
4.564,0.075,0.035
4.566,0.205,0.030
4.568,0.275,0.025
4.570,0.315,0.020
4.572,0.290,0.015
4.574,0.235,0.020
4.576,0.145,0.020
4.578,0.040,0.030
4.580,0.020,0.035
4.582,0.045,0.045
4.584,0.095,0.055
4.586,0.240,0.060
4.588,0.315,0.065
4.590,0.335,0.065
4.592,0.295,0.065
4.594,0.250,0.065
4.596,0.150,0.065
4.598,0.085,0.065
4.600,0.040,0.065
4.602,0.095,0.070
4.604,0.150,0.080
4.606,0.275,0.090
4.608,0.370,0.100
4.610,0.385,0.110
4.612,0.350,0.120
4.614,0.305,0.125
4.616,0.190,0.125
4.618,0.100,0.125
4.620,0.105,0.125
4.622,0.150,0.125
4.624,0.220,0.125
4.626,0.345,0.125
4.628,0.415,0.135
4.630,0.440,0.145
4.632,0.435,0.165
4.634,0.370,0.180
4.636,0.250,0.200
4.638,0.220,0.215
4.640,0.205,0.225
4.642,0.235,0.230
4.644,0.290,0.235
4.646,0.415,0.235
4.648,0.480,0.230
4.650,0.500,0.230
4.652,0.460,0.230
4.654,0.425,0.235
4.656,0.285,0.240
4.658,0.245,0.245
4.660,0.225,0.255
4.662,0.275,0.260
4.664,0.355,0.260
4.666,0.460,0.260
4.668,0.520,0.260
4.670,0.545,0.255
4.672,0.470,0.250
4.674,0.395,0.245
4.676,0.295,0.245
4.678,0.220,0.240
4.680,0.185,0.235
4.682,0.215,0.230
4.684,0.305,0.225
4.686,0.410,0.210
4.688,0.450,0.195
4.690,0.445,0.175
4.692,0.365,0.155
4.694,0.310,0.140
4.696,0.165,0.120
4.698,0.075,0.110
4.700,0.075,0.100
4.702,0.115,0.095
4.704,0.200,0.090
4.706,0.300,0.085
4.708,0.340,0.080
4.710,0.340,0.070
4.712,0.245,0.055
4.714,0.150,0.040
4.716,0.035,0.025
4.718,-0.020,0.010
4.720,-0.030,0.000
4.722,0.000,-0.005
4.724,0.095,-0.010
4.726,0.195,-0.015
4.728,0.250,-0.015
4.730,0.245,-0.015
4.732,0.175,-0.020
4.734,0.110,-0.025
4.736,-0.025,-0.035
4.738,-0.075,-0.045
4.740,-0.060,-0.055
4.742,0.010,-0.060
4.744,0.065,-0.065
4.746,0.175,-0.065
4.748,0.230,-0.060
4.750,0.220,-0.055
4.752,0.140,-0.045
4.754,0.070,-0.040
4.756,-0.005,-0.035
4.758,-0.055,-0.030
4.760,-0.090,-0.030
4.762,0.000,-0.030
4.764,0.095,-0.035
4.766,0.160,-0.040
4.768,0.220,-0.045
4.770,0.215,-0.050
4.772,0.160,-0.050
4.774,0.050,-0.050
4.776,-0.045,-0.050
4.778,-0.080,-0.045
4.780,-0.065,-0.045
4.782,0.000,-0.040
4.784,0.070,-0.045
4.786,0.175,-0.045
4.788,0.215,-0.050
4.790,0.210,-0.055
4.792,0.160,-0.055
4.794,0.045,-0.060
4.796,-0.030,-0.060
4.798,-0.065,-0.060
4.800,-0.070,-0.055
4.802,-0.020,-0.050
4.804,0.070,-0.045
4.806,0.190,-0.040
4.808,0.235,-0.040
4.810,0.205,-0.035
4.812,0.170,-0.035
4.814,0.045,-0.035
4.816,-0.045,-0.035
4.818,-0.085,-0.035
4.820,-0.065,-0.030
4.822,-0.015,-0.030
4.824,0.105,-0.030
4.826,0.195,-0.030
4.828,0.240,-0.030
4.830,0.210,-0.030
4.832,0.160,-0.030
4.834,0.050,-0.025
4.836,-0.020,-0.025
4.838,-0.070,-0.020
4.840,-0.060,-0.015
4.842,0.020,-0.015
4.844,0.160,-0.010
4.846,0.235,-0.010
4.848,0.240,-0.015
4.850,0.225,-0.015
4.852,0.195,-0.020
4.854,0.040,-0.025
4.856,-0.030,-0.025
4.858,-0.055,-0.030
4.860,-0.035,-0.025
4.862,0.010,-0.025
4.864,0.150,-0.020
4.866,0.235,-0.015
4.868,0.250,-0.015
4.870,0.230,-0.015
4.872,0.155,-0.015
4.874,0.015,-0.015
4.876,-0.050,-0.020
4.878,-0.065,-0.020
4.880,-0.035,-0.020
4.882,0.030,-0.015
4.884,0.175,-0.015
4.886,0.220,-0.010
4.888,0.230,-0.010
4.890,0.220,-0.005
4.892,0.170,-0.005
4.894,0.040,-0.005
4.896,-0.030,-0.005
4.898,-0.065,-0.010
4.900,-0.040,-0.015
4.902,0.010,-0.020
4.904,0.160,-0.025
4.906,0.205,-0.030
4.908,0.240,-0.030
4.910,0.225,-0.030
4.912,0.120,-0.030
4.914,0.035,-0.025
4.916,-0.020,-0.020
4.918,-0.065,-0.010
4.920,-0.015,-0.005
4.922,0.045,0.000
4.924,0.150,0.005
4.926,0.260,0.000
4.928,0.245,-0.005
4.930,0.205,-0.010
4.932,0.160,-0.015
4.934,0.015,-0.020
4.936,-0.070,-0.025
4.938,-0.075,-0.020
4.940,-0.020,-0.020
4.942,0.030,-0.015
4.944,0.155,-0.015
4.946,0.210,-0.015
4.948,0.235,-0.015
4.950,0.190,-0.025
4.952,0.120,-0.030
4.954,-0.010,-0.035
4.956,-0.065,-0.035
4.958,-0.075,-0.035
4.960,-0.040,-0.030
4.962,0.025,-0.020
4.964,0.170,-0.015
4.966,0.220,-0.010
4.968,0.225,-0.010
4.970,0.170,-0.010
4.972,0.115,-0.020
4.974,-0.015,-0.025
4.976,-0.085,-0.035
4.978,-0.080,-0.045
4.980,-0.045,-0.045
4.982,0.035,-0.045
4.984,0.155,-0.040
4.986,0.205,-0.035
4.988,0.225,-0.030
4.990,0.165,-0.030
4.992,0.100,-0.025
4.994,-0.025,-0.025
4.996,-0.065,-0.030
4.998,-0.105,-0.030
5.000,-0.020,-0.030
5.002,0.040,-0.030
5.004,0.165,-0.030
5.006,0.205,-0.025
5.008,0.260,-0.025
5.010,0.160,-0.020
5.012,0.090,-0.025
5.014,-0.025,-0.025
5.016,-0.075,-0.030
5.018,-0.070,-0.035
5.020,-0.030,-0.035
5.022,0.020,-0.040
5.024,0.155,-0.035
5.026,0.200,-0.035
5.028,0.180,-0.030
5.030,0.160,-0.025
5.032,0.100,-0.020
5.034,-0.015,-0.020
5.036,-0.065,-0.020
5.038,-0.075,-0.020
5.040,-0.015,-0.020
5.042,0.055,-0.020
5.044,0.170,-0.020
5.046,0.205,-0.020
5.048,0.220,-0.020
5.050,0.150,-0.025
5.052,0.055,-0.025
5.054,-0.045,-0.030
5.056,-0.085,-0.035
5.058,-0.070,-0.040
5.060,-0.025,-0.040
5.062,0.060,-0.045
5.064,0.165,-0.045
5.066,0.205,-0.040
5.068,0.205,-0.035
5.070,0.135,-0.030
5.072,0.040,-0.025
5.074,-0.055,-0.025
5.076,-0.075,-0.025
5.078,-0.070,-0.025
5.080,-0.025,-0.030
5.082,0.075,-0.035
5.084,0.175,-0.040
5.086,0.185,-0.045
5.088,0.200,-0.045
5.090,0.150,-0.040
5.092,0.065,-0.040
5.094,-0.040,-0.030
5.096,-0.080,-0.025
5.098,-0.055,-0.020
5.100,-0.010,-0.015
5.102,0.080,-0.015
5.104,0.155,-0.020
5.106,0.210,-0.025
5.108,0.185,-0.030
5.110,0.135,-0.040
5.112,0.035,-0.045
5.114,-0.035,-0.045
5.116,-0.105,-0.045
5.118,-0.075,-0.040
5.120,-0.015,-0.030
5.122,0.095,-0.025
5.124,0.190,-0.020
5.126,0.225,-0.015
5.128,0.190,-0.015
5.130,0.155,-0.015
5.132,0.030,-0.020
5.134,-0.045,-0.025
5.136,-0.080,-0.030
5.138,-0.040,-0.030
5.140,-0.025,-0.030
5.142,0.105,-0.025
5.144,0.195,-0.015
5.146,0.220,-0.010
5.148,0.230,0.000
5.150,0.150,0.005
5.152,0.030,0.005
5.154,-0.060,0.005
5.156,-0.085,0.000
5.158,-0.040,-0.010
5.160,0.010,-0.020
5.162,0.125,-0.025
5.164,0.195,-0.030
5.166,0.225,-0.025
5.168,0.205,-0.020
5.170,0.155,-0.010
5.172,0.075,0.005
5.174,-0.005,0.015
5.176,-0.035,0.025
5.178,-0.035,0.030
5.180,0.030,0.035
5.182,0.155,0.030
5.184,0.225,0.030
5.186,0.265,0.025
5.188,0.225,0.020
5.190,0.170,0.020
5.192,0.070,0.020
5.194,-0.010,0.020
5.196,-0.045,0.025
5.198,-0.020,0.030
5.200,0.025,0.030
5.202,0.165,0.030
5.204,0.230,0.025
5.206,0.235,0.020
5.208,0.185,0.010
5.210,0.145,0.005
5.212,0.015,0.000
5.214,-0.060,0.000
5.216,-0.060,0.000
5.218,-0.030,0.000
5.220,0.000,0.000
5.222,0.145,0.005
5.224,0.195,0.000
5.226,0.215,0.000
5.228,0.160,-0.010
5.230,0.110,-0.020
5.232,-0.010,-0.025
5.234,-0.095,-0.035
5.236,-0.100,-0.040
5.238,-0.085,-0.045
5.240,-0.005,-0.045
5.242,0.120,-0.040
5.244,0.170,-0.040
5.246,0.180,-0.035
5.248,0.145,-0.035
5.250,0.110,-0.040
5.252,-0.045,-0.040
5.254,-0.100,-0.045
5.256,-0.115,-0.050
5.258,-0.080,-0.055
5.260,-0.005,-0.055
5.262,0.115,-0.055
5.264,0.195,-0.050
5.266,0.190,-0.045
5.268,0.145,-0.045
5.270,0.085,-0.040
5.272,-0.050,-0.040
5.274,-0.110,-0.040
5.276,-0.115,-0.040
5.278,-0.075,-0.045
5.280,-0.015,-0.045
5.282,0.115,-0.045
5.284,0.160,-0.045
5.286,0.170,-0.040
5.288,0.120,-0.040
5.290,0.055,-0.040
5.292,-0.060,-0.045
5.294,-0.130,-0.055
5.296,-0.150,-0.065
5.298,-0.095,-0.075
5.300,-0.050,-0.090
5.302,0.060,-0.095
5.304,0.105,-0.095
5.306,0.165,-0.080
5.308,0.130,-0.045
5.310,0.110,0.005
5.312,0.060,0.070
5.314,0.105,0.150
5.316,0.190,0.230
5.318,0.290,0.315
5.320,0.460,0.385
5.322,0.685,0.440
5.324,0.725,0.475
5.326,0.740,0.480
5.328,0.625,0.455
5.330,0.450,0.405
5.332,0.235,0.335
5.334,0.195,0.250
5.336,0.135,0.160
5.338,0.065,0.065
5.340,0.075,-0.025
5.342,-0.005,-0.100
5.344,-0.060,-0.165
5.346,-0.040,-0.210
5.348,-0.100,-0.240
5.350,-0.155,-0.250
5.352,-0.240,-0.245
5.354,-0.275,-0.230
5.356,-0.255,-0.205
5.358,-0.160,-0.175
5.360,-0.055,-0.145
5.362,0.080,-0.120
5.364,0.125,-0.095
5.366,0.145,-0.080
5.368,0.120,-0.070
5.370,0.005,-0.060
5.372,-0.080,-0.055
5.374,-0.120,-0.050
5.376,-0.095,-0.045
5.378,-0.050,-0.040
5.380,0.050,-0.030
5.382,0.170,-0.025
5.384,0.205,-0.015
5.386,0.205,-0.005
5.388,0.140,0.000
5.390,0.040,0.000
5.392,-0.065,0.000
5.394,-0.090,0.000
5.396,-0.090,-0.005
5.398,-0.020,-0.010
5.400,0.060,-0.015
5.402,0.165,-0.015
5.404,0.230,-0.020
5.406,0.200,-0.020
5.408,0.140,-0.020
5.410,0.035,-0.015
5.412,-0.045,-0.015
5.414,-0.085,-0.015
5.416,-0.065,-0.010
5.418,-0.015,-0.005
5.420,0.090,-0.005
5.422,0.180,0.000
5.424,0.220,0.000
5.426,0.225,0.005
5.428,0.155,0.005
5.430,0.040,0.005
5.432,-0.055,0.005
5.434,-0.090,0.000
5.436,-0.040,0.000
5.438,0.010,-0.005
5.440,0.110,-0.005
5.442,0.195,-0.005
5.444,0.225,0.000
5.446,0.195,0.000
5.448,0.160,0.005
5.450,0.045,0.010
5.452,-0.035,0.015
5.454,-0.070,0.015
5.456,-0.050,0.015
5.458,0.010,0.015
5.460,0.120,0.015
5.462,0.215,0.015
5.464,0.225,0.015
5.466,0.190,0.015
5.468,0.165,0.020
5.470,0.050,0.025
5.472,-0.040,0.030
5.474,-0.055,0.035
5.476,-0.020,0.040
5.478,0.045,0.040
5.480,0.160,0.040
5.482,0.240,0.040
5.484,0.255,0.040
5.486,0.210,0.040
5.488,0.160,0.045
5.490,0.050,0.050
5.492,-0.015,0.055
5.494,-0.035,0.065
5.496,-0.005,0.070
5.498,0.065,0.080
5.500,0.230,0.085
5.502,0.295,0.090
5.504,0.315,0.095
5.506,0.255,0.095
5.508,0.205,0.090
5.510,0.075,0.090
5.512,0.025,0.090
5.514,0.005,0.090
5.516,0.065,0.095
5.518,0.110,0.100
5.520,0.230,0.105
5.522,0.335,0.110
5.524,0.350,0.120
5.526,0.315,0.130
5.528,0.265,0.135
5.530,0.145,0.145
5.532,0.080,0.150
5.534,0.080,0.160
5.536,0.105,0.165
5.538,0.175,0.175
5.540,0.325,0.180
5.542,0.380,0.185
5.544,0.415,0.190
5.546,0.365,0.195
5.548,0.310,0.195
5.550,0.200,0.200
5.552,0.140,0.205
5.554,0.135,0.205
5.556,0.200,0.215
5.558,0.250,0.220
5.560,0.380,0.230
5.562,0.450,0.235
5.564,0.470,0.245
5.566,0.415,0.250
5.568,0.365,0.255
5.570,0.235,0.260
5.572,0.165,0.260
5.574,0.180,0.260
5.576,0.215,0.260
5.578,0.275,0.260
5.580,0.395,0.255
5.582,0.445,0.250
5.584,0.460,0.245
5.586,0.390,0.240
5.588,0.325,0.235
5.590,0.205,0.225
5.592,0.135,0.215
5.594,0.105,0.210
5.596,0.145,0.200
5.598,0.220,0.190
5.600,0.355,0.175
5.602,0.365,0.165
5.604,0.350,0.155
5.606,0.290,0.140
5.608,0.205,0.125
5.610,0.085,0.115
5.612,0.015,0.100
5.614,-0.020,0.085
5.616,0.030,0.075
5.618,0.100,0.060
5.620,0.195,0.050
5.622,0.215,0.040
5.624,0.225,0.030
5.626,0.170,0.020
5.628,0.055,0.010
5.630,-0.040,0.005
5.632,-0.085,0.000
5.634,-0.095,-0.010
5.636,-0.020,-0.015
5.638,0.050,-0.020
5.640,0.125,-0.025
5.642,0.170,-0.030
5.644,0.165,-0.035
5.646,0.105,-0.040
5.648,0.035,-0.045
5.650,-0.070,-0.050
5.652,-0.145,-0.050
5.654,-0.135,-0.055
5.656,-0.100,-0.055
5.658,0.015,-0.060
5.660,0.120,-0.060
5.662,0.150,-0.060
5.664,0.145,-0.060
5.666,0.090,-0.060
5.668,-0.005,-0.060
5.670,-0.120,-0.060
5.672,-0.165,-0.065
5.674,-0.130,-0.065
5.676,-0.080,-0.070
5.678,0.020,-0.070
5.680,0.100,-0.075
5.682,0.115,-0.075
5.684,0.130,-0.070
5.686,0.090,-0.070
5.688,-0.005,-0.065
5.690,-0.115,-0.060
5.692,-0.165,-0.060
5.694,-0.150,-0.055
5.696,-0.055,-0.055
5.698,0.015,-0.060
5.700,0.100,-0.065
5.702,0.135,-0.070
5.704,0.125,-0.075
5.706,0.080,-0.085
5.708,-0.045,-0.085
5.710,-0.115,-0.090
5.712,-0.155,-0.085
5.714,-0.140,-0.085
5.716,-0.090,-0.075
5.718,0.040,-0.070
5.720,0.125,-0.060
5.722,0.160,-0.055
5.724,0.145,-0.050
5.726,0.070,-0.045
5.728,-0.015,-0.045
5.730,-0.095,-0.045
5.732,-0.140,-0.050
5.734,-0.110,-0.050
5.736,-0.040,-0.055
5.738,0.050,-0.060
5.740,0.130,-0.060
5.742,0.135,-0.065
5.744,0.120,-0.065
5.746,0.085,-0.065
5.748,-0.025,-0.065
5.750,-0.135,-0.060
5.752,-0.150,-0.060
5.754,-0.120,-0.060
5.756,-0.070,-0.055
5.758,0.070,-0.055
5.760,0.140,-0.055
5.762,0.175,-0.055
5.764,0.130,-0.055
5.766,0.085,-0.050
5.768,-0.050,-0.050
5.770,-0.135,-0.050
5.772,-0.130,-0.050
5.774,-0.120,-0.045
5.776,-0.060,-0.045
5.778,0.065,-0.045
5.780,0.135,-0.045
5.782,0.165,-0.045
5.784,0.130,-0.050
5.786,0.095,-0.050
5.788,-0.050,-0.055
5.790,-0.110,-0.055
5.792,-0.145,-0.055
5.794,-0.105,-0.050
5.796,-0.065,-0.050
5.798,0.090,-0.045
5.800,0.155,-0.045
5.802,0.150,-0.045
5.804,0.135,-0.045
5.806,0.060,-0.050
5.808,-0.060,-0.055
5.810,-0.130,-0.060
5.812,-0.145,-0.070
5.814,-0.100,-0.075
5.816,-0.035,-0.075
5.818,0.080,-0.075
5.820,0.140,-0.075
5.822,0.160,-0.075
5.824,0.120,-0.070
5.826,0.060,-0.065
5.828,-0.095,-0.065
5.830,-0.110,-0.060
5.832,-0.140,-0.060
5.834,-0.110,-0.060
5.836,-0.060,-0.060
5.838,0.065,-0.060
5.840,0.130,-0.060
5.842,0.145,-0.060
5.844,0.105,-0.060
5.846,0.045,-0.060
5.848,-0.070,-0.060
5.850,-0.120,-0.060
5.852,-0.145,-0.060
5.854,-0.120,-0.060
5.856,-0.040,-0.060
5.858,0.095,-0.065
5.860,0.145,-0.070
5.862,0.135,-0.070
5.864,0.095,-0.075
5.866,0.035,-0.075
5.868,-0.105,-0.075
5.870,-0.120,-0.070
5.872,-0.115,-0.070
5.874,-0.100,-0.065
5.876,-0.020,-0.060
5.878,0.090,-0.060
5.880,0.135,-0.060
5.882,0.150,-0.060
5.884,0.100,-0.065
5.886,0.055,-0.070
5.888,-0.110,-0.075
5.890,-0.155,-0.080
5.892,-0.160,-0.085
5.894,-0.120,-0.085
5.896,-0.020,-0.085
5.898,0.090,-0.085
5.900,0.150,-0.080
5.902,0.160,-0.075
5.904,0.100,-0.070
5.906,0.020,-0.070
5.908,-0.100,-0.065
5.910,-0.150,-0.065
5.912,-0.165,-0.065
5.914,-0.105,-0.065
5.916,-0.025,-0.070
5.918,0.100,-0.070
5.920,0.145,-0.075
5.922,0.140,-0.075
5.924,0.090,-0.075
5.926,0.015,-0.075
5.928,-0.090,-0.075
5.930,-0.155,-0.070
5.932,-0.130,-0.070
5.934,-0.075,-0.065
5.936,-0.010,-0.065
5.938,0.120,-0.060
5.940,0.150,-0.060
5.942,0.145,-0.060
5.944,0.105,-0.060
5.946,0.020,-0.060
5.948,-0.090,-0.060
5.950,-0.150,-0.060
5.952,-0.145,-0.060
5.954,-0.085,-0.060
5.956,0.030,-0.060
5.958,0.110,-0.060
5.960,0.140,-0.060
5.962,0.145,-0.065
5.964,0.095,-0.065
5.966,0.020,-0.065
5.968,-0.100,-0.070
5.970,-0.165,-0.070
5.972,-0.130,-0.075
5.974,-0.080,-0.075
5.976,0.020,-0.075
5.978,0.100,-0.075
5.980,0.115,-0.075
5.982,0.115,-0.075
5.984,0.060,-0.075
5.986,-0.030,-0.075
5.988,-0.155,-0.075
5.990,-0.145,-0.075
5.992,-0.135,-0.070
5.994,-0.080,-0.070
5.996,0.015,-0.070
5.998,0.095,-0.070
6.000,0.120,-0.075
6.002,0.140,-0.075
6.004,0.070,-0.080
6.006,-0.015,-0.080
6.008,-0.130,-0.085
6.010,-0.175,-0.090
6.012,-0.150,-0.090
6.014,-0.085,-0.090
6.016,0.015,-0.090
6.018,0.090,-0.090
6.020,0.135,-0.085
6.022,0.135,-0.080
6.024,0.065,-0.070
6.026,-0.050,-0.065
6.028,-0.105,-0.060
6.030,-0.145,-0.055
6.032,-0.130,-0.050
6.034,-0.070,-0.050
6.036,0.055,-0.050
6.038,0.130,-0.055
6.040,0.145,-0.060
6.042,0.125,-0.065
6.044,0.060,-0.070
6.046,-0.035,-0.070
6.048,-0.120,-0.070
6.050,-0.145,-0.070
6.052,-0.110,-0.070
6.054,-0.075,-0.070
6.056,0.040,-0.070
6.058,0.140,-0.065
6.060,0.165,-0.065
6.062,0.145,-0.065
6.064,0.060,-0.065
6.066,-0.025,-0.060
6.068,-0.095,-0.055
6.070,-0.120,-0.050
6.072,-0.100,-0.045
6.074,-0.030,-0.040
6.076,0.100,-0.035
6.078,0.175,-0.030
6.080,0.180,-0.030
6.082,0.160,-0.030
6.084,0.095,-0.030
6.086,-0.005,-0.030
6.088,-0.090,-0.030
6.090,-0.105,-0.025
6.092,-0.050,-0.025
6.094,-0.030,-0.020
6.096,0.125,-0.020
6.098,0.195,-0.015
6.100,0.200,-0.015
6.102,0.160,-0.020
6.104,0.095,-0.020
6.106,-0.005,-0.025
6.108,-0.065,-0.030
6.110,-0.110,-0.035
6.112,-0.070,-0.035
6.114,-0.030,-0.035
6.116,0.100,-0.035
6.118,0.160,-0.035
6.120,0.170,-0.035
6.122,0.125,-0.040
6.124,0.070,-0.045
6.126,-0.055,-0.050
6.128,-0.130,-0.055
6.130,-0.150,-0.065
6.132,-0.105,-0.070
6.134,-0.040,-0.075
6.136,0.080,-0.075
6.138,0.130,-0.075
6.140,0.145,-0.075
6.142,0.105,-0.070
6.144,0.055,-0.070
6.146,-0.070,-0.065
6.148,-0.125,-0.065
6.150,-0.140,-0.065
6.152,-0.125,-0.065
6.154,-0.055,-0.070
6.156,0.055,-0.070
6.158,0.120,-0.075
6.160,0.135,-0.080
6.162,0.090,-0.080
6.164,0.030,-0.080
6.166,-0.075,-0.080
6.168,-0.140,-0.080
6.170,-0.145,-0.075
6.172,-0.120,-0.070
6.174,-0.060,-0.065
6.176,0.085,-0.065
6.178,0.150,-0.065
6.180,0.180,-0.070
6.182,0.085,-0.075
6.184,0.010,-0.080
6.186,-0.105,-0.085
6.188,-0.145,-0.085
6.190,-0.145,-0.090
6.192,-0.090,-0.090
6.194,-0.025,-0.090
6.196,0.085,-0.090
6.198,0.100,-0.090
6.200,0.120,-0.095
6.202,0.055,-0.100
6.204,-0.045,-0.105
6.206,-0.155,-0.100
6.208,-0.165,-0.085
6.210,-0.130,-0.055
6.212,-0.005,-0.005
6.214,0.155,0.060
6.216,0.330,0.140
6.218,0.455,0.225
6.220,0.560,0.310
6.222,0.605,0.385
6.224,0.595,0.445
6.226,0.520,0.475
6.228,0.425,0.475
6.230,0.330,0.445
6.232,0.270,0.390
6.234,0.310,0.310
6.236,0.410,0.220
6.238,0.405,0.120
6.240,0.280,0.025
6.242,0.095,-0.065
6.244,-0.145,-0.135
6.246,-0.310,-0.190
6.248,-0.330,-0.230
6.250,-0.310,-0.250
6.252,-0.240,-0.255
6.254,-0.130,-0.245
6.256,-0.040,-0.230
6.258,-0.005,-0.210
6.260,0.055,-0.185
6.262,0.010,-0.160
6.264,-0.045,-0.135
6.266,-0.130,-0.115
6.268,-0.145,-0.100
6.270,-0.120,-0.080
6.272,-0.065,-0.070
6.274,0.025,-0.055
6.276,0.145,-0.045
6.278,0.195,-0.035
6.280,0.185,-0.030
6.282,0.145,-0.025
6.284,0.045,-0.020
6.286,-0.040,-0.020
6.288,-0.105,-0.020
6.290,-0.095,-0.025
6.292,-0.025,-0.030
6.294,0.090,-0.035
6.296,0.170,-0.035
6.298,0.205,-0.035
6.300,0.190,-0.035
6.302,0.135,-0.030
6.304,0.065,-0.025
6.306,-0.055,-0.015
6.308,-0.095,-0.005
6.310,-0.060,0.000
6.312,-0.005,0.005
6.314,0.120,0.010
6.316,0.205,0.010
6.318,0.220,0.010
6.320,0.210,0.005
6.322,0.145,0.000
6.324,0.035,0.000
6.326,-0.045,0.000
6.328,-0.080,0.000
6.330,-0.055,0.000
6.332,-0.010,0.005
6.334,0.135,0.005
6.336,0.205,0.010
6.338,0.250,0.015
6.340,0.225,0.015
6.342,0.170,0.020
6.344,0.055,0.020
6.346,-0.045,0.020
6.348,-0.065,0.025
6.350,-0.040,0.025
6.352,0.000,0.030
6.354,0.155,0.030
6.356,0.230,0.035
6.358,0.270,0.035
6.360,0.230,0.035
6.362,0.180,0.035
6.364,0.050,0.035
6.366,-0.010,0.035
6.368,-0.040,0.035
6.370,-0.040,0.030
6.372,0.030,0.030
6.374,0.170,0.035
6.376,0.250,0.035
6.378,0.295,0.035
6.380,0.235,0.040
6.382,0.180,0.040
6.384,0.060,0.045
6.386,-0.010,0.050
6.388,-0.020,0.055
6.390,0.005,0.055
6.392,0.095,0.060
6.394,0.215,0.060
6.396,0.275,0.065
6.398,0.310,0.070
6.400,0.255,0.070
6.402,0.205,0.075
6.404,0.085,0.080
6.406,0.030,0.085
6.408,0.025,0.090
6.410,0.040,0.095
6.412,0.110,0.100
6.414,0.250,0.105
6.416,0.325,0.105
6.418,0.345,0.105
6.420,0.320,0.105
6.422,0.245,0.110
6.424,0.120,0.110
6.426,0.070,0.120
6.428,0.060,0.125
6.430,0.105,0.135
6.432,0.175,0.145
6.434,0.295,0.160
6.436,0.405,0.170
6.438,0.395,0.175
6.440,0.385,0.185
6.442,0.320,0.190
6.444,0.220,0.195
6.446,0.155,0.200
6.448,0.145,0.210
6.450,0.195,0.220
6.452,0.280,0.230
6.454,0.410,0.240
6.456,0.465,0.250
6.458,0.500,0.255
6.460,0.435,0.260
6.462,0.380,0.265
6.464,0.235,0.265
6.466,0.195,0.265
6.468,0.175,0.265
6.470,0.240,0.265
6.472,0.320,0.270
6.474,0.445,0.275
6.476,0.505,0.275
6.478,0.520,0.280
6.480,0.460,0.285
6.482,0.380,0.280
6.484,0.250,0.280
6.486,0.200,0.275
6.488,0.170,0.265
6.490,0.265,0.255
6.492,0.305,0.245
6.494,0.400,0.235
6.496,0.445,0.230
6.498,0.425,0.220
6.500,0.390,0.210
6.502,0.275,0.200
6.504,0.150,0.190
6.506,0.085,0.180
6.508,0.095,0.170
6.510,0.130,0.155
6.512,0.195,0.140
6.514,0.280,0.130
6.516,0.330,0.115
6.518,0.290,0.110
6.520,0.260,0.100
6.522,0.175,0.095
6.524,0.055,0.085
6.526,-0.005,0.080
6.528,-0.020,0.075
6.530,0.020,0.065
6.532,0.120,0.055
6.534,0.220,0.040
6.536,0.235,0.030
6.538,0.245,0.015
6.540,0.160,0.005
6.542,0.075,-0.005
6.544,-0.025,-0.015
6.546,-0.080,-0.015
6.548,-0.080,-0.020
6.550,-0.035,-0.015
6.552,0.050,-0.015
6.554,0.185,-0.015
6.556,0.200,-0.015
6.558,0.180,-0.015
6.560,0.130,-0.015
6.562,0.040,-0.020
6.564,-0.055,-0.020
6.566,-0.110,-0.020
6.568,-0.095,-0.020
6.570,-0.050,-0.020
6.572,0.045,-0.020
6.574,0.130,-0.020
6.576,0.180,-0.025
6.578,0.160,-0.030
6.580,0.100,-0.035
6.582,-0.005,-0.045
6.584,-0.080,-0.055
6.586,-0.105,-0.065
6.588,-0.150,-0.070
6.590,-0.045,-0.075
6.592,0.065,-0.070
6.594,0.140,-0.065
6.596,0.155,-0.055
6.598,0.140,-0.045
6.600,0.105,-0.040
6.602,0.005,-0.030
6.604,-0.085,-0.025
6.606,-0.130,-0.025
6.608,-0.075,-0.030
6.610,-0.050,-0.035
6.612,0.040,-0.045
6.614,0.135,-0.050
6.616,0.170,-0.060
6.618,0.165,-0.060
6.620,0.100,-0.060
6.622,-0.010,-0.055
6.624,-0.095,-0.050
6.626,-0.105,-0.045
6.628,-0.090,-0.040
6.630,-0.010,-0.035
6.632,0.070,-0.035
6.634,0.155,-0.035
6.636,0.195,-0.035
6.638,0.160,-0.035
6.640,0.125,-0.035
6.642,-0.005,-0.035
6.644,-0.090,-0.035
6.646,-0.125,-0.030
6.648,-0.085,-0.025
6.650,-0.030,-0.020
6.652,0.105,-0.015
6.654,0.180,-0.015
6.656,0.195,-0.010
6.658,0.190,-0.015
6.660,0.135,-0.015
6.662,0.025,-0.020
6.664,-0.055,-0.020
6.666,-0.115,-0.020
6.668,-0.085,-0.020
6.670,-0.030,-0.020
6.672,0.105,-0.015
6.674,0.170,-0.010
6.676,0.190,-0.010
6.678,0.155,-0.005
6.680,0.110,-0.005
6.682,0.030,-0.005
6.684,-0.060,-0.010
6.686,-0.100,-0.010
6.688,-0.070,-0.015
6.690,-0.020,-0.015
6.692,0.110,-0.015
6.694,0.190,-0.010
6.696,0.200,-0.010
6.698,0.160,-0.010
6.700,0.100,-0.010
6.702,-0.010,-0.010
6.704,-0.085,-0.015
6.706,-0.100,-0.015
6.708,-0.060,-0.025
6.710,-0.010,-0.025
6.712,0.100,-0.030
6.714,0.180,-0.030
6.716,0.185,-0.030
6.718,0.175,-0.025
6.720,0.090,-0.020
6.722,-0.020,-0.015
6.724,-0.110,-0.010
6.726,-0.110,-0.010
6.728,-0.065,-0.015
6.730,-0.010,-0.020
6.732,0.110,-0.025
6.734,0.185,-0.030
6.736,0.175,-0.035
6.738,0.155,-0.040
6.740,0.065,-0.040
6.742,-0.060,-0.035
6.744,-0.115,-0.035
6.746,-0.090,-0.030
6.748,-0.080,-0.030
6.750,-0.015,-0.030
6.752,0.110,-0.030
6.754,0.155,-0.035
6.756,0.175,-0.040
6.758,0.135,-0.045
6.760,0.075,-0.045
6.762,-0.050,-0.040
6.764,-0.095,-0.040
6.766,-0.095,-0.035
6.768,-0.065,-0.025
6.770,0.025,-0.025
6.772,0.130,-0.020
6.774,0.175,-0.020
6.776,0.190,-0.025
6.778,0.120,-0.025
6.780,0.085,-0.035
6.782,-0.050,-0.040
6.784,-0.125,-0.040
6.786,-0.135,-0.045
6.788,-0.075,-0.045
6.790,-0.010,-0.045
6.792,0.115,-0.045
6.794,0.165,-0.045
6.796,0.160,-0.045
6.798,0.115,-0.045
6.800,0.055,-0.045
6.802,-0.065,-0.045
6.804,-0.110,-0.050
6.806,-0.115,-0.050
6.808,-0.075,-0.050
6.810,0.015,-0.045
6.812,0.110,-0.045
6.814,0.165,-0.040
6.816,0.145,-0.035
6.818,0.085,-0.035
6.820,0.045,-0.030
6.822,-0.060,-0.030
6.824,-0.135,-0.035
6.826,-0.115,-0.035
6.828,-0.050,-0.035
6.830,0.025,-0.040
6.832,0.120,-0.040
6.834,0.185,-0.040
6.836,0.170,-0.035
6.838,0.100,-0.035
6.840,0.035,-0.030
6.842,-0.070,-0.030
6.844,-0.110,-0.025
6.846,-0.120,-0.030
6.848,-0.050,-0.030
6.850,0.045,-0.035
6.852,0.120,-0.040
6.854,0.170,-0.045
6.856,0.170,-0.045
6.858,0.100,-0.050
6.860,0.020,-0.050
6.862,-0.100,-0.050
6.864,-0.135,-0.050
6.866,-0.125,-0.050
6.868,-0.065,-0.050
6.870,0.040,-0.050
6.872,0.135,-0.045
6.874,0.170,-0.045
6.876,0.160,-0.045
6.878,0.105,-0.045
6.880,0.030,-0.040
6.882,-0.065,-0.040
6.884,-0.105,-0.035
6.886,-0.095,-0.030
6.888,-0.035,-0.025
6.890,0.075,-0.020
6.892,0.160,-0.015
6.894,0.200,-0.015
6.896,0.180,-0.010
6.898,0.130,-0.010
6.900,0.050,-0.010
6.902,-0.060,-0.010
6.904,-0.090,-0.010
6.906,-0.075,-0.015
6.908,-0.020,-0.015
6.910,0.090,-0.015
6.912,0.175,-0.015
6.914,0.190,-0.015
6.916,0.175,-0.015
6.918,0.120,-0.010
6.920,0.030,-0.010
6.922,-0.045,-0.010
6.924,-0.100,-0.010
6.926,-0.080,-0.010
6.928,-0.030,-0.015
6.930,0.065,-0.025
6.932,0.155,-0.030
6.934,0.215,-0.035
6.936,0.165,-0.040
6.938,0.090,-0.045
6.940,0.000,-0.045
6.942,-0.105,-0.045
6.944,-0.130,-0.045
6.946,-0.115,-0.040
6.948,-0.060,-0.040
6.950,0.050,-0.040
6.952,0.135,-0.040
6.954,0.145,-0.045
6.956,0.120,-0.050
6.958,0.085,-0.050
6.960,-0.040,-0.055
6.962,-0.105,-0.055
6.964,-0.150,-0.060
6.966,-0.115,-0.060
6.968,-0.080,-0.060
6.970,0.055,-0.060
6.972,0.140,-0.065
6.974,0.145,-0.065
6.976,0.120,-0.065
6.978,0.065,-0.060
6.980,-0.030,-0.060
6.982,-0.135,-0.055
6.984,-0.150,-0.055
6.986,-0.115,-0.050
6.988,-0.065,-0.050
6.990,0.065,-0.045
6.992,0.140,-0.045
6.994,0.165,-0.045
6.996,0.130,-0.045
6.998,0.055,-0.045
7.000,-0.055,-0.045
7.002,-0.130,-0.045
7.004,-0.170,-0.045
7.006,-0.100,-0.050
7.008,-0.050,-0.055
7.010,0.035,-0.065
7.012,0.085,-0.075
7.014,0.105,-0.090
7.016,0.080,-0.105
7.018,0.020,-0.115
7.020,-0.125,-0.120
7.022,-0.200,-0.110
7.024,-0.215,-0.090
7.026,-0.115,-0.055
7.028,0.010,-0.005
7.030,0.200,0.060
7.032,0.330,0.135
7.034,0.450,0.215
7.036,0.500,0.295
7.038,0.530,0.365
7.040,0.470,0.425
7.042,0.445,0.465
7.044,0.395,0.475
7.046,0.395,0.455
7.048,0.325,0.410
7.050,0.395,0.335
7.052,0.440,0.245
7.054,0.385,0.140
7.056,0.235,0.030
7.058,0.040,-0.070
7.060,-0.250,-0.155
7.062,-0.370,-0.220
7.064,-0.380,-0.260
7.066,-0.325,-0.280
7.068,-0.250,-0.280
7.070,-0.095,-0.265
7.072,-0.030,-0.245
7.074,0.000,-0.215
7.076,-0.035,-0.190
7.078,-0.065,-0.165
7.080,-0.180,-0.150
7.082,-0.195,-0.135
7.084,-0.190,-0.120
7.086,-0.135,-0.110
7.088,-0.045,-0.100
7.090,0.060,-0.090
7.092,0.150,-0.075
7.094,0.135,-0.065
7.096,0.095,-0.060
7.098,0.040,-0.050
7.100,-0.065,-0.045
7.102,-0.125,-0.040
7.104,-0.125,-0.035
7.106,-0.090,-0.035
7.108,0.000,-0.035
7.110,0.120,-0.035
7.112,0.185,-0.035
7.114,0.160,-0.035
7.116,0.120,-0.035
7.118,0.050,-0.035
7.120,-0.075,-0.035
7.122,-0.120,-0.035
7.124,-0.120,-0.035
7.126,-0.070,-0.030
7.128,0.030,-0.030
7.130,0.140,-0.025
7.132,0.170,-0.025
7.134,0.160,-0.020
7.136,0.110,-0.020
7.138,0.040,-0.020
7.140,-0.050,-0.020
7.142,-0.095,-0.025
7.144,-0.125,-0.025
7.146,-0.055,-0.025
7.148,0.050,-0.025
7.150,0.140,-0.025
7.152,0.200,-0.025
7.154,0.185,-0.020
7.156,0.130,-0.015
7.158,0.045,-0.010
7.160,-0.055,-0.005
7.162,-0.095,0.000
7.164,-0.105,0.005
7.166,-0.030,0.005
7.168,0.060,0.010
7.170,0.160,0.015
7.172,0.220,0.015
7.174,0.215,0.020
7.176,0.145,0.025
7.178,0.040,0.025
7.180,-0.035,0.030
7.182,-0.055,0.035
7.184,-0.055,0.035
7.186,0.010,0.040
7.188,0.120,0.040
7.190,0.200,0.040
7.192,0.235,0.045
7.194,0.225,0.045
7.196,0.175,0.045
7.198,0.075,0.045
7.200,-0.015,0.045
7.202,-0.050,0.045
7.204,-0.030,0.045
7.206,0.020,0.045
7.208,0.130,0.050
7.210,0.210,0.055
7.212,0.270,0.055
7.214,0.260,0.060
7.216,0.210,0.060
7.218,0.090,0.065
7.220,0.010,0.065
7.222,-0.015,0.065
7.224,0.010,0.070
7.226,0.075,0.070
7.228,0.170,0.075
7.230,0.270,0.080
7.232,0.315,0.090
7.234,0.280,0.100
7.236,0.220,0.105
7.238,0.115,0.115
7.240,0.045,0.120
7.242,0.020,0.130
7.244,0.050,0.135
7.246,0.125,0.135
7.248,0.235,0.140
7.250,0.320,0.145
7.252,0.315,0.150
7.254,0.320,0.155
7.256,0.295,0.165
7.258,0.195,0.170
7.260,0.130,0.180
7.262,0.115,0.190
7.264,0.145,0.200
7.266,0.190,0.210
7.268,0.330,0.215
7.270,0.405,0.225
7.272,0.435,0.230
7.274,0.405,0.235
7.276,0.355,0.235
7.278,0.230,0.240
7.280,0.165,0.245
7.282,0.135,0.245
7.284,0.155,0.250
7.286,0.235,0.250
7.288,0.360,0.245
7.290,0.425,0.245
7.292,0.440,0.240
7.294,0.415,0.240
7.296,0.370,0.240
7.298,0.235,0.240
7.300,0.165,0.240
7.302,0.140,0.240
7.304,0.190,0.240
7.306,0.240,0.240
7.308,0.345,0.235
7.310,0.395,0.230
7.312,0.405,0.220
7.314,0.350,0.205
7.316,0.275,0.190
7.318,0.135,0.180
7.320,0.055,0.165
7.322,0.035,0.150
7.324,0.055,0.135
7.326,0.115,0.120
7.328,0.195,0.105
7.330,0.270,0.085
7.332,0.250,0.070
7.334,0.200,0.055
7.336,0.140,0.040
7.338,0.005,0.025
7.340,-0.080,0.015
7.342,-0.105,0.005
7.344,-0.050,0.000
7.346,0.005,-0.005
7.348,0.125,-0.010
7.350,0.155,-0.010
7.352,0.180,-0.015
7.354,0.120,-0.020
7.356,0.075,-0.020
7.358,-0.050,-0.025
7.360,-0.125,-0.030
7.362,-0.170,-0.035
7.364,-0.125,-0.040
7.366,-0.065,-0.050
7.368,0.085,-0.055
7.370,0.140,-0.060
7.372,0.110,-0.070
7.374,0.090,-0.075
7.376,0.020,-0.080
7.378,-0.110,-0.085
7.380,-0.165,-0.080
7.382,-0.175,-0.080
7.384,-0.120,-0.070
7.386,-0.055,-0.065
7.388,0.070,-0.055
7.390,0.130,-0.050
7.392,0.120,-0.050
7.394,0.070,-0.050
7.396,0.015,-0.055
7.398,-0.105,-0.060
7.400,-0.180,-0.065
7.402,-0.170,-0.070
7.404,-0.125,-0.075
7.406,-0.060,-0.075
7.408,0.075,-0.070
7.410,0.135,-0.065
7.412,0.125,-0.060
7.414,0.075,-0.055
7.416,-0.020,-0.055
7.418,-0.140,-0.050
7.420,-0.170,-0.055
7.422,-0.165,-0.055
7.424,-0.115,-0.060
7.426,-0.025,-0.065
7.428,0.070,-0.065
7.430,0.145,-0.065
7.432,0.135,-0.065
7.434,0.060,-0.060
7.436,0.005,-0.055
7.438,-0.100,-0.050
7.440,-0.165,-0.050
7.442,-0.165,-0.050
7.444,-0.090,-0.050
7.446,-0.030,-0.055
7.448,0.090,-0.060
7.450,0.135,-0.065
7.452,0.115,-0.070
7.454,0.065,-0.070
7.456,-0.005,-0.070
7.458,-0.125,-0.065
7.460,-0.165,-0.060
7.462,-0.155,-0.055
7.464,-0.070,-0.050
7.466,0.015,-0.045
7.468,0.115,-0.040
7.470,0.145,-0.040
7.472,0.145,-0.040
7.474,0.105,-0.040
7.476,-0.010,-0.040
7.478,-0.095,-0.040
7.480,-0.160,-0.040
7.482,-0.120,-0.035
7.484,-0.085,-0.035
7.486,0.020,-0.040
7.488,0.105,-0.040
7.490,0.160,-0.040
7.492,0.130,-0.045
7.494,0.075,-0.050
7.496,-0.010,-0.050
7.498,-0.105,-0.050
7.500,-0.140,-0.050
7.502,-0.135,-0.050
7.504,-0.075,-0.050
7.506,0.050,-0.045
7.508,0.130,-0.045
7.510,0.155,-0.045
7.512,0.130,-0.040
7.514,0.075,-0.045
7.516,-0.035,-0.045
7.518,-0.140,-0.045
7.520,-0.175,-0.050
7.522,-0.130,-0.050
7.524,-0.045,-0.050
7.526,0.035,-0.050
7.528,0.115,-0.050
7.530,0.150,-0.050
7.532,0.110,-0.045
7.534,0.060,-0.040
7.536,-0.035,-0.035
7.538,-0.120,-0.035
7.540,-0.165,-0.035
7.542,-0.140,-0.035
7.544,-0.095,-0.040
7.546,0.045,-0.045
7.548,0.110,-0.050
7.550,0.155,-0.055
7.552,0.130,-0.060
7.554,0.060,-0.065
7.556,-0.070,-0.065
7.558,-0.145,-0.070
7.560,-0.175,-0.065
7.562,-0.155,-0.065
7.564,-0.085,-0.065
7.566,0.040,-0.065
7.568,0.125,-0.065
7.570,0.130,-0.065
7.572,0.105,-0.065
7.574,0.045,-0.065
7.576,-0.075,-0.065
7.578,-0.135,-0.065
7.580,-0.150,-0.065
7.582,-0.125,-0.060
7.584,-0.100,-0.060
7.586,0.040,-0.055
7.588,0.105,-0.055
7.590,0.115,-0.060
7.592,0.095,-0.060
7.594,0.020,-0.065
7.596,-0.105,-0.070
7.598,-0.170,-0.070
7.600,-0.160,-0.070
7.602,-0.125,-0.070
7.604,-0.040,-0.070
7.606,0.050,-0.065
7.608,0.110,-0.060
7.610,0.130,-0.055
7.612,0.080,-0.055
7.614,0.010,-0.055
7.616,-0.085,-0.055
7.618,-0.165,-0.055
7.620,-0.190,-0.060
7.622,-0.140,-0.060
7.624,-0.085,-0.065
7.626,0.070,-0.065
7.628,0.125,-0.065
7.630,0.150,-0.065
7.632,0.085,-0.065
7.634,0.020,-0.065
7.636,-0.105,-0.060
7.638,-0.165,-0.060
7.640,-0.170,-0.060
7.642,-0.145,-0.060
7.644,-0.085,-0.065
7.646,0.080,-0.065
7.648,0.100,-0.070
7.650,0.120,-0.070
7.652,0.085,-0.075
7.654,0.045,-0.075
7.656,-0.105,-0.080
7.658,-0.180,-0.075
7.660,-0.175,-0.075
7.662,-0.125,-0.070
7.664,-0.035,-0.070
7.666,0.060,-0.065
7.668,0.125,-0.060
7.670,0.135,-0.055
7.672,0.080,-0.050
7.674,0.020,-0.045
7.676,-0.090,-0.045
7.678,-0.150,-0.045
7.680,-0.160,-0.045
7.682,-0.110,-0.050
7.684,-0.025,-0.050
7.686,0.070,-0.050
7.688,0.140,-0.050
7.690,0.145,-0.050
7.692,0.105,-0.045
7.694,0.000,-0.045
7.696,-0.065,-0.035
7.698,-0.130,-0.030
7.700,-0.110,-0.025
7.702,-0.090,-0.015
7.704,0.020,-0.010
7.706,0.105,-0.010
7.708,0.195,-0.005
7.710,0.185,-0.005
7.712,0.110,-0.005
7.714,0.020,-0.005
7.716,-0.055,-0.005
7.718,-0.105,-0.005
7.720,-0.105,-0.010
7.722,-0.055,-0.010
7.724,0.025,-0.005
7.726,0.110,-0.005
7.728,0.165,-0.005
7.730,0.160,-0.005
7.732,0.130,-0.005
7.734,0.025,-0.005
7.736,-0.075,-0.005
7.738,-0.140,-0.010
7.740,-0.140,-0.015
7.742,-0.095,-0.020
7.744,-0.010,-0.025
7.746,0.110,-0.030
7.748,0.145,-0.035
7.750,0.130,-0.040
7.752,0.060,-0.050
7.754,-0.035,-0.055
7.756,-0.140,-0.060
7.758,-0.185,-0.070
7.760,-0.165,-0.075
7.762,-0.120,-0.075
7.764,-0.020,-0.080
7.766,0.065,-0.080
7.768,0.100,-0.080
7.770,0.085,-0.080
7.772,0.020,-0.075
7.774,-0.050,-0.075
7.776,-0.140,-0.075
7.778,-0.205,-0.080
7.780,-0.185,-0.080
7.782,-0.110,-0.080
7.784,-0.025,-0.085
7.786,0.060,-0.085
7.788,0.085,-0.085
7.790,0.080,-0.085
7.792,0.020,-0.085
7.794,-0.065,-0.085
7.796,-0.155,-0.080
7.798,-0.200,-0.080
7.800,-0.185,-0.085
7.802,-0.120,-0.085
7.804,-0.005,-0.090
7.806,0.060,-0.095
7.808,0.090,-0.095
7.810,0.070,-0.100
7.812,0.010,-0.100
7.814,-0.070,-0.100
7.816,-0.180,-0.100
7.818,-0.210,-0.105
7.820,-0.190,-0.110
7.822,-0.140,-0.115
7.824,-0.050,-0.120
7.826,0.020,-0.125
7.828,0.065,-0.120
7.830,0.015,-0.100
7.832,0.010,-0.070
7.834,-0.030,-0.020
7.836,-0.025,0.045
7.838,0.075,0.125
7.840,0.160,0.210
7.842,0.280,0.295
7.844,0.490,0.370
7.846,0.655,0.435
7.848,0.710,0.470
7.850,0.695,0.480
7.852,0.560,0.460
7.854,0.315,0.410
7.856,0.170,0.335
7.858,0.130,0.245
7.860,0.130,0.145
7.862,0.030,0.040
7.864,0.025,-0.055
7.866,-0.075,-0.140
7.868,-0.115,-0.205
7.870,-0.125,-0.250
7.872,-0.185,-0.270
7.874,-0.275,-0.275
7.876,-0.335,-0.265
7.878,-0.335,-0.245
7.880,-0.315,-0.220
7.882,-0.230,-0.200
7.884,-0.080,-0.175
7.886,0.025,-0.160
7.888,0.070,-0.145
7.890,0.060,-0.130
7.892,0.000,-0.120
7.894,-0.110,-0.105
7.896,-0.165,-0.090
7.898,-0.205,-0.075
7.900,-0.155,-0.060
7.902,-0.095,-0.050
7.904,0.055,-0.040
7.906,0.130,-0.035
7.908,0.145,-0.035
7.910,0.105,-0.040
7.912,0.055,-0.045
7.914,-0.095,-0.050
7.916,-0.145,-0.055
7.918,-0.155,-0.055
7.920,-0.115,-0.050
7.922,-0.045,-0.040
7.924,0.085,-0.030
7.926,0.170,-0.020
7.928,0.165,-0.015
7.930,0.135,-0.010
7.932,0.080,-0.010
7.934,-0.065,-0.015
7.936,-0.125,-0.020
7.938,-0.155,-0.025
7.940,-0.095,-0.030
7.942,-0.005,-0.030
7.944,0.105,-0.030
7.946,0.145,-0.025
7.948,0.170,-0.025
7.950,0.130,-0.020
7.952,0.055,-0.020
7.954,-0.065,-0.020
7.956,-0.125,-0.020
7.958,-0.110,-0.015
7.960,-0.095,-0.015
7.962,-0.020,-0.010
7.964,0.125,-0.010
7.966,0.200,-0.005
7.968,0.180,0.000
7.970,0.125,0.000
7.972,0.060,0.000
7.974,-0.060,0.000
7.976,-0.145,0.000
7.978,-0.140,-0.005
7.980,-0.075,-0.005
7.982,0.025,-0.005
7.984,0.140,-0.005
7.986,0.190,0.000
7.988,0.200,0.010
7.990,0.140,0.015
7.992,0.060,0.020
7.994,-0.045,0.025
7.996,-0.095,0.025
7.998,-0.125,0.020
8.000,-0.040,0.015
8.002,0.045,0.010
8.004,0.150,0.010
8.006,0.180,0.010
8.008,0.190,0.015
8.010,0.130,0.025
8.012,0.095,0.035
8.014,-0.015,0.050
8.016,-0.035,0.060
8.018,-0.070,0.065
8.020,-0.025,0.070
8.022,0.085,0.070
8.024,0.180,0.070
8.026,0.225,0.065
8.028,0.230,0.065
8.030,0.210,0.065
8.032,0.125,0.065
8.034,0.015,0.070
8.036,-0.045,0.075
8.038,-0.020,0.080
8.040,0.050,0.085
8.042,0.145,0.085
8.044,0.235,0.090
8.046,0.270,0.095
8.048,0.275,0.100
8.050,0.240,0.110
8.052,0.150,0.120
8.054,0.040,0.130
8.056,0.040,0.145
8.058,0.035,0.155
8.060,0.120,0.165
8.062,0.210,0.175
8.064,0.315,0.175
8.066,0.380,0.175
8.068,0.345,0.175
8.070,0.295,0.175
8.072,0.220,0.175
8.074,0.135,0.180
8.076,0.085,0.185
8.078,0.095,0.195
8.080,0.180,0.210
8.082,0.295,0.220
8.084,0.385,0.235
8.086,0.415,0.240
8.088,0.410,0.250
8.090,0.350,0.250
8.092,0.260,0.255
8.094,0.155,0.255
8.096,0.140,0.255
8.098,0.175,0.260
8.100,0.230,0.260
8.102,0.325,0.265
8.104,0.400,0.270
8.106,0.435,0.270
8.108,0.415,0.265
8.110,0.345,0.260
8.112,0.225,0.250
8.114,0.135,0.240
8.116,0.110,0.225
8.118,0.105,0.215
8.120,0.160,0.205
8.122,0.265,0.195
8.124,0.325,0.185
8.126,0.330,0.175
8.128,0.300,0.165
8.130,0.210,0.155
8.132,0.110,0.140
8.134,0.005,0.125
8.136,-0.040,0.110
8.138,-0.030,0.090
8.140,0.010,0.070
8.142,0.110,0.055
8.144,0.175,0.040
8.146,0.200,0.025
8.148,0.160,0.015
8.150,0.100,0.005
8.152,-0.035,0.000
8.154,-0.125,-0.005
8.156,-0.160,-0.010
8.158,-0.110,-0.015
8.160,-0.065,-0.025
8.162,0.065,-0.030
8.164,0.105,-0.035
8.166,0.145,-0.040
8.168,0.110,-0.045
8.170,0.050,-0.050
8.172,-0.080,-0.055
8.174,-0.160,-0.055
8.176,-0.175,-0.055
8.178,-0.165,-0.055
8.180,-0.070,-0.050
8.182,0.025,-0.050
8.184,0.105,-0.050
8.186,0.130,-0.050
8.188,0.075,-0.055
8.190,0.020,-0.055
8.192,-0.095,-0.055
8.194,-0.170,-0.055
8.196,-0.195,-0.060
8.198,-0.155,-0.060
8.200,-0.110,-0.065
8.202,0.010,-0.065
8.204,0.090,-0.070
8.206,0.120,-0.075
8.208,0.070,-0.080
8.210,0.005,-0.080
8.212,-0.115,-0.085
8.214,-0.185,-0.080
8.216,-0.210,-0.080
8.218,-0.165,-0.075
8.220,-0.090,-0.070
8.222,0.040,-0.065
8.224,0.100,-0.065
8.226,0.095,-0.060
8.228,0.065,-0.065
8.230,0.005,-0.065
8.232,-0.115,-0.070
8.234,-0.185,-0.075
8.236,-0.200,-0.075
8.238,-0.150,-0.080
8.240,-0.100,-0.075
8.242,0.025,-0.070
8.244,0.125,-0.065
8.246,0.125,-0.060
8.248,0.080,-0.055
8.250,0.030,-0.050
8.252,-0.105,-0.050
8.254,-0.185,-0.050
8.256,-0.185,-0.050
8.258,-0.135,-0.055
8.260,-0.075,-0.060
8.262,0.045,-0.060
8.264,0.105,-0.060
8.266,0.125,-0.060
8.268,0.115,-0.055
8.270,-0.005,-0.050
8.272,-0.115,-0.045
8.274,-0.170,-0.040
8.276,-0.180,-0.040
8.278,-0.130,-0.035
8.280,-0.050,-0.035
8.282,0.070,-0.040
8.284,0.125,-0.040
8.286,0.120,-0.045
8.288,0.075,-0.050
8.290,0.010,-0.050
8.292,-0.095,-0.050
8.294,-0.160,-0.050
8.296,-0.150,-0.045
8.298,-0.105,-0.040
8.300,-0.030,-0.035
8.302,0.080,-0.030
8.304,0.135,-0.030
8.306,0.140,-0.025
8.308,0.085,-0.030
8.310,0.000,-0.030
8.312,-0.115,-0.035
8.314,-0.170,-0.040
8.316,-0.160,-0.050
8.318,-0.110,-0.050
8.320,-0.010,-0.055
8.322,0.080,-0.055
8.324,0.130,-0.055
8.326,0.130,-0.050
8.328,0.100,-0.045
8.330,-0.015,-0.040
8.332,-0.135,-0.035
8.334,-0.195,-0.030
8.336,-0.160,-0.030
8.338,-0.110,-0.030
8.340,-0.010,-0.030
8.342,0.075,-0.035
8.344,0.120,-0.035
8.346,0.120,-0.040
8.348,0.085,-0.045
8.350,-0.020,-0.050
8.352,-0.125,-0.050
8.354,-0.165,-0.050
8.356,-0.165,-0.050
8.358,-0.135,-0.050
8.360,-0.025,-0.045
8.362,0.080,-0.045
8.364,0.135,-0.045
8.366,0.110,-0.045
8.368,0.065,-0.050
8.370,-0.020,-0.050
8.372,-0.140,-0.050
8.374,-0.175,-0.055
8.376,-0.175,-0.055
8.378,-0.120,-0.055
8.380,-0.010,-0.055
8.382,0.085,-0.055
8.384,0.115,-0.055
8.386,0.100,-0.055
8.388,0.050,-0.055
8.390,-0.055,-0.060
8.392,-0.190,-0.065
8.394,-0.220,-0.065
8.396,-0.180,-0.065
8.398,-0.090,-0.065
8.400,0.000,-0.065
8.402,0.070,-0.065
8.404,0.095,-0.060
8.406,0.080,-0.060
8.408,0.040,-0.055
8.410,-0.065,-0.055
8.412,-0.175,-0.060
8.414,-0.205,-0.065
8.416,-0.190,-0.070
8.418,-0.130,-0.075
8.420,-0.035,-0.080
8.422,0.075,-0.085
8.424,0.100,-0.080
8.426,0.070,-0.080
8.428,-0.010,-0.075
8.430,-0.060,-0.065
8.432,-0.165,-0.060
8.434,-0.185,-0.055
8.436,-0.175,-0.050
8.438,-0.110,-0.045
8.440,0.020,-0.045
8.442,0.085,-0.045
8.444,0.095,-0.045
8.446,0.100,-0.050
8.448,0.040,-0.050
8.450,-0.080,-0.045
8.452,-0.155,-0.045
8.454,-0.155,-0.040
8.456,-0.130,-0.035
8.458,-0.075,-0.025
8.460,0.045,-0.020
8.462,0.120,-0.015
8.464,0.155,-0.015
8.466,0.115,-0.015
8.468,0.060,-0.010
8.470,-0.050,-0.010
8.472,-0.130,-0.010
8.474,-0.175,-0.010
8.476,-0.110,-0.010
8.478,-0.055,-0.010
8.480,0.065,-0.005
8.482,0.140,-0.005
8.484,0.160,-0.005
8.486,0.140,-0.005
8.488,0.065,-0.010
8.490,-0.060,-0.010
8.492,-0.135,-0.015
8.494,-0.155,-0.015
8.496,-0.120,-0.020
8.498,-0.065,-0.020
8.500,0.070,-0.020
8.502,0.125,-0.020
8.504,0.115,-0.025
8.506,0.065,-0.025
8.508,0.035,-0.025
8.510,-0.070,-0.030
8.512,-0.140,-0.035
8.514,-0.195,-0.040
8.516,-0.140,-0.050
8.518,-0.105,-0.055
8.520,0.020,-0.065
8.522,0.075,-0.070
8.524,0.100,-0.075
8.526,0.055,-0.080
8.528,0.005,-0.080
8.530,-0.130,-0.075
8.532,-0.190,-0.070
8.534,-0.200,-0.065
8.536,-0.165,-0.060
8.538,-0.100,-0.050
8.540,0.050,-0.050
8.542,0.095,-0.045
8.544,0.105,-0.050
8.546,0.055,-0.055
8.548,-0.010,-0.060
8.550,-0.135,-0.065
8.552,-0.200,-0.075
8.554,-0.210,-0.080
8.556,-0.155,-0.080
8.558,-0.080,-0.080
8.560,0.025,-0.080
8.562,0.080,-0.075
8.564,0.085,-0.070
8.566,0.035,-0.065
8.568,-0.030,-0.060
8.570,-0.115,-0.060
8.572,-0.195,-0.060
8.574,-0.195,-0.060
8.576,-0.145,-0.060
8.578,-0.105,-0.065
8.580,0.035,-0.075
8.582,0.095,-0.085
8.584,0.040,-0.095
8.586,-0.010,-0.110
8.588,-0.115,-0.125
8.590,-0.210,-0.135
8.592,-0.265,-0.140
8.594,-0.240,-0.130
8.596,-0.170,-0.105
8.598,-0.055,-0.060
8.600,0.095,0.000
8.602,0.245,0.075
8.604,0.335,0.160
8.606,0.400,0.250
8.608,0.375,0.330
8.610,0.365,0.395
8.612,0.370,0.445
8.614,0.415,0.465
8.616,0.395,0.460
8.618,0.395,0.425
8.620,0.380,0.365
8.622,0.400,0.290
8.624,0.385,0.195
8.626,0.245,0.095
8.628,0.035,0.000
8.630,-0.210,-0.090
8.632,-0.410,-0.165
8.634,-0.425,-0.220
8.636,-0.330,-0.260
8.638,-0.230,-0.280
8.640,-0.125,-0.285
8.642,-0.070,-0.270
8.644,-0.055,-0.250
8.646,-0.115,-0.225
8.648,-0.180,-0.195
8.650,-0.255,-0.165
8.652,-0.255,-0.140
8.654,-0.235,-0.120
8.656,-0.160,-0.105
8.658,-0.075,-0.095
8.660,0.030,-0.085
8.662,0.075,-0.080
8.664,0.090,-0.075
8.666,0.045,-0.070
8.668,-0.050,-0.060
8.670,-0.135,-0.055
8.672,-0.175,-0.050
8.674,-0.155,-0.045
8.676,-0.110,-0.040
8.678,0.005,-0.035
8.680,0.120,-0.030
8.682,0.120,-0.025
8.684,0.130,-0.020
8.686,0.060,-0.020
8.688,-0.030,-0.015
8.690,-0.110,-0.015
8.692,-0.135,-0.010
8.694,-0.140,-0.010
8.696,-0.085,-0.005
8.698,0.035,-0.005
8.700,0.110,0.000
8.702,0.150,0.005
8.704,0.125,0.005
8.706,0.080,0.005
8.708,-0.015,0.005
8.710,-0.100,0.005
8.712,-0.145,0.005
8.714,-0.115,0.005
8.716,-0.060,0.000
8.718,0.055,0.000
8.720,0.140,0.000
8.722,0.180,0.005
8.724,0.145,0.010
8.726,0.080,0.015
8.728,-0.020,0.015
8.730,-0.090,0.020
8.732,-0.135,0.020
8.734,-0.090,0.020
8.736,-0.045,0.015
8.738,0.080,0.015
8.740,0.165,0.010
8.742,0.190,0.010
8.744,0.165,0.010
8.746,0.095,0.015
8.748,0.000,0.020
8.750,-0.085,0.030
8.752,-0.100,0.040
8.754,-0.085,0.055
8.756,-0.025,0.060
8.758,0.115,0.065
8.760,0.195,0.065
8.762,0.200,0.060
8.764,0.180,0.055
8.766,0.135,0.050
8.768,0.005,0.045
8.770,-0.080,0.045
8.772,-0.080,0.050
8.774,-0.050,0.060
8.776,0.010,0.070
8.778,0.150,0.080
8.780,0.215,0.090
8.782,0.240,0.095
8.784,0.205,0.095
8.786,0.165,0.090
8.788,0.035,0.085
8.790,-0.060,0.075
8.792,-0.075,0.070
8.794,-0.030,0.065
8.796,0.055,0.065
8.798,0.180,0.070
8.800,0.255,0.080
8.802,0.280,0.090
8.804,0.255,0.105
8.806,0.185,0.115
8.808,0.085,0.130
8.810,0.010,0.140
8.812,-0.020,0.145
8.814,0.050,0.155
8.816,0.100,0.160
8.818,0.240,0.160
8.820,0.315,0.165
8.822,0.325,0.170
8.824,0.290,0.170
8.826,0.250,0.175
8.828,0.125,0.180
8.830,0.065,0.190
8.832,0.080,0.195
8.834,0.120,0.205
8.836,0.185,0.215
8.838,0.295,0.225
8.840,0.395,0.230
8.842,0.385,0.235
8.844,0.365,0.240
8.846,0.305,0.245
8.848,0.180,0.245
8.850,0.135,0.250
8.852,0.130,0.250
8.854,0.155,0.255
8.856,0.235,0.265
8.858,0.365,0.270
8.860,0.425,0.275
8.862,0.435,0.275
8.864,0.385,0.275
8.866,0.315,0.275
8.868,0.175,0.265
8.870,0.110,0.255
8.872,0.100,0.245
8.874,0.155,0.235
8.876,0.245,0.230
8.878,0.370,0.225
8.880,0.375,0.220
8.882,0.375,0.215
8.884,0.305,0.215
8.886,0.220,0.210
8.888,0.110,0.205
8.890,0.030,0.195
8.892,0.010,0.185
8.894,0.045,0.165
8.896,0.120,0.150
8.898,0.205,0.130
8.900,0.260,0.110
8.902,0.245,0.095
8.904,0.170,0.085
8.906,0.095,0.070
8.908,-0.020,0.065
8.910,-0.095,0.055
8.912,-0.100,0.050
8.914,-0.060,0.045
8.916,0.015,0.035
8.918,0.100,0.025
8.920,0.135,0.015
8.922,0.130,0.010
8.924,0.100,0.000
8.926,0.015,-0.010
8.928,-0.115,-0.015
8.930,-0.170,-0.020
8.932,-0.155,-0.025
8.934,-0.100,-0.030
8.936,-0.035,-0.035
8.938,0.055,-0.040
8.940,0.105,-0.040
8.942,0.115,-0.045
8.944,0.065,-0.045
8.946,-0.025,-0.045
8.948,-0.150,-0.045
8.950,-0.195,-0.045
8.952,-0.190,-0.040
8.954,-0.140,-0.045
8.956,-0.015,-0.045
8.958,0.070,-0.045
8.960,0.125,-0.050
8.962,0.090,-0.055
8.964,0.010,-0.055
8.966,-0.075,-0.055
8.968,-0.150,-0.050
8.970,-0.195,-0.045
8.972,-0.190,-0.040
8.974,-0.145,-0.040
8.976,0.000,-0.035
8.978,0.070,-0.035
8.980,0.105,-0.035
8.982,0.085,-0.035
8.984,0.010,-0.040
8.986,-0.100,-0.045
8.988,-0.185,-0.045
8.990,-0.175,-0.045
8.992,-0.160,-0.045
8.994,-0.115,-0.045
8.996,0.000,-0.040
8.998,0.055,-0.045
9.000,0.110,-0.045
9.002,0.110,-0.050
9.004,0.025,-0.055
9.006,-0.095,-0.060
9.008,-0.180,-0.065
9.010,-0.205,-0.065
9.012,-0.180,-0.065
9.014,-0.145,-0.060
9.016,-0.005,-0.055
9.018,0.070,-0.050
9.020,0.120,-0.045
9.022,0.080,-0.045
9.024,0.025,-0.045
9.026,-0.095,-0.050
9.028,-0.170,-0.060
9.030,-0.200,-0.065
9.032,-0.160,-0.070
9.034,-0.120,-0.065
9.036,0.000,-0.065
9.038,0.065,-0.055
9.040,0.110,-0.050
9.042,0.080,-0.040
9.044,0.035,-0.035
9.046,-0.085,-0.035
9.048,-0.170,-0.035
9.050,-0.200,-0.040
9.052,-0.160,-0.050
9.054,-0.130,-0.055
9.056,0.025,-0.060
9.058,0.060,-0.060
9.060,0.105,-0.060
9.062,0.095,-0.055
9.064,0.015,-0.050
9.066,-0.085,-0.040
9.068,-0.145,-0.035
9.070,-0.165,-0.030
9.072,-0.175,-0.030
9.074,-0.110,-0.030
9.076,0.010,-0.030
9.078,0.080,-0.035
9.080,0.100,-0.035
9.082,0.095,-0.035
9.084,0.015,-0.040
9.086,-0.095,-0.040
9.088,-0.175,-0.040
9.090,-0.200,-0.045
9.092,-0.165,-0.045
9.094,-0.115,-0.050
9.096,0.035,-0.050
9.098,0.085,-0.055
9.100,0.110,-0.055
9.102,0.055,-0.050
9.104,0.005,-0.050
9.106,-0.125,-0.050
9.108,-0.195,-0.045
9.110,-0.220,-0.045
9.112,-0.155,-0.045
9.114,-0.080,-0.045
9.116,0.045,-0.050
9.118,0.075,-0.050
9.120,0.105,-0.055
9.122,0.050,-0.055
9.124,-0.005,-0.055
9.126,-0.140,-0.050
9.128,-0.220,-0.050
9.130,-0.215,-0.050
9.132,-0.180,-0.045
9.134,-0.070,-0.050
9.136,0.070,-0.050
9.138,0.110,-0.050
9.140,0.090,-0.055
9.142,0.045,-0.055
9.144,-0.035,-0.055
9.146,-0.145,-0.050
9.148,-0.165,-0.050
9.150,-0.215,-0.045
9.152,-0.160,-0.040
9.154,-0.045,-0.040
9.156,0.040,-0.040
9.158,0.095,-0.040
9.160,0.090,-0.040
9.162,0.045,-0.040
9.164,-0.010,-0.040
9.166,-0.115,-0.040
9.168,-0.185,-0.040
9.170,-0.190,-0.035
9.172,-0.140,-0.035
9.174,-0.070,-0.035
9.176,0.080,-0.035
9.178,0.100,-0.040
9.180,0.080,-0.040
9.182,0.045,-0.040
9.184,-0.025,-0.040
9.186,-0.130,-0.035
9.188,-0.165,-0.030
9.190,-0.170,-0.020
9.192,-0.090,-0.015
9.194,-0.025,-0.010
9.196,0.075,-0.005
9.198,0.115,-0.005
9.200,0.120,-0.010
9.202,0.075,-0.015
9.204,-0.040,-0.025
9.206,-0.125,-0.030
9.208,-0.170,-0.035
9.210,-0.155,-0.035
9.212,-0.115,-0.035
9.214,-0.035,-0.030
9.216,0.085,-0.020
9.218,0.145,-0.015
9.220,0.130,-0.010
9.222,0.070,-0.010
9.224,-0.030,-0.010
9.226,-0.165,-0.020
9.228,-0.190,-0.030
9.230,-0.160,-0.045
9.232,-0.135,-0.055
9.234,-0.075,-0.065
9.236,0.020,-0.070
9.238,0.080,-0.070
9.240,0.070,-0.070
9.242,0.020,-0.065
9.244,-0.065,-0.060
9.246,-0.155,-0.055
9.248,-0.225,-0.050
9.250,-0.210,-0.050
9.252,-0.150,-0.050
9.254,-0.050,-0.055
9.256,0.020,-0.060
9.258,0.065,-0.065
9.260,0.050,-0.070
9.262,-0.005,-0.070
9.264,-0.095,-0.075
9.266,-0.195,-0.075
9.268,-0.230,-0.075
9.270,-0.210,-0.070
9.272,-0.150,-0.070
9.274,-0.045,-0.065
9.276,0.030,-0.065
9.278,0.085,-0.060
9.280,0.060,-0.055
9.282,-0.015,-0.050
9.284,-0.065,-0.050
9.286,-0.180,-0.050
9.288,-0.230,-0.050
9.290,-0.235,-0.055
9.292,-0.175,-0.055
9.294,-0.030,-0.060
9.296,0.035,-0.065
9.298,0.075,-0.070
9.300,0.065,-0.075
9.302,0.005,-0.075
9.304,-0.105,-0.080
9.306,-0.200,-0.085
9.308,-0.230,-0.085
9.310,-0.235,-0.090
9.312,-0.180,-0.095
9.314,-0.085,-0.100
9.316,0.015,-0.110
9.318,0.020,-0.115
9.320,-0.010,-0.115
9.322,-0.045,-0.115
9.324,-0.175,-0.105
9.326,-0.235,-0.085
9.328,-0.225,-0.050
9.330,-0.130,-0.005
9.332,0.005,0.050
9.334,0.195,0.115
9.336,0.310,0.185
9.338,0.405,0.255
9.340,0.450,0.315
9.342,0.480,0.360
9.344,0.395,0.390
9.346,0.275,0.390
9.348,0.165,0.360
9.350,0.090,0.310
9.352,0.100,0.235
9.354,0.215,0.150
9.356,0.210,0.060
9.358,0.165,-0.030
9.360,-0.025,-0.110
9.362,-0.205,-0.175
9.364,-0.360,-0.220
9.366,-0.400,-0.245
9.368,-0.430,-0.260
9.370,-0.380,-0.260
9.372,-0.310,-0.255
9.374,-0.180,-0.245
9.376,-0.105,-0.230
9.378,-0.080,-0.220
9.380,-0.105,-0.205
9.382,-0.145,-0.190
9.384,-0.225,-0.175
9.386,-0.265,-0.155
9.388,-0.270,-0.135
9.390,-0.235,-0.115
9.392,-0.170,-0.095
9.394,-0.040,-0.080
9.396,0.055,-0.065
9.398,0.070,-0.060
9.400,0.055,-0.055
9.402,-0.005,-0.050
9.404,-0.120,-0.050
9.406,-0.215,-0.050
9.408,-0.225,-0.050
9.410,-0.180,-0.050
9.412,-0.110,-0.045
9.414,0.020,-0.040
9.416,0.105,-0.035
9.418,0.100,-0.030
9.420,0.050,-0.025
9.422,-0.005,-0.025
9.424,-0.120,-0.020
9.426,-0.200,-0.025
9.428,-0.205,-0.025
9.430,-0.170,-0.030
9.432,-0.080,-0.035
9.434,0.050,-0.035
9.436,0.090,-0.035
9.438,0.120,-0.035
9.440,0.040,-0.030
9.442,0.010,-0.020
9.444,-0.090,-0.015
9.446,-0.175,-0.010
9.448,-0.190,-0.005
9.450,-0.130,-0.005
9.452,-0.060,-0.010
9.454,0.055,-0.015
9.456,0.090,-0.025
9.458,0.105,-0.030
9.460,0.080,-0.035
9.462,0.005,-0.030
9.464,-0.095,-0.025
9.466,-0.165,-0.015
9.468,-0.155,0.000
9.470,-0.130,0.015
9.472,-0.020,0.020
9.474,0.095,0.025
9.476,0.120,0.025
9.478,0.115,0.020
9.480,0.090,0.010
9.482,0.035,0.000
9.484,-0.095,-0.005
9.486,-0.150,-0.010
9.488,-0.155,-0.005
9.490,-0.095,0.000
9.492,-0.065,0.010
9.494,0.070,0.020
9.496,0.160,0.030
9.498,0.160,0.040
9.500,0.090,0.040
9.502,0.020,0.040
9.504,-0.090,0.035
9.506,-0.125,0.030
9.508,-0.125,0.025
9.510,-0.080,0.025
9.512,0.010,0.030
9.514,0.125,0.040
9.516,0.150,0.050
9.518,0.195,0.060
9.520,0.130,0.070
9.522,0.050,0.080
9.524,-0.050,0.085
9.526,-0.085,0.085
9.528,-0.075,0.085
9.530,-0.030,0.085
9.532,0.095,0.085
9.534,0.180,0.085
9.536,0.230,0.090
9.538,0.245,0.100
9.540,0.160,0.110
9.542,0.090,0.120
9.544,-0.005,0.135
9.546,-0.025,0.145
9.548,-0.025,0.155
9.550,0.055,0.165
9.552,0.145,0.165
9.554,0.260,0.170
9.556,0.290,0.170
9.558,0.280,0.170
9.560,0.230,0.170
9.562,0.150,0.175
9.564,0.060,0.185
9.566,0.005,0.195
9.568,0.060,0.210
9.570,0.100,0.220
9.572,0.230,0.235
9.574,0.325,0.245
9.576,0.365,0.255
9.578,0.350,0.260
9.580,0.300,0.255
9.582,0.200,0.255
9.584,0.095,0.245
9.586,0.055,0.240
9.588,0.075,0.235
9.590,0.145,0.230
9.592,0.260,0.230
9.594,0.350,0.230
9.596,0.360,0.235
9.598,0.340,0.240
9.600,0.280,0.245
9.602,0.160,0.250
9.604,0.085,0.250
9.606,0.045,0.245
9.608,0.050,0.235
9.610,0.090,0.220
9.612,0.210,0.205
9.614,0.295,0.190
9.616,0.260,0.175
9.618,0.270,0.160
9.620,0.185,0.145
9.622,0.045,0.135
9.624,-0.040,0.125
9.626,-0.060,0.115
9.628,-0.065,0.100
9.630,-0.045,0.090
9.632,0.075,0.075
9.634,0.130,0.065
9.636,0.155,0.050
9.638,0.110,0.040
9.640,0.070,0.030
9.642,-0.070,0.025
9.644,-0.165,0.020
9.646,-0.185,0.015
9.648,-0.165,0.010
9.650,-0.100,0.005
9.652,0.000,-0.005
9.654,0.065,-0.010
9.656,0.115,-0.020
9.658,0.035,-0.030
9.660,-0.005,-0.040
9.662,-0.135,-0.045
9.664,-0.200,-0.045
9.666,-0.230,-0.040
9.668,-0.210,-0.035
9.670,-0.165,-0.030
9.672,-0.015,-0.025
9.674,0.055,-0.025
9.676,0.050,-0.030
9.678,0.030,-0.035
9.680,-0.030,-0.045
9.682,-0.155,-0.055
9.684,-0.260,-0.065
9.686,-0.255,-0.070
9.688,-0.230,-0.075
9.690,-0.165,-0.070
9.692,-0.040,-0.065
9.694,0.030,-0.060
9.696,0.055,-0.060
9.698,0.010,-0.060
9.700,-0.055,-0.060
9.702,-0.185,-0.065
9.704,-0.250,-0.075
9.706,-0.265,-0.080
9.708,-0.220,-0.085
9.710,-0.150,-0.085
9.712,-0.045,-0.085
9.714,0.015,-0.080
9.716,0.035,-0.070
9.718,-0.010,-0.065
9.720,-0.065,-0.060
9.722,-0.175,-0.055
9.724,-0.255,-0.055
9.726,-0.265,-0.055
9.728,-0.205,-0.060
9.730,-0.160,-0.070
9.732,-0.030,-0.075
9.734,0.015,-0.075
9.736,0.030,-0.075
9.738,0.010,-0.075
9.740,-0.060,-0.065
9.742,-0.180,-0.060
9.744,-0.235,-0.050
9.746,-0.245,-0.040
9.748,-0.210,-0.035
9.750,-0.140,-0.030
9.752,-0.010,-0.030
9.754,0.065,-0.030
9.756,0.055,-0.035
9.758,-0.010,-0.040
9.760,-0.070,-0.040
9.762,-0.180,-0.045
9.764,-0.220,-0.045
9.766,-0.230,-0.045
9.768,-0.215,-0.045
9.770,-0.140,-0.045
9.772,0.000,-0.040
9.774,0.040,-0.040
9.776,0.040,-0.045
9.778,0.000,-0.045
9.780,-0.065,-0.050
9.782,-0.180,-0.055
9.784,-0.245,-0.060
9.786,-0.250,-0.065
9.788,-0.190,-0.065
9.790,-0.115,-0.070
9.792,-0.015,-0.070
9.794,0.035,-0.070
9.796,0.040,-0.065
9.798,-0.005,-0.060
9.800,-0.090,-0.060
9.802,-0.195,-0.055
9.804,-0.260,-0.050
9.806,-0.280,-0.045
9.808,-0.180,-0.040
9.810,-0.085,-0.040
9.812,-0.015,-0.045
9.814,0.025,-0.045
9.816,0.015,-0.050
9.818,-0.030,-0.060
9.820,-0.130,-0.065
9.822,-0.205,-0.070
9.824,-0.255,-0.070
9.826,-0.270,-0.070
9.828,-0.195,-0.070
9.830,-0.105,-0.065
9.832,-0.005,-0.065
9.834,0.020,-0.065
9.836,0.010,-0.065
9.838,-0.040,-0.065
9.840,-0.130,-0.065
9.842,-0.220,-0.070
9.844,-0.270,-0.075
9.846,-0.255,-0.075
9.848,-0.225,-0.075
9.850,-0.110,-0.075
9.852,-0.010,-0.070
9.854,0.015,-0.065
9.856,0.015,-0.060
9.858,-0.045,-0.055
9.860,-0.175,-0.050
9.862,-0.225,-0.050
9.864,-0.275,-0.055
9.866,-0.265,-0.060
9.868,-0.185,-0.065
9.870,-0.110,-0.070
9.872,-0.020,-0.075
9.874,0.010,-0.075
9.876,-0.005,-0.075
9.878,-0.060,-0.075
9.880,-0.160,-0.065
9.882,-0.255,-0.060
9.884,-0.265,-0.055
9.886,-0.240,-0.050
9.888,-0.190,-0.050
9.890,-0.105,-0.050
9.892,-0.015,-0.055
9.894,0.020,-0.055
9.896,-0.015,-0.060
9.898,-0.060,-0.065
9.900,-0.160,-0.065
9.902,-0.230,-0.060
9.904,-0.270,-0.055
9.906,-0.255,-0.050
9.908,-0.170,-0.045
9.910,-0.045,-0.040
9.912,0.025,-0.035
9.914,0.040,-0.035
9.916,0.025,-0.035
9.918,-0.040,-0.035
9.920,-0.150,-0.035
9.922,-0.225,-0.035
9.924,-0.240,-0.035
9.926,-0.225,-0.035
9.928,-0.170,-0.035
9.930,-0.065,-0.030
9.932,0.025,-0.030
9.934,0.040,-0.025
9.936,0.015,-0.025
9.938,-0.025,-0.025
9.940,-0.155,-0.025
9.942,-0.210,-0.030
9.944,-0.250,-0.035
9.946,-0.260,-0.045
9.948,-0.225,-0.055
9.950,-0.100,-0.065
9.952,-0.005,-0.075
9.954,0.000,-0.080
9.956,-0.010,-0.085
9.958,-0.090,-0.085
9.960,-0.225,-0.085
9.962,-0.285,-0.080
9.964,-0.295,-0.075
9.966,-0.275,-0.065
9.968,-0.225,-0.065
9.970,-0.090,-0.065
9.972,-0.030,-0.070
9.974,-0.010,-0.075
9.976,-0.040,-0.085
9.978,-0.100,-0.090
9.980,-0.230,-0.095
9.982,-0.300,-0.095
9.984,-0.295,-0.090
9.986,-0.270,-0.080
9.988,-0.215,-0.070
9.990,-0.090,-0.065
9.992,-0.030,-0.060
9.994,-0.015,-0.065
9.996,-0.055,-0.070
9.998,-0.115,-0.080
