'Elapsed time','ECG I','ECG I filtered'
'seconds','mV','mV'
0.000,-0.130,-0.205
0.002,-0.090,-0.075
0.004,0.080,0.010
0.006,0.235,0.085
0.008,0.330,0.115
0.010,0.275,0.115
0.012,0.160,0.085
0.014,0.105,0.035
0.016,-0.060,-0.020
0.018,-0.105,-0.070
0.020,-0.050,-0.100
0.022,-0.085,-0.105
0.024,-0.125,-0.100
0.026,0.020,-0.075
0.028,0.230,-0.050
0.030,0.210,-0.025
0.032,0.025,-0.010
0.034,0.015,-0.005
0.036,0.060,-0.010
0.038,-0.040,-0.015
0.040,-0.065,-0.025
0.042,0.060,-0.025
0.044,0.040,-0.025
0.046,0.055,-0.015
0.048,0.145,-0.005
0.050,0.245,0.005
0.052,0.140,0.015
0.054,0.075,0.010
0.056,0.000,0.005
0.058,-0.075,-0.010
0.060,-0.075,-0.025
0.062,-0.005,-0.035
0.064,0.035,-0.045
0.066,0.120,-0.045
0.068,0.100,-0.040
0.070,0.165,-0.025
0.072,0.200,-0.010
0.074,0.060,0.000
0.076,-0.055,0.010
0.078,0.055,0.020
0.080,-0.015,0.020
0.082,-0.025,0.020
0.084,0.095,0.020
0.086,0.245,0.025
0.088,0.185,0.025
0.090,0.115,0.035
0.092,0.260,0.040
0.094,0.165,0.040
0.096,0.095,0.040
0.098,-0.060,0.035
0.100,-0.075,0.025
0.102,0.025,0.010
0.104,0.150,-0.010
0.106,0.175,-0.030
0.108,0.065,-0.045
0.110,0.060,-0.060
0.112,0.120,-0.070
0.114,-0.015,-0.070
0.116,-0.045,-0.065
0.118,0.025,-0.055
0.120,-0.040,-0.040
0.122,-0.080,-0.025
0.124,-0.025,-0.010
0.126,0.095,0.000
0.128,0.135,0.015
0.130,0.295,0.020
0.132,0.215,0.025
0.134,0.150,0.025
0.136,0.015,0.020
0.138,-0.010,0.010
0.140,-0.070,0.005
0.142,-0.040,-0.005
0.144,0.070,-0.015
0.146,0.115,-0.020
0.148,0.075,-0.025
0.150,0.180,-0.030
0.152,0.235,-0.030
0.154,0.065,-0.035
0.156,-0.070,-0.040
0.158,-0.065,-0.045
0.160,-0.065,-0.050
0.162,0.030,-0.050
0.164,0.035,-0.055
0.166,-0.035,-0.055
0.168,0.075,-0.050
0.170,0.210,-0.045
0.172,0.130,-0.040
0.174,0.015,-0.030
0.176,-0.025,-0.020
0.178,0.120,-0.015
0.180,0.125,-0.005
0.182,-0.095,0.000
0.184,-0.110,0.005
0.186,0.015,0.005
0.188,0.325,0.005
0.190,0.355,0.005
0.192,0.220,0.000
0.194,0.005,-0.005
0.196,-0.085,-0.015
0.198,-0.045,-0.025
0.200,-0.035,-0.035
0.202,-0.040,-0.045
0.204,-0.045,-0.050
0.206,0.030,-0.055
0.208,0.205,-0.050
0.210,0.275,-0.045
0.212,0.160,-0.030
0.214,0.050,-0.015
0.216,-0.035,0.005
0.218,-0.045,0.020
0.220,-0.015,0.030
0.222,0.010,0.035
0.224,0.190,0.035
0.226,0.255,0.025
0.228,0.225,0.015
0.230,0.170,0.000
0.232,0.105,-0.010
0.234,-0.125,-0.020
0.236,-0.045,-0.020
0.238,0.080,-0.015
0.240,-0.020,-0.010
0.242,-0.015,0.005
0.244,0.150,0.010
0.246,0.215,0.020
0.248,0.300,0.025
0.250,0.285,0.025
0.252,0.075,0.020
0.254,-0.005,0.020
0.256,0.035,0.020
0.258,0.055,0.020
0.260,0.090,0.030
0.262,0.000,0.040
0.264,0.205,0.050
0.266,0.245,0.055
0.268,0.225,0.055
0.270,0.165,0.050
0.272,0.075,0.040
0.274,0.135,0.015
0.276,0.045,-0.005
0.278,-0.145,-0.030
0.280,-0.045,-0.050
0.282,-0.005,-0.060
0.284,0.120,-0.060
0.286,0.095,-0.050
0.288,0.130,-0.030
0.290,0.140,-0.005
0.292,0.170,0.015
0.294,0.155,0.035
0.296,0.100,0.045
0.298,-0.010,0.040
0.300,-0.020,0.030
0.302,0.050,0.010
0.304,0.070,-0.015
0.306,0.075,-0.035
0.308,0.135,-0.050
0.310,0.160,-0.060
0.312,0.095,-0.060
0.314,0.100,-0.055
0.316,-0.025,-0.040
0.318,-0.180,-0.025
0.320,-0.060,-0.015
0.322,0.055,-0.010
0.324,0.125,-0.005
0.326,0.050,-0.010
0.328,0.225,-0.015
0.330,0.260,-0.020
0.332,0.240,-0.020
0.334,0.105,-0.020
0.336,-0.090,-0.010
0.338,-0.275,0.005
0.340,-0.060,0.020
0.342,0.145,0.035
0.344,0.310,0.050
0.346,0.270,0.060
0.348,0.255,0.070
0.350,0.275,0.075
0.352,0.200,0.085
0.354,0.135,0.100
0.356,0.120,0.115
0.358,0.030,0.125
0.360,0.130,0.135
0.362,0.270,0.135
0.364,0.345,0.115
0.366,0.235,0.080
0.368,0.180,0.020
0.370,0.065,-0.050
0.372,-0.100,-0.135
0.374,-0.170,-0.225
0.376,-0.200,-0.305
0.378,-0.430,-0.375
0.380,-0.510,-0.430
0.382,-0.460,-0.460
0.384,-0.415,-0.480
0.386,-0.255,-0.480
0.388,-0.290,-0.475
0.390,-0.310,-0.460
0.392,-0.345,-0.445
0.394,-0.400,-0.425
0.396,-0.390,-0.400
0.398,-0.350,-0.365
0.400,-0.275,-0.325
0.402,-0.180,-0.270
0.404,-0.060,-0.215
0.406,0.070,-0.150
0.408,0.050,-0.090
0.410,0.060,-0.040
0.412,0.160,-0.005
0.414,0.080,0.015
0.416,0.120,0.015
0.418,-0.025,0.005
0.420,-0.075,-0.010
0.422,0.055,-0.030
0.424,0.045,-0.045
0.426,0.095,-0.050
0.428,0.215,-0.045
0.430,0.195,-0.030
0.432,0.060,-0.010
0.434,0.045,0.005
0.436,0.065,0.020
0.438,0.060,0.025
0.440,0.035,0.020
0.442,0.105,0.010
0.444,0.035,0.000
0.446,0.115,-0.005
0.448,0.255,-0.005
0.450,0.175,0.005
0.452,0.170,0.020
0.454,0.105,0.050
0.456,0.015,0.075
0.458,0.015,0.100
0.460,0.205,0.115
0.462,0.210,0.115
0.464,0.230,0.110
0.466,0.230,0.100
0.468,0.280,0.080
0.470,0.255,0.065
0.472,0.155,0.055
0.474,0.130,0.050
0.476,-0.025,0.050
0.478,-0.050,0.055
0.480,0.075,0.065
0.482,0.120,0.070
0.484,0.290,0.070
0.486,0.305,0.070
0.488,0.355,0.070
0.490,0.220,0.070
0.492,0.145,0.075
0.494,-0.015,0.085
0.496,-0.140,0.095
0.498,0.025,0.110
0.500,0.365,0.120
0.502,0.495,0.125
0.504,0.260,0.130
0.506,0.195,0.120
0.508,0.300,0.110
0.510,0.210,0.095
0.512,0.125,0.080
0.514,0.050,0.070
0.516,0.050,0.070
0.518,0.020,0.075
0.520,0.235,0.090
0.522,0.205,0.110
0.524,0.275,0.130
0.526,0.390,0.145
0.528,0.380,0.160
0.530,0.310,0.170
0.532,0.240,0.170
0.534,0.120,0.170
0.536,0.065,0.165
0.538,0.125,0.160
0.540,0.195,0.160
0.542,0.330,0.160
0.544,0.365,0.165
0.546,0.440,0.175
0.548,0.390,0.185
0.550,0.295,0.200
0.552,0.260,0.205
0.554,0.215,0.210
0.556,0.165,0.210
0.558,0.125,0.205
0.560,0.200,0.200
0.562,0.370,0.190
0.564,0.425,0.185
0.566,0.535,0.185
0.568,0.340,0.195
0.570,0.295,0.210
0.572,0.290,0.230
0.574,0.225,0.260
0.576,0.225,0.285
0.578,0.230,0.305
0.580,0.430,0.320
0.582,0.680,0.320
0.584,0.560,0.310
0.586,0.365,0.285
0.588,0.330,0.260
0.590,0.270,0.230
0.592,0.350,0.205
0.594,0.305,0.190
0.596,0.100,0.180
0.598,0.075,0.180
0.600,0.280,0.190
0.602,0.425,0.205
0.604,0.385,0.220
0.606,0.420,0.230
0.608,0.380,0.235
0.610,0.405,0.235
0.612,0.285,0.220
0.614,0.175,0.200
0.616,0.135,0.170
0.618,0.115,0.135
0.620,0.075,0.100
0.622,0.120,0.070
0.624,0.270,0.040
0.626,0.250,0.025
0.628,0.290,0.015
0.630,0.120,0.020
0.632,0.025,0.035
0.634,0.095,0.050
0.636,0.025,0.070
0.638,-0.045,0.085
0.640,0.155,0.090
0.642,0.195,0.085
0.644,0.315,0.070
0.646,0.360,0.045
0.648,0.195,0.015
0.650,0.180,-0.010
0.652,-0.085,-0.025
0.654,-0.115,-0.030
0.656,-0.030,-0.020
0.658,-0.025,0.005
0.660,0.080,0.035
0.662,0.270,0.060
0.664,0.310,0.080
0.666,0.420,0.090
0.668,0.230,0.080
0.670,0.120,0.055
0.672,-0.070,0.020
0.674,0.010,-0.025
0.676,-0.045,-0.060
0.678,-0.135,-0.090
0.680,-0.065,-0.100
0.682,0.040,-0.095
0.684,0.120,-0.080
0.686,0.195,-0.050
0.688,0.130,-0.020
0.690,0.205,0.005
0.692,0.165,0.025
0.694,-0.035,0.025
0.696,-0.165,0.015
0.698,-0.015,-0.010
0.700,0.085,-0.035
0.702,0.155,-0.055
0.704,0.085,-0.070
0.706,0.205,-0.075
0.708,0.050,-0.070
0.710,-0.040,-0.060
0.712,-0.020,-0.040
0.714,0.050,-0.025
0.716,0.015,-0.020
0.718,-0.070,-0.020
0.720,-0.090,-0.025
0.722,0.095,-0.035
0.724,0.235,-0.050
0.726,0.380,-0.055
0.728,0.110,-0.055
0.730,-0.040,-0.050
0.732,-0.160,-0.035
0.734,-0.190,-0.015
0.736,0.065,0.000
0.738,0.215,0.015
0.740,0.205,0.020
0.742,0.135,0.020
0.744,0.095,0.010
0.746,0.160,0.005
0.748,0.205,-0.005
0.750,0.105,-0.005
0.752,-0.045,0.000
0.754,-0.020,0.010
0.756,0.120,0.020
0.758,0.090,0.035
0.760,0.090,0.045
0.762,0.135,0.050
0.764,0.185,0.050
0.766,0.205,0.040
0.768,0.175,0.030
0.770,0.135,0.015
0.772,0.090,0.000
0.774,-0.010,-0.015
0.776,0.065,-0.025
0.778,-0.055,-0.035
0.780,-0.015,-0.040
0.782,0.050,-0.040
0.784,0.175,-0.035
0.786,0.150,-0.025
0.788,0.135,-0.010
0.790,0.185,0.005
0.792,0.120,0.020
0.794,0.010,0.035
0.796,-0.055,0.045
0.798,0.025,0.040
0.800,0.185,0.030
0.802,0.200,0.010
0.804,0.165,-0.015
0.806,0.105,-0.040
0.808,0.045,-0.065
0.810,-0.015,-0.075
0.812,-0.105,-0.080
0.814,-0.065,-0.070
0.816,-0.010,-0.050
0.818,0.005,-0.030
0.820,0.100,-0.010
0.822,0.215,0.010
0.824,0.270,0.020
0.826,0.190,0.020
0.828,0.105,0.010
0.830,0.065,0.000
0.832,0.060,-0.015
0.834,0.010,-0.025
0.836,-0.095,-0.030
0.838,-0.030,-0.030
0.840,-0.015,-0.025
0.842,0.160,-0.020
0.844,0.250,-0.010
0.846,0.260,-0.005
0.848,0.180,-0.005
0.850,0.155,-0.010
0.852,0.090,-0.020
0.854,-0.140,-0.030
0.856,-0.265,-0.040
0.858,-0.085,-0.045
0.860,0.095,-0.040
0.862,0.180,-0.030
0.864,0.330,-0.010
0.866,0.275,0.010
0.868,0.145,0.035
0.870,0.140,0.050
0.872,0.035,0.060
0.874,-0.105,0.060
0.876,0.010,0.050
0.878,0.095,0.030
0.880,0.245,0.010
0.882,0.260,-0.010
0.884,0.155,-0.025
0.886,0.085,-0.030
0.888,0.115,-0.025
0.890,-0.005,-0.005
0.892,0.045,0.025
0.894,0.010,0.055
0.896,0.070,0.075
0.898,0.165,0.085
0.900,0.325,0.080
0.902,0.345,0.060
0.904,0.375,0.020
0.906,0.110,-0.025
0.908,-0.160,-0.075
0.910,-0.195,-0.110
0.912,-0.140,-0.135
0.914,-0.135,-0.140
0.916,0.010,-0.130
0.918,0.065,-0.100
0.920,0.030,-0.065
0.922,0.135,-0.030
0.924,0.110,0.000
0.926,0.200,0.010
0.928,0.165,0.010
0.930,0.050,-0.005
0.932,-0.020,-0.035
0.934,0.000,-0.060
0.936,-0.155,-0.085
0.938,-0.125,-0.100
0.940,0.075,-0.100
0.942,0.100,-0.090
0.944,0.135,-0.070
0.946,0.050,-0.045
0.948,0.130,-0.020
0.950,0.110,0.000
0.952,0.105,0.005
0.954,-0.050,0.005
0.956,0.080,-0.005
0.958,0.030,-0.020
0.960,-0.010,-0.035
0.962,0.080,-0.050
0.964,0.165,-0.055
0.966,0.165,-0.060
0.968,0.120,-0.055
0.970,-0.055,-0.050
0.972,0.020,-0.045
0.974,-0.085,-0.045
0.976,-0.050,-0.045
0.978,0.060,-0.045
0.980,0.045,-0.050
0.982,0.130,-0.050
0.984,0.130,-0.050
0.986,0.055,-0.040
0.988,0.210,-0.030
0.990,0.045,-0.015
0.992,-0.105,0.005
0.994,0.035,0.020
0.996,0.015,0.035
0.998,0.065,0.045
1.000,0.295,0.055
1.002,0.270,0.060
1.004,0.195,0.065
1.006,0.200,0.060
1.008,0.200,0.050
1.010,0.125,0.035
1.012,0.110,0.005
1.014,-0.080,-0.040
1.016,-0.115,-0.095
1.018,-0.105,-0.160
1.020,-0.100,-0.230
1.022,-0.265,-0.305
1.024,-0.275,-0.375
1.026,-0.215,-0.435
1.028,-0.260,-0.480
1.030,-0.445,-0.505
1.032,-0.510,-0.515
1.034,-0.695,-0.510
1.036,-0.565,-0.490
1.038,-0.340,-0.465
1.040,-0.235,-0.430
1.042,-0.175,-0.395
1.044,-0.080,-0.355
1.046,-0.155,-0.320
1.048,-0.285,-0.285
1.050,-0.190,-0.250
1.052,-0.255,-0.215
1.054,-0.225,-0.180
1.056,-0.100,-0.145
1.058,0.040,-0.110
1.060,0.170,-0.085
1.062,0.185,-0.060
1.064,0.105,-0.040
1.066,0.025,-0.025
1.068,0.055,-0.010
1.070,0.095,0.000
1.072,0.035,0.005
1.074,-0.055,0.010
1.076,-0.025,0.010
1.078,0.095,0.010
1.080,0.220,0.010
1.082,0.325,0.010
1.084,0.225,0.005
1.086,0.060,0.000
1.088,0.135,-0.005
1.090,-0.015,-0.005
1.092,-0.055,0.000
1.094,-0.075,0.010
1.096,0.025,0.025
1.098,0.200,0.045
1.100,0.255,0.070
1.102,0.375,0.090
1.104,0.380,0.105
1.106,0.350,0.115
1.108,0.130,0.110
1.110,0.070,0.095
1.112,0.030,0.070
1.114,-0.015,0.040
1.116,0.130,0.010
1.118,0.045,-0.020
1.120,0.070,-0.045
1.122,0.160,-0.055
1.124,0.160,-0.055
1.126,0.130,-0.045
1.128,0.065,-0.030
1.130,0.020,-0.010
1.132,-0.035,0.010
1.134,0.025,0.030
1.136,0.070,0.045
1.138,0.195,0.055
1.140,0.260,0.060
1.142,0.245,0.070
1.144,0.320,0.080
1.146,0.180,0.095
1.148,0.155,0.115
1.150,0.180,0.130
1.152,0.110,0.140
1.154,0.195,0.145
1.156,0.215,0.140
1.158,0.265,0.125
1.160,0.190,0.105
1.162,0.175,0.085
1.164,0.265,0.065
1.166,0.255,0.055
1.168,0.135,0.055
1.170,0.120,0.070
1.172,0.005,0.095
1.174,0.090,0.120
1.176,0.230,0.150
1.178,0.490,0.170
1.180,0.280,0.180
1.182,0.340,0.175
1.184,0.330,0.160
1.186,0.285,0.140
1.188,0.100,0.115
1.190,0.030,0.095
1.192,-0.045,0.085
1.194,0.200,0.085
1.196,0.270,0.095
1.198,0.235,0.115
1.200,0.295,0.140
1.202,0.270,0.170
1.204,0.405,0.205
1.206,0.440,0.230
1.208,0.325,0.255
1.210,0.255,0.275
1.212,0.165,0.290
1.214,0.335,0.300
1.216,0.355,0.300
1.218,0.460,0.295
1.220,0.470,0.285
1.222,0.485,0.270
1.224,0.425,0.250
1.226,0.320,0.230
1.228,0.240,0.210
1.230,0.155,0.195
1.232,0.160,0.190
1.234,0.175,0.185
1.236,0.280,0.185
1.238,0.375,0.190
1.240,0.425,0.200
1.242,0.395,0.210
1.244,0.315,0.215
1.246,0.305,0.210
1.248,0.250,0.205
1.250,0.210,0.190
1.252,0.225,0.175
1.254,0.280,0.150
1.256,0.245,0.125
1.258,0.170,0.100
1.260,0.090,0.080
1.262,0.295,0.065
1.264,0.180,0.055
1.266,0.195,0.055
1.268,0.115,0.055
1.270,0.040,0.060
1.272,0.055,0.070
1.274,0.110,0.075
1.276,0.145,0.075
1.278,0.315,0.075
1.280,0.265,0.065
1.282,0.210,0.050
1.284,0.135,0.030
1.286,0.045,0.010
1.288,-0.085,-0.015
1.290,-0.070,-0.035
1.292,-0.045,-0.045
1.294,0.025,-0.050
1.296,0.130,-0.050
1.298,0.150,-0.035
1.300,0.205,-0.020
1.302,0.110,0.000
1.304,0.005,0.010
1.306,0.085,0.020
1.308,0.150,0.015
1.310,0.075,0.005
1.312,-0.060,-0.015
1.314,-0.065,-0.040
1.316,0.060,-0.065
1.318,0.050,-0.085
1.320,0.115,-0.100
1.322,0.140,-0.095
1.324,0.010,-0.080
1.326,-0.105,-0.060
1.328,0.030,-0.025
1.330,0.075,0.005
1.332,0.055,0.025
1.334,0.035,0.040
1.336,0.095,0.035
1.338,0.240,0.020
1.340,0.150,-0.010
1.342,0.150,-0.045
1.344,0.035,-0.080
1.346,0.015,-0.105
1.348,-0.025,-0.120
1.350,-0.170,-0.120
1.352,-0.160,-0.105
1.354,-0.070,-0.075
1.356,0.095,-0.040
1.358,0.200,-0.010
1.360,0.180,0.010
1.362,0.285,0.015
1.364,0.220,0.005
1.366,0.015,-0.020
1.368,-0.105,-0.055
1.370,-0.180,-0.090
1.372,-0.220,-0.120
1.374,-0.135,-0.140
1.376,0.010,-0.145
1.378,0.075,-0.135
1.380,0.195,-0.115
1.382,0.190,-0.095
1.384,0.025,-0.070
1.386,-0.065,-0.050
1.388,-0.035,-0.040
1.390,-0.075,-0.035
1.392,-0.085,-0.035
1.394,0.035,-0.040
1.396,0.070,-0.035
1.398,0.070,-0.035
1.400,0.185,-0.025
1.402,0.310,-0.015
1.404,0.150,-0.010
1.406,0.055,-0.005
1.408,-0.090,-0.010
1.410,-0.140,-0.015
1.412,-0.080,-0.025
1.414,0.085,-0.035
1.416,0.155,-0.040
1.418,0.100,-0.040
1.420,0.060,-0.035
1.422,0.210,-0.020
1.424,0.190,-0.010
1.426,0.085,0.000
1.428,-0.070,0.005
1.430,0.030,0.000
1.432,0.065,-0.015
1.434,-0.135,-0.035
1.436,0.090,-0.055
1.438,0.105,-0.075
1.440,0.100,-0.085
1.442,0.110,-0.090
1.444,0.105,-0.085
1.446,-0.020,-0.075
1.448,-0.070,-0.065
1.450,-0.080,-0.060
1.452,-0.090,-0.055
1.454,-0.030,-0.055
1.456,0.040,-0.060
1.458,0.140,-0.060
1.460,0.130,-0.050
1.462,0.085,-0.040
1.464,0.105,-0.020
1.466,0.145,0.005
1.468,0.050,0.030
1.470,-0.025,0.045
1.472,0.095,0.050
1.474,0.060,0.040
1.476,0.180,0.015
1.478,0.150,-0.025
1.480,0.075,-0.065
1.482,0.020,-0.100
1.484,0.005,-0.125
1.486,-0.070,-0.140
1.488,-0.150,-0.140
1.490,-0.145,-0.120
1.492,-0.080,-0.100
1.494,-0.090,-0.075
1.496,0.080,-0.055
1.498,0.220,-0.040
1.500,0.245,-0.040
1.502,0.175,-0.050
1.504,-0.015,-0.065
1.506,-0.065,-0.085
1.508,-0.155,-0.100
1.510,-0.140,-0.110
1.512,-0.115,-0.105
1.514,-0.105,-0.095
1.516,0.055,-0.080
1.518,0.140,-0.060
1.520,0.250,-0.040
1.522,0.255,-0.025
1.524,0.205,-0.010
1.526,0.025,-0.010
1.528,-0.110,-0.010
1.530,-0.125,-0.015
1.532,-0.050,-0.020
1.534,-0.030,-0.030
1.536,0.105,-0.035
1.538,0.280,-0.040
1.540,0.280,-0.045
1.542,0.100,-0.045
1.544,0.000,-0.040
1.546,-0.045,-0.030
1.548,0.000,-0.020
1.550,-0.050,-0.010
1.552,-0.110,-0.005
1.554,0.060,0.005
1.556,0.220,0.005
1.558,0.250,0.005
1.560,0.240,0.000
1.562,0.135,-0.010
1.564,0.070,-0.020
1.566,-0.030,-0.030
1.568,-0.005,-0.040
1.570,-0.080,-0.040
1.572,-0.070,-0.030
1.574,0.030,-0.015
1.576,0.135,0.005
1.578,0.305,0.030
1.580,0.255,0.050
1.582,0.160,0.070
1.584,0.245,0.075
1.586,0.165,0.070
1.588,0.165,0.055
1.590,0.015,0.030
1.592,-0.120,0.005
1.594,-0.060,-0.025
1.596,0.005,-0.045
1.598,0.045,-0.055
1.600,0.290,-0.055
1.602,0.175,-0.050
1.604,0.050,-0.035
1.606,0.095,-0.025
1.608,-0.090,-0.015
1.610,-0.130,-0.015
1.612,-0.060,-0.025
1.614,0.115,-0.045
1.616,0.150,-0.060
1.618,0.030,-0.080
1.620,0.045,-0.090
1.622,0.075,-0.095
1.624,0.060,-0.090
1.626,-0.030,-0.080
1.628,-0.095,-0.065
1.630,-0.140,-0.055
1.632,-0.045,-0.055
1.634,0.055,-0.055
1.636,0.065,-0.060
1.638,0.095,-0.065
1.640,0.185,-0.065
1.642,0.110,-0.055
1.644,0.075,-0.045
1.646,-0.065,-0.020
1.648,-0.055,0.000
1.650,0.090,0.020
1.652,0.085,0.030
1.654,0.085,0.025
1.656,0.090,0.010
1.658,0.115,-0.020
1.660,0.185,-0.055
1.662,0.115,-0.090
1.664,-0.115,-0.115
1.666,-0.120,-0.130
1.668,-0.090,-0.125
1.670,-0.120,-0.110
1.672,-0.040,-0.090
1.674,0.005,-0.060
1.676,0.075,-0.035
1.678,0.140,-0.010
1.680,0.270,0.010
1.682,0.430,0.025
1.684,0.160,0.040
1.686,-0.070,0.055
1.688,-0.200,0.070
1.690,0.070,0.090
1.692,0.215,0.100
1.694,0.210,0.110
1.696,0.290,0.100
1.698,0.325,0.075
1.700,0.290,0.030
1.702,0.085,-0.035
1.704,-0.120,-0.110
1.706,-0.290,-0.195
1.708,-0.355,-0.275
1.710,-0.330,-0.350
1.712,-0.350,-0.415
1.714,-0.370,-0.465
1.716,-0.410,-0.495
1.718,-0.375,-0.510
1.720,-0.315,-0.515
1.722,-0.325,-0.505
1.724,-0.425,-0.485
1.726,-0.475,-0.455
1.728,-0.375,-0.415
1.730,-0.365,-0.365
1.732,-0.285,-0.315
1.734,-0.175,-0.260
1.736,-0.010,-0.205
1.738,0.095,-0.155
1.740,0.130,-0.110
1.742,0.105,-0.080
1.744,-0.015,-0.055
1.746,-0.065,-0.045
1.748,-0.035,-0.035
1.750,0.010,-0.035
1.752,-0.030,-0.030
1.754,0.100,-0.030
1.756,0.095,-0.020
1.758,0.145,-0.010
1.760,0.220,0.005
1.762,0.140,0.015
1.764,0.140,0.025
1.766,0.175,0.030
1.768,0.045,0.025
1.770,-0.150,0.020
1.772,-0.070,0.005
1.774,0.165,-0.005
1.776,0.110,-0.015
1.778,0.210,-0.025
1.780,0.200,-0.025
1.782,0.195,-0.020
1.784,-0.030,-0.010
1.786,0.020,0.005
1.788,-0.030,0.020
1.790,0.000,0.030
1.792,0.090,0.040
1.794,0.150,0.040
1.796,0.210,0.040
1.798,0.195,0.035
1.800,0.205,0.030
1.802,0.155,0.025
1.804,0.115,0.030
1.806,0.035,0.030
1.808,-0.020,0.040
1.810,0.025,0.055
1.812,0.105,0.065
1.814,0.255,0.075
1.816,0.240,0.085
1.818,0.310,0.085
1.820,0.245,0.080
1.822,0.205,0.075
1.824,0.100,0.070
1.826,0.045,0.070
1.828,0.090,0.070
1.830,0.090,0.080
1.832,0.100,0.095
1.834,0.215,0.110
1.836,0.205,0.130
1.838,0.370,0.145
1.840,0.425,0.155
1.842,0.270,0.155
1.844,0.285,0.150
1.846,0.085,0.140
1.848,0.090,0.130
1.850,0.155,0.125
1.852,0.080,0.120
1.854,0.240,0.120
1.856,0.315,0.125
1.858,0.390,0.130
1.860,0.290,0.140
1.862,0.290,0.145
1.864,0.195,0.145
1.866,0.175,0.140
1.868,0.070,0.135
1.870,0.080,0.130
1.872,0.135,0.130
1.874,0.270,0.135
1.876,0.300,0.150
1.878,0.385,0.170
1.880,0.365,0.195
1.882,0.370,0.220
1.884,0.305,0.235
1.886,0.330,0.245
1.888,0.190,0.240
1.890,0.200,0.225
1.892,0.185,0.210
1.894,0.360,0.185
1.896,0.325,0.170
1.898,0.325,0.165
1.900,0.245,0.175
1.902,0.360,0.190
1.904,0.305,0.215
1.906,0.160,0.240
1.908,0.085,0.265
1.910,0.345,0.270
1.912,0.475,0.270
1.914,0.445,0.250
1.916,0.330,0.225
1.918,0.445,0.195
1.920,0.245,0.165
1.922,0.115,0.140
1.924,0.055,0.125
1.926,0.190,0.120
1.928,0.180,0.120
1.930,0.215,0.130
1.932,0.185,0.135
1.934,0.165,0.140
1.936,0.335,0.140
1.938,0.395,0.135
1.940,0.260,0.130
1.942,0.140,0.120
1.944,0.040,0.110
1.946,0.140,0.105
1.948,0.075,0.100
1.950,0.120,0.100
1.952,0.305,0.100
1.954,0.200,0.100
1.956,0.250,0.105
1.958,0.330,0.105
1.960,0.230,0.105
1.962,0.175,0.100
1.964,0.120,0.095
1.966,0.050,0.090
1.968,0.015,0.075
1.970,0.160,0.055
1.972,0.175,0.035
1.974,0.110,0.010
1.976,-0.035,-0.015
1.978,0.080,-0.035
1.980,0.205,-0.050
1.982,0.160,-0.055
1.984,-0.080,-0.055
1.986,-0.075,-0.040
1.988,-0.105,-0.020
1.990,-0.075,0.000
1.992,0.230,0.015
1.994,0.215,0.020
1.996,0.075,0.015
1.998,0.180,0.000
2.000,0.190,-0.025
2.002,0.100,-0.055
2.004,-0.110,-0.080
2.006,-0.150,-0.100
2.008,-0.160,-0.105
2.010,-0.055,-0.100
2.012,0.015,-0.080
2.014,0.080,-0.050
2.016,0.190,-0.020
2.018,0.190,0.005
2.020,0.105,0.030
2.022,0.020,0.040
2.024,0.105,0.040
2.026,0.180,0.030
2.028,-0.045,0.020
2.030,-0.115,0.005
2.032,0.105,-0.010
2.034,0.205,-0.020
2.036,0.130,-0.030
2.038,0.140,-0.030
2.040,0.085,-0.035
2.042,0.025,-0.035
2.044,0.005,-0.045
2.046,-0.005,-0.055
2.048,-0.075,-0.065
2.050,-0.180,-0.075
2.052,-0.020,-0.080
2.054,0.110,-0.080
2.056,0.190,-0.075
2.058,0.060,-0.060
2.060,0.085,-0.040
2.062,0.075,-0.015
2.064,0.085,0.005
2.066,0.055,0.015
2.068,-0.015,0.020
2.070,-0.025,0.010
2.072,-0.010,-0.005
2.074,0.115,-0.025
2.076,0.185,-0.045
2.078,0.100,-0.060
2.080,0.100,-0.070
2.082,0.065,-0.070
2.084,-0.085,-0.065
2.086,-0.190,-0.050
2.088,0.040,-0.035
2.090,-0.005,-0.020
2.092,0.020,-0.015
2.094,0.050,-0.010
2.096,0.165,-0.010
2.098,0.140,-0.010
2.100,0.090,-0.015
2.102,0.095,-0.015
2.104,0.130,-0.010
2.106,0.000,0.000
2.108,-0.030,0.010
2.110,0.065,0.020
2.112,0.095,0.025
2.114,-0.015,0.025
2.116,0.210,0.015
2.118,0.250,0.000
2.120,0.100,-0.020
2.122,0.025,-0.040
2.124,0.030,-0.055
2.126,-0.125,-0.065
2.128,-0.085,-0.065
2.130,-0.035,-0.060
2.132,0.030,-0.045
2.134,0.090,-0.030
2.136,0.200,-0.015
2.138,0.205,-0.005
2.140,0.075,0.005
2.142,0.125,0.010
2.144,0.035,0.005
2.146,-0.165,0.005
2.148,-0.005,0.000
2.150,0.060,-0.005
2.152,0.100,-0.005
2.154,0.060,-0.005
2.156,0.240,0.000
2.158,0.210,0.005
2.160,0.130,0.010
2.162,-0.055,0.015
2.164,0.025,0.020
2.166,-0.025,0.020
2.168,-0.060,0.015
2.170,0.115,0.010
2.172,0.170,0.005
2.174,0.095,-0.005
2.176,0.140,-0.010
2.178,0.160,-0.015
2.180,0.120,-0.020
2.182,-0.015,-0.020
2.184,-0.005,-0.020
2.186,-0.055,-0.020
2.188,-0.040,-0.020
2.190,-0.080,-0.025
2.192,0.100,-0.030
2.194,0.150,-0.035
2.196,0.175,-0.035
2.198,0.075,-0.035
2.200,0.050,-0.025
2.202,0.055,-0.015
2.204,0.030,0.000
2.206,-0.105,0.010
2.208,0.080,0.020
2.210,0.100,0.020
2.212,0.135,0.010
2.214,0.105,-0.005
2.216,0.050,-0.025
2.218,0.055,-0.045
2.220,0.010,-0.060
2.222,0.030,-0.065
2.224,-0.025,-0.055
2.226,-0.025,-0.040
2.228,0.005,-0.020
2.230,0.015,0.005
2.232,0.145,0.025
2.234,0.220,0.035
2.236,0.150,0.035
2.238,0.160,0.025
2.240,0.100,0.010
2.242,0.025,-0.005
2.244,0.030,-0.015
2.246,-0.090,-0.020
2.248,-0.030,-0.015
2.250,-0.005,-0.005
2.252,0.145,0.010
2.254,0.215,0.025
2.256,0.235,0.035
2.258,0.235,0.035
2.260,0.210,0.035
2.262,0.065,0.025
2.264,-0.110,0.010
2.266,-0.085,0.000
2.268,-0.015,-0.010
2.270,0.070,-0.010
2.272,0.115,-0.005
2.274,0.180,0.000
2.276,0.285,0.010
2.278,0.150,0.020
2.280,0.005,0.025
2.282,0.100,0.020
2.284,0.005,0.015
2.286,-0.115,0.005
2.288,0.010,-0.010
2.290,-0.015,-0.020
2.292,0.105,-0.030
2.294,0.140,-0.035
2.296,0.160,-0.030
2.298,0.180,-0.025
2.300,0.020,-0.015
2.302,-0.055,-0.005
2.304,-0.130,0.005
2.306,0.070,0.010
2.308,0.055,0.015
2.310,0.010,0.010
2.312,0.095,0.005
2.314,0.115,0.000
2.316,0.260,-0.010
2.318,0.200,-0.020
2.320,0.045,-0.030
2.322,-0.105,-0.045
2.324,-0.135,-0.055
2.326,-0.095,-0.060
2.328,-0.090,-0.065
2.330,-0.010,-0.065
2.332,0.065,-0.060
2.334,0.145,-0.045
2.336,0.205,-0.030
2.338,0.230,-0.015
2.340,0.080,0.005
2.342,-0.020,0.015
2.344,-0.090,0.020
2.346,-0.020,0.010
2.348,-0.020,-0.005
2.350,-0.005,-0.035
2.352,0.030,-0.065
2.354,0.140,-0.090
2.356,0.115,-0.100
2.358,0.060,-0.100
2.360,-0.035,-0.075
2.362,-0.145,-0.030
2.364,-0.160,0.020
2.366,0.030,0.080
2.368,0.255,0.130
2.370,0.340,0.170
2.372,0.365,0.180
2.374,0.335,0.170
2.376,0.325,0.140
2.378,0.205,0.090
2.380,-0.005,0.030
2.382,-0.005,-0.035
2.384,-0.275,-0.100
2.386,-0.215,-0.160
2.388,-0.135,-0.215
2.390,-0.070,-0.270
2.392,-0.120,-0.325
2.394,-0.165,-0.375
2.396,-0.325,-0.420
2.398,-0.545,-0.465
2.400,-0.585,-0.490
2.402,-0.505,-0.505
2.404,-0.495,-0.495
2.406,-0.435,-0.470
2.408,-0.355,-0.425
2.410,-0.205,-0.370
2.412,-0.110,-0.310
2.414,-0.040,-0.255
2.416,-0.070,-0.215
2.418,-0.080,-0.185
2.420,-0.255,-0.165
2.422,-0.170,-0.160
2.424,-0.155,-0.150
2.426,-0.020,-0.140
2.428,-0.120,-0.120
2.430,-0.040,-0.090
2.432,0.060,-0.055
2.434,0.185,-0.015
2.436,0.350,0.025
2.438,0.150,0.050
2.440,0.075,0.060
2.442,0.000,0.060
2.444,-0.075,0.040
2.446,-0.045,0.015
2.448,0.005,-0.010
2.450,0.000,-0.030
2.452,0.115,-0.040
2.454,0.260,-0.035
2.456,0.170,-0.025
2.458,0.125,-0.005
2.460,0.085,0.020
2.462,-0.020,0.040
2.464,-0.135,0.050
2.466,0.040,0.050
2.468,0.075,0.045
2.470,0.115,0.035
2.472,0.145,0.025
2.474,0.205,0.020
2.476,0.235,0.020
2.478,0.195,0.030
2.480,0.090,0.045
2.482,0.045,0.065
2.484,0.010,0.075
2.486,0.110,0.085
2.488,0.075,0.085
2.490,0.105,0.080
2.492,0.130,0.070
2.494,0.285,0.060
2.496,0.255,0.055
2.498,0.160,0.055
2.500,0.135,0.060
2.502,0.005,0.075
2.504,-0.050,0.085
2.506,0.040,0.095
2.508,0.210,0.100
2.510,0.195,0.095
2.512,0.280,0.090
2.514,0.330,0.080
2.516,0.205,0.070
2.518,0.110,0.070
2.520,0.095,0.080
2.522,0.050,0.095
2.524,0.000,0.110
2.526,0.130,0.130
2.528,0.255,0.140
2.530,0.285,0.140
2.532,0.275,0.130
2.534,0.220,0.110
2.536,0.225,0.090
2.538,0.225,0.065
2.540,0.105,0.045
2.542,0.005,0.030
2.544,-0.155,0.030
2.546,-0.215,0.035
2.548,0.070,0.045
2.550,0.295,0.065
2.552,0.425,0.080
2.554,0.410,0.095
2.556,0.220,0.110
2.558,0.100,0.120
2.560,-0.045,0.125
2.562,0.080,0.135
2.564,0.030,0.140
2.566,0.170,0.140
2.568,0.245,0.145
2.570,0.270,0.145
2.572,0.360,0.145
2.574,0.350,0.145
2.576,0.345,0.155
2.578,0.205,0.165
2.580,0.145,0.185
2.582,0.075,0.205
2.584,0.115,0.225
2.586,0.195,0.245
2.588,0.395,0.255
2.590,0.525,0.250
2.592,0.535,0.240
2.594,0.505,0.220
2.596,0.255,0.195
2.598,-0.020,0.175
2.600,-0.070,0.160
2.602,0.140,0.160
2.604,0.335,0.165
2.606,0.255,0.180
2.608,0.245,0.200
2.610,0.275,0.210
2.612,0.420,0.220
2.614,0.400,0.210
2.616,0.320,0.190
2.618,0.180,0.165
2.620,0.005,0.135
2.622,-0.030,0.105
2.624,0.030,0.085
2.626,0.200,0.075
2.628,0.240,0.075
2.630,0.130,0.080
2.632,0.335,0.090
2.634,0.165,0.100
2.636,0.220,0.100
2.638,0.240,0.095
2.640,0.070,0.075
2.642,-0.055,0.055
2.644,-0.120,0.030
2.646,-0.025,0.005
2.648,0.175,-0.015
2.650,0.115,-0.025
2.652,0.120,-0.030
2.654,0.115,-0.030
2.656,0.180,-0.025
2.658,0.030,-0.015
2.660,-0.015,-0.010
2.662,-0.135,-0.010
2.664,-0.090,-0.005
2.666,-0.055,-0.005
2.668,0.130,-0.005
2.670,0.125,-0.005
2.672,0.230,0.000
2.674,0.275,0.005
2.676,0.080,0.010
2.678,-0.005,0.010
2.680,0.080,0.010
2.682,-0.095,0.005
2.684,-0.080,-0.005
2.686,0.050,-0.020
2.688,0.025,-0.040
2.690,0.040,-0.065
2.692,0.070,-0.085
2.694,0.075,-0.100
2.696,-0.040,-0.105
2.698,-0.110,-0.100
2.700,-0.020,-0.090
2.702,-0.035,-0.070
2.704,-0.120,-0.050
2.706,-0.005,-0.030
2.708,0.045,-0.015
2.710,0.020,-0.005
2.712,0.195,-0.010
2.714,0.140,-0.020
2.716,0.080,-0.035
2.718,0.000,-0.050
2.720,-0.090,-0.065
2.722,-0.200,-0.070
2.724,-0.145,-0.070
2.726,-0.115,-0.060
2.728,0.085,-0.045
2.730,0.210,-0.025
2.732,0.245,-0.015
2.734,0.145,-0.005
2.736,0.145,-0.010
2.738,-0.010,-0.020
2.740,-0.175,-0.035
2.742,-0.165,-0.050
2.744,-0.135,-0.060
2.746,-0.025,-0.060
2.748,0.140,-0.050
2.750,0.110,-0.035
2.752,0.205,-0.005
2.754,0.205,0.020
2.756,0.090,0.040
2.758,0.125,0.050
2.760,0.055,0.045
2.762,-0.060,0.030
2.764,-0.090,0.000
2.766,-0.025,-0.035
2.768,-0.040,-0.070
2.770,-0.030,-0.095
2.772,0.085,-0.105
2.774,0.115,-0.105
2.776,0.100,-0.095
2.778,-0.010,-0.080
2.780,-0.075,-0.060
2.782,-0.205,-0.040
2.784,-0.165,-0.030
2.786,0.075,-0.030
2.788,0.165,-0.030
2.790,0.080,-0.040
2.792,0.030,-0.045
2.794,0.105,-0.045
2.796,0.155,-0.040
2.798,0.055,-0.025
2.800,-0.015,-0.010
2.802,-0.175,0.010
2.804,-0.095,0.030
2.806,0.105,0.040
2.808,0.265,0.045
2.810,0.265,0.045
2.812,0.210,0.035
2.814,0.145,0.025
2.816,0.030,0.015
2.818,-0.130,0.005
2.820,-0.095,-0.005
2.822,0.010,-0.010
2.824,0.095,-0.010
2.826,0.045,-0.010
2.828,0.085,-0.010
2.830,0.115,-0.005
2.832,0.150,0.005
2.834,0.170,0.010
2.836,0.065,0.020
2.838,-0.030,0.030
2.840,0.050,0.035
2.842,-0.055,0.035
2.844,-0.045,0.030
2.846,0.110,0.015
2.848,0.215,-0.005
2.850,0.155,-0.025
2.852,0.130,-0.045
2.854,0.000,-0.060
2.856,-0.120,-0.065
2.858,-0.075,-0.060
2.860,-0.185,-0.045
2.862,-0.035,-0.030
2.864,-0.015,-0.010
2.866,0.085,0.000
2.868,0.270,0.005
2.870,0.245,0.000
2.872,0.215,-0.015
2.874,-0.110,-0.035
2.876,-0.125,-0.050
2.878,-0.090,-0.065
2.880,-0.065,-0.075
2.882,-0.125,-0.070
2.884,-0.055,-0.060
2.886,0.120,-0.045
2.888,0.210,-0.030
2.890,0.135,-0.010
2.892,0.135,0.005
2.894,0.105,0.010
2.896,0.040,0.015
2.898,0.030,0.010
2.900,-0.075,0.005
2.902,-0.030,-0.010
2.904,-0.040,-0.025
2.906,0.055,-0.045
2.908,0.085,-0.070
2.910,0.170,-0.090
2.912,0.020,-0.110
2.914,-0.200,-0.125
2.916,-0.125,-0.130
2.918,-0.095,-0.120
2.920,-0.110,-0.100
2.922,-0.055,-0.075
2.924,-0.090,-0.035
2.926,0.015,0.000
2.928,0.175,0.030
2.930,0.410,0.050
2.932,0.205,0.060
2.934,0.150,0.055
2.936,0.060,0.035
2.938,-0.035,0.010
2.940,-0.155,-0.015
2.942,-0.110,-0.035
2.944,-0.020,-0.050
2.946,0.095,-0.050
2.948,0.045,-0.040
2.950,0.185,-0.020
2.952,0.240,0.000
2.954,0.145,0.025
2.956,0.055,0.045
2.958,0.085,0.055
2.960,-0.080,0.065
2.962,0.005,0.065
2.964,0.045,0.060
2.966,0.120,0.055
2.968,0.130,0.045
2.970,0.265,0.040
2.972,0.275,0.030
2.974,0.165,0.025
2.976,0.010,0.020
2.978,-0.040,0.015
2.980,-0.035,0.010
2.982,-0.005,0.010
2.984,-0.070,0.005
2.986,0.115,0.005
2.988,0.185,0.005
2.990,0.210,0.005
2.992,0.120,0.000
2.994,0.125,-0.005
2.996,0.035,-0.010
2.998,-0.115,-0.015
3.000,-0.040,-0.020
3.002,-0.105,-0.020
3.004,-0.175,-0.020
3.006,0.100,-0.020
3.008,0.265,-0.020
3.010,0.210,-0.020
3.012,0.120,-0.020
3.014,0.080,-0.020
3.016,-0.045,-0.030
3.018,-0.015,-0.040
3.020,-0.270,-0.045
3.022,-0.075,-0.055
3.024,0.000,-0.060
3.026,-0.050,-0.055
3.028,0.080,-0.050
3.030,0.255,-0.035
3.032,0.190,-0.025
3.034,0.110,-0.010
3.036,0.005,0.000
3.038,-0.125,0.000
3.040,-0.145,0.000
3.042,-0.005,-0.010
3.044,0.020,-0.025
3.046,0.045,-0.035
3.048,0.075,-0.045
3.050,0.180,-0.045
3.052,0.145,-0.035
3.054,0.010,-0.025
3.056,-0.080,-0.010
3.058,-0.040,0.005
3.060,0.080,0.015
3.062,0.030,0.020
3.064,0.015,0.015
3.066,0.030,0.005
3.068,0.075,-0.005
3.070,0.195,-0.020
3.072,0.120,-0.025
3.074,0.040,-0.030
3.076,-0.085,-0.025
3.078,-0.075,-0.010
3.080,-0.015,0.005
3.082,0.110,0.025
3.084,0.060,0.035
3.086,0.120,0.040
3.088,0.245,0.025
3.090,0.290,0.000
3.092,0.140,-0.045
3.094,-0.165,-0.110
3.096,-0.225,-0.185
3.098,-0.370,-0.270
3.100,-0.470,-0.355
3.102,-0.445,-0.430
3.104,-0.375,-0.495
3.106,-0.435,-0.535
3.108,-0.480,-0.555
3.110,-0.450,-0.545
3.112,-0.405,-0.515
3.114,-0.385,-0.465
3.116,-0.400,-0.410
3.118,-0.260,-0.345
3.120,-0.340,-0.290
3.122,-0.240,-0.240
3.124,-0.140,-0.200
3.126,-0.015,-0.175
3.128,-0.045,-0.150
3.130,-0.050,-0.130
3.132,-0.050,-0.110
3.134,0.060,-0.090
3.136,0.030,-0.065
3.138,-0.040,-0.045
3.140,-0.160,-0.025
3.142,-0.005,-0.015
3.144,0.065,-0.015
3.146,0.155,-0.020
3.148,0.090,-0.030
3.150,0.095,-0.045
3.152,0.000,-0.055
3.154,-0.140,-0.055
3.156,-0.020,-0.050
3.158,0.025,-0.035
3.160,-0.010,-0.015
3.162,0.015,0.000
3.164,0.055,0.015
3.166,0.025,0.025
3.168,0.030,0.025
3.170,0.245,0.020
3.172,0.195,0.015
3.174,0.120,0.010
3.176,-0.025,0.010
3.178,-0.080,0.015
3.180,-0.030,0.030
3.182,-0.030,0.045
3.184,0.095,0.055
3.186,0.225,0.065
3.188,0.370,0.060
3.190,0.310,0.050
3.192,0.145,0.030
3.194,-0.120,0.005
3.196,-0.090,-0.015
3.198,-0.065,-0.025
3.200,-0.045,-0.030
3.202,-0.055,-0.020
3.204,0.080,-0.005
3.206,0.215,0.020
3.208,0.325,0.040
3.210,0.310,0.060
3.212,0.095,0.070
3.214,0.055,0.075
3.216,-0.010,0.075
3.218,0.110,0.065
3.220,0.160,0.060
3.222,-0.045,0.050
3.224,-0.025,0.040
3.226,0.220,0.035
3.228,0.325,0.030
3.230,0.190,0.030
3.232,0.080,0.030
3.234,0.055,0.035
3.236,-0.080,0.045
3.238,0.015,0.055
3.240,0.120,0.065
3.242,0.140,0.080
3.244,0.140,0.095
3.246,0.135,0.100
3.248,0.195,0.105
3.250,0.385,0.105
3.252,0.240,0.095
3.254,0.200,0.090
3.256,0.015,0.085
3.258,-0.075,0.085
3.260,0.035,0.095
3.262,0.060,0.120
3.264,0.280,0.155
3.266,0.340,0.190
3.268,0.510,0.230
3.270,0.445,0.260
3.272,0.400,0.275
3.274,0.250,0.280
3.276,0.255,0.265
3.278,0.265,0.235
3.280,0.165,0.200
3.282,0.075,0.160
3.284,0.065,0.130
3.286,0.285,0.115
3.288,0.445,0.110
3.290,0.285,0.125
3.292,0.190,0.145
3.294,0.060,0.170
3.296,0.150,0.195
3.298,0.255,0.215
3.300,0.320,0.220
3.302,0.185,0.220
3.304,0.300,0.210
3.306,0.315,0.190
3.308,0.360,0.175
3.310,0.375,0.165
3.312,0.220,0.160
3.314,0.170,0.165
3.316,0.085,0.175
3.318,0.005,0.185
3.320,0.230,0.200
3.322,0.340,0.210
3.324,0.355,0.215
3.326,0.445,0.215
3.328,0.370,0.210
3.330,0.225,0.200
3.332,0.170,0.195
3.334,0.095,0.185
3.336,0.265,0.175
3.338,0.230,0.165
3.340,0.255,0.150
3.342,0.140,0.135
3.344,0.060,0.115
3.346,0.175,0.090
3.348,0.265,0.065
3.350,0.230,0.045
3.352,0.095,0.025
3.354,0.005,0.010
3.356,-0.045,0.005
3.358,0.000,0.005
3.360,0.040,0.005
3.362,0.005,0.005
3.364,0.060,0.000
3.366,0.070,-0.010
3.368,0.205,-0.020
3.370,0.115,-0.035
3.372,-0.005,-0.050
3.374,-0.130,-0.060
3.376,-0.100,-0.065
3.378,-0.065,-0.060
3.380,0.020,-0.045
3.382,0.030,-0.025
3.384,0.040,-0.005
3.386,0.040,0.015
3.388,0.220,0.030
3.390,0.290,0.035
3.392,0.120,0.030
3.394,-0.040,0.020
3.396,0.020,0.000
3.398,-0.115,-0.010
3.400,-0.120,-0.020
3.402,-0.015,-0.020
3.404,0.160,-0.015
3.406,0.255,0.000
3.408,0.280,0.015
3.410,0.150,0.025
3.412,0.095,0.035
3.414,-0.025,0.030
3.416,-0.120,0.020
3.418,-0.160,-0.005
3.420,0.025,-0.030
3.422,0.185,-0.055
3.424,-0.010,-0.075
3.426,-0.045,-0.085
3.428,0.160,-0.085
3.430,0.145,-0.070
3.432,-0.050,-0.050
3.434,-0.150,-0.030
3.436,-0.075,-0.010
3.438,0.065,0.005
3.440,0.010,0.005
3.442,0.050,0.000
3.444,0.110,-0.015
3.446,0.030,-0.030
3.448,0.105,-0.050
3.450,0.100,-0.065
3.452,0.065,-0.075
3.454,-0.025,-0.075
3.456,-0.100,-0.075
3.458,-0.260,-0.070
3.460,-0.135,-0.065
3.462,0.020,-0.065
3.464,0.130,-0.060
3.466,0.075,-0.060
3.468,0.060,-0.060
3.470,0.160,-0.055
3.472,0.045,-0.045
3.474,0.020,-0.030
3.476,-0.115,-0.015
3.478,-0.110,0.000
3.480,-0.060,0.015
3.482,0.015,0.025
3.484,0.345,0.025
3.486,0.255,0.020
3.488,0.135,0.005
3.490,0.145,-0.010
3.492,0.005,-0.030
3.494,-0.135,-0.045
3.496,-0.205,-0.060
3.498,-0.110,-0.065
3.500,-0.040,-0.065
3.502,0.040,-0.060
3.504,0.095,-0.055
3.506,0.140,-0.050
3.508,0.100,-0.045
3.510,-0.020,-0.045
3.512,0.030,-0.045
3.514,-0.025,-0.040
3.516,-0.145,-0.035
3.518,-0.090,-0.030
3.520,0.060,-0.025
3.522,0.170,-0.015
3.524,0.110,-0.005
3.526,0.230,-0.005
3.528,0.120,-0.005
3.530,-0.005,-0.015
3.532,-0.070,-0.025
3.534,0.015,-0.040
3.536,-0.045,-0.055
3.538,-0.090,-0.065
3.540,-0.175,-0.065
3.542,0.020,-0.055
3.544,0.190,-0.040
3.546,0.245,-0.015
3.548,0.005,0.010
3.550,0.145,0.030
3.552,0.270,0.035
3.554,0.050,0.035
3.556,-0.105,0.020
3.558,-0.160,-0.005
3.560,-0.025,-0.040
3.562,0.025,-0.070
3.564,-0.030,-0.100
3.566,0.010,-0.115
3.568,0.100,-0.120
3.570,0.090,-0.110
3.572,-0.035,-0.090
3.574,-0.135,-0.070
3.576,-0.080,-0.045
3.578,-0.050,-0.030
3.580,-0.100,-0.025
3.582,0.005,-0.025
3.584,0.145,-0.035
3.586,0.190,-0.050
3.588,0.160,-0.065
3.590,0.085,-0.075
3.592,-0.025,-0.070
3.594,-0.265,-0.055
3.596,-0.260,-0.035
3.598,-0.005,-0.005
3.600,0.065,0.020
3.602,0.130,0.040
3.604,0.215,0.050
3.606,0.520,0.045
3.608,0.315,0.030
3.610,-0.050,0.005
3.612,-0.135,-0.020
3.614,-0.135,-0.045
3.616,-0.245,-0.065
3.618,0.010,-0.075
3.620,0.045,-0.080
3.622,0.050,-0.075
3.624,-0.025,-0.070
3.626,0.100,-0.065
3.628,0.160,-0.060
3.630,0.075,-0.055
3.632,-0.065,-0.055
3.634,-0.115,-0.050
3.636,-0.145,-0.045
3.638,-0.050,-0.040
3.640,0.035,-0.030
3.642,0.075,-0.015
3.644,0.210,-0.005
3.646,0.180,0.000
3.648,0.085,0.005
3.650,0.105,0.000
3.652,0.045,-0.010
3.654,0.050,-0.020
3.656,-0.090,-0.030
3.658,-0.080,-0.035
3.660,-0.150,-0.030
3.662,0.000,-0.020
3.664,0.165,0.000
3.666,0.365,0.020
3.668,0.265,0.035
3.670,0.150,0.040
3.672,0.005,0.040
3.674,0.015,0.030
3.676,-0.135,0.015
3.678,-0.040,-0.005
3.680,-0.020,-0.020
3.682,-0.035,-0.030
3.684,0.195,-0.025
3.686,0.390,-0.015
3.688,0.150,0.005
3.690,0.075,0.025
3.692,0.055,0.040
3.694,-0.035,0.050
3.696,0.025,0.045
3.698,-0.020,0.035
3.700,0.010,0.015
3.702,0.120,-0.005
3.704,0.220,-0.020
3.706,0.130,-0.030
3.708,0.125,-0.035
3.710,0.040,-0.025
3.712,0.005,-0.015
3.714,0.015,-0.010
3.716,-0.040,-0.005
3.718,-0.130,-0.010
3.720,0.020,-0.015
3.722,0.100,-0.030
3.724,0.085,-0.035
3.726,0.090,-0.035
3.728,0.175,-0.025
3.730,0.065,-0.005
3.732,0.050,0.020
3.734,0.065,0.040
3.736,0.005,0.055
3.738,-0.005,0.055
3.740,0.145,0.035
3.742,0.125,0.000
3.744,0.095,-0.045
3.746,0.040,-0.090
3.748,-0.130,-0.130
3.750,-0.070,-0.145
3.752,-0.115,-0.140
3.754,-0.045,-0.110
3.756,-0.020,-0.065
3.758,0.005,-0.010
3.760,0.115,0.035
3.762,0.235,0.065
3.764,0.190,0.070
3.766,0.145,0.055
3.768,0.195,0.025
3.770,0.060,-0.015
3.772,-0.095,-0.050
3.774,-0.165,-0.075
3.776,-0.105,-0.080
3.778,-0.020,-0.065
3.780,0.045,-0.035
3.782,0.175,0.000
3.784,0.330,0.040
3.786,0.225,0.070
3.788,0.075,0.090
3.790,0.150,0.095
3.792,0.045,0.090
3.794,0.140,0.075
3.796,0.020,0.055
3.798,0.015,0.040
3.800,0.100,0.025
3.802,0.130,0.015
3.804,0.205,0.005
3.806,0.275,-0.010
3.808,0.085,-0.030
3.810,-0.105,-0.065
3.812,-0.120,-0.115
3.814,-0.155,-0.170
3.816,-0.295,-0.240
3.818,-0.330,-0.305
3.820,-0.315,-0.370
3.822,-0.365,-0.425
3.824,-0.460,-0.470
3.826,-0.270,-0.495
3.828,-0.255,-0.505
3.830,-0.445,-0.500
3.832,-0.460,-0.480
3.834,-0.450,-0.450
3.836,-0.545,-0.415
3.838,-0.360,-0.370
3.840,-0.250,-0.325
3.842,-0.210,-0.280
3.844,-0.090,-0.235
3.846,0.085,-0.190
3.848,-0.060,-0.155
3.850,0.040,-0.120
3.852,-0.030,-0.090
3.854,-0.075,-0.065
3.856,-0.215,-0.045
3.858,-0.070,-0.030
3.860,0.045,-0.015
3.862,0.170,-0.005
3.864,0.220,0.005
3.866,0.220,0.015
3.868,0.225,0.020
3.870,0.115,0.025
3.872,-0.080,0.025
3.874,-0.170,0.025
3.876,-0.065,0.020
3.878,0.075,0.015
3.880,0.210,0.010
3.882,0.190,0.000
3.884,0.120,0.000
3.886,0.270,0.000
3.888,0.130,0.000
3.890,-0.110,0.010
3.892,-0.075,0.025
3.894,-0.005,0.040
3.896,0.175,0.055
3.898,0.125,0.070
3.900,0.090,0.080
3.902,0.290,0.085
3.904,0.285,0.080
3.906,0.200,0.075
3.908,0.105,0.065
3.910,0.115,0.050
3.912,0.035,0.035
3.914,-0.075,0.025
3.916,-0.055,0.020
3.918,-0.030,0.020
3.920,0.155,0.020
3.922,0.210,0.030
3.924,0.245,0.035
3.926,0.250,0.040
3.928,0.165,0.045
3.930,0.120,0.045
3.932,0.130,0.045
3.934,-0.140,0.045
3.936,-0.075,0.045
3.938,-0.005,0.045
3.940,0.240,0.050
3.942,0.325,0.055
3.944,0.450,0.060
3.946,0.190,0.070
3.948,0.065,0.085
3.950,0.050,0.095
3.952,0.135,0.105
3.954,0.050,0.115
3.956,0.070,0.125
3.958,0.130,0.135
3.960,0.215,0.140
3.962,0.215,0.145
3.964,0.415,0.145
3.966,0.365,0.145
3.968,0.325,0.150
3.970,0.175,0.150
3.972,0.190,0.150
3.974,-0.035,0.150
3.976,0.005,0.150
3.978,0.205,0.150
3.980,0.340,0.150
3.982,0.370,0.150
3.984,0.365,0.140
3.986,0.280,0.135
3.988,0.270,0.125
3.990,0.065,0.120
3.992,-0.075,0.120
3.994,0.060,0.125
3.996,0.205,0.140
3.998,0.250,0.160
4.000,0.210,0.185
4.002,0.360,0.210
4.004,0.580,0.240
4.006,0.520,0.260
4.008,0.260,0.275
4.010,0.155,0.280
4.012,0.215,0.275
4.014,0.210,0.265
4.016,0.260,0.250
4.018,0.290,0.235
4.020,0.300,0.225
4.022,0.380,0.220
4.024,0.485,0.225
4.026,0.465,0.230
4.028,0.340,0.235
4.030,0.140,0.245
4.032,0.220,0.245
4.034,0.160,0.245
4.036,0.160,0.245
4.038,0.305,0.235
4.040,0.410,0.230
4.042,0.445,0.220
4.044,0.320,0.215
4.046,0.290,0.205
4.048,0.195,0.195
4.050,0.280,0.185
4.052,0.195,0.170
4.054,0.110,0.155
4.056,0.035,0.135
4.058,0.125,0.115
4.060,0.225,0.095
4.062,0.255,0.085
4.064,0.280,0.085
4.066,0.205,0.085
4.068,0.050,0.095
4.070,0.115,0.105
4.072,0.155,0.110
4.074,0.115,0.110
4.076,0.185,0.095
4.078,0.140,0.075
4.080,0.105,0.045
4.082,0.035,0.010
4.084,0.130,-0.020
4.086,0.180,-0.040
4.088,0.070,-0.055
4.090,-0.070,-0.060
4.092,-0.120,-0.055
4.094,-0.105,-0.045
4.096,-0.080,-0.030
4.098,0.105,-0.020
4.100,0.180,-0.005
4.102,0.175,0.000
4.104,0.180,0.005
4.106,0.165,0.010
4.108,0.075,0.015
4.110,-0.060,0.015
4.112,-0.010,0.015
4.114,0.015,0.010
4.116,-0.010,0.005
4.118,0.045,-0.005
4.120,0.110,-0.020
4.122,0.160,-0.030
4.124,0.100,-0.045
4.126,0.110,-0.050
4.128,-0.010,-0.050
4.130,-0.045,-0.040
4.132,-0.105,-0.025
4.134,-0.090,-0.005
4.136,0.075,0.010
4.138,0.135,0.025
4.140,0.240,0.035
4.142,0.265,0.040
4.144,0.085,0.035
4.146,0.065,0.030
4.148,0.175,0.025
4.150,-0.005,0.020
4.152,-0.035,0.015
4.154,0.010,0.010
4.156,0.085,0.010
4.158,0.100,0.015
4.160,0.120,0.015
4.162,0.200,0.010
4.164,0.140,0.010
4.166,0.110,0.005
4.168,0.005,0.000
4.170,-0.040,-0.005
4.172,-0.100,-0.010
4.174,-0.005,-0.015
4.176,-0.005,-0.020
4.178,0.085,-0.025
4.180,0.180,-0.025
4.182,0.235,-0.030
4.184,0.110,-0.035
4.186,-0.005,-0.040
4.188,-0.100,-0.040
4.190,-0.050,-0.040
4.192,-0.090,-0.035
4.194,-0.125,-0.035
4.196,-0.085,-0.030
4.198,0.185,-0.025
4.200,0.180,-0.025
4.202,0.070,-0.020
4.204,0.205,-0.020
4.206,0.205,-0.015
4.208,-0.080,-0.010
4.210,-0.090,-0.005
4.212,-0.125,0.000
4.214,0.045,0.005
4.216,0.180,0.010
4.218,0.150,0.010
4.220,0.090,0.010
4.222,0.205,0.005
4.224,0.120,0.010
4.226,-0.025,0.010
4.228,0.005,0.020
4.230,0.085,0.030
4.232,0.100,0.040
4.234,0.055,0.050
4.236,0.065,0.050
4.238,0.110,0.045
4.240,0.170,0.035
4.242,0.265,0.020
4.244,0.125,0.000
4.246,-0.015,-0.015
4.248,0.120,-0.025
4.250,0.005,-0.025
4.252,-0.195,-0.015
4.254,-0.300,0.000
4.256,0.015,0.015
4.258,0.375,0.025
4.260,0.375,0.030
4.262,0.230,0.025
4.264,0.025,0.005
4.266,-0.080,-0.015
4.268,-0.090,-0.040
4.270,-0.060,-0.060
4.272,-0.100,-0.065
4.274,-0.035,-0.065
4.276,0.055,-0.050
4.278,0.180,-0.030
4.280,0.040,-0.005
4.282,0.130,0.010
4.284,0.210,0.015
4.286,0.210,0.010
4.288,-0.010,-0.005
4.290,-0.060,-0.030
4.292,-0.205,-0.055
4.294,-0.185,-0.075
4.296,0.010,-0.090
4.298,0.090,-0.085
4.300,0.055,-0.075
4.302,0.085,-0.055
4.304,0.180,-0.030
4.306,0.100,-0.010
4.308,-0.085,0.000
4.310,-0.045,0.005
4.312,-0.035,0.000
4.314,0.120,-0.005
4.316,-0.015,-0.015
4.318,-0.035,-0.020
4.320,0.085,-0.015
4.322,0.260,-0.005
4.324,0.245,0.010
4.326,0.070,0.030
4.328,0.070,0.040
4.330,-0.010,0.045
4.332,-0.045,0.040
4.334,-0.010,0.025
4.336,0.110,0.005
4.338,0.010,-0.015
4.340,0.025,-0.035
4.342,0.205,-0.045
4.344,0.150,-0.040
4.346,0.110,-0.030
4.348,-0.040,-0.015
4.350,-0.165,0.000
4.352,-0.075,0.015
4.354,-0.020,0.020
4.356,0.135,0.020
4.358,0.200,0.010
4.360,0.130,-0.005
4.362,0.145,-0.015
4.364,0.135,-0.020
4.366,0.125,-0.020
4.368,-0.050,-0.005
4.370,-0.095,0.010
4.372,-0.115,0.035
4.374,-0.090,0.055
4.376,0.225,0.075
4.378,0.330,0.080
4.380,0.330,0.080
4.382,0.225,0.075
4.384,0.100,0.065
4.386,-0.045,0.060
4.388,0.035,0.050
4.390,0.110,0.045
4.392,0.095,0.045
4.394,-0.100,0.045
4.396,0.025,0.045
4.398,0.200,0.040
4.400,0.235,0.030
4.402,0.250,0.015
4.404,0.205,-0.005
4.406,0.030,-0.025
4.408,-0.160,-0.040
4.410,-0.255,-0.055
4.412,-0.125,-0.060
4.414,-0.070,-0.055
4.416,-0.010,-0.050
4.418,0.075,-0.045
4.420,0.190,-0.040
4.422,0.260,-0.035
4.424,0.120,-0.040
4.426,-0.060,-0.045
4.428,-0.215,-0.055
4.430,-0.155,-0.070
4.432,-0.210,-0.075
4.434,-0.115,-0.080
4.436,0.010,-0.075
4.438,0.105,-0.070
4.440,0.165,-0.055
4.442,0.245,-0.045
4.444,0.050,-0.035
4.446,-0.055,-0.030
4.448,-0.130,-0.030
4.450,-0.225,-0.040
4.452,-0.085,-0.050
4.454,0.060,-0.055
4.456,0.080,-0.060
4.458,0.025,-0.055
4.460,0.015,-0.045
4.462,0.150,-0.020
4.464,0.075,0.010
4.466,0.035,0.040
4.468,0.070,0.070
4.470,0.120,0.095
4.472,0.075,0.110
4.474,0.065,0.110
4.476,0.155,0.105
4.478,0.220,0.090
4.480,0.215,0.075
4.482,0.265,0.055
4.484,0.125,0.030
4.486,-0.120,0.005
4.488,-0.120,-0.035
4.490,-0.035,-0.080
4.492,-0.080,-0.145
4.494,-0.205,-0.220
4.496,-0.270,-0.305
4.498,-0.290,-0.390
4.500,-0.410,-0.470
4.502,-0.535,-0.530
4.504,-0.540,-0.565
4.506,-0.590,-0.575
4.508,-0.505,-0.555
4.510,-0.500,-0.515
4.512,-0.585,-0.465
4.514,-0.300,-0.410
4.516,-0.295,-0.360
4.518,-0.230,-0.315
4.520,-0.185,-0.285
4.522,-0.105,-0.255
4.524,-0.185,-0.230
4.526,-0.175,-0.205
4.528,-0.115,-0.170
4.530,-0.215,-0.130
4.532,-0.150,-0.085
4.534,0.025,-0.045
4.536,0.080,-0.015
4.538,0.085,0.000
4.540,0.165,0.005
4.542,0.100,0.000
4.544,0.060,-0.010
4.546,-0.030,-0.015
4.548,-0.075,-0.015
4.550,-0.120,0.000
4.552,-0.070,0.025
4.554,0.005,0.060
4.556,0.135,0.095
4.558,0.385,0.125
4.560,0.500,0.140
4.562,0.345,0.140
4.564,0.235,0.120
4.566,-0.045,0.085
4.568,-0.235,0.050
4.570,-0.240,0.010
4.572,-0.045,-0.020
4.574,0.030,-0.040
4.576,0.120,-0.040
4.578,0.200,-0.035
4.580,0.150,-0.015
4.582,0.150,0.005
4.584,0.080,0.025
4.586,-0.005,0.035
4.588,-0.045,0.045
4.590,-0.115,0.045
4.592,-0.030,0.045
4.594,0.135,0.040
4.596,0.085,0.035
4.598,0.160,0.035
4.600,0.400,0.035
4.602,0.210,0.045
4.604,-0.040,0.055
4.606,-0.070,0.060
4.608,0.055,0.070
4.610,-0.060,0.075
4.612,-0.015,0.075
4.614,0.080,0.070
4.616,0.140,0.060
4.618,0.335,0.050
4.620,0.235,0.035
4.622,0.055,0.025
4.624,0.060,0.020
4.626,-0.035,0.020
4.628,-0.065,0.025
4.630,-0.110,0.040
4.632,-0.130,0.055
4.634,0.010,0.075
4.636,0.365,0.100
4.638,0.365,0.120
4.640,0.350,0.135
4.642,0.295,0.150
4.644,0.135,0.160
4.646,0.020,0.165
4.648,-0.055,0.165
4.650,-0.060,0.170
4.652,0.175,0.170
4.654,0.245,0.170
4.656,0.355,0.175
4.658,0.425,0.175
4.660,0.380,0.175
4.662,0.205,0.175
4.664,0.110,0.175
4.666,0.070,0.170
4.668,-0.025,0.165
4.670,0.005,0.165
4.672,0.235,0.160
4.674,0.375,0.165
4.676,0.355,0.170
4.678,0.270,0.180
4.680,0.255,0.190
4.682,0.250,0.205
4.684,0.125,0.210
4.686,0.180,0.215
4.688,0.180,0.210
4.690,0.120,0.205
4.692,0.185,0.190
4.694,0.315,0.180
4.696,0.340,0.165
4.698,0.200,0.160
4.700,0.155,0.155
4.702,0.170,0.160
4.704,0.110,0.170
4.706,0.150,0.180
4.708,0.290,0.200
4.710,0.235,0.215
4.712,0.100,0.230
4.714,0.315,0.235
4.716,0.320,0.240
4.718,0.210,0.240
4.720,0.285,0.235
4.722,0.365,0.220
4.724,0.305,0.210
4.726,0.155,0.190
4.728,0.020,0.175
4.730,0.025,0.160
4.732,0.085,0.150
4.734,0.195,0.140
4.736,0.290,0.135
4.738,0.295,0.135
4.740,0.225,0.140
4.742,0.155,0.140
4.744,0.045,0.130
4.746,0.085,0.115
4.748,-0.015,0.090
4.750,-0.070,0.055
4.752,-0.010,0.015
4.754,0.110,-0.030
4.756,-0.040,-0.070
4.758,0.055,-0.095
4.760,-0.065,-0.110
4.762,-0.120,-0.110
4.764,-0.075,-0.090
4.766,-0.020,-0.060
4.768,-0.090,-0.025
4.770,-0.210,0.005
4.772,0.005,0.030
4.774,0.045,0.040
4.776,0.105,0.040
4.778,0.195,0.025
4.780,0.155,0.005
4.782,0.020,-0.015
4.784,-0.050,-0.035
4.786,-0.130,-0.045
4.788,-0.195,-0.050
4.790,-0.165,-0.040
4.792,0.005,-0.025
4.794,-0.040,-0.010
4.796,-0.010,0.000
4.798,0.175,0.005
4.800,0.265,0.000
4.802,0.115,-0.010
4.804,-0.055,-0.025
4.806,-0.265,-0.040
4.808,-0.250,-0.050
4.810,-0.145,-0.060
4.812,-0.080,-0.055
4.814,0.020,-0.050
4.816,0.065,-0.035
4.818,0.165,-0.020
4.820,0.100,-0.015
4.822,0.005,-0.010
4.824,-0.070,-0.015
4.826,-0.145,-0.030
4.828,-0.115,-0.045
4.830,-0.185,-0.065
4.832,-0.190,-0.080
4.834,-0.070,-0.090
4.836,-0.030,-0.095
4.838,0.105,-0.085
4.840,0.110,-0.070
4.842,-0.040,-0.050
4.844,-0.065,-0.030
4.846,-0.020,-0.010
4.848,-0.145,0.005
4.850,-0.175,0.010
4.852,-0.050,0.010
4.854,0.000,0.005
4.856,0.070,-0.005
4.858,0.190,-0.020
4.860,0.085,-0.030
4.862,0.040,-0.045
4.864,-0.090,-0.055
4.866,-0.160,-0.060
4.868,-0.290,-0.065
4.870,-0.180,-0.070
4.872,-0.080,-0.075
4.874,0.000,-0.080
4.876,-0.070,-0.080
4.878,0.110,-0.085
4.880,-0.060,-0.085
4.882,-0.070,-0.085
4.884,-0.010,-0.080
4.886,-0.075,-0.080
4.888,-0.385,-0.075
4.890,-0.235,-0.070
4.892,-0.040,-0.065
4.894,0.010,-0.060
4.896,-0.030,-0.050
4.898,0.160,-0.045
4.900,0.055,-0.030
4.902,-0.075,-0.020
4.904,-0.110,0.000
4.906,0.005,0.015
4.908,0.015,0.035
4.910,-0.090,0.045
4.912,-0.065,0.055
4.914,0.085,0.055
4.916,0.115,0.045
4.918,0.285,0.030
4.920,0.110,0.010
4.922,-0.100,-0.010
4.924,-0.170,-0.035
4.926,-0.105,-0.055
4.928,-0.295,-0.075
4.930,-0.150,-0.095
4.932,-0.045,-0.110
4.934,-0.080,-0.120
4.936,-0.110,-0.120
4.938,0.040,-0.120
4.940,0.020,-0.115
4.942,-0.140,-0.100
4.944,-0.250,-0.080
4.946,-0.305,-0.055
4.948,-0.130,-0.035
4.950,0.025,-0.015
4.952,0.040,-0.005
4.954,0.060,-0.005
4.956,-0.010,-0.015
4.958,0.025,-0.030
4.960,0.015,-0.050
4.962,-0.040,-0.065
4.964,-0.190,-0.075
4.966,-0.130,-0.075
4.968,-0.140,-0.065
4.970,-0.165,-0.050
4.972,-0.270,-0.035
4.974,-0.150,-0.025
4.976,0.200,-0.025
4.978,0.370,-0.035
4.980,0.155,-0.060
4.982,-0.260,-0.090
4.984,-0.275,-0.120
4.986,-0.310,-0.155
4.988,-0.290,-0.175
4.990,-0.320,-0.185
4.992,-0.260,-0.185
4.994,-0.080,-0.170
4.996,0.020,-0.150
4.998,0.020,-0.125
5.000,-0.065,-0.105
5.002,-0.105,-0.095
5.004,-0.135,-0.085
5.006,-0.245,-0.090
5.008,-0.355,-0.100
5.010,-0.235,-0.110
5.012,-0.045,-0.120
5.014,-0.055,-0.125
5.016,-0.045,-0.125
5.018,-0.055,-0.120
5.020,-0.055,-0.110
5.022,-0.090,-0.095
5.024,-0.160,-0.080
5.026,-0.200,-0.070
5.028,-0.205,-0.065
5.030,-0.155,-0.065
5.032,-0.100,-0.075
5.034,0.000,-0.085
5.036,-0.025,-0.100
5.038,0.055,-0.110
5.040,0.020,-0.110
5.042,-0.295,-0.110
5.044,-0.230,-0.100
5.046,-0.200,-0.085
5.048,-0.245,-0.070
5.050,-0.100,-0.060
5.052,0.025,-0.055
5.054,0.070,-0.065
5.056,0.045,-0.080
5.058,-0.225,-0.105
5.060,-0.135,-0.135
5.062,-0.240,-0.155
5.064,-0.265,-0.165
5.066,-0.240,-0.165
5.068,-0.205,-0.145
5.070,-0.125,-0.120
5.072,-0.075,-0.085
5.074,-0.070,-0.055
5.076,0.075,-0.025
5.078,0.105,-0.010
5.080,-0.010,-0.010
5.082,-0.110,-0.020
5.084,-0.140,-0.040
5.086,-0.225,-0.055
5.088,-0.225,-0.075
5.090,-0.220,-0.080
5.092,-0.070,-0.080
5.094,0.115,-0.070
5.096,0.030,-0.050
5.098,0.060,-0.025
5.100,-0.050,-0.005
5.102,-0.095,0.010
5.104,-0.095,0.020
5.106,-0.005,0.015
5.108,-0.125,0.005
5.110,-0.120,-0.010
5.112,-0.040,-0.030
5.114,0.055,-0.055
5.116,0.025,-0.070
5.118,-0.070,-0.085
5.120,-0.140,-0.090
5.122,-0.185,-0.085
5.124,-0.170,-0.080
5.126,-0.170,-0.070
5.128,-0.270,-0.060
5.130,-0.120,-0.055
5.132,0.065,-0.050
5.134,0.010,-0.050
5.136,-0.020,-0.060
5.138,0.125,-0.070
5.140,-0.150,-0.085
5.142,-0.335,-0.100
5.144,-0.280,-0.115
5.146,-0.305,-0.125
5.148,-0.230,-0.130
5.150,-0.090,-0.135
5.152,0.035,-0.130
5.154,-0.050,-0.130
5.156,-0.050,-0.125
5.158,-0.110,-0.115
5.160,-0.275,-0.105
5.162,-0.340,-0.095
5.164,-0.150,-0.085
5.166,-0.060,-0.070
5.168,-0.080,-0.055
5.170,-0.135,-0.045
5.172,-0.040,-0.035
5.174,-0.030,-0.025
5.176,0.120,-0.025
5.178,0.095,-0.025
5.180,-0.045,-0.025
5.182,-0.350,-0.025
5.184,-0.210,-0.015
5.186,0.085,-0.005
5.188,-0.130,0.010
5.190,-0.055,0.025
5.192,0.130,0.045
5.194,0.075,0.055
5.196,0.215,0.060
5.198,0.185,0.050
5.200,-0.060,0.035
5.202,-0.190,0.000
5.204,-0.170,-0.040
5.206,-0.300,-0.085
5.208,-0.205,-0.135
5.210,-0.175,-0.190
5.212,-0.160,-0.240
5.214,-0.260,-0.295
5.216,-0.370,-0.345
5.218,-0.365,-0.400
5.220,-0.505,-0.450
5.222,-0.595,-0.495
5.224,-0.745,-0.530
5.226,-0.800,-0.555
5.228,-0.655,-0.560
5.230,-0.550,-0.550
5.232,-0.380,-0.515
5.234,-0.440,-0.470
5.236,-0.320,-0.405
5.238,-0.295,-0.340
5.240,-0.340,-0.275
5.242,-0.345,-0.215
5.244,-0.255,-0.165
5.246,-0.285,-0.125
5.248,-0.145,-0.100
5.250,-0.105,-0.085
5.252,-0.045,-0.075
5.254,-0.030,-0.070
5.256,-0.005,-0.065
5.258,0.025,-0.055
5.260,-0.135,-0.050
5.262,-0.180,-0.040
5.264,-0.175,-0.030
5.266,-0.110,-0.015
5.268,-0.005,-0.005
5.270,0.065,0.005
5.272,-0.015,0.015
5.274,0.090,0.025
5.276,0.005,0.030
5.278,-0.130,0.030
5.280,0.060,0.020
5.282,-0.010,0.010
5.284,-0.120,0.000
5.286,-0.180,-0.015
5.288,-0.195,-0.025
5.290,-0.135,-0.035
5.292,-0.125,-0.035
5.294,0.135,-0.025
5.296,0.100,-0.010
5.298,0.065,0.005
5.300,-0.065,0.025
5.302,-0.145,0.040
5.304,-0.190,0.050
5.306,-0.030,0.060
5.308,0.040,0.060
5.310,0.055,0.060
5.312,0.085,0.055
5.314,0.110,0.050
5.316,0.015,0.050
5.318,0.050,0.050
5.320,0.050,0.050
5.322,-0.040,0.055
5.324,-0.085,0.060
5.326,-0.110,0.065
5.328,-0.085,0.070
5.330,0.070,0.080
5.332,0.070,0.090
5.334,0.045,0.100
5.336,0.260,0.110
5.338,0.240,0.120
5.340,0.070,0.125
5.342,-0.010,0.130
5.344,0.020,0.130
5.346,-0.070,0.125
5.348,-0.070,0.120
5.350,0.105,0.110
5.352,0.200,0.100
5.354,0.105,0.095
5.356,0.100,0.095
5.358,0.050,0.100
5.360,0.190,0.110
5.362,0.175,0.120
5.364,-0.190,0.135
5.366,-0.070,0.145
5.368,0.050,0.155
5.370,0.235,0.160
5.372,0.260,0.165
5.374,0.190,0.165
5.376,0.185,0.170
5.378,0.195,0.175
5.380,0.055,0.180
5.382,0.165,0.190
5.384,0.050,0.200
5.386,0.020,0.205
5.388,0.055,0.210
5.390,0.170,0.215
5.392,0.260,0.210
5.394,0.360,0.205
5.396,0.275,0.200
5.398,0.220,0.195
5.400,0.080,0.195
5.402,0.055,0.200
5.404,0.035,0.210
5.406,0.065,0.225
5.408,0.145,0.245
5.410,0.340,0.265
5.412,0.330,0.280
5.414,0.430,0.295
5.416,0.325,0.300
5.418,0.315,0.300
5.420,0.255,0.290
5.422,0.140,0.280
5.424,-0.005,0.265
5.426,0.055,0.255
5.428,0.195,0.245
5.430,0.335,0.240
5.432,0.325,0.235
5.434,0.320,0.235
5.436,0.240,0.240
5.438,0.230,0.240
5.440,0.135,0.235
5.442,0.020,0.230
5.444,-0.065,0.225
5.446,0.105,0.220
5.448,0.215,0.215
5.450,0.355,0.210
5.452,0.285,0.205
5.454,0.275,0.200
5.456,0.270,0.195
5.458,0.120,0.185
5.460,-0.090,0.170
5.462,0.025,0.145
5.464,-0.085,0.120
5.466,-0.035,0.090
5.468,0.080,0.065
5.470,0.090,0.050
5.472,0.050,0.040
5.474,0.145,0.045
5.476,0.125,0.055
5.478,0.020,0.065
5.480,-0.105,0.075
5.482,-0.045,0.080
5.484,-0.050,0.075
5.486,-0.060,0.065
5.488,-0.055,0.050
5.490,0.030,0.030
5.492,0.135,0.020
5.494,0.100,0.015
5.496,0.065,0.025
5.498,0.025,0.040
5.500,-0.055,0.055
5.502,-0.040,0.065
5.504,-0.075,0.070
5.506,-0.095,0.065
5.508,-0.015,0.045
5.510,0.105,0.015
5.512,0.035,-0.010
5.514,0.080,-0.035
5.516,0.015,-0.045
5.518,-0.130,-0.040
5.520,-0.315,-0.025
5.522,-0.300,0.000
5.524,0.085,0.030
5.526,0.235,0.055
5.528,0.025,0.065
5.530,-0.105,0.065
5.532,-0.060,0.055
5.534,0.240,0.035
5.536,0.130,0.015
5.538,-0.040,-0.005
5.540,-0.240,-0.020
5.542,-0.185,-0.025
5.544,-0.205,-0.020
5.546,-0.145,-0.005
5.548,-0.005,0.010
5.550,0.130,0.025
5.552,0.135,0.040
5.554,0.080,0.050
5.556,0.110,0.050
5.558,0.120,0.050
5.560,-0.095,0.045
5.562,-0.210,0.040
5.564,-0.160,0.035
5.566,-0.085,0.025
5.568,0.025,0.015
5.570,0.075,0.010
5.572,0.090,0.000
5.574,0.225,-0.005
5.576,0.015,-0.005
5.578,-0.195,-0.005
5.580,-0.205,0.000
5.582,-0.160,0.010
5.584,-0.065,0.020
5.586,-0.040,0.035
5.588,0.065,0.045
5.590,0.135,0.050
5.592,0.080,0.045
5.594,0.145,0.035
5.596,0.210,0.015
5.598,-0.135,-0.005
5.600,-0.275,-0.030
5.602,-0.310,-0.045
5.604,-0.200,-0.055
5.606,-0.120,-0.050
5.608,0.075,-0.035
5.610,0.075,-0.015
5.612,0.150,0.015
5.614,0.165,0.045
5.616,0.035,0.070
5.618,-0.200,0.085
5.620,-0.005,0.085
5.622,0.110,0.080
5.624,-0.090,0.070
5.626,-0.080,0.055
5.628,0.065,0.045
5.630,0.095,0.035
5.632,0.095,0.040
5.634,0.165,0.045
5.636,0.050,0.060
5.638,-0.100,0.070
5.640,-0.065,0.080
5.642,0.050,0.085
5.644,0.005,0.075
5.646,-0.055,0.060
5.648,0.005,0.040
5.650,0.060,0.020
5.652,0.025,0.005
5.654,0.080,-0.005
5.656,0.005,-0.005
5.658,-0.020,0.000
5.660,-0.090,0.015
5.662,-0.185,0.025
5.664,-0.170,0.040
5.666,-0.020,0.045
5.668,0.145,0.040
5.670,0.220,0.035
5.672,0.115,0.020
5.674,0.005,0.010
5.676,0.020,0.000
5.678,-0.115,0.000
5.680,-0.220,0.000
5.682,-0.205,0.010
5.684,-0.010,0.020
5.686,0.130,0.035
5.688,0.085,0.045
5.690,0.090,0.050
5.692,0.080,0.050
5.694,0.110,0.045
5.696,0.050,0.040
5.698,-0.055,0.035
5.700,-0.130,0.030
5.702,-0.080,0.030
5.704,-0.050,0.035
5.706,-0.060,0.040
5.708,0.015,0.050
5.710,0.135,0.055
5.712,0.225,0.060
5.714,0.200,0.055
5.716,0.055,0.040
5.718,-0.165,0.025
5.720,-0.155,0.005
5.722,-0.165,-0.015
5.724,-0.050,-0.030
5.726,-0.050,-0.040
5.728,-0.035,-0.040
5.730,0.020,-0.030
5.732,0.055,-0.015
5.734,0.100,0.005
5.736,0.070,0.025
5.738,-0.035,0.045
5.740,0.015,0.055
5.742,-0.120,0.055
5.744,-0.070,0.050
5.746,0.060,0.040
5.748,0.010,0.030
5.750,0.065,0.020
5.752,0.065,0.010
5.754,0.055,0.010
5.756,0.075,0.015
5.758,-0.045,0.025
5.760,-0.025,0.035
5.762,0.005,0.050
5.764,-0.125,0.065
5.766,-0.025,0.075
5.768,0.165,0.080
5.770,0.235,0.075
5.772,0.170,0.070
5.774,0.085,0.065
5.776,0.055,0.055
5.778,-0.005,0.050
5.780,-0.050,0.045
5.782,-0.110,0.040
5.784,-0.060,0.040
5.786,0.040,0.040
5.788,0.020,0.040
5.790,0.095,0.040
5.792,0.270,0.035
5.794,0.155,0.025
5.796,-0.035,0.015
5.798,-0.115,0.010
5.800,-0.125,0.005
5.802,-0.110,0.010
5.804,-0.060,0.020
5.806,0.000,0.035
5.808,0.070,0.055
5.810,0.140,0.080
5.812,0.380,0.100
5.814,0.220,0.115
5.816,0.065,0.120
5.818,-0.050,0.115
5.820,-0.045,0.100
5.822,-0.045,0.080
5.824,-0.025,0.055
5.826,0.065,0.035
5.828,0.055,0.015
5.830,-0.010,0.005
5.832,0.145,0.005
5.834,0.210,0.010
5.836,0.050,0.015
5.838,-0.170,0.020
5.840,-0.110,0.020
5.842,-0.180,0.010
5.844,-0.045,-0.005
5.846,0.100,-0.025
5.848,-0.025,-0.040
5.850,-0.050,-0.060
5.852,0.060,-0.065
5.854,0.090,-0.065
5.856,-0.055,-0.055
5.858,-0.165,-0.040
5.860,-0.180,-0.025
5.862,-0.120,-0.010
5.864,-0.090,0.000
5.866,-0.015,0.005
5.868,0.080,-0.005
5.870,0.170,-0.020
5.872,0.105,-0.040
5.874,0.110,-0.060
5.876,-0.190,-0.085
5.878,-0.290,-0.100
5.880,-0.215,-0.110
5.882,-0.185,-0.115
5.884,-0.035,-0.115
5.886,-0.205,-0.110
5.888,-0.020,-0.100
5.890,0.020,-0.085
5.892,0.050,-0.070
5.894,-0.025,-0.055
5.896,-0.065,-0.040
5.898,-0.060,-0.025
5.900,-0.070,-0.010
5.902,-0.095,0.005
5.904,-0.060,0.015
5.906,-0.005,0.030
5.908,0.070,0.040
5.910,0.195,0.055
5.912,0.185,0.065
5.914,0.120,0.070
5.916,0.060,0.065
5.918,0.055,0.055
5.920,0.035,0.025
5.922,-0.080,-0.015
5.924,-0.185,-0.080
5.926,-0.220,-0.155
5.928,-0.185,-0.245
5.930,-0.365,-0.340
5.932,-0.340,-0.435
5.934,-0.375,-0.515
5.936,-0.515,-0.575
5.938,-0.730,-0.610
5.940,-0.835,-0.625
5.942,-0.685,-0.615
5.944,-0.595,-0.595
5.946,-0.610,-0.560
5.948,-0.630,-0.520
5.950,-0.330,-0.480
5.952,-0.090,-0.450
5.954,-0.320,-0.420
5.956,-0.480,-0.395
5.958,-0.475,-0.375
5.960,-0.490,-0.350
5.962,-0.375,-0.320
5.964,-0.325,-0.290
5.966,-0.210,-0.255
5.968,0.000,-0.220
5.970,-0.050,-0.190
5.972,-0.100,-0.165
5.974,-0.150,-0.145
5.976,-0.110,-0.135
5.978,-0.215,-0.125
5.980,-0.300,-0.125
5.982,-0.110,-0.125
5.984,-0.140,-0.125
5.986,-0.150,-0.125
5.988,-0.020,-0.120
5.990,0.025,-0.115
5.992,-0.005,-0.100
5.994,-0.025,-0.090
5.996,-0.115,-0.070
5.998,0.000,-0.055
6.000,-0.160,-0.035
6.002,-0.120,-0.015
6.004,-0.100,0.000
6.006,0.030,0.015
6.008,0.190,0.025
6.010,0.215,0.030
6.012,0.140,0.025
6.014,0.115,0.015
6.016,-0.005,0.000
6.018,-0.150,-0.015
6.020,-0.155,-0.030
6.022,-0.185,-0.040
6.024,-0.055,-0.045
6.026,0.055,-0.040
6.028,0.080,-0.035
6.030,0.180,-0.020
6.032,0.120,-0.005
6.034,0.055,0.010
6.036,-0.005,0.020
6.038,0.045,0.035
6.040,-0.125,0.040
6.042,-0.085,0.045
6.044,0.130,0.050
6.046,0.140,0.045
6.048,0.125,0.040
6.050,0.160,0.035
6.052,0.110,0.025
6.054,0.080,0.015
6.056,-0.030,0.005
6.058,-0.025,-0.005
6.060,-0.115,-0.010
6.062,-0.075,-0.005
6.064,0.060,0.000
6.066,0.105,0.015
6.068,-0.015,0.035
6.070,0.130,0.060
6.072,0.290,0.085
6.074,0.230,0.115
6.076,0.195,0.135
6.078,0.080,0.155
6.080,0.095,0.165
6.082,0.085,0.175
6.084,0.080,0.175
6.086,0.245,0.170
6.088,0.285,0.160
6.090,0.225,0.150
6.092,0.325,0.140
6.094,0.275,0.125
6.096,0.085,0.120
6.098,-0.005,0.115
6.100,-0.125,0.115
6.102,0.105,0.120
6.104,0.210,0.125
6.106,0.205,0.135
6.108,0.170,0.145
6.110,0.330,0.150
6.112,0.430,0.160
6.114,0.245,0.165
6.116,0.060,0.170
6.118,0.020,0.175
6.120,0.135,0.190
6.122,0.200,0.200
6.124,0.290,0.215
6.126,0.370,0.230
6.128,0.375,0.245
6.130,0.400,0.250
6.132,0.380,0.245
6.134,0.250,0.230
6.136,0.230,0.205
6.138,0.190,0.175
6.140,-0.020,0.150
6.142,0.010,0.130
6.144,0.160,0.125
6.146,0.300,0.135
6.148,0.255,0.160
6.150,0.245,0.195
6.152,0.445,0.240
6.154,0.335,0.280
6.156,0.320,0.305
6.158,0.295,0.320
6.160,0.215,0.315
6.162,0.225,0.285
6.164,0.285,0.240
6.166,0.330,0.185
6.168,0.200,0.130
6.170,0.190,0.075
6.172,0.065,0.035
6.174,-0.010,0.005
6.176,-0.045,-0.010
6.178,0.005,-0.005
6.180,0.040,0.005
6.182,0.020,0.020
6.184,0.065,0.040
6.186,0.185,0.050
6.188,0.225,0.060
6.190,0.160,0.055
6.192,0.135,0.050
6.194,0.125,0.035
6.196,-0.010,0.020
6.198,-0.055,0.010
6.200,-0.155,0.000
6.202,-0.035,-0.005
6.204,0.110,-0.005
6.206,0.185,0.000
6.208,0.240,0.005
6.210,0.225,0.015
6.212,0.075,0.020
6.214,-0.085,0.020
6.216,-0.190,0.020
6.218,-0.055,0.010
6.220,0.095,0.000
6.222,0.075,-0.010
6.224,0.040,-0.015
6.226,0.115,-0.015
6.228,0.185,-0.010
6.230,0.175,0.005
6.232,0.065,0.015
6.234,-0.015,0.030
6.236,0.000,0.035
6.238,0.090,0.035
6.240,0.070,0.025
6.242,-0.090,0.005
6.244,0.015,-0.020
6.246,0.130,-0.045
6.248,0.180,-0.065
6.250,0.080,-0.080
6.252,-0.025,-0.085
6.254,-0.160,-0.085
6.256,-0.105,-0.080
6.258,-0.120,-0.080
6.260,-0.110,-0.075
6.262,-0.085,-0.075
6.264,-0.040,-0.075
6.266,0.025,-0.075
6.268,0.185,-0.075
6.270,0.090,-0.060
6.272,0.050,-0.045
6.274,-0.020,-0.020
6.276,0.010,0.010
6.278,-0.035,0.040
6.280,0.070,0.060
6.282,0.120,0.070
6.284,0.145,0.065
6.286,0.180,0.050
6.288,0.190,0.030
6.290,0.135,0.010
6.292,0.100,-0.010
6.294,-0.145,-0.020
6.296,-0.055,-0.020
6.298,0.085,-0.010
6.300,0.010,0.000
6.302,0.075,0.010
6.304,0.070,0.015
6.306,0.110,0.005
6.308,0.110,-0.005
6.310,0.225,-0.025
6.312,0.070,-0.045
6.314,-0.135,-0.060
6.316,-0.160,-0.065
6.318,-0.005,-0.060
6.320,-0.090,-0.045
6.322,-0.070,-0.025
6.324,0.100,-0.010
6.326,0.265,0.000
6.328,0.220,0.000
6.330,0.125,-0.015
6.332,0.075,-0.035
6.334,-0.095,-0.060
6.336,-0.235,-0.085
6.338,-0.245,-0.100
6.340,-0.130,-0.105
6.342,0.090,-0.095
6.344,0.065,-0.075
6.346,0.090,-0.050
6.348,0.145,-0.025
6.350,0.175,0.000
6.352,0.125,0.020
6.354,0.085,0.035
6.356,0.070,0.040
6.358,-0.060,0.040
6.360,-0.085,0.035
6.362,0.110,0.030
6.364,0.270,0.025
6.366,0.160,0.020
6.368,0.130,0.015
6.370,0.080,0.015
6.372,0.155,0.015
6.374,-0.055,0.015
6.376,0.065,0.020
6.378,0.015,0.020
6.380,0.055,0.020
6.382,0.060,0.020
6.384,0.090,0.015
6.386,0.070,0.005
6.388,0.240,-0.005
6.390,0.090,-0.020
6.392,0.055,-0.035
6.394,-0.100,-0.045
6.396,-0.025,-0.055
6.398,-0.110,-0.055
6.400,0.005,-0.050
6.402,0.020,-0.040
6.404,0.040,-0.030
6.406,0.090,-0.025
6.408,0.255,-0.030
6.410,0.135,-0.035
6.412,-0.095,-0.050
6.414,-0.085,-0.060
6.416,0.040,-0.075
6.418,-0.085,-0.080
6.420,-0.040,-0.080
6.422,-0.080,-0.070
6.424,0.055,-0.055
6.426,0.130,-0.035
6.428,0.125,-0.015
6.430,0.185,-0.005
6.432,0.100,0.000
6.434,0.010,0.000
6.436,0.005,-0.010
6.438,-0.095,-0.020
6.440,-0.005,-0.030
6.442,0.075,-0.030
6.444,0.080,-0.030
6.446,0.215,-0.020
6.448,0.065,-0.010
6.450,0.050,0.000
6.452,0.195,0.010
6.454,0.105,0.015
6.456,0.090,0.015
6.458,-0.010,0.010
6.460,-0.090,0.000
6.462,-0.030,-0.005
6.464,0.140,-0.015
6.466,0.155,-0.025
6.468,0.185,-0.025
6.470,0.120,-0.030
6.472,0.125,-0.030
6.474,0.010,-0.030
6.476,0.000,-0.030
6.478,-0.125,-0.030
6.480,-0.155,-0.030
6.482,0.005,-0.030
6.484,0.160,-0.035
6.486,0.200,-0.040
6.488,0.175,-0.045
6.490,0.120,-0.050
6.492,-0.025,-0.060
6.494,-0.145,-0.060
6.496,-0.085,-0.065
6.498,-0.165,-0.060
6.500,-0.070,-0.055
6.502,0.090,-0.045
6.504,0.300,-0.035
6.506,0.260,-0.025
6.508,0.040,-0.010
6.510,0.100,0.000
6.512,0.110,0.005
6.514,-0.015,0.010
6.516,-0.075,0.010
6.518,-0.070,0.010
6.520,0.045,0.010
6.522,0.175,0.010
6.524,0.230,0.015
6.526,0.190,0.020
6.528,0.180,0.025
6.530,0.220,0.030
6.532,0.150,0.030
6.534,0.025,0.025
6.536,-0.055,0.010
6.538,-0.045,-0.005
6.540,-0.135,-0.020
6.542,0.105,-0.040
6.544,0.185,-0.050
6.546,0.170,-0.060
6.548,0.140,-0.055
6.550,0.035,-0.045
6.552,-0.080,-0.025
6.554,-0.065,-0.005
6.556,0.035,0.015
6.558,0.130,0.035
6.560,0.160,0.045
6.562,0.125,0.050
6.564,0.120,0.045
6.566,0.255,0.035
6.568,0.295,0.020
6.570,0.080,0.010
6.572,-0.020,-0.005
6.574,0.055,-0.010
6.576,-0.050,-0.015
6.578,-0.090,-0.020
6.580,-0.060,-0.025
6.582,0.185,-0.035
6.584,0.110,-0.040
6.586,0.120,-0.050
6.588,0.065,-0.060
6.590,0.100,-0.070
6.592,0.100,-0.075
6.594,-0.095,-0.070
6.596,-0.180,-0.065
6.598,-0.080,-0.060
6.600,-0.095,-0.050
6.602,0.110,-0.045
6.604,0.220,-0.045
6.606,0.240,-0.055
6.608,0.065,-0.065
6.610,0.025,-0.080
6.612,-0.020,-0.090
6.614,0.005,-0.100
6.616,-0.235,-0.105
6.618,-0.150,-0.095
6.620,-0.085,-0.085
6.622,0.115,-0.070
6.624,0.240,-0.050
6.626,0.240,-0.035
6.628,0.165,-0.030
6.630,0.095,-0.025
6.632,-0.110,-0.025
6.634,-0.075,-0.030
6.636,-0.105,-0.035
6.638,-0.055,-0.030
6.640,0.140,-0.020
6.642,0.255,-0.005
6.644,0.260,0.015
6.646,0.190,0.045
6.648,0.140,0.070
6.650,0.165,0.090
6.652,0.265,0.100
6.654,0.075,0.095
6.656,0.060,0.075
6.658,0.100,0.030
6.660,-0.040,-0.025
6.662,0.015,-0.105
6.664,-0.080,-0.195
6.666,-0.015,-0.290
6.668,-0.175,-0.385
6.670,-0.415,-0.465
6.672,-0.540,-0.530
6.674,-0.580,-0.570
6.676,-0.585,-0.575
6.678,-0.545,-0.560
6.680,-0.490,-0.515
6.682,-0.420,-0.460
6.684,-0.235,-0.395
6.686,-0.100,-0.335
6.688,0.040,-0.285
6.690,-0.025,-0.245
6.692,-0.170,-0.220
6.694,-0.245,-0.195
6.696,-0.275,-0.175
6.698,-0.225,-0.145
6.700,-0.110,-0.115
6.702,0.075,-0.080
6.704,0.130,-0.040
6.706,0.385,-0.010
6.708,0.235,0.015
6.710,0.210,0.025
6.712,0.130,0.020
6.714,0.060,0.000
6.716,-0.110,-0.020
6.718,-0.275,-0.035
6.720,-0.055,-0.045
6.722,0.080,-0.040
6.724,0.290,-0.025
6.726,0.405,0.000
6.728,0.310,0.025
6.730,0.090,0.045
6.732,0.065,0.055
6.734,0.035,0.055
6.736,-0.040,0.050
6.738,-0.015,0.040
6.740,0.115,0.025
6.742,0.190,0.020
6.744,0.215,0.025
6.746,0.145,0.035
6.748,0.285,0.045
6.750,0.195,0.055
6.752,0.190,0.060
6.754,0.100,0.055
6.756,-0.075,0.045
6.758,-0.070,0.030
6.760,0.065,0.015
6.762,0.240,0.010
6.764,0.210,0.020
6.766,0.130,0.035
6.768,0.220,0.060
6.770,0.305,0.080
6.772,0.335,0.095
6.774,0.175,0.100
6.776,-0.025,0.085
6.778,-0.085,0.060
6.780,-0.005,0.030
6.782,0.130,0.000
6.784,0.305,-0.020
6.786,0.245,-0.025
6.788,0.200,-0.015
6.790,0.120,0.015
6.792,-0.020,0.045
6.794,0.110,0.080
6.796,0.070,0.100
6.798,0.130,0.110
6.800,0.365,0.105
6.802,0.225,0.090
6.804,0.160,0.070
6.806,0.270,0.050
6.808,0.265,0.045
6.810,0.090,0.050
6.812,0.145,0.065
6.814,0.115,0.090
6.816,0.135,0.120
6.818,0.145,0.140
6.820,0.250,0.155
6.822,0.355,0.165
6.824,0.400,0.160
6.826,0.325,0.155
6.828,0.260,0.145
6.830,0.195,0.145
6.832,0.245,0.150
6.834,0.220,0.160
6.836,0.150,0.175
6.838,0.185,0.195
6.840,0.295,0.205
6.842,0.390,0.215
6.844,0.485,0.220
6.846,0.535,0.215
6.848,0.345,0.205
6.850,0.220,0.195
6.852,0.230,0.185
6.854,0.150,0.180
6.856,0.060,0.180
6.858,0.200,0.185
6.860,0.335,0.200
6.862,0.485,0.215
6.864,0.480,0.230
6.866,0.435,0.245
6.868,0.455,0.260
6.870,0.415,0.265
6.872,0.255,0.265
6.874,0.155,0.255
6.876,0.200,0.240
6.878,0.270,0.220
6.880,0.340,0.195
6.882,0.360,0.175
6.884,0.375,0.155
6.886,0.405,0.145
6.888,0.250,0.145
6.890,0.195,0.150
6.892,0.195,0.160
6.894,0.235,0.175
6.896,0.180,0.190
6.898,0.200,0.200
6.900,0.300,0.205
6.902,0.390,0.210
6.904,0.395,0.205
6.906,0.400,0.195
6.908,0.345,0.185
6.910,0.185,0.170
6.912,0.220,0.155
6.914,0.270,0.140
6.916,0.055,0.120
6.918,0.065,0.095
6.920,0.185,0.065
6.922,0.230,0.035
6.924,0.160,0.005
6.926,0.230,-0.025
6.928,0.195,-0.040
6.930,-0.005,-0.050
6.932,-0.015,-0.045
6.934,-0.085,-0.035
6.936,-0.080,-0.015
6.938,0.010,0.000
6.940,0.240,0.015
6.942,0.285,0.025
6.944,0.285,0.025
6.946,0.275,0.020
6.948,0.095,0.010
6.950,-0.045,0.000
6.952,-0.060,-0.005
6.954,-0.065,-0.010
6.956,0.155,-0.005
6.958,0.155,0.000
6.960,0.235,0.005
6.962,0.130,0.005
6.964,0.100,0.000
6.966,0.160,-0.010
6.968,0.155,-0.025
6.970,0.075,-0.045
6.972,-0.030,-0.060
6.974,-0.190,-0.070
6.976,-0.100,-0.075
6.978,0.030,-0.070
6.980,0.155,-0.055
6.982,0.100,-0.035
6.984,0.260,-0.015
6.986,0.385,0.000
6.988,0.150,0.010
6.990,-0.090,0.005
6.992,-0.005,-0.005
6.994,-0.125,-0.030
6.996,-0.085,-0.050
6.998,0.075,-0.075
7.000,0.055,-0.090
7.002,0.165,-0.095
7.004,0.220,-0.090
7.006,0.120,-0.070
7.008,-0.005,-0.050
7.010,-0.020,-0.025
7.012,0.055,-0.005
7.014,0.045,0.010
7.016,0.000,0.015
7.018,0.060,0.005
7.020,0.115,-0.010
7.022,0.120,-0.025
7.024,0.285,-0.045
7.026,0.160,-0.050
7.028,0.060,-0.045
7.030,-0.080,-0.030
7.032,-0.065,-0.005
7.034,0.030,0.025
7.036,0.165,0.050
7.038,0.195,0.070
7.040,0.295,0.075
7.042,0.265,0.065
7.044,0.240,0.040
7.046,0.115,0.005
7.048,0.050,-0.030
7.050,0.035,-0.055
7.052,0.050,-0.070
7.054,-0.150,-0.070
7.056,-0.070,-0.050
7.058,0.040,-0.025
7.060,0.240,0.010
7.062,0.370,0.035
7.064,0.280,0.055
7.066,0.165,0.060
7.068,0.180,0.050
7.070,0.105,0.030
7.072,-0.005,0.010
7.074,-0.115,-0.010
7.076,-0.095,-0.020
7.078,-0.085,-0.025
7.080,0.305,-0.020
7.082,0.310,-0.010
7.084,0.290,-0.005
7.086,0.160,-0.005
7.088,0.125,-0.010
7.090,-0.080,-0.025
7.092,-0.145,-0.040
7.094,-0.210,-0.055
7.096,0.005,-0.065
7.098,0.140,-0.060
7.100,0.185,-0.045
7.102,0.290,-0.020
7.104,0.265,0.005
7.106,0.110,0.035
7.108,0.025,0.055
7.110,0.130,0.065
7.112,0.165,0.060
7.114,0.105,0.045
7.116,-0.005,0.025
7.118,0.030,0.010
7.120,0.195,-0.005
7.122,0.215,-0.010
7.124,0.265,-0.005
7.126,0.155,0.005
7.128,0.125,0.020
7.130,0.075,0.030
7.132,0.030,0.035
7.134,0.005,0.030
7.136,0.025,0.020
7.138,0.120,0.005
7.140,0.195,-0.015
7.142,0.250,-0.025
7.144,0.185,-0.035
7.146,0.150,-0.035
7.148,0.085,-0.030
7.150,0.000,-0.020
7.152,-0.040,-0.015
7.154,-0.065,-0.005
7.156,0.045,-0.005
7.158,0.150,-0.010
7.160,0.235,-0.015
7.162,0.185,-0.020
7.164,0.145,-0.030
7.166,0.130,-0.030
7.168,0.055,-0.035
7.170,-0.075,-0.030
7.172,0.005,-0.025
7.174,-0.095,-0.020
7.176,0.015,-0.015
7.178,0.275,-0.010
7.180,0.195,-0.010
7.182,0.240,-0.005
7.184,0.255,0.000
7.186,0.230,0.005
7.188,-0.075,0.010
7.190,0.005,0.015
7.192,0.075,0.015
7.194,0.055,0.015
7.196,0.075,0.010
7.198,0.050,0.000
7.200,0.145,-0.010
7.202,0.320,-0.025
7.204,0.225,-0.035
7.206,0.090,-0.040
7.208,-0.005,-0.040
7.210,-0.060,-0.035
7.212,-0.195,-0.030
7.214,0.025,-0.025
7.216,0.120,-0.025
7.218,0.270,-0.020
7.220,0.200,-0.020
7.222,0.180,-0.015
7.224,0.115,-0.010
7.226,0.150,-0.005
7.228,0.030,0.010
7.230,-0.045,0.025
7.232,-0.085,0.035
7.234,0.115,0.040
7.236,0.225,0.040
7.238,0.310,0.030
7.240,0.240,0.010
7.242,0.135,-0.015
7.244,0.030,-0.045
7.246,0.045,-0.065
7.248,0.000,-0.085
7.250,0.045,-0.090
7.252,-0.170,-0.090
7.254,-0.160,-0.085
7.256,0.000,-0.070
7.258,0.155,-0.060
7.260,0.260,-0.045
7.262,0.265,-0.035
7.264,0.135,-0.025
7.266,0.075,-0.015
7.268,0.025,-0.005
7.270,-0.020,0.010
7.272,-0.035,0.020
7.274,0.115,0.030
7.276,0.200,0.040
7.278,0.260,0.040
7.280,0.235,0.040
7.282,0.250,0.030
7.284,0.190,0.025
7.286,0.085,0.015
7.288,0.030,0.015
7.290,0.040,0.015
7.292,0.010,0.020
7.294,0.010,0.030
7.296,0.125,0.035
7.298,0.340,0.040
7.300,0.320,0.040
7.302,0.260,0.030
7.304,0.085,0.020
7.306,0.045,0.005
7.308,0.060,-0.010
7.310,0.060,-0.025
7.312,-0.075,-0.030
7.314,-0.055,-0.030
7.316,0.150,-0.020
7.318,0.235,-0.015
7.320,0.205,-0.005
7.322,0.160,-0.005
7.324,0.185,-0.010
7.326,0.070,-0.025
7.328,-0.035,-0.040
7.330,-0.155,-0.060
7.332,-0.080,-0.080
7.334,0.000,-0.095
7.336,0.085,-0.105
7.338,0.165,-0.110
7.340,0.080,-0.105
7.342,0.100,-0.095
7.344,0.090,-0.080
7.346,0.015,-0.065
7.348,0.000,-0.050
7.350,0.020,-0.040
7.352,0.005,-0.030
7.354,-0.035,-0.020
7.356,0.060,-0.020
7.358,0.165,-0.015
7.360,0.235,-0.020
7.362,0.310,-0.025
7.364,0.170,-0.035
7.366,0.020,-0.045
7.368,-0.115,-0.055
7.370,-0.085,-0.065
7.372,-0.065,-0.070
7.374,-0.045,-0.070
7.376,0.025,-0.070
7.378,0.045,-0.060
7.380,0.125,-0.050
7.382,0.345,-0.040
7.384,0.300,-0.025
7.386,0.065,-0.015
7.388,-0.085,-0.005
7.390,0.005,0.005
7.392,-0.070,0.010
7.394,-0.005,0.020
7.396,0.125,0.030
7.398,0.375,0.040
7.400,0.360,0.045
7.402,0.240,0.045
7.404,0.280,0.030
7.406,0.125,0.000
7.408,-0.080,-0.040
7.410,-0.270,-0.095
7.412,-0.215,-0.160
7.414,-0.170,-0.230
7.416,-0.070,-0.305
7.418,-0.150,-0.375
7.420,-0.225,-0.435
7.422,-0.395,-0.485
7.424,-0.420,-0.525
7.426,-0.330,-0.545
7.428,-0.560,-0.550
7.430,-0.590,-0.540
7.432,-0.480,-0.520
7.434,-0.520,-0.480
7.436,-0.260,-0.430
7.438,-0.170,-0.375
7.440,-0.030,-0.315
7.442,-0.055,-0.250
7.444,-0.090,-0.195
7.446,0.035,-0.145
7.448,-0.015,-0.110
7.450,-0.120,-0.085
7.452,-0.080,-0.075
7.454,0.000,-0.070
7.456,0.085,-0.070
7.458,0.050,-0.070
7.460,0.140,-0.070
7.462,0.190,-0.060
7.464,0.180,-0.050
7.466,0.005,-0.040
7.468,0.020,-0.030
7.470,-0.035,-0.020
7.472,-0.045,-0.015
7.474,0.040,-0.010
7.476,0.170,-0.010
7.478,0.175,-0.015
7.480,0.145,-0.015
7.482,0.190,-0.010
7.484,0.150,-0.005
7.486,0.130,0.005
7.488,0.185,0.015
7.490,-0.010,0.020
7.492,-0.010,0.025
7.494,0.065,0.020
7.496,0.260,0.015
7.498,0.255,0.010
7.500,0.040,0.000
7.502,0.065,-0.005
7.504,0.175,-0.005
7.506,0.250,0.000
7.508,0.050,0.010
7.510,0.075,0.020
7.512,0.120,0.030
7.514,0.035,0.040
7.516,0.155,0.045
7.518,0.140,0.045
7.520,0.260,0.050
7.522,0.195,0.050
7.524,0.120,0.050
7.526,0.285,0.055
7.528,0.250,0.055
7.530,0.030,0.055
7.532,0.010,0.050
7.534,0.010,0.045
7.536,0.115,0.035
7.538,0.245,0.030
7.540,0.245,0.020
7.542,0.220,0.015
7.544,0.140,0.020
7.546,0.085,0.030
7.548,0.060,0.045
7.550,0.175,0.065
7.552,0.145,0.085
7.554,0.200,0.100
7.556,0.275,0.105
7.558,0.170,0.105
7.560,0.185,0.095
7.562,0.375,0.080
7.564,0.170,0.065
7.566,0.210,0.055
7.568,0.065,0.055
7.570,-0.040,0.060
7.572,0.150,0.075
7.574,0.210,0.100
7.576,0.260,0.125
7.578,0.305,0.145
7.580,0.395,0.160
7.582,0.370,0.170
7.584,0.290,0.170
7.586,0.205,0.165
7.588,0.205,0.160
7.590,0.140,0.160
7.592,0.120,0.165
7.594,0.275,0.180
7.596,0.325,0.200
7.598,0.385,0.220
7.600,0.520,0.240
7.602,0.480,0.255
7.604,0.415,0.255
7.606,0.325,0.250
7.608,0.275,0.230
7.610,0.020,0.210
7.612,0.145,0.190
7.614,0.350,0.175
7.616,0.480,0.170
7.618,0.355,0.175
7.620,0.400,0.190
7.622,0.365,0.210
7.624,0.345,0.235
7.626,0.365,0.250
7.628,0.390,0.255
7.630,0.190,0.255
7.632,0.200,0.245
7.634,0.320,0.225
7.636,0.370,0.200
7.638,0.315,0.180
7.640,0.350,0.160
7.642,0.290,0.145
7.644,0.335,0.135
7.646,0.265,0.120
7.648,0.220,0.110
7.650,0.060,0.095
7.652,0.085,0.075
7.654,0.045,0.055
7.656,0.110,0.040
7.658,0.230,0.030
7.660,0.320,0.030
7.662,0.305,0.040
7.664,0.220,0.060
7.666,-0.010,0.090
7.668,0.170,0.110
7.670,0.045,0.125
7.672,0.115,0.120
7.674,0.320,0.100
7.676,0.320,0.060
7.678,0.160,0.005
7.680,0.150,-0.055
7.682,0.005,-0.105
7.684,-0.175,-0.140
7.686,-0.135,-0.155
7.688,-0.095,-0.145
7.690,-0.025,-0.115
7.692,-0.045,-0.075
7.694,0.045,-0.025
7.696,0.195,0.010
7.698,0.230,0.035
7.700,0.330,0.040
7.702,0.265,0.030
7.704,0.115,0.000
7.706,-0.150,-0.035
7.708,-0.145,-0.070
7.710,-0.040,-0.095
7.712,-0.050,-0.105
7.714,-0.005,-0.105
7.716,0.030,-0.095
7.718,0.120,-0.070
7.720,0.210,-0.045
7.722,0.245,-0.020
7.724,0.145,-0.005
7.726,-0.040,0.010
7.728,-0.010,0.015
7.730,-0.035,0.015
7.732,-0.065,0.015
7.734,0.090,0.010
7.736,0.355,0.010
7.738,0.350,0.010
7.740,0.150,0.010
7.742,0.130,0.015
7.744,0.135,0.015
7.746,0.065,0.015
7.748,-0.010,0.015
7.750,-0.050,0.015
7.752,-0.065,0.010
7.754,0.000,0.005
7.756,0.240,0.000
7.758,0.395,-0.010
7.760,0.175,-0.015
7.762,0.175,-0.020
7.764,0.110,-0.025
7.766,0.095,-0.035
7.768,-0.155,-0.045
7.770,-0.095,-0.050
7.772,-0.160,-0.060
7.774,0.000,-0.065
7.776,0.225,-0.065
7.778,0.200,-0.065
7.780,0.200,-0.055
7.782,0.085,-0.050
7.784,0.045,-0.035
7.786,-0.095,-0.025
7.788,-0.005,-0.020
7.790,-0.005,-0.020
7.792,0.025,-0.025
7.794,0.095,-0.035
7.796,0.095,-0.045
7.798,0.180,-0.050
7.800,0.165,-0.045
7.802,0.170,-0.030
7.804,0.105,-0.005
7.806,0.040,0.025
7.808,-0.030,0.060
7.810,0.075,0.090
7.812,0.225,0.110
7.814,0.280,0.115
7.816,0.295,0.110
7.818,0.295,0.090
7.820,0.200,0.065
7.822,0.130,0.040
7.824,0.130,0.025
7.826,-0.025,0.020
7.828,-0.050,0.025
7.830,0.120,0.035
7.832,0.305,0.045
7.834,0.175,0.055
7.836,0.195,0.050
7.838,0.170,0.035
7.840,0.110,0.010
7.842,0.020,-0.020
7.844,0.080,-0.055
7.846,-0.045,-0.080
7.848,-0.075,-0.095
7.850,-0.145,-0.095
7.852,-0.080,-0.080
7.854,0.150,-0.055
7.856,0.265,-0.025
7.858,0.215,0.000
7.860,0.115,0.020
7.862,0.150,0.035
7.864,0.060,0.040
7.866,0.125,0.035
7.868,0.000,0.035
7.870,-0.015,0.030
7.872,0.025,0.020
7.874,0.220,0.015
7.876,0.235,0.010
7.878,0.240,0.005
7.880,0.195,-0.005
7.882,0.035,-0.015
7.884,-0.045,-0.025
7.886,0.045,-0.030
7.888,-0.110,-0.025
7.890,-0.030,-0.020
7.892,0.105,0.000
7.894,0.210,0.015
7.896,0.235,0.035
7.898,0.345,0.050
7.900,0.295,0.055
7.902,0.205,0.050
7.904,-0.050,0.030
7.906,-0.070,0.010
7.908,-0.130,-0.015
7.910,0.020,-0.035
7.912,0.130,-0.050
7.914,0.175,-0.055
7.916,0.065,-0.050
7.918,0.170,-0.035
7.920,0.220,-0.020
7.922,0.060,-0.005
7.924,0.055,0.005
7.926,-0.025,0.010
7.928,-0.135,0.005
7.930,0.040,0.000
7.932,0.185,-0.010
7.934,0.180,-0.020
7.936,0.115,-0.020
7.938,0.170,-0.015
7.940,0.195,-0.010
7.942,0.185,0.000
7.944,-0.010,0.010
7.946,0.010,0.015
7.948,-0.030,0.010
7.950,-0.090,0.005
7.952,0.135,-0.005
7.954,0.230,-0.015
7.956,0.210,-0.020
7.958,0.130,-0.020
7.960,0.135,-0.010
7.962,0.075,0.000
7.964,0.045,0.020
7.966,0.095,0.035
7.968,0.075,0.045
7.970,0.110,0.050
7.972,0.185,0.040
7.974,0.110,0.025
7.976,0.180,0.000
7.978,0.095,-0.025
7.980,0.050,-0.050
7.982,0.135,-0.065
7.984,0.085,-0.070
7.986,-0.100,-0.065
7.988,-0.285,-0.045
7.990,0.015,-0.020
7.992,0.150,0.005
7.994,0.270,0.035
7.996,0.340,0.055
7.998,0.265,0.065
8.000,0.210,0.070
8.002,0.105,0.065
8.004,0.000,0.055
8.006,-0.030,0.045
8.008,0.035,0.035
8.010,0.065,0.030
8.012,0.265,0.030
8.014,0.185,0.035
8.016,0.150,0.040
8.018,0.315,0.050
8.020,0.220,0.060
8.022,0.060,0.065
8.024,0.050,0.075
8.026,0.085,0.080
8.028,0.050,0.080
8.030,0.050,0.085
8.032,0.250,0.085
8.034,0.440,0.085
8.036,0.275,0.080
8.038,0.175,0.070
8.040,0.205,0.060
8.042,0.060,0.040
8.044,-0.035,0.020
8.046,-0.050,0.005
8.048,-0.015,-0.010
8.050,0.065,-0.015
8.052,0.060,-0.015
8.054,0.175,-0.005
8.056,0.255,0.010
8.058,0.210,0.030
8.060,0.220,0.045
8.062,0.080,0.050
8.064,-0.015,0.045
8.066,0.095,0.030
8.068,-0.030,0.010
8.070,-0.060,-0.010
8.072,0.055,-0.030
8.074,0.180,-0.040
8.076,0.190,-0.030
8.078,0.195,-0.010
8.080,0.175,0.020
8.082,0.220,0.055
8.084,0.115,0.085
8.086,-0.055,0.105
8.088,0.020,0.110
8.090,0.150,0.100
8.092,0.180,0.070
8.094,0.330,0.035
8.096,0.235,-0.005
8.098,0.180,-0.040
8.100,0.005,-0.065
8.102,-0.065,-0.075
8.104,-0.155,-0.070
8.106,-0.140,-0.055
8.108,-0.095,-0.035
8.110,0.140,-0.015
8.112,0.190,0.005
8.114,0.190,0.020
8.116,0.280,0.035
8.118,0.150,0.050
8.120,0.225,0.070
8.122,0.190,0.090
8.124,0.120,0.110
8.126,0.035,0.135
8.128,0.035,0.150
8.130,0.165,0.160
8.132,0.370,0.145
8.134,0.490,0.115
8.136,0.455,0.070
8.138,0.135,0.000
8.140,-0.130,-0.075
8.142,-0.280,-0.160
8.144,-0.305,-0.240
8.146,-0.345,-0.310
8.148,-0.260,-0.370
8.150,-0.295,-0.410
8.152,-0.390,-0.440
8.154,-0.350,-0.450
8.156,-0.280,-0.455
8.158,-0.255,-0.445
8.160,-0.265,-0.430
8.162,-0.295,-0.405
8.164,-0.350,-0.370
8.166,-0.370,-0.335
8.168,-0.335,-0.290
8.170,-0.165,-0.245
8.172,-0.080,-0.195
8.174,-0.080,-0.155
8.176,0.160,-0.120
8.178,0.280,-0.095
8.180,0.045,-0.075
8.182,-0.175,-0.070
8.184,-0.130,-0.070
8.186,-0.095,-0.070
8.188,-0.020,-0.065
8.190,0.010,-0.055
8.192,0.060,-0.040
8.194,0.120,-0.015
8.196,0.265,0.010
8.198,0.195,0.045
8.200,0.195,0.075
8.202,0.235,0.100
8.204,0.115,0.115
8.206,0.015,0.125
8.208,0.050,0.120
8.210,0.145,0.110
8.212,0.265,0.095
8.214,0.315,0.075
8.216,0.315,0.055
8.218,0.265,0.040
8.220,0.035,0.035
8.222,0.005,0.035
8.224,0.025,0.045
8.226,0.010,0.065
8.228,0.030,0.085
8.230,0.085,0.105
8.232,0.355,0.125
8.234,0.350,0.130
8.236,0.390,0.130
8.238,0.380,0.115
8.240,0.170,0.090
8.242,-0.110,0.060
8.244,0.025,0.025
8.246,-0.010,-0.005
8.248,-0.085,-0.025
8.250,-0.020,-0.040
8.252,0.085,-0.045
8.254,0.240,-0.045
8.256,0.190,-0.050
8.258,0.060,-0.065
8.260,-0.050,-0.090
8.262,-0.120,-0.135
8.264,-0.205,-0.200
8.266,-0.350,-0.270
8.268,-0.325,-0.345
8.270,-0.265,-0.405
8.272,-0.485,-0.445
8.274,-0.400,-0.455
8.276,-0.300,-0.435
8.278,-0.190,-0.385
8.280,-0.015,-0.315
8.282,-0.100,-0.235
8.284,-0.215,-0.165
8.286,-0.135,-0.105
8.288,-0.135,-0.075
8.290,-0.070,-0.065
8.292,0.090,-0.070
8.294,0.100,-0.090
8.296,0.230,-0.105
8.298,0.025,-0.115
8.300,-0.040,-0.110
8.302,-0.135,-0.090
8.304,-0.090,-0.055
8.306,0.025,-0.015
8.308,0.085,0.020
8.310,0.105,0.050
8.312,0.150,0.065
8.314,0.155,0.070
8.316,0.320,0.065
8.318,0.245,0.060
8.320,0.080,0.055
8.322,0.065,0.055
8.324,-0.020,0.065
8.326,0.075,0.080
8.328,0.190,0.100
8.330,0.220,0.120
8.332,0.265,0.135
8.334,0.325,0.145
8.336,0.240,0.150
8.338,0.295,0.155
8.340,0.225,0.160
8.342,0.115,0.165
8.344,0.145,0.175
8.346,0.270,0.185
8.348,0.295,0.200
8.350,0.330,0.210
8.352,0.360,0.220
8.354,0.265,0.225
8.356,0.285,0.225
8.358,0.365,0.225
8.360,0.325,0.225
8.362,0.280,0.225
8.364,0.225,0.235
8.366,0.235,0.250
8.368,0.340,0.260
8.370,0.340,0.270
8.372,0.390,0.265
8.374,0.400,0.250
8.376,0.345,0.220
8.378,0.335,0.175
8.380,0.205,0.120
8.382,0.120,0.060
8.384,-0.085,0.010
8.386,-0.130,-0.030
8.388,-0.045,-0.050
8.390,0.050,-0.050
8.392,0.140,-0.035
8.394,0.155,-0.005
8.396,0.210,0.030
8.398,0.245,0.055
8.400,0.205,0.075
8.402,0.085,0.075
8.404,-0.010,0.065
8.406,0.030,0.040
8.408,-0.015,0.010
8.410,0.090,-0.015
8.412,0.060,-0.035
8.414,0.035,-0.045
8.416,0.180,-0.040
8.418,0.170,-0.020
8.420,0.160,0.005
8.422,0.085,0.030
8.424,-0.085,0.055
8.426,-0.040,0.070
8.428,0.175,0.075
8.430,0.195,0.070
8.432,0.175,0.055
8.434,0.155,0.035
8.436,0.160,0.015
8.438,0.090,0.000
8.440,-0.010,-0.005
8.442,0.090,-0.010
8.444,-0.095,-0.005
8.446,0.045,-0.005
8.448,0.050,-0.005
8.450,0.055,-0.010
8.452,0.115,-0.025
8.454,0.075,-0.040
8.456,0.095,-0.060
8.458,0.070,-0.085
8.460,-0.070,-0.100
8.462,-0.060,-0.110
8.464,-0.080,-0.115
8.466,-0.095,-0.110
8.468,-0.035,-0.100
8.470,-0.020,-0.085
8.472,-0.095,-0.070
8.474,0.010,-0.055
8.476,0.135,-0.045
8.478,0.220,-0.040
8.480,0.180,-0.035
8.482,0.025,-0.035
8.484,-0.140,-0.030
8.486,-0.120,-0.030
8.488,-0.130,-0.020
8.490,0.075,-0.015
8.492,0.150,-0.005
8.494,0.320,0.005
8.496,0.225,0.010
8.498,0.115,0.015
8.500,0.005,0.015
8.502,0.005,0.015
8.504,0.065,0.005
8.506,0.000,0.000
8.508,-0.060,-0.005
8.510,-0.055,-0.015
8.512,0.155,-0.015
8.514,0.210,-0.020
8.516,0.125,-0.015
8.518,0.085,-0.015
8.520,0.105,-0.010
8.522,0.070,-0.010
8.524,-0.090,-0.015
8.526,-0.125,-0.015
8.528,0.030,-0.025
8.530,0.095,-0.030
8.532,0.200,-0.035
8.534,0.085,-0.040
8.536,0.085,-0.040
8.538,0.010,-0.040
8.540,0.005,-0.035
8.542,0.110,-0.030
8.544,-0.070,-0.025
8.546,-0.075,-0.020
8.548,0.015,-0.015
8.550,0.115,-0.015
8.552,0.085,-0.015
8.554,0.080,-0.015
8.556,0.190,-0.015
8.558,0.240,-0.005
8.560,0.080,0.005
8.562,0.005,0.015
8.564,-0.065,0.030
8.566,-0.195,0.040
8.568,-0.025,0.040
8.570,0.325,0.040
8.572,0.415,0.035
8.574,0.215,0.020
8.576,0.145,0.005
8.578,0.105,-0.005
8.580,-0.095,-0.015
8.582,-0.085,-0.020
8.584,-0.065,-0.020
8.586,0.075,-0.010
8.588,0.095,0.000
8.590,0.085,0.010
8.592,0.145,0.025
8.594,0.230,0.030
8.596,0.150,0.035
8.598,0.160,0.035
8.600,0.125,0.025
8.602,0.085,0.015
8.604,-0.075,-0.005
8.606,0.015,-0.025
8.608,-0.045,-0.045
8.610,-0.015,-0.065
8.612,0.075,-0.075
8.614,0.075,-0.080
8.616,0.100,-0.070
8.618,0.050,-0.055
8.620,0.000,-0.025
8.622,-0.015,0.005
8.624,0.015,0.040
8.626,0.155,0.065
8.628,0.135,0.075
8.630,0.220,0.075
8.632,0.250,0.060
8.634,0.190,0.040
8.636,0.095,0.010
8.638,0.020,-0.015
8.640,-0.120,-0.030
8.642,-0.035,-0.030
8.644,0.050,-0.025
8.646,0.065,-0.005
8.648,0.085,0.015
8.650,0.160,0.035
8.652,0.280,0.045
8.654,0.165,0.050
8.656,0.105,0.045
8.658,0.130,0.035
8.660,0.030,0.020
8.662,0.000,0.010
8.664,-0.005,0.005
8.666,0.000,0.005
8.668,0.075,0.015
8.670,0.120,0.030
8.672,0.210,0.040
8.674,0.180,0.050
8.676,0.265,0.050
8.678,0.280,0.045
8.680,0.125,0.035
8.682,-0.130,0.020
8.684,-0.135,0.010
8.686,0.000,0.000
8.688,0.200,0.000
8.690,0.180,0.000
8.692,0.145,0.005
8.694,0.050,0.010
8.696,0.205,0.015
8.698,0.225,0.015
8.700,0.020,0.010
8.702,-0.120,0.005
8.704,0.055,0.000
8.706,0.000,0.000
8.708,0.055,0.000
8.710,0.085,0.000
8.712,0.215,0.005
8.714,0.205,0.010
8.716,0.160,0.015
8.718,0.065,0.015
8.720,0.050,0.015
8.722,0.005,0.010
8.724,-0.100,0.000
8.726,0.030,-0.010
8.728,0.070,-0.015
8.730,0.090,-0.020
8.732,0.180,-0.025
8.734,0.135,-0.025
8.736,0.160,-0.025
8.738,0.050,-0.025
8.740,-0.065,-0.025
8.742,-0.055,-0.020
8.744,0.005,-0.020
8.746,0.015,-0.015
8.748,0.110,-0.015
8.750,0.115,-0.010
8.752,0.155,-0.005
8.754,0.105,0.000
8.756,0.170,0.005
8.758,0.290,0.005
8.760,-0.015,0.000
8.762,-0.150,-0.005
8.764,-0.030,-0.010
8.766,-0.060,-0.020
8.768,-0.005,-0.025
8.770,0.185,-0.030
8.772,0.305,-0.025
8.774,0.220,-0.020
8.776,0.025,-0.010
8.778,0.010,0.000
8.780,-0.010,0.015
8.782,-0.040,0.025
8.784,0.175,0.030
8.786,0.010,0.040
8.788,0.215,0.040
8.790,0.230,0.045
8.792,0.150,0.050
8.794,0.170,0.060
8.796,0.210,0.065
8.798,0.130,0.065
8.800,0.185,0.065
8.802,0.050,0.050
8.804,0.005,0.020
8.806,0.035,-0.020
8.808,0.015,-0.075
8.810,-0.060,-0.135
8.812,0.045,-0.200
8.814,-0.160,-0.265
8.816,-0.190,-0.320
8.818,-0.365,-0.365
8.820,-0.380,-0.395
8.822,-0.355,-0.405
8.824,-0.375,-0.410
8.826,-0.430,-0.405
8.828,-0.315,-0.395
8.830,-0.245,-0.385
8.832,-0.175,-0.375
8.834,-0.205,-0.360
8.836,-0.120,-0.345
8.838,-0.190,-0.320
8.840,-0.405,-0.285
8.842,-0.295,-0.240
8.844,-0.155,-0.195
8.846,-0.165,-0.145
8.848,-0.065,-0.100
8.850,0.240,-0.060
8.852,0.310,-0.035
8.854,0.215,-0.025
8.856,0.055,-0.025
8.858,-0.035,-0.035
8.860,-0.075,-0.045
8.862,-0.180,-0.050
8.864,-0.140,-0.050
8.866,0.030,-0.040
8.868,0.310,-0.025
8.870,0.195,-0.005
8.872,0.190,0.015
8.874,0.265,0.035
8.876,0.180,0.045
8.878,-0.060,0.050
8.880,-0.030,0.050
8.882,0.050,0.040
8.884,0.085,0.030
8.886,0.065,0.025
8.888,0.210,0.015
8.890,0.220,0.015
8.892,0.245,0.020
8.894,0.180,0.030
8.896,0.125,0.045
8.898,0.100,0.055
8.900,0.060,0.065
8.902,0.070,0.070
8.904,0.180,0.065
8.906,0.165,0.055
8.908,0.130,0.040
8.910,0.165,0.025
8.912,0.225,0.010
8.914,0.180,0.005
8.916,0.010,0.005
8.918,0.050,0.015
8.920,0.105,0.030
8.922,0.070,0.050
8.924,0.105,0.070
8.926,0.170,0.085
8.928,0.210,0.090
8.930,0.280,0.090
8.932,0.230,0.075
8.934,0.335,0.060
8.936,0.200,0.040
8.938,-0.085,0.030
8.940,-0.070,0.025
8.942,0.040,0.030
8.944,0.185,0.050
8.946,0.180,0.070
8.948,0.145,0.100
8.950,0.390,0.120
8.952,0.370,0.135
8.954,0.260,0.140
8.956,0.155,0.135
8.958,0.095,0.120
8.960,0.100,0.105
8.962,0.080,0.090
8.964,0.170,0.085
8.966,0.250,0.090
8.968,0.170,0.105
8.970,0.325,0.125
8.972,0.390,0.150
8.974,0.270,0.170
8.976,0.275,0.190
8.978,0.360,0.200
8.980,0.140,0.200
8.982,0.115,0.195
8.984,0.230,0.190
8.986,0.400,0.180
8.988,0.395,0.165
8.990,0.160,0.160
8.992,0.290,0.155
8.994,0.425,0.150
8.996,0.315,0.150
8.998,0.145,0.150
9.000,0.020,0.155
9.002,0.170,0.165
9.004,0.275,0.180
9.006,0.290,0.200
9.008,0.315,0.220
9.010,0.415,0.245
9.012,0.505,0.265
9.014,0.580,0.285
9.016,0.530,0.290
9.018,0.280,0.285
9.020,0.180,0.270
9.022,0.100,0.250
9.024,0.185,0.225
9.026,0.430,0.200
9.028,0.415,0.180
9.030,0.305,0.165
9.032,0.350,0.160
9.034,0.355,0.160
9.036,0.335,0.165
9.038,0.280,0.180
9.040,0.055,0.190
9.042,0.215,0.200
9.044,0.235,0.210
9.046,0.300,0.215
9.048,0.390,0.220
9.050,0.525,0.220
9.052,0.450,0.210
9.054,0.345,0.195
9.056,0.220,0.170
9.058,0.110,0.140
9.060,-0.005,0.105
9.062,0.200,0.065
9.064,0.065,0.030
9.066,0.045,0.000
9.068,-0.010,-0.020
9.070,0.200,-0.025
9.072,0.300,-0.020
9.074,0.235,-0.005
9.076,0.115,0.020
9.078,0.060,0.040
9.080,-0.040,0.055
9.082,0.015,0.060
9.084,0.110,0.050
9.086,0.195,0.030
9.088,0.175,0.005
9.090,0.220,-0.025
9.092,0.210,-0.050
9.094,-0.040,-0.065
9.096,-0.065,-0.070
9.098,0.015,-0.060
9.100,-0.070,-0.045
9.102,0.010,-0.025
9.104,0.095,-0.010
9.106,0.170,0.000
9.108,0.145,0.005
9.110,0.190,0.000
9.112,0.165,-0.010
9.114,0.140,-0.015
9.116,0.100,-0.020
9.118,0.095,-0.020
9.120,-0.095,-0.015
9.122,-0.045,-0.010
9.124,0.140,-0.005
9.126,0.185,-0.010
9.128,0.055,-0.025
9.130,0.155,-0.050
9.132,0.130,-0.080
9.134,0.105,-0.110
9.136,-0.120,-0.130
9.138,-0.170,-0.140
9.140,-0.160,-0.135
9.142,-0.125,-0.115
9.144,0.085,-0.080
9.146,0.155,-0.040
9.148,0.230,-0.005
9.150,0.205,0.020
9.152,0.210,0.030
9.154,0.160,0.020
9.156,0.170,0.005
9.158,0.050,-0.025
9.160,-0.060,-0.050
9.162,-0.180,-0.070
9.164,-0.105,-0.080
9.166,0.060,-0.085
9.168,0.105,-0.080
9.170,0.265,-0.075
9.172,0.205,-0.070
9.174,0.050,-0.065
9.176,0.005,-0.070
9.178,-0.075,-0.075
9.180,-0.185,-0.075
9.182,-0.080,-0.075
9.184,0.010,-0.065
9.186,0.095,-0.050
9.188,0.100,-0.030
9.190,0.345,-0.005
9.192,0.280,0.010
9.194,0.170,0.020
9.196,0.025,0.015
9.198,-0.060,0.000
9.200,-0.065,-0.020
9.202,0.000,-0.045
9.204,0.030,-0.070
9.206,-0.005,-0.080
9.208,0.115,-0.085
9.210,0.290,-0.075
9.212,0.250,-0.060
9.214,0.070,-0.040
9.216,0.000,-0.025
9.218,-0.095,-0.010
9.220,0.000,-0.010
9.222,-0.020,-0.010
9.224,0.090,-0.020
9.226,0.150,-0.025
9.228,0.205,-0.030
9.230,0.190,-0.030
9.232,0.085,-0.025
9.234,0.120,-0.010
9.236,0.135,0.000
9.238,0.080,0.010
9.240,-0.115,0.015
9.242,0.045,0.015
9.244,0.095,0.010
9.246,0.180,0.000
9.248,0.275,-0.010
9.250,0.235,-0.025
9.252,0.225,-0.035
9.254,0.065,-0.040
9.256,-0.165,-0.050
9.258,-0.045,-0.055
9.260,-0.050,-0.060
9.262,0.060,-0.065
9.264,-0.045,-0.070
9.266,0.065,-0.070
9.268,0.145,-0.070
9.270,0.320,-0.060
9.272,0.295,-0.050
9.274,0.070,-0.035
9.276,-0.035,-0.020
9.278,-0.160,-0.010
9.280,-0.035,0.000
9.282,0.095,0.000
9.284,0.160,-0.010
9.286,0.180,-0.025
9.288,0.160,-0.040
9.290,0.115,-0.055
9.292,0.150,-0.065
9.294,0.150,-0.065
9.296,-0.085,-0.055
9.298,-0.120,-0.040
9.300,-0.030,-0.025
9.302,0.155,-0.005
9.304,0.225,0.010
9.306,0.180,0.020
9.308,0.160,0.025
9.310,0.150,0.020
9.312,0.200,0.015
9.314,0.145,0.005
9.316,0.045,0.000
9.318,-0.005,0.000
9.320,0.045,0.000
9.322,0.040,0.005
9.324,0.050,0.015
9.326,0.240,0.020
9.328,0.260,0.025
9.330,0.310,0.030
9.332,0.225,0.025
9.334,0.085,0.015
9.336,-0.045,0.005
9.338,-0.015,-0.005
9.340,0.105,-0.015
9.342,0.060,-0.025
9.344,0.065,-0.030
9.346,0.120,-0.030
9.348,0.035,-0.035
9.350,0.260,-0.030
9.352,0.160,-0.030
9.354,0.145,-0.025
9.356,0.125,-0.015
9.358,-0.020,-0.010
9.360,-0.135,0.000
9.362,0.035,0.010
9.364,0.175,0.015
9.366,0.295,0.015
9.368,0.390,0.015
9.370,0.220,0.010
9.372,0.080,0.005
9.374,0.105,-0.005
9.376,-0.045,-0.015
9.378,-0.025,-0.025
9.380,0.005,-0.025
9.382,0.120,-0.020
9.384,0.150,-0.015
9.386,0.135,0.000
9.388,0.280,0.010
9.390,0.260,0.025
9.392,0.170,0.030
9.394,0.190,0.035
9.396,0.015,0.035
9.398,-0.010,0.025
9.400,0.055,0.015
9.402,0.100,0.005
9.404,0.140,-0.010
9.406,0.060,-0.025
9.408,0.235,-0.040
9.410,0.225,-0.055
9.412,0.100,-0.065
9.414,-0.105,-0.075
9.416,-0.040,-0.085
9.418,-0.090,-0.095
9.420,-0.065,-0.105
9.422,-0.020,-0.110
9.424,0.070,-0.115
9.426,0.060,-0.110
9.428,0.110,-0.105
9.430,0.205,-0.100
9.432,0.035,-0.090
9.434,-0.070,-0.075
9.436,-0.045,-0.065
9.438,-0.010,-0.055
9.440,0.060,-0.050
9.442,0.035,-0.045
9.444,0.130,-0.040
9.446,0.190,-0.040
9.448,0.210,-0.045
9.450,0.150,-0.045
9.452,0.140,-0.045
9.454,-0.030,-0.040
9.456,-0.055,-0.030
9.458,0.045,-0.015
9.460,0.105,0.005
9.462,0.135,0.025
9.464,0.220,0.050
9.466,0.265,0.070
9.468,0.290,0.080
9.470,0.240,0.080
9.472,0.275,0.065
9.474,0.120,0.035
9.476,0.095,-0.010
9.478,0.010,-0.070
9.480,-0.135,-0.135
9.482,-0.255,-0.200
9.484,-0.200,-0.265
9.486,-0.135,-0.320
9.488,-0.055,-0.370
9.490,-0.095,-0.410
9.492,-0.245,-0.435
9.494,-0.475,-0.450
9.496,-0.470,-0.455
9.498,-0.550,-0.455
9.500,-0.475,-0.440
9.502,-0.235,-0.415
9.504,-0.105,-0.385
9.506,-0.115,-0.345
9.508,-0.150,-0.300
9.510,0.015,-0.250
9.512,-0.105,-0.205
9.514,-0.085,-0.165
9.516,-0.160,-0.130
9.518,-0.115,-0.105
9.520,0.015,-0.090
9.522,0.125,-0.080
9.524,0.085,-0.075
9.526,0.120,-0.070
9.528,0.170,-0.060
9.530,0.155,-0.045
9.532,0.145,-0.030
9.534,0.090,-0.015
9.536,0.040,-0.005
9.538,-0.060,0.000
9.540,-0.060,0.000
9.542,0.095,-0.005
9.544,0.215,-0.020
9.546,0.225,-0.030
9.548,0.215,-0.030
9.550,0.220,-0.025
9.552,0.115,-0.010
9.554,0.040,0.020
9.556,-0.065,0.055
9.558,0.075,0.090
9.560,0.240,0.125
9.562,0.380,0.145
9.564,0.345,0.145
9.566,0.380,0.130
9.568,0.400,0.105
9.570,0.240,0.065
9.572,0.015,0.025
9.574,-0.035,-0.015
9.576,0.035,-0.040
9.578,-0.030,-0.050
9.580,-0.055,-0.045
9.582,0.095,-0.030
9.584,0.230,-0.010
9.586,0.290,0.015
9.588,0.330,0.035
9.590,0.240,0.045
9.592,0.120,0.045
9.594,0.065,0.040
9.596,0.030,0.030
9.598,0.000,0.020
9.600,0.065,0.015
9.602,0.120,0.010
9.604,0.215,0.015
9.606,0.350,0.030
9.608,0.320,0.040
9.610,0.260,0.055
9.612,0.135,0.070
9.614,0.030,0.075
9.616,0.045,0.080
9.618,0.110,0.085
9.620,0.185,0.090
9.622,0.245,0.100
9.624,0.270,0.110
9.626,0.360,0.125
9.628,0.380,0.135
9.630,0.305,0.145
9.632,0.320,0.150
9.634,0.225,0.140
9.636,0.215,0.125
9.638,0.080,0.100
9.640,-0.045,0.075
9.642,0.030,0.050
9.644,0.210,0.035
9.646,0.435,0.035
9.648,0.460,0.050
9.650,0.225,0.075
9.652,0.165,0.110
9.654,0.180,0.145
9.656,0.120,0.175
9.658,0.240,0.195
9.660,0.320,0.205
9.662,0.460,0.205
9.664,0.385,0.195
9.666,0.355,0.180
9.668,0.350,0.165
9.670,0.275,0.160
9.672,0.265,0.160
9.674,0.310,0.165
9.676,0.150,0.175
9.678,0.155,0.180
9.680,0.290,0.190
9.682,0.420,0.195
9.684,0.370,0.195
9.686,0.425,0.200
9.688,0.435,0.200
9.690,0.405,0.205
9.692,0.300,0.215
9.694,0.265,0.230
9.696,0.220,0.240
9.698,0.285,0.245
9.700,0.300,0.240
9.702,0.320,0.230
9.704,0.475,0.210
9.706,0.620,0.185
9.708,0.340,0.160
9.710,0.220,0.140
9.712,0.080,0.120
9.714,0.005,0.115
9.716,0.020,0.115
9.718,0.250,0.125
9.720,0.425,0.130
9.722,0.455,0.140
9.724,0.245,0.140
9.726,0.280,0.135
9.728,0.305,0.125
9.730,0.220,0.110
9.732,0.210,0.090
9.734,0.130,0.070
9.736,-0.010,0.050
9.738,0.000,0.030
9.740,0.175,0.015
9.742,0.160,0.005
9.744,0.070,-0.005
9.746,0.280,-0.010
9.748,0.230,-0.010
9.750,0.200,-0.005
9.752,0.010,0.000
9.754,0.025,0.005
9.756,0.005,0.015
9.758,0.015,0.020
9.760,0.095,0.020
9.762,0.325,0.020
9.764,0.265,0.015
9.766,0.175,0.010
9.768,0.060,0.000
9.770,0.185,-0.005
9.772,-0.015,-0.005
9.774,0.025,-0.005
9.776,0.060,0.000
9.778,0.210,0.005
9.780,0.080,0.010
9.782,0.075,0.015
9.784,0.080,0.015
9.786,0.315,0.010
9.788,0.275,-0.005
9.790,0.060,-0.015
9.792,-0.065,-0.035
9.794,-0.050,-0.045
9.796,-0.045,-0.055
9.798,0.060,-0.060
9.800,0.030,-0.060
9.802,0.050,-0.055
9.804,0.165,-0.040
9.806,0.245,-0.030
9.808,0.250,-0.020
9.810,0.080,-0.010
9.812,-0.020,-0.010
9.814,-0.100,-0.015
9.816,0.050,-0.025
9.818,0.020,-0.035
9.820,-0.015,-0.050
9.822,0.130,-0.060
9.824,0.215,-0.070
9.826,0.175,-0.075
9.828,0.085,-0.070
9.830,-0.045,-0.065
9.832,-0.010,-0.055
9.834,0.010,-0.050
9.836,-0.100,-0.040
9.838,0.025,-0.035
9.840,0.105,-0.035
9.842,0.155,-0.035
9.844,0.280,-0.035
9.846,0.260,-0.040
9.848,0.015,-0.040
9.850,-0.105,-0.035
9.852,-0.050,-0.030
9.854,0.085,-0.025
9.856,0.035,-0.015
9.858,0.070,-0.010
9.860,0.070,-0.005
9.862,0.140,-0.005
9.864,0.235,-0.010
9.866,0.245,-0.010
9.868,0.260,-0.015
9.870,0.055,-0.020
9.872,-0.005,-0.025
9.874,-0.075,-0.030
9.876,-0.115,-0.035
9.878,0.020,-0.040
9.880,0.130,-0.050
9.882,0.110,-0.060
9.884,0.145,-0.070
9.886,0.100,-0.080
9.888,0.095,-0.085
9.890,0.045,-0.090
9.892,-0.025,-0.090
9.894,-0.055,-0.080
9.896,-0.045,-0.070
9.898,-0.040,-0.055
9.900,0.070,-0.040
9.902,0.165,-0.025
9.904,0.115,-0.015
9.906,0.250,-0.005
9.908,0.260,-0.005
9.910,0.125,0.000
9.912,0.060,-0.005
9.914,-0.070,-0.005
9.916,-0.040,-0.010
9.918,-0.015,-0.010
9.920,0.090,-0.015
9.922,0.150,-0.015
9.924,0.295,-0.015
9.926,0.275,-0.010
9.928,0.155,-0.005
9.930,-0.045,-0.005
9.932,-0.040,0.005
9.934,0.060,0.010
9.936,-0.010,0.015
9.938,0.140,0.015
9.940,0.150,0.015
9.942,0.175,0.015
9.944,0.295,0.010
9.946,0.220,0.000
9.948,0.110,-0.005
9.950,-0.100,-0.010
9.952,-0.075,-0.015
9.954,0.060,-0.020
9.956,0.085,-0.015
9.958,0.075,-0.010
9.960,0.150,0.000
9.962,0.215,0.010
9.964,0.245,0.015
9.966,0.190,0.020
9.968,0.105,0.020
9.970,0.070,0.020
9.972,0.100,0.010
9.974,-0.025,0.005
9.976,-0.070,-0.005
9.978,0.090,-0.010
9.980,0.245,-0.015
9.982,0.150,-0.020
9.984,0.190,-0.020
9.986,0.160,-0.020
9.988,0.125,-0.020
9.990,-0.035,-0.025
9.992,0.035,-0.035
9.994,-0.095,-0.045
9.996,-0.125,-0.055
9.998,0.035,-0.065
