'Elapsed time','ECG I','ECG I filtered'
'seconds','mV','mV'
0.000,-0.395,-0.170
0.002,-0.300,-0.095
0.004,-0.170,-0.040
0.006,-0.125,0.000
0.008,-0.130,0.020
0.010,-0.185,0.025
0.012,-0.305,0.010
0.014,-0.365,-0.015
0.016,-0.280,-0.030
0.018,-0.290,-0.040
0.020,-0.290,-0.040
0.022,-0.295,-0.025
0.024,-0.195,0.000
0.026,-0.115,0.020
0.028,-0.030,0.040
0.030,-0.125,0.045
0.032,-0.200,0.040
0.034,-0.265,0.025
0.036,-0.330,0.005
0.038,-0.370,-0.020
0.040,-0.340,-0.035
0.042,-0.320,-0.045
0.044,-0.255,-0.045
0.046,-0.115,-0.040
0.048,-0.060,-0.025
0.050,-0.155,-0.010
0.052,-0.190,0.000
0.054,-0.290,0.005
0.056,-0.270,0.000
0.058,-0.365,-0.015
0.060,-0.420,-0.025
0.062,-0.300,-0.040
0.064,-0.245,-0.050
0.066,-0.150,-0.055
0.068,-0.095,-0.050
0.070,-0.195,-0.040
0.072,-0.175,-0.030
0.074,-0.265,-0.015
0.076,-0.345,-0.005
0.078,-0.385,0.005
0.080,-0.305,0.005
0.082,-0.190,0.000
0.084,-0.205,-0.005
0.086,-0.190,-0.010
0.088,-0.085,-0.015
0.090,-0.080,-0.010
0.092,-0.200,-0.005
0.094,-0.240,0.000
0.096,-0.370,0.010
0.098,-0.285,0.020
0.100,-0.255,0.025
0.102,-0.240,0.020
0.104,-0.200,0.015
0.106,-0.130,0.005
0.108,-0.100,-0.010
0.110,-0.165,-0.020
0.112,-0.240,-0.030
0.114,-0.270,-0.030
0.116,-0.370,-0.030
0.118,-0.365,-0.025
0.120,-0.315,-0.020
0.122,-0.210,-0.010
0.124,-0.225,0.000
0.126,-0.065,0.005
0.128,-0.025,0.010
0.130,-0.055,0.015
0.132,-0.210,0.015
0.134,-0.270,0.020
0.136,-0.375,0.020
0.138,-0.345,0.025
0.140,-0.235,0.025
0.142,-0.160,0.025
0.144,-0.155,0.020
0.146,-0.115,0.015
0.148,-0.070,0.010
0.150,-0.155,0.005
0.152,-0.245,0.005
0.154,-0.270,0.005
0.156,-0.300,0.010
0.158,-0.310,0.015
0.160,-0.250,0.020
0.162,-0.200,0.020
0.164,-0.155,0.025
0.166,-0.085,0.020
0.168,-0.075,0.020
0.170,-0.135,0.015
0.172,-0.190,0.015
0.174,-0.190,0.020
0.176,-0.370,0.025
0.178,-0.275,0.035
0.180,-0.245,0.045
0.182,-0.100,0.050
0.184,-0.065,0.055
0.186,-0.090,0.050
0.188,-0.075,0.040
0.190,-0.145,0.025
0.192,-0.245,0.010
0.194,-0.325,-0.005
0.196,-0.435,-0.015
0.198,-0.310,-0.020
0.200,-0.200,-0.015
0.202,-0.205,0.000
0.204,-0.170,0.015
0.206,-0.055,0.030
0.208,-0.035,0.045
0.210,-0.130,0.050
0.212,-0.145,0.045
0.214,-0.260,0.035
0.216,-0.355,0.020
0.218,-0.315,0.000
0.220,-0.305,-0.015
0.222,-0.245,-0.025
0.224,-0.170,-0.030
0.226,-0.130,-0.025
0.228,-0.075,-0.020
0.230,-0.205,-0.005
0.232,-0.235,0.005
0.234,-0.240,0.015
0.236,-0.310,0.015
0.238,-0.265,0.015
0.240,-0.245,0.010
0.242,-0.235,0.005
0.244,-0.165,0.000
0.246,-0.145,-0.005
0.248,-0.150,-0.005
0.250,-0.170,-0.005
0.252,-0.230,0.005
0.254,-0.210,0.015
0.256,-0.315,0.025
0.258,-0.235,0.035
0.260,-0.160,0.040
0.262,-0.205,0.040
0.264,-0.155,0.035
0.266,-0.020,0.030
0.268,-0.110,0.020
0.270,-0.140,0.015
0.272,-0.270,0.015
0.274,-0.205,0.020
0.276,-0.300,0.035
0.278,-0.325,0.050
0.280,-0.185,0.065
0.282,-0.095,0.080
0.284,-0.035,0.095
0.286,0.025,0.095
0.288,-0.020,0.090
0.290,-0.030,0.075
0.292,-0.195,0.055
0.294,-0.275,0.030
0.296,-0.425,0.010
0.298,-0.385,-0.010
0.300,-0.235,-0.020
0.302,-0.145,-0.020
0.304,-0.120,-0.010
0.306,-0.025,0.010
0.308,-0.030,0.030
0.310,-0.110,0.050
0.312,-0.295,0.065
0.314,-0.285,0.070
0.316,-0.285,0.065
0.318,-0.215,0.050
0.320,-0.110,0.030
0.322,-0.125,0.010
0.324,-0.060,-0.010
0.326,-0.175,-0.020
0.328,-0.285,-0.025
0.330,-0.260,-0.020
0.332,-0.305,-0.005
0.334,-0.250,0.005
0.336,-0.245,0.015
0.338,-0.215,0.020
0.340,-0.170,0.010
0.342,-0.175,0.000
0.344,-0.115,-0.020
0.346,-0.225,-0.040
0.348,-0.245,-0.055
0.350,-0.310,-0.060
0.352,-0.410,-0.055
0.354,-0.315,-0.045
0.356,-0.260,-0.030
0.358,-0.225,-0.015
0.360,-0.175,-0.005
0.362,-0.120,0.000
0.364,-0.100,0.000
0.366,-0.215,-0.010
0.368,-0.215,-0.015
0.370,-0.330,-0.025
0.372,-0.315,-0.025
0.374,-0.270,-0.025
0.376,-0.280,-0.020
0.378,-0.280,-0.010
0.380,-0.190,0.000
0.382,-0.045,0.010
0.384,-0.045,0.015
0.386,-0.180,0.015
0.388,-0.285,0.015
0.390,-0.275,0.010
0.392,-0.255,0.010
0.394,-0.320,0.005
0.396,-0.230,0.005
0.398,-0.195,0.005
0.400,-0.110,0.005
0.402,-0.050,0.005
0.404,-0.135,0.005
0.406,-0.200,0.005
0.408,-0.280,0.000
0.410,-0.320,0.000
0.412,-0.290,0.000
0.414,-0.320,0.000
0.416,-0.190,0.000
0.418,-0.155,-0.005
0.420,-0.170,-0.010
0.422,-0.100,-0.020
0.424,-0.205,-0.035
0.426,-0.260,-0.045
0.428,-0.275,-0.060
0.430,-0.435,-0.070
0.432,-0.415,-0.075
0.434,-0.330,-0.070
0.436,-0.215,-0.065
0.438,-0.215,-0.050
0.440,-0.135,-0.035
0.442,-0.115,-0.020
0.444,-0.155,-0.010
0.446,-0.240,-0.005
0.448,-0.270,0.000
0.450,-0.375,-0.005
0.452,-0.365,-0.015
0.454,-0.275,-0.025
0.456,-0.210,-0.040
0.458,-0.205,-0.055
0.460,-0.210,-0.065
0.462,-0.230,-0.080
0.464,-0.255,-0.090
0.466,-0.285,-0.095
0.468,-0.285,-0.095
0.470,-0.455,-0.090
0.472,-0.415,-0.080
0.474,-0.270,-0.070
0.476,-0.240,-0.060
0.478,-0.255,-0.045
0.480,-0.125,-0.040
0.482,-0.195,-0.035
0.484,-0.235,-0.035
0.486,-0.310,-0.040
0.488,-0.315,-0.040
0.490,-0.350,-0.040
0.492,-0.250,-0.040
0.494,-0.285,-0.035
0.496,-0.210,-0.025
0.498,-0.210,-0.020
0.500,-0.110,-0.020
0.502,-0.185,-0.020
0.504,-0.200,-0.025
0.506,-0.210,-0.035
0.508,-0.335,-0.045
0.510,-0.390,-0.055
0.512,-0.455,-0.060
0.514,-0.255,-0.055
0.516,-0.190,-0.045
0.518,-0.135,-0.030
0.520,-0.085,-0.015
0.522,-0.145,0.000
0.524,-0.250,0.005
0.526,-0.220,0.010
0.528,-0.205,0.000
0.530,-0.320,-0.015
0.532,-0.345,-0.035
0.534,-0.360,-0.055
0.536,-0.290,-0.075
0.538,-0.240,-0.090
0.540,-0.255,-0.090
0.542,-0.195,-0.090
0.544,-0.200,-0.075
0.546,-0.300,-0.055
0.548,-0.270,-0.035
0.550,-0.370,-0.015
0.552,-0.275,0.010
0.554,-0.215,0.025
0.556,-0.125,0.030
0.558,-0.100,0.035
0.560,-0.065,0.030
0.562,-0.110,0.015
0.564,-0.200,0.000
0.566,-0.290,-0.015
0.568,-0.385,-0.035
0.570,-0.370,-0.050
0.572,-0.345,-0.060
0.574,-0.345,-0.065
0.576,-0.240,-0.070
0.578,-0.145,-0.065
0.580,-0.105,-0.060
0.582,-0.165,-0.050
0.584,-0.300,-0.040
0.586,-0.295,-0.030
0.588,-0.260,-0.025
0.590,-0.350,-0.020
0.592,-0.350,-0.015
0.594,-0.300,-0.010
0.596,-0.235,-0.010
0.598,-0.120,-0.015
0.600,-0.095,-0.015
0.602,-0.125,-0.020
0.604,-0.275,-0.025
0.606,-0.265,-0.030
0.608,-0.275,-0.030
0.610,-0.350,-0.030
0.612,-0.365,-0.020
0.614,-0.240,-0.010
0.616,-0.145,0.010
0.618,-0.160,0.030
0.620,-0.070,0.045
0.622,0.015,0.065
0.624,-0.070,0.075
0.626,-0.160,0.085
0.628,-0.245,0.085
0.630,-0.300,0.085
0.632,-0.260,0.080
0.634,-0.130,0.080
0.636,-0.110,0.080
0.638,-0.075,0.085
0.640,0.035,0.090
0.642,0.005,0.095
0.644,-0.090,0.105
0.646,-0.120,0.105
0.648,-0.200,0.105
0.650,-0.280,0.095
0.652,-0.295,0.085
0.654,-0.225,0.070
0.656,-0.100,0.055
0.658,-0.075,0.045
0.660,-0.040,0.040
0.662,-0.020,0.040
0.664,-0.105,0.045
0.666,-0.250,0.050
0.668,-0.310,0.060
0.670,-0.260,0.065
0.672,-0.210,0.070
0.674,-0.130,0.065
0.676,-0.105,0.065
0.678,-0.120,0.060
0.680,-0.030,0.055
0.682,-0.085,0.060
0.684,-0.165,0.065
0.686,-0.130,0.070
0.688,-0.260,0.075
0.690,-0.255,0.075
0.692,-0.135,0.075
0.694,-0.220,0.065
0.696,-0.190,0.045
0.698,-0.010,0.020
0.700,-0.045,-0.005
0.702,-0.185,-0.030
0.704,-0.325,-0.050
0.706,-0.380,-0.060
0.708,-0.480,-0.065
0.710,-0.340,-0.065
0.712,-0.285,-0.055
0.714,-0.195,-0.045
0.716,-0.125,-0.040
0.718,-0.085,-0.030
0.720,-0.200,-0.030
0.722,-0.220,-0.030
0.724,-0.255,-0.035
0.726,-0.305,-0.040
0.728,-0.375,-0.040
0.730,-0.375,-0.040
0.732,-0.285,-0.040
0.734,-0.205,-0.035
0.736,-0.150,-0.035
0.738,-0.120,-0.030
0.740,-0.155,-0.030
0.742,-0.245,-0.035
0.744,-0.285,-0.030
0.746,-0.300,-0.025
0.748,-0.370,-0.010
0.750,-0.240,0.015
0.752,-0.170,0.055
0.754,-0.065,0.110
0.756,0.010,0.175
0.758,0.155,0.255
0.760,0.220,0.335
0.762,0.310,0.410
0.764,0.310,0.480
0.766,0.320,0.530
0.768,0.225,0.560
0.770,0.305,0.555
0.772,0.280,0.520
0.774,0.230,0.445
0.776,0.060,0.335
0.778,0.075,0.190
0.780,-0.020,0.025
0.782,-0.255,-0.150
0.784,-0.465,-0.330
0.786,-0.795,-0.500
0.788,-1.150,-0.640
0.790,-1.225,-0.745
0.792,-1.190,-0.815
0.794,-1.040,-0.835
0.796,-0.975,-0.820
0.798,-0.815,-0.775
0.800,-0.720,-0.705
0.802,-0.715,-0.630
0.804,-0.790,-0.550
0.806,-0.765,-0.485
0.808,-0.765,-0.425
0.810,-0.650,-0.385
0.812,-0.620,-0.350
0.814,-0.520,-0.325
0.816,-0.480,-0.305
0.818,-0.400,-0.285
0.820,-0.335,-0.260
0.822,-0.370,-0.230
0.824,-0.415,-0.195
0.826,-0.355,-0.165
0.828,-0.480,-0.130
0.830,-0.480,-0.105
0.832,-0.290,-0.080
0.834,-0.200,-0.060
0.836,-0.245,-0.045
0.838,-0.125,-0.035
0.840,-0.070,-0.025
0.842,-0.190,-0.015
0.844,-0.260,-0.010
0.846,-0.305,-0.005
0.848,-0.370,0.000
0.850,-0.240,0.000
0.852,-0.165,0.000
0.854,-0.265,-0.005
0.856,-0.165,-0.010
0.858,-0.115,-0.015
0.860,-0.085,-0.020
0.862,-0.215,-0.020
0.864,-0.180,-0.020
0.866,-0.245,-0.010
0.868,-0.390,0.000
0.870,-0.315,0.010
0.872,-0.255,0.020
0.874,-0.185,0.025
0.876,-0.045,0.030
0.878,-0.065,0.030
0.880,-0.070,0.025
0.882,-0.150,0.015
0.884,-0.250,0.010
0.886,-0.310,0.005
0.888,-0.300,0.000
0.890,-0.320,0.000
0.892,-0.230,0.005
0.894,-0.170,0.015
0.896,-0.135,0.025
0.898,-0.090,0.035
0.900,-0.075,0.040
0.902,-0.125,0.045
0.904,-0.120,0.050
0.906,-0.150,0.055
0.908,-0.300,0.055
0.910,-0.260,0.055
0.912,-0.195,0.060
0.914,-0.125,0.060
0.916,-0.045,0.065
0.918,-0.045,0.065
0.920,-0.020,0.065
0.922,-0.090,0.065
0.924,-0.180,0.060
0.926,-0.240,0.055
0.928,-0.325,0.050
0.930,-0.270,0.050
0.932,-0.190,0.050
0.934,-0.135,0.055
0.936,-0.040,0.065
0.938,0.065,0.080
0.940,0.020,0.095
0.942,-0.090,0.115
0.944,-0.130,0.130
0.946,-0.195,0.140
0.948,-0.190,0.150
0.950,-0.115,0.155
0.952,-0.060,0.160
0.954,-0.005,0.165
0.956,0.035,0.170
0.958,0.085,0.175
0.960,0.085,0.180
0.962,0.025,0.185
0.964,-0.125,0.190
0.966,-0.140,0.190
0.968,-0.165,0.185
0.970,-0.090,0.180
0.972,-0.030,0.170
0.974,-0.005,0.165
0.976,0.055,0.155
0.978,0.035,0.155
0.980,0.020,0.165
0.982,-0.010,0.180
0.984,-0.005,0.200
0.986,-0.090,0.225
0.988,-0.060,0.250
0.990,0.015,0.275
0.992,0.060,0.290
0.994,0.140,0.300
0.996,0.170,0.300
0.998,0.215,0.295
1.000,0.215,0.285
1.002,0.040,0.280
1.004,0.050,0.270
1.006,-0.080,0.270
1.008,-0.030,0.280
1.010,0.035,0.290
1.012,0.115,0.305
1.014,0.140,0.325
1.016,0.260,0.335
1.018,0.245,0.345
1.020,0.240,0.350
1.022,0.115,0.350
1.024,0.075,0.350
1.026,0.035,0.350
1.028,0.035,0.345
1.030,0.120,0.350
1.032,0.185,0.355
1.034,0.215,0.360
1.036,0.260,0.370
1.038,0.305,0.375
1.040,0.220,0.375
1.042,0.130,0.375
1.044,0.070,0.375
1.046,0.085,0.370
1.048,0.075,0.365
1.050,0.150,0.360
1.052,0.140,0.355
1.054,0.150,0.355
1.056,0.240,0.355
1.058,0.225,0.350
1.060,0.260,0.350
1.062,0.140,0.345
1.064,0.050,0.335
1.066,-0.040,0.320
1.068,0.000,0.305
1.070,-0.015,0.285
1.072,0.050,0.270
1.074,0.125,0.255
1.076,0.230,0.245
1.078,0.150,0.235
1.080,0.035,0.225
1.082,-0.010,0.220
1.084,-0.045,0.210
1.086,-0.130,0.200
1.088,-0.150,0.185
1.090,-0.040,0.170
1.092,-0.085,0.150
1.094,-0.060,0.130
1.096,0.055,0.110
1.098,-0.035,0.090
1.100,-0.030,0.075
1.102,-0.135,0.060
1.104,-0.265,0.050
1.106,-0.315,0.040
1.108,-0.290,0.035
1.110,-0.205,0.035
1.112,-0.175,0.030
1.114,-0.075,0.030
1.116,-0.020,0.030
1.118,-0.085,0.025
1.120,-0.080,0.025
1.122,-0.175,0.025
1.124,-0.205,0.020
1.126,-0.415,0.020
1.128,-0.330,0.010
1.130,-0.230,0.005
1.132,-0.105,-0.005
1.134,-0.175,-0.015
1.136,-0.075,-0.030
1.138,-0.120,-0.040
1.140,-0.175,-0.050
1.142,-0.240,-0.060
1.144,-0.385,-0.060
1.146,-0.420,-0.055
1.148,-0.345,-0.050
1.150,-0.310,-0.035
1.152,-0.235,-0.020
1.154,-0.185,-0.005
1.156,0.005,0.010
1.158,-0.035,0.015
1.160,-0.150,0.020
1.162,-0.210,0.015
1.164,-0.265,0.005
1.166,-0.320,-0.005
1.168,-0.345,-0.020
1.170,-0.290,-0.035
1.172,-0.190,-0.045
1.174,-0.195,-0.055
1.176,-0.170,-0.060
1.178,-0.145,-0.060
1.180,-0.250,-0.060
1.182,-0.245,-0.060
1.184,-0.255,-0.055
1.186,-0.400,-0.050
1.188,-0.330,-0.040
1.190,-0.325,-0.035
1.192,-0.235,-0.030
1.194,-0.090,-0.020
1.196,-0.035,-0.020
1.198,-0.085,-0.015
1.200,-0.185,-0.015
1.202,-0.245,-0.015
1.204,-0.290,-0.020
1.206,-0.375,-0.025
1.208,-0.390,-0.025
1.210,-0.290,-0.025
1.212,-0.085,-0.025
1.214,-0.115,-0.020
1.216,-0.060,-0.015
1.218,-0.100,-0.005
1.220,-0.200,-0.005
1.222,-0.265,0.000
1.224,-0.280,-0.005
1.226,-0.330,-0.010
1.228,-0.265,-0.015
1.230,-0.245,-0.025
1.232,-0.210,-0.035
1.234,-0.165,-0.040
1.236,-0.160,-0.040
1.238,-0.165,-0.035
1.240,-0.230,-0.035
1.242,-0.225,-0.030
1.244,-0.280,-0.025
1.246,-0.290,-0.020
1.248,-0.300,-0.020
1.250,-0.265,-0.025
1.252,-0.170,-0.030
1.254,-0.165,-0.040
1.256,-0.175,-0.045
1.258,-0.200,-0.050
1.260,-0.235,-0.055
1.262,-0.265,-0.055
1.264,-0.315,-0.050
1.266,-0.325,-0.045
1.268,-0.325,-0.040
1.270,-0.235,-0.035
1.272,-0.175,-0.035
1.274,-0.095,-0.030
1.276,-0.130,-0.030
1.278,-0.180,-0.030
1.280,-0.205,-0.025
1.282,-0.290,-0.025
1.284,-0.330,-0.025
1.286,-0.205,-0.025
1.288,-0.250,-0.025
1.290,-0.205,-0.030
1.292,-0.240,-0.035
1.294,-0.155,-0.045
1.296,-0.135,-0.055
1.298,-0.185,-0.065
1.300,-0.270,-0.075
1.302,-0.310,-0.085
1.304,-0.370,-0.090
1.306,-0.370,-0.090
1.308,-0.360,-0.085
1.310,-0.270,-0.080
1.312,-0.230,-0.075
1.314,-0.135,-0.070
1.316,-0.140,-0.070
1.318,-0.240,-0.070
1.320,-0.240,-0.070
1.322,-0.260,-0.070
1.324,-0.375,-0.070
1.326,-0.360,-0.070
1.328,-0.255,-0.070
1.330,-0.235,-0.075
1.332,-0.240,-0.080
1.334,-0.250,-0.085
1.336,-0.215,-0.095
1.338,-0.190,-0.105
1.340,-0.270,-0.110
1.342,-0.340,-0.115
1.344,-0.430,-0.110
1.346,-0.405,-0.105
1.348,-0.315,-0.090
1.350,-0.215,-0.080
1.352,-0.185,-0.065
1.354,-0.095,-0.055
1.356,-0.160,-0.050
1.358,-0.185,-0.050
1.360,-0.245,-0.060
1.362,-0.275,-0.075
1.364,-0.410,-0.085
1.366,-0.385,-0.095
1.368,-0.315,-0.100
1.370,-0.245,-0.095
1.372,-0.165,-0.090
1.374,-0.080,-0.075
1.376,-0.155,-0.065
1.378,-0.145,-0.055
1.380,-0.275,-0.050
1.382,-0.330,-0.050
1.384,-0.405,-0.060
1.386,-0.395,-0.070
1.388,-0.220,-0.080
1.390,-0.305,-0.095
1.392,-0.135,-0.100
1.394,-0.155,-0.100
1.396,-0.175,-0.100
1.398,-0.205,-0.095
1.400,-0.290,-0.090
1.402,-0.320,-0.085
1.404,-0.385,-0.085
1.406,-0.420,-0.080
1.408,-0.310,-0.080
1.410,-0.270,-0.080
1.412,-0.155,-0.080
1.414,-0.085,-0.075
1.416,-0.125,-0.075
1.418,-0.150,-0.070
1.420,-0.170,-0.065
1.422,-0.380,-0.065
1.424,-0.370,-0.070
1.426,-0.415,-0.080
1.428,-0.280,-0.090
1.430,-0.260,-0.095
1.432,-0.285,-0.105
1.434,-0.120,-0.105
1.436,-0.150,-0.105
1.438,-0.175,-0.100
1.440,-0.265,-0.090
1.442,-0.335,-0.085
1.444,-0.390,-0.075
1.446,-0.405,-0.070
1.448,-0.265,-0.070
1.450,-0.195,-0.075
1.452,-0.230,-0.080
1.454,-0.190,-0.090
1.456,-0.150,-0.095
1.458,-0.190,-0.100
1.460,-0.270,-0.105
1.462,-0.320,-0.105
1.464,-0.410,-0.105
1.466,-0.365,-0.105
1.468,-0.330,-0.100
1.470,-0.290,-0.100
1.472,-0.240,-0.095
1.474,-0.165,-0.090
1.476,-0.055,-0.080
1.478,-0.160,-0.070
1.480,-0.295,-0.055
1.482,-0.240,-0.045
1.484,-0.295,-0.035
1.486,-0.300,-0.030
1.488,-0.180,-0.030
1.490,-0.230,-0.045
1.492,-0.185,-0.060
1.494,-0.115,-0.080
1.496,-0.180,-0.100
1.498,-0.255,-0.120
1.500,-0.305,-0.125
1.502,-0.360,-0.120
1.504,-0.310,-0.110
1.506,-0.320,-0.090
1.508,-0.300,-0.070
1.510,-0.215,-0.050
1.512,-0.175,-0.040
1.514,-0.070,-0.035
1.516,-0.070,-0.040
1.518,-0.190,-0.055
1.520,-0.265,-0.070
1.522,-0.315,-0.085
1.524,-0.370,-0.100
1.526,-0.340,-0.105
1.528,-0.285,-0.105
1.530,-0.185,-0.095
1.532,-0.135,-0.085
1.534,-0.120,-0.075
1.536,-0.185,-0.065
1.538,-0.250,-0.065
1.540,-0.220,-0.070
1.542,-0.310,-0.080
1.544,-0.290,-0.090
1.546,-0.380,-0.105
1.548,-0.305,-0.115
1.550,-0.230,-0.120
1.552,-0.135,-0.120
1.554,-0.105,-0.120
1.556,-0.195,-0.115
1.558,-0.220,-0.105
1.560,-0.260,-0.100
1.562,-0.375,-0.095
1.564,-0.390,-0.095
1.566,-0.335,-0.095
1.568,-0.235,-0.090
1.570,-0.190,-0.090
1.572,-0.040,-0.080
1.574,-0.085,-0.070
1.576,-0.185,-0.060
1.578,-0.245,-0.045
1.580,-0.200,-0.035
1.582,-0.260,-0.030
1.584,-0.290,-0.030
1.586,-0.310,-0.040
1.588,-0.245,-0.050
1.590,-0.195,-0.065
1.592,-0.055,-0.080
1.594,-0.145,-0.095
1.596,-0.165,-0.100
1.598,-0.200,-0.105
1.600,-0.260,-0.105
1.602,-0.300,-0.100
1.604,-0.335,-0.090
1.606,-0.360,-0.085
1.608,-0.290,-0.075
1.610,-0.165,-0.075
1.612,-0.065,-0.070
1.614,-0.070,-0.070
1.616,-0.115,-0.070
1.618,-0.235,-0.070
1.620,-0.260,-0.070
1.622,-0.345,-0.070
1.624,-0.330,-0.070
1.626,-0.305,-0.075
1.628,-0.160,-0.085
1.630,-0.200,-0.090
1.632,-0.130,-0.100
1.634,-0.145,-0.100
1.636,-0.155,-0.100
1.638,-0.205,-0.095
1.640,-0.200,-0.080
1.642,-0.330,-0.065
1.644,-0.310,-0.045
1.646,-0.285,-0.030
1.648,-0.100,-0.020
1.650,-0.035,-0.020
1.652,0.030,-0.030
1.654,-0.100,-0.045
1.656,-0.220,-0.070
1.658,-0.335,-0.095
1.660,-0.275,-0.115
1.662,-0.355,-0.125
1.664,-0.390,-0.135
1.666,-0.315,-0.130
1.668,-0.250,-0.120
1.670,-0.195,-0.110
1.672,-0.075,-0.100
1.674,-0.140,-0.090
1.676,-0.190,-0.080
1.678,-0.240,-0.080
1.680,-0.235,-0.075
1.682,-0.285,-0.075
1.684,-0.310,-0.075
1.686,-0.245,-0.070
1.688,-0.165,-0.065
1.690,-0.145,-0.055
1.692,-0.055,-0.050
1.694,-0.060,-0.045
1.696,-0.150,-0.045
1.698,-0.220,-0.045
1.700,-0.245,-0.055
1.702,-0.285,-0.065
1.704,-0.290,-0.080
1.706,-0.335,-0.095
1.708,-0.185,-0.110
1.710,-0.200,-0.120
1.712,-0.180,-0.120
1.714,-0.115,-0.120
1.716,-0.175,-0.110
1.718,-0.285,-0.100
1.720,-0.215,-0.090
1.722,-0.335,-0.080
1.724,-0.370,-0.070
1.726,-0.210,-0.070
1.728,-0.165,-0.070
1.730,-0.140,-0.080
1.732,-0.085,-0.085
1.734,-0.110,-0.095
1.736,-0.195,-0.100
1.738,-0.215,-0.100
1.740,-0.250,-0.095
1.742,-0.365,-0.090
1.744,-0.335,-0.080
1.746,-0.175,-0.070
1.748,-0.115,-0.065
1.750,-0.135,-0.060
1.752,-0.060,-0.060
1.754,-0.085,-0.060
1.756,-0.175,-0.065
1.758,-0.250,-0.070
1.760,-0.325,-0.075
1.762,-0.355,-0.080
1.764,-0.265,-0.075
1.766,-0.150,-0.070
1.768,-0.080,-0.065
1.770,-0.095,-0.055
1.772,-0.065,-0.045
1.774,-0.125,-0.030
1.776,-0.085,-0.020
1.778,-0.095,-0.010
1.780,-0.200,-0.005
1.782,-0.260,0.005
1.784,-0.215,0.010
1.786,-0.080,0.015
1.788,0.000,0.020
1.790,0.015,0.025
1.792,0.010,0.025
1.794,-0.015,0.030
1.796,-0.025,0.035
1.798,-0.095,0.040
1.800,-0.135,0.045
1.802,-0.240,0.050
1.804,-0.150,0.055
1.806,-0.005,0.055
1.808,0.045,0.055
1.810,0.025,0.050
1.812,0.010,0.045
1.814,-0.050,0.035
1.816,-0.065,0.030
1.818,-0.130,0.020
1.820,-0.190,0.015
1.822,-0.185,0.015
1.824,-0.125,0.020
1.826,-0.075,0.020
1.828,-0.050,0.020
1.830,-0.040,0.020
1.832,0.025,0.020
1.834,0.035,0.010
1.836,-0.065,0.000
1.838,-0.215,-0.010
1.840,-0.215,-0.020
1.842,-0.230,-0.030
1.844,-0.230,-0.035
1.846,-0.190,-0.035
1.848,-0.145,-0.035
1.850,0.005,-0.040
1.852,-0.025,-0.040
1.854,-0.070,-0.050
1.856,-0.150,-0.060
1.858,-0.200,-0.075
1.860,-0.330,-0.090
1.862,-0.300,-0.105
1.864,-0.275,-0.115
1.866,-0.245,-0.120
1.868,-0.160,-0.120
1.870,-0.085,-0.120
1.872,-0.075,-0.115
1.874,-0.120,-0.110
1.876,-0.210,-0.110
1.878,-0.305,-0.105
1.880,-0.365,-0.105
1.882,-0.300,-0.105
1.884,-0.230,-0.105
1.886,-0.185,-0.100
1.888,-0.085,-0.085
1.890,-0.045,-0.065
1.892,-0.030,-0.040
1.894,-0.085,-0.005
1.896,-0.050,0.040
1.898,-0.010,0.095
1.900,-0.060,0.155
1.902,0.015,0.220
1.904,0.170,0.295
1.906,0.270,0.370
1.908,0.450,0.440
1.910,0.610,0.500
1.912,0.705,0.535
1.914,0.555,0.540
1.916,0.375,0.505
1.918,0.250,0.425
1.920,0.025,0.305
1.922,-0.005,0.140
1.924,-0.150,-0.045
1.926,-0.360,-0.240
1.928,-0.520,-0.430
1.930,-0.535,-0.605
1.932,-0.785,-0.740
1.934,-0.920,-0.835
1.936,-1.045,-0.885
1.938,-1.040,-0.890
1.940,-1.110,-0.865
1.942,-1.035,-0.815
1.944,-0.915,-0.745
1.946,-0.690,-0.675
1.948,-0.595,-0.605
1.950,-0.425,-0.540
1.952,-0.390,-0.480
1.954,-0.395,-0.430
1.956,-0.455,-0.385
1.958,-0.535,-0.340
1.960,-0.535,-0.290
1.962,-0.400,-0.240
1.964,-0.300,-0.185
1.966,-0.110,-0.125
1.968,-0.080,-0.065
1.970,0.065,0.000
1.972,0.085,0.060
1.974,0.175,0.115
1.976,0.065,0.160
1.978,0.060,0.200
1.980,-0.050,0.225
1.982,0.085,0.245
1.984,0.155,0.255
1.986,0.200,0.255
1.988,0.200,0.260
1.990,0.335,0.255
1.992,0.310,0.250
1.994,0.230,0.245
1.996,0.120,0.235
1.998,0.060,0.230
2.000,0.025,0.215
2.002,-0.005,0.200
2.004,0.085,0.185
2.006,0.140,0.175
2.008,0.125,0.160
2.010,0.210,0.150
2.012,0.195,0.145
2.014,0.095,0.145
2.016,0.090,0.145
2.018,-0.010,0.145
2.020,-0.065,0.145
2.022,-0.055,0.150
2.024,-0.010,0.150
2.026,0.035,0.155
2.028,0.160,0.155
2.030,0.305,0.155
2.032,0.275,0.160
2.034,0.175,0.160
2.036,0.060,0.160
2.038,-0.025,0.155
2.040,-0.095,0.150
2.042,-0.060,0.140
2.044,0.040,0.130
2.046,0.120,0.115
2.048,0.120,0.105
2.050,0.145,0.105
2.052,0.160,0.105
2.054,0.125,0.115
2.056,0.065,0.130
2.058,0.025,0.145
2.060,0.030,0.165
2.062,0.045,0.180
2.064,0.040,0.190
2.066,0.190,0.195
2.068,0.175,0.195
2.070,0.270,0.185
2.072,0.285,0.175
2.074,0.155,0.170
2.076,0.030,0.160
2.078,0.025,0.160
2.080,-0.025,0.160
2.082,0.005,0.160
2.084,0.065,0.165
2.086,0.135,0.165
2.088,0.265,0.165
2.090,0.235,0.160
2.092,0.185,0.160
2.094,0.130,0.160
2.096,0.025,0.160
2.098,-0.010,0.165
2.100,0.040,0.175
2.102,0.095,0.185
2.104,0.125,0.200
2.106,0.225,0.215
2.108,0.310,0.230
2.110,0.315,0.235
2.112,0.305,0.240
2.114,0.155,0.240
2.116,0.125,0.240
2.118,0.050,0.240
2.120,0.090,0.240
2.122,0.165,0.245
2.124,0.205,0.250
2.126,0.275,0.265
2.128,0.290,0.275
2.130,0.380,0.285
2.132,0.260,0.295
2.134,0.220,0.305
2.136,0.245,0.305
2.138,0.185,0.305
2.140,0.265,0.305
2.142,0.190,0.305
2.144,0.260,0.305
2.146,0.325,0.305
2.148,0.275,0.310
2.150,0.345,0.320
2.152,0.395,0.325
2.154,0.280,0.330
2.156,0.310,0.340
2.158,0.250,0.340
2.160,0.255,0.345
2.162,0.155,0.345
2.164,0.270,0.350
2.166,0.315,0.350
2.168,0.395,0.355
2.170,0.485,0.355
2.172,0.430,0.355
2.174,0.325,0.360
2.176,0.260,0.355
2.178,0.250,0.355
2.180,0.175,0.350
2.182,0.220,0.340
2.184,0.320,0.335
2.186,0.315,0.330
2.188,0.420,0.325
2.190,0.445,0.325
2.192,0.360,0.325
2.194,0.245,0.330
2.196,0.240,0.335
2.198,0.155,0.340
2.200,0.225,0.345
2.202,0.295,0.345
2.204,0.355,0.345
2.206,0.285,0.340
2.208,0.415,0.335
2.210,0.415,0.325
2.212,0.405,0.315
2.214,0.250,0.305
2.216,0.260,0.290
2.218,0.165,0.275
2.220,0.020,0.255
2.222,0.105,0.230
2.224,0.085,0.210
2.226,0.265,0.185
2.228,0.310,0.160
2.230,0.245,0.140
2.232,0.080,0.125
2.234,0.065,0.115
2.236,0.005,0.110
2.238,0.025,0.110
2.240,0.005,0.105
2.242,-0.010,0.105
2.244,0.060,0.100
2.246,0.110,0.090
2.248,0.150,0.070
2.250,0.135,0.055
2.252,0.060,0.035
2.254,-0.055,0.020
2.256,-0.130,0.005
2.258,-0.140,0.000
2.260,-0.085,0.000
2.262,-0.050,0.000
2.264,-0.040,0.005
2.266,-0.010,0.005
2.268,0.120,0.005
2.270,0.065,-0.005
2.272,-0.010,-0.015
2.274,-0.075,-0.035
2.276,-0.145,-0.055
2.278,-0.305,-0.070
2.280,-0.220,-0.085
2.282,-0.090,-0.090
2.284,-0.055,-0.090
2.286,-0.075,-0.085
2.288,0.015,-0.070
2.290,-0.010,-0.060
2.292,0.005,-0.050
2.294,-0.100,-0.045
2.296,-0.100,-0.040
2.298,-0.210,-0.045
2.300,-0.215,-0.045
2.302,-0.125,-0.050
2.304,-0.060,-0.050
2.306,0.035,-0.050
2.308,0.115,-0.050
2.310,0.080,-0.045
2.312,-0.060,-0.045
2.314,-0.145,-0.045
2.316,-0.105,-0.045
2.318,-0.215,-0.050
2.320,-0.195,-0.060
2.322,-0.150,-0.070
2.324,-0.050,-0.075
2.326,-0.045,-0.085
2.328,0.025,-0.085
2.330,0.040,-0.085
2.332,-0.030,-0.080
2.334,-0.105,-0.070
2.336,-0.220,-0.065
2.338,-0.165,-0.055
2.340,-0.155,-0.045
2.342,-0.075,-0.040
2.344,0.030,-0.040
2.346,0.015,-0.040
2.348,0.070,-0.040
2.350,0.060,-0.045
2.352,-0.020,-0.050
2.354,-0.150,-0.060
2.356,-0.135,-0.065
2.358,-0.220,-0.075
2.360,-0.275,-0.085
2.362,-0.160,-0.095
2.364,-0.060,-0.100
2.366,-0.025,-0.100
2.368,0.120,-0.095
2.370,-0.035,-0.085
2.372,-0.020,-0.070
2.374,-0.090,-0.055
2.376,-0.150,-0.040
2.378,-0.150,-0.035
2.380,-0.140,-0.030
2.382,-0.060,-0.030
2.384,-0.010,-0.035
2.386,-0.010,-0.045
2.388,0.045,-0.055
2.390,-0.010,-0.065
2.392,0.005,-0.065
2.394,-0.130,-0.065
2.396,-0.120,-0.060
2.398,-0.180,-0.055
2.400,-0.150,-0.045
2.402,-0.105,-0.040
2.404,-0.065,-0.040
2.406,0.030,-0.045
2.408,0.085,-0.045
2.410,0.060,-0.055
2.412,0.045,-0.055
2.414,-0.115,-0.060
2.416,-0.190,-0.060
2.418,-0.300,-0.060
2.420,-0.170,-0.055
2.422,-0.040,-0.055
2.424,-0.010,-0.050
2.426,0.020,-0.055
2.428,0.085,-0.055
2.430,0.025,-0.055
2.432,-0.065,-0.060
2.434,-0.090,-0.060
2.436,-0.150,-0.055
2.438,-0.190,-0.050
2.440,-0.130,-0.040
2.442,-0.040,-0.035
2.444,0.040,-0.030
2.446,0.055,-0.030
2.448,0.030,-0.040
2.450,-0.015,-0.050
2.452,-0.155,-0.060
2.454,-0.080,-0.075
2.456,-0.180,-0.090
2.458,-0.170,-0.100
2.460,-0.110,-0.100
2.462,-0.110,-0.100
2.464,-0.130,-0.090
2.466,-0.025,-0.080
2.468,0.060,-0.070
2.470,0.045,-0.060
2.472,-0.035,-0.055
2.474,-0.110,-0.050
2.476,-0.140,-0.055
2.478,-0.160,-0.060
2.480,-0.190,-0.065
2.482,-0.090,-0.070
2.484,-0.075,-0.070
2.486,0.065,-0.070
2.488,0.040,-0.070
2.490,0.005,-0.065
2.492,-0.090,-0.055
2.494,-0.065,-0.055
2.496,-0.165,-0.050
2.498,-0.180,-0.050
2.500,-0.140,-0.050
2.502,-0.080,-0.050
2.504,-0.025,-0.050
2.506,0.095,-0.050
2.508,0.075,-0.055
2.510,0.000,-0.055
2.512,-0.100,-0.060
2.514,-0.095,-0.065
2.516,-0.230,-0.070
2.518,-0.200,-0.080
2.520,-0.135,-0.090
2.522,0.020,-0.095
2.524,-0.045,-0.100
2.526,0.025,-0.100
2.528,0.010,-0.100
2.530,-0.100,-0.095
2.532,-0.050,-0.090
2.534,-0.115,-0.085
2.536,-0.250,-0.080
2.538,-0.175,-0.080
2.540,-0.130,-0.085
2.542,-0.045,-0.085
2.544,-0.040,-0.085
2.546,0.020,-0.085
2.548,0.060,-0.080
2.550,0.045,-0.075
2.552,-0.080,-0.070
2.554,-0.130,-0.060
2.556,-0.175,-0.060
2.558,-0.140,-0.060
2.560,-0.115,-0.065
2.562,-0.055,-0.075
2.564,-0.040,-0.085
2.566,0.010,-0.100
2.568,-0.015,-0.110
2.570,-0.120,-0.115
2.572,-0.170,-0.115
2.574,-0.090,-0.110
2.576,-0.160,-0.095
2.578,-0.185,-0.085
2.580,-0.125,-0.070
2.582,-0.035,-0.055
2.584,0.025,-0.045
2.586,0.100,-0.035
2.588,0.070,-0.035
2.590,-0.030,-0.035
2.592,-0.100,-0.040
2.594,-0.105,-0.045
2.596,-0.160,-0.055
2.598,-0.135,-0.065
2.600,-0.065,-0.075
2.602,0.020,-0.085
2.604,-0.065,-0.090
2.606,0.045,-0.095
2.608,0.050,-0.090
2.610,-0.090,-0.085
2.612,-0.160,-0.075
2.614,-0.110,-0.065
2.616,-0.135,-0.055
2.618,-0.120,-0.045
2.620,-0.095,-0.045
2.622,0.000,-0.045
2.624,0.020,-0.050
2.626,0.030,-0.060
2.628,0.010,-0.070
2.630,-0.060,-0.075
2.632,-0.135,-0.085
2.634,-0.155,-0.085
2.636,-0.205,-0.085
2.638,-0.150,-0.080
2.640,-0.085,-0.080
2.642,0.005,-0.075
2.644,0.030,-0.075
2.646,0.045,-0.075
2.648,-0.040,-0.075
2.650,-0.050,-0.080
2.652,-0.095,-0.085
2.654,-0.090,-0.085
2.656,-0.180,-0.080
2.658,-0.160,-0.075
2.660,-0.065,-0.065
2.662,0.015,-0.055
2.664,-0.010,-0.045
2.666,0.125,-0.040
2.668,0.110,-0.030
2.670,-0.025,-0.030
2.672,-0.080,-0.030
2.674,-0.040,-0.030
2.676,-0.160,-0.030
2.678,-0.145,-0.030
2.680,-0.015,-0.030
2.682,0.005,-0.025
2.684,0.035,-0.020
2.686,0.140,-0.020
2.688,0.035,-0.015
2.690,-0.015,-0.015
2.692,0.030,-0.015
2.694,-0.135,-0.025
2.696,-0.120,-0.035
2.698,-0.095,-0.045
2.700,-0.035,-0.055
2.702,-0.065,-0.070
2.704,-0.005,-0.080
2.706,0.060,-0.085
2.708,0.055,-0.090
2.710,-0.045,-0.090
2.712,-0.095,-0.090
2.714,-0.245,-0.085
2.716,-0.190,-0.080
2.718,-0.125,-0.070
2.720,-0.030,-0.060
2.722,0.045,-0.050
2.724,0.125,-0.035
2.726,0.110,-0.025
2.728,0.030,-0.010
2.730,-0.015,-0.005
2.732,-0.030,0.000
2.734,-0.075,0.000
2.736,-0.100,-0.005
2.738,-0.100,-0.015
2.740,-0.065,-0.025
2.742,0.025,-0.035
2.744,0.060,-0.040
2.746,0.080,-0.040
2.748,0.060,-0.040
2.750,-0.015,-0.035
2.752,-0.095,-0.030
2.754,-0.095,-0.025
2.756,-0.050,-0.020
2.758,-0.105,-0.020
2.760,-0.065,-0.020
2.762,-0.030,-0.025
2.764,0.080,-0.030
2.766,0.105,-0.030
2.768,0.135,-0.025
2.770,0.050,-0.020
2.772,0.030,-0.005
2.774,-0.135,0.005
2.776,-0.130,0.015
2.778,-0.050,0.020
2.780,0.005,0.015
2.782,0.065,0.005
2.784,0.135,-0.015
2.786,0.095,-0.035
2.788,-0.030,-0.050
2.790,-0.015,-0.065
2.792,-0.035,-0.075
2.794,-0.190,-0.075
2.796,-0.165,-0.065
2.798,-0.140,-0.055
2.800,0.025,-0.045
2.802,0.020,-0.035
2.804,0.095,-0.035
2.806,0.085,-0.040
2.808,0.030,-0.050
2.810,-0.075,-0.060
2.812,-0.085,-0.070
2.814,-0.245,-0.075
2.816,-0.210,-0.075
2.818,-0.050,-0.065
2.820,0.000,-0.060
2.822,0.050,-0.050
2.824,0.145,-0.040
2.826,0.075,-0.040
2.828,0.045,-0.040
2.830,-0.070,-0.050
2.832,-0.115,-0.060
2.834,-0.255,-0.065
2.836,-0.160,-0.075
2.838,-0.060,-0.075
2.840,0.000,-0.070
2.842,0.025,-0.060
2.844,0.065,-0.050
2.846,0.070,-0.040
2.848,0.090,-0.035
2.850,-0.060,-0.030
2.852,-0.035,-0.025
2.854,-0.160,-0.025
2.856,-0.110,-0.030
2.858,-0.065,-0.030
2.860,-0.025,-0.030
2.862,-0.045,-0.025
2.864,0.140,-0.020
2.866,0.145,-0.015
2.868,0.055,-0.010
2.870,-0.035,-0.005
2.872,-0.045,-0.005
2.874,-0.120,0.000
2.876,-0.055,0.000
2.878,-0.050,0.000
2.880,-0.025,0.000
2.882,0.110,0.005
2.884,0.180,0.015
2.886,0.155,0.025
2.888,0.125,0.035
2.890,0.045,0.050
2.892,0.000,0.055
2.894,-0.065,0.060
2.896,-0.080,0.065
2.898,0.030,0.060
2.900,0.210,0.055
2.902,0.120,0.045
2.904,0.180,0.040
2.906,0.120,0.035
2.908,0.045,0.030
2.910,-0.010,0.030
2.912,0.075,0.035
2.914,-0.060,0.040
2.916,-0.050,0.045
2.918,0.030,0.045
2.920,0.095,0.045
2.922,0.130,0.040
2.924,0.155,0.030
2.926,0.110,0.020
2.928,0.040,0.005
2.930,-0.020,-0.005
2.932,-0.060,-0.015
2.934,-0.100,-0.020
2.936,-0.100,-0.030
2.938,-0.070,-0.035
2.940,-0.015,-0.040
2.942,0.060,-0.050
2.944,0.090,-0.060
2.946,0.000,-0.075
2.948,-0.065,-0.085
2.950,-0.140,-0.100
2.952,-0.170,-0.105
2.954,-0.175,-0.105
2.956,-0.145,-0.095
2.958,-0.090,-0.085
2.960,-0.015,-0.075
2.962,-0.005,-0.060
2.964,0.150,-0.050
2.966,0.095,-0.045
2.968,-0.035,-0.045
2.970,-0.100,-0.050
2.972,-0.125,-0.060
2.974,-0.165,-0.075
2.976,-0.205,-0.085
2.978,-0.090,-0.095
2.980,-0.030,-0.105
2.982,0.000,-0.110
2.984,0.025,-0.105
2.986,0.045,-0.100
2.988,-0.115,-0.090
2.990,-0.115,-0.075
2.992,-0.120,-0.055
2.994,-0.080,-0.020
2.996,-0.005,0.020
2.998,0.110,0.075
3.000,0.230,0.140
3.002,0.300,0.215
3.004,0.420,0.290
3.006,0.475,0.365
3.008,0.500,0.425
3.010,0.495,0.475
3.012,0.490,0.495
3.014,0.525,0.490
3.016,0.425,0.445
3.018,0.315,0.365
3.020,0.220,0.245
3.022,0.190,0.100
3.024,0.055,-0.065
3.026,-0.100,-0.240
3.028,-0.365,-0.405
3.030,-0.620,-0.560
3.032,-0.890,-0.680
3.034,-0.945,-0.765
3.036,-0.885,-0.815
3.038,-0.785,-0.825
3.040,-0.785,-0.805
3.042,-0.605,-0.760
3.044,-0.525,-0.700
3.046,-0.535,-0.635
3.048,-0.540,-0.570
3.050,-0.545,-0.515
3.052,-0.530,-0.465
3.054,-0.430,-0.425
3.056,-0.385,-0.390
3.058,-0.405,-0.365
3.060,-0.290,-0.345
3.062,-0.165,-0.320
3.064,-0.195,-0.300
3.066,-0.170,-0.275
3.068,-0.200,-0.250
3.070,-0.300,-0.220
3.072,-0.330,-0.185
3.074,-0.215,-0.155
3.076,-0.095,-0.125
3.078,-0.020,-0.100
3.080,-0.025,-0.075
3.082,0.105,-0.065
3.084,0.020,-0.060
3.086,0.000,-0.060
3.088,-0.095,-0.065
3.090,-0.085,-0.070
3.092,-0.150,-0.075
3.094,-0.125,-0.080
3.096,-0.115,-0.075
3.098,-0.040,-0.065
3.100,0.030,-0.050
3.102,0.050,-0.040
3.104,0.100,-0.030
3.106,0.095,-0.025
3.108,0.000,-0.025
3.110,-0.055,-0.030
3.112,-0.160,-0.035
3.114,-0.215,-0.045
3.116,-0.100,-0.045
3.118,-0.015,-0.045
3.120,0.035,-0.045
3.122,0.145,-0.040
3.124,0.125,-0.035
3.126,0.050,-0.030
3.128,-0.020,-0.035
3.130,-0.080,-0.040
3.132,-0.200,-0.045
3.134,-0.155,-0.055
3.136,-0.070,-0.060
3.138,0.035,-0.055
3.140,0.015,-0.050
3.142,0.105,-0.035
3.144,0.145,-0.020
3.146,0.070,-0.005
3.148,-0.010,0.010
3.150,-0.015,0.015
3.152,-0.055,0.020
3.154,-0.125,0.020
3.156,-0.055,0.015
3.158,0.075,0.010
3.160,0.095,0.010
3.162,0.200,0.010
3.164,0.220,0.010
3.166,0.070,0.020
3.168,-0.080,0.025
3.170,-0.010,0.035
3.172,-0.065,0.045
3.174,-0.045,0.050
3.176,0.020,0.050
3.178,0.080,0.050
3.180,0.105,0.050
3.182,0.225,0.050
3.184,0.170,0.055
3.186,0.105,0.055
3.188,0.075,0.065
3.190,0.010,0.070
3.192,-0.060,0.075
3.194,-0.005,0.085
3.196,0.075,0.090
3.198,0.150,0.100
3.200,0.135,0.105
3.202,0.340,0.110
3.204,0.225,0.115
3.206,0.180,0.115
3.208,0.115,0.115
3.210,0.065,0.115
3.212,0.005,0.115
3.214,0.050,0.115
3.216,0.120,0.120
3.218,0.200,0.130
3.220,0.275,0.140
3.222,0.305,0.160
3.224,0.260,0.180
3.226,0.260,0.195
3.228,0.230,0.215
3.230,0.195,0.225
3.232,0.120,0.225
3.234,0.180,0.220
3.236,0.185,0.210
3.238,0.180,0.195
3.240,0.280,0.180
3.242,0.280,0.175
3.244,0.250,0.170
3.246,0.255,0.175
3.248,0.205,0.190
3.250,0.135,0.205
3.252,0.155,0.230
3.254,0.200,0.250
3.256,0.285,0.265
3.258,0.320,0.280
3.260,0.350,0.285
3.262,0.420,0.290
3.264,0.415,0.290
3.266,0.330,0.290
3.268,0.255,0.290
3.270,0.240,0.300
3.272,0.150,0.310
3.274,0.250,0.325
3.276,0.415,0.340
3.278,0.475,0.355
3.280,0.445,0.365
3.282,0.500,0.375
3.284,0.435,0.375
3.286,0.355,0.370
3.288,0.340,0.360
3.290,0.300,0.350
3.292,0.150,0.340
3.294,0.335,0.330
3.296,0.385,0.320
3.298,0.340,0.315
3.300,0.415,0.310
3.302,0.410,0.305
3.304,0.380,0.305
3.306,0.360,0.300
3.308,0.275,0.290
3.310,0.240,0.280
3.312,0.165,0.265
3.314,0.105,0.245
3.316,0.260,0.225
3.318,0.320,0.205
3.320,0.290,0.185
3.322,0.310,0.170
3.324,0.210,0.160
3.326,0.165,0.155
3.328,0.125,0.150
3.330,0.075,0.145
3.332,0.100,0.140
3.334,0.150,0.135
3.336,0.145,0.120
3.338,0.040,0.105
3.340,0.220,0.080
3.342,0.160,0.055
3.344,0.065,0.030
3.346,0.040,0.010
3.348,0.000,-0.010
3.350,-0.090,-0.020
3.352,-0.105,-0.025
3.354,-0.070,-0.020
3.356,-0.010,-0.015
3.358,0.065,-0.010
3.360,0.175,-0.005
3.362,0.100,0.000
3.364,0.055,0.000
3.366,-0.080,-0.010
3.368,-0.035,-0.015
3.370,-0.095,-0.025
3.372,-0.090,-0.035
3.374,-0.075,-0.040
3.376,-0.045,-0.040
3.378,-0.030,-0.035
3.380,0.095,-0.025
3.382,0.075,-0.020
3.384,0.090,-0.015
3.386,0.000,-0.015
3.388,0.020,-0.020
3.390,-0.145,-0.030
3.392,-0.180,-0.040
3.394,-0.100,-0.055
3.396,-0.010,-0.070
3.398,-0.005,-0.080
3.400,0.040,-0.080
3.402,-0.005,-0.080
3.404,0.030,-0.070
3.406,-0.040,-0.060
3.408,-0.120,-0.050
3.410,-0.210,-0.040
3.412,-0.090,-0.030
3.414,-0.040,-0.030
3.416,0.055,-0.030
3.418,0.055,-0.030
3.420,0.105,-0.030
3.422,0.100,-0.025
3.424,0.080,-0.020
3.426,0.020,-0.015
3.428,-0.005,-0.005
3.430,-0.105,0.000
3.432,-0.165,0.005
3.434,-0.070,0.005
3.436,0.060,0.000
3.438,0.055,-0.010
3.440,0.080,-0.015
3.442,0.175,-0.020
3.444,0.050,-0.025
3.446,0.010,-0.020
3.448,-0.065,-0.010
3.450,-0.145,0.000
3.452,-0.105,0.010
3.454,0.035,0.020
3.456,0.080,0.020
3.458,0.085,0.015
3.460,0.140,0.010
3.462,0.105,-0.005
3.464,-0.025,-0.010
3.466,-0.060,-0.015
3.468,-0.015,-0.015
3.470,0.005,-0.010
3.472,-0.070,0.005
3.474,-0.055,0.015
3.476,0.065,0.030
3.478,0.050,0.035
3.480,0.145,0.035
3.482,0.140,0.030
3.484,0.100,0.020
3.486,0.000,0.010
3.488,-0.035,-0.005
3.490,-0.120,-0.010
3.492,-0.105,-0.015
3.494,-0.055,-0.010
3.496,0.075,-0.005
3.498,0.160,0.000
3.500,0.200,0.005
3.502,0.125,0.005
3.504,-0.060,0.000
3.506,-0.030,-0.005
3.508,-0.075,-0.015
3.510,-0.115,-0.020
3.512,-0.120,-0.025
3.514,0.000,-0.025
3.516,-0.015,-0.020
3.518,0.050,-0.005
3.520,0.185,0.005
3.522,0.165,0.015
3.524,0.065,0.025
3.526,0.020,0.030
3.528,-0.040,0.025
3.530,-0.115,0.020
3.532,-0.075,0.010
3.534,0.015,0.000
3.536,0.085,-0.010
3.538,0.065,-0.020
3.540,0.000,-0.020
3.542,0.110,-0.020
3.544,0.005,-0.020
3.546,-0.010,-0.015
3.548,-0.100,-0.010
3.550,-0.100,-0.005
3.552,-0.030,-0.005
3.554,0.035,-0.005
3.556,0.030,-0.005
3.558,0.125,-0.005
3.560,0.110,-0.010
3.562,0.070,-0.010
3.564,0.030,-0.015
3.566,-0.090,-0.015
3.568,-0.105,-0.020
3.570,-0.105,-0.020
3.572,-0.060,-0.025
3.574,-0.005,-0.030
3.576,-0.010,-0.035
3.578,0.075,-0.040
3.580,0.055,-0.045
3.582,0.010,-0.055
3.584,-0.085,-0.065
3.586,-0.170,-0.070
3.588,-0.145,-0.075
3.590,-0.170,-0.080
3.592,-0.090,-0.080
3.594,-0.015,-0.070
3.596,-0.005,-0.060
3.598,0.055,-0.050
3.600,0.105,-0.040
3.602,0.060,-0.030
3.604,0.040,-0.020
3.606,-0.030,-0.020
3.608,-0.200,-0.020
3.610,-0.125,-0.025
3.612,-0.105,-0.030
3.614,-0.060,-0.035
3.616,0.010,-0.040
3.618,0.130,-0.040
3.620,0.055,-0.035
3.622,0.065,-0.035
3.624,0.005,-0.030
3.626,-0.075,-0.030
3.628,-0.195,-0.035
3.630,-0.145,-0.035
3.632,-0.090,-0.040
3.634,-0.030,-0.045
3.636,0.055,-0.045
3.638,0.075,-0.045
3.640,0.085,-0.035
3.642,0.100,-0.025
3.644,-0.030,-0.010
3.646,-0.005,0.005
3.648,-0.100,0.015
3.650,-0.090,0.015
3.652,-0.055,0.010
3.654,0.000,-0.005
3.656,0.000,-0.025
3.658,0.055,-0.045
3.660,0.100,-0.065
3.662,0.040,-0.075
3.664,-0.105,-0.080
3.666,-0.090,-0.070
3.668,-0.175,-0.060
3.670,-0.140,-0.040
3.672,-0.115,-0.020
3.674,-0.015,-0.005
3.676,0.055,0.000
3.678,0.150,-0.005
3.680,0.130,-0.015
3.682,0.055,-0.030
3.684,-0.040,-0.045
3.686,-0.030,-0.060
3.688,-0.245,-0.065
3.690,-0.205,-0.060
3.692,-0.235,-0.045
3.694,0.005,-0.025
3.696,0.190,-0.005
3.698,0.220,0.015
3.700,0.110,0.030
3.702,0.090,0.035
3.704,0.085,0.035
3.706,0.000,0.025
3.708,-0.155,0.015
3.710,-0.150,0.000
3.712,-0.040,-0.015
3.714,-0.010,-0.025
3.716,0.040,-0.030
3.718,0.070,-0.035
3.720,0.105,-0.035
3.722,0.005,-0.040
3.724,-0.035,-0.045
3.726,-0.005,-0.045
3.728,-0.190,-0.050
3.730,-0.185,-0.055
3.732,-0.095,-0.050
3.734,0.010,-0.045
3.736,0.020,-0.035
3.738,0.130,-0.025
3.740,0.125,-0.010
3.742,0.065,0.000
3.744,-0.025,0.000
3.746,-0.065,0.000
3.748,-0.145,-0.010
3.750,-0.140,-0.025
3.752,-0.080,-0.040
3.754,0.040,-0.055
3.756,-0.025,-0.065
3.758,-0.005,-0.070
3.760,0.045,-0.070
3.762,0.065,-0.065
3.764,-0.045,-0.055
3.766,-0.145,-0.050
3.768,-0.185,-0.045
3.770,-0.165,-0.045
3.772,-0.045,-0.045
3.774,0.000,-0.050
3.776,0.020,-0.060
3.778,0.070,-0.065
3.780,0.025,-0.070
3.782,-0.025,-0.070
3.784,-0.060,-0.070
3.786,-0.115,-0.065
3.788,-0.175,-0.065
3.790,-0.160,-0.060
3.792,-0.065,-0.060
3.794,0.010,-0.055
3.796,0.015,-0.050
3.798,0.100,-0.045
3.800,0.075,-0.035
3.802,0.040,-0.030
3.804,-0.035,-0.025
3.806,-0.065,-0.020
3.808,-0.200,-0.025
3.810,-0.115,-0.035
3.812,-0.065,-0.050
3.814,-0.030,-0.065
3.816,-0.060,-0.085
3.818,0.010,-0.100
3.820,-0.025,-0.105
3.822,-0.055,-0.105
3.824,-0.065,-0.095
3.826,-0.065,-0.075
3.828,-0.160,-0.055
3.830,-0.200,-0.035
3.832,-0.090,-0.015
3.834,0.050,-0.005
3.836,0.105,-0.005
3.838,0.150,-0.010
3.840,0.070,-0.015
3.842,-0.025,-0.030
3.844,-0.095,-0.040
3.846,-0.115,-0.045
3.848,-0.155,-0.040
3.850,-0.105,-0.035
3.852,-0.055,-0.030
3.854,0.025,-0.020
3.856,0.020,-0.015
3.858,0.035,-0.015
3.860,0.165,-0.015
3.862,0.060,-0.015
3.864,-0.095,-0.020
3.866,-0.145,-0.020
3.868,-0.105,-0.015
3.870,-0.045,-0.010
3.872,-0.030,0.005
3.874,0.055,0.020
3.876,0.155,0.035
3.878,0.150,0.045
3.880,0.200,0.055
3.882,0.065,0.060
3.884,-0.010,0.060
3.886,-0.055,0.060
3.888,-0.055,0.065
3.890,-0.010,0.075
3.892,0.050,0.085
3.894,0.105,0.100
3.896,0.240,0.115
3.898,0.340,0.130
3.900,0.215,0.140
3.902,0.105,0.140
3.904,0.150,0.135
3.906,0.110,0.120
3.908,-0.075,0.100
3.910,-0.080,0.075
3.912,-0.120,0.050
3.914,0.125,0.035
3.916,0.250,0.020
3.918,0.140,0.015
3.920,0.115,0.015
3.922,0.060,0.025
3.924,0.015,0.035
3.926,-0.065,0.045
3.928,-0.080,0.050
3.930,-0.055,0.055
3.932,0.045,0.050
3.934,0.110,0.040
3.936,0.180,0.020
3.938,0.090,0.000
3.940,0.070,-0.025
3.942,0.025,-0.045
3.944,-0.125,-0.065
3.946,-0.270,-0.075
3.948,-0.200,-0.080
3.950,-0.125,-0.075
3.952,-0.080,-0.070
3.954,-0.030,-0.065
3.956,0.010,-0.060
3.958,0.045,-0.055
3.960,0.015,-0.055
3.962,-0.045,-0.060
3.964,-0.095,-0.070
3.966,-0.185,-0.080
3.968,-0.150,-0.085
3.970,-0.205,-0.095
3.972,-0.130,-0.095
3.974,-0.085,-0.100
3.976,0.015,-0.095
3.978,0.015,-0.095
3.980,-0.025,-0.090
3.982,-0.070,-0.085
3.984,-0.060,-0.075
3.986,-0.210,-0.065
3.988,-0.220,-0.050
3.990,-0.110,-0.020
3.992,0.020,0.015
3.994,0.110,0.060
3.996,0.280,0.125
3.998,0.340,0.195
4.000,0.350,0.280
4.002,0.370,0.365
4.004,0.465,0.445
4.006,0.435,0.515
4.008,0.485,0.565
4.010,0.575,0.580
4.012,0.595,0.555
4.014,0.545,0.485
4.016,0.425,0.370
4.018,0.325,0.215
4.020,0.055,0.030
4.022,-0.135,-0.165
4.024,-0.425,-0.365
4.026,-0.645,-0.540
4.028,-0.885,-0.685
4.030,-0.980,-0.785
4.032,-0.915,-0.835
4.034,-0.855,-0.840
4.036,-0.645,-0.810
4.038,-0.525,-0.750
4.040,-0.555,-0.675
4.042,-0.665,-0.600
4.044,-0.560,-0.525
4.046,-0.615,-0.470
4.048,-0.500,-0.425
4.050,-0.475,-0.390
4.052,-0.355,-0.365
4.054,-0.280,-0.345
4.056,-0.185,-0.315
4.058,-0.120,-0.285
4.060,-0.200,-0.250
4.062,-0.225,-0.205
4.064,-0.130,-0.160
4.066,-0.245,-0.120
4.068,-0.345,-0.085
4.070,-0.150,-0.060
4.072,0.005,-0.040
4.074,0.070,-0.025
4.076,0.110,-0.020
4.078,0.055,-0.020
4.080,0.045,-0.020
4.082,0.010,-0.015
4.084,-0.090,-0.010
4.086,-0.115,-0.005
4.088,-0.110,0.000
4.090,-0.080,0.000
4.092,0.010,0.005
4.094,0.090,0.005
4.096,0.115,0.005
4.098,0.070,0.010
4.100,0.070,0.010
4.102,0.035,0.015
4.104,-0.015,0.020
4.106,-0.125,0.030
4.108,-0.070,0.040
4.110,-0.025,0.050
4.112,0.135,0.055
4.114,0.215,0.055
4.116,0.170,0.050
4.118,0.050,0.040
4.120,0.010,0.025
4.122,-0.065,0.015
4.124,-0.090,0.005
4.126,-0.075,0.000
4.128,-0.035,0.000
4.130,0.055,0.005
4.132,0.045,0.015
4.134,0.045,0.030
4.136,0.075,0.045
4.138,0.115,0.055
4.140,0.110,0.060
4.142,0.035,0.065
4.144,0.045,0.060
4.146,-0.055,0.060
4.148,-0.015,0.055
4.150,-0.015,0.050
4.152,0.070,0.050
4.154,0.125,0.055
4.156,0.150,0.060
4.158,0.170,0.065
4.160,0.125,0.075
4.162,0.065,0.080
4.164,-0.020,0.080
4.166,-0.055,0.080
4.168,-0.015,0.080
4.170,0.075,0.080
4.172,0.075,0.085
4.174,0.205,0.090
4.176,0.250,0.100
4.178,0.175,0.115
4.180,0.090,0.130
4.182,0.060,0.140
4.184,0.085,0.145
4.186,0.060,0.140
4.188,0.060,0.135
4.190,0.045,0.120
4.192,0.060,0.105
4.194,0.130,0.095
4.196,0.250,0.090
4.198,0.220,0.095
4.200,0.060,0.115
4.202,0.070,0.140
4.204,0.115,0.170
4.206,0.130,0.195
4.208,0.140,0.220
4.210,0.160,0.230
4.212,0.245,0.235
4.214,0.340,0.225
4.216,0.290,0.205
4.218,0.250,0.190
4.220,0.165,0.175
4.222,0.100,0.170
4.224,0.105,0.175
4.226,0.035,0.190
4.228,0.115,0.210
4.230,0.265,0.235
4.232,0.300,0.260
4.234,0.395,0.280
4.236,0.385,0.295
4.238,0.285,0.300
4.240,0.310,0.300
4.242,0.275,0.300
4.244,0.190,0.295
4.246,0.195,0.295
4.248,0.240,0.295
4.250,0.290,0.295
4.252,0.320,0.300
4.254,0.370,0.305
4.256,0.395,0.315
4.258,0.365,0.320
4.260,0.315,0.330
4.262,0.280,0.340
4.264,0.230,0.355
4.266,0.275,0.370
4.268,0.345,0.385
4.270,0.335,0.395
4.272,0.485,0.405
4.274,0.580,0.410
4.276,0.500,0.405
4.278,0.400,0.400
4.280,0.350,0.385
4.282,0.295,0.370
4.284,0.230,0.355
4.286,0.130,0.340
4.288,0.280,0.335
4.290,0.330,0.330
4.292,0.370,0.335
4.294,0.460,0.340
4.296,0.425,0.345
4.298,0.470,0.350
4.300,0.290,0.355
4.302,0.285,0.355
4.304,0.225,0.350
4.306,0.205,0.345
4.308,0.215,0.335
4.310,0.310,0.325
4.312,0.345,0.305
4.314,0.375,0.290
4.316,0.395,0.265
4.318,0.335,0.240
4.320,0.175,0.215
4.322,0.140,0.190
4.324,-0.010,0.165
4.326,-0.060,0.145
4.328,0.070,0.130
4.330,0.160,0.115
4.332,0.125,0.105
4.334,0.225,0.100
4.336,0.200,0.090
4.338,0.145,0.080
4.340,-0.015,0.070
4.342,-0.015,0.060
4.344,-0.045,0.050
4.346,-0.135,0.035
4.348,-0.045,0.020
4.350,0.020,0.010
4.352,0.060,0.000
4.354,0.105,-0.010
4.356,0.060,-0.015
4.358,0.020,-0.025
4.360,-0.075,-0.030
4.362,-0.125,-0.035
4.364,-0.170,-0.040
4.366,-0.130,-0.040
4.368,-0.110,-0.040
4.370,-0.080,-0.035
4.372,-0.030,-0.030
4.374,0.100,-0.025
4.376,0.130,-0.025
4.378,0.000,-0.025
4.380,-0.065,-0.025
4.382,-0.170,-0.035
4.384,-0.160,-0.045
4.386,-0.105,-0.055
4.388,-0.130,-0.060
4.390,-0.115,-0.065
4.392,-0.020,-0.070
4.394,0.065,-0.065
4.396,0.040,-0.055
4.398,-0.035,-0.050
4.400,-0.135,-0.040
4.402,-0.115,-0.030
4.404,-0.125,-0.025
4.406,-0.120,-0.025
4.408,-0.045,-0.030
4.410,-0.030,-0.035
4.412,0.030,-0.040
4.414,0.075,-0.045
4.416,-0.015,-0.055
4.418,-0.015,-0.055
4.420,-0.075,-0.060
4.422,-0.165,-0.060
4.424,-0.200,-0.055
4.426,-0.180,-0.050
4.428,-0.075,-0.040
4.430,0.000,-0.035
4.432,0.065,-0.025
4.434,0.090,-0.020
4.436,0.000,-0.015
4.438,0.015,-0.015
4.440,-0.070,-0.020
4.442,-0.165,-0.025
4.444,-0.135,-0.030
4.446,-0.160,-0.030
4.448,-0.080,-0.030
4.450,0.050,-0.025
4.452,0.145,-0.015
4.454,0.090,0.000
4.456,0.025,0.015
4.458,0.020,0.030
4.460,0.045,0.035
4.462,-0.105,0.030
4.464,-0.195,0.020
4.466,-0.015,0.000
4.468,-0.030,-0.030
4.470,-0.040,-0.055
4.472,-0.090,-0.070
4.474,0.065,-0.080
4.476,-0.035,-0.080
4.478,-0.195,-0.065
4.480,-0.015,-0.045
4.482,-0.095,-0.020
4.484,-0.155,0.000
4.486,-0.060,0.010
4.488,-0.030,0.010
4.490,-0.010,0.005
4.492,0.025,-0.010
4.494,0.125,-0.025
4.496,0.075,-0.040
4.498,-0.130,-0.050
4.500,-0.130,-0.055
4.502,-0.190,-0.055
4.504,-0.130,-0.045
4.506,-0.165,-0.040
4.508,-0.010,-0.035
4.510,0.005,-0.035
4.512,0.080,-0.035
4.514,0.025,-0.035
4.516,-0.010,-0.040
4.518,-0.070,-0.040
4.520,-0.100,-0.040
4.522,-0.115,-0.035
4.524,-0.135,-0.030
4.526,-0.055,-0.030
4.528,0.005,-0.030
4.530,-0.015,-0.030
4.532,-0.005,-0.040
4.534,-0.040,-0.050
4.536,-0.045,-0.065
4.538,-0.060,-0.075
4.540,-0.075,-0.085
4.542,-0.200,-0.085
4.544,-0.165,-0.080
4.546,-0.110,-0.070
4.548,-0.060,-0.060
4.550,-0.010,-0.050
4.552,0.090,-0.040
4.554,0.015,-0.035
4.556,0.025,-0.030
4.558,-0.070,-0.030
4.560,-0.095,-0.035
4.562,-0.220,-0.040
4.564,-0.110,-0.045
4.566,-0.065,-0.050
4.568,-0.095,-0.060
4.570,-0.085,-0.065
4.572,0.005,-0.075
4.574,0.070,-0.085
4.576,-0.065,-0.100
4.578,-0.175,-0.115
4.580,-0.190,-0.130
4.582,-0.300,-0.140
4.584,-0.260,-0.150
4.586,-0.190,-0.150
4.588,-0.090,-0.140
4.590,-0.060,-0.130
4.592,-0.030,-0.115
4.594,-0.020,-0.095
4.596,-0.005,-0.080
4.598,-0.130,-0.070
4.600,-0.115,-0.070
4.602,-0.200,-0.070
4.604,-0.215,-0.075
4.606,-0.155,-0.085
4.608,-0.050,-0.095
4.610,-0.040,-0.105
4.612,-0.060,-0.110
4.614,-0.050,-0.110
4.616,-0.030,-0.110
4.618,-0.120,-0.105
4.620,-0.145,-0.100
4.622,-0.245,-0.095
4.624,-0.270,-0.095
4.626,-0.120,-0.095
4.628,-0.075,-0.095
4.630,-0.100,-0.100
4.632,-0.080,-0.105
4.634,-0.010,-0.110
4.636,-0.045,-0.115
4.638,-0.180,-0.115
4.640,-0.160,-0.110
4.642,-0.210,-0.105
4.644,-0.195,-0.100
4.646,-0.155,-0.090
4.648,-0.045,-0.080
4.650,-0.040,-0.075
4.652,0.070,-0.070
4.654,-0.010,-0.070
4.656,-0.100,-0.070
4.658,-0.055,-0.070
4.660,-0.180,-0.075
4.662,-0.245,-0.080
4.664,-0.155,-0.085
4.666,-0.165,-0.090
4.668,-0.095,-0.095
4.670,-0.025,-0.100
4.672,-0.025,-0.100
4.674,0.015,-0.105
4.676,-0.050,-0.105
4.678,-0.190,-0.105
4.680,-0.200,-0.105
4.682,-0.235,-0.105
4.684,-0.280,-0.105
4.686,-0.160,-0.105
4.688,-0.045,-0.110
4.690,0.035,-0.110
4.692,0.015,-0.115
4.694,0.005,-0.115
4.696,-0.100,-0.120
4.698,-0.275,-0.120
4.700,-0.215,-0.115
4.702,-0.315,-0.115
4.704,-0.190,-0.110
4.706,-0.120,-0.105
4.708,-0.065,-0.095
4.710,-0.015,-0.085
4.712,0.010,-0.080
4.714,-0.005,-0.070
4.716,-0.070,-0.060
4.718,-0.060,-0.060
4.720,-0.150,-0.060
4.722,-0.170,-0.065
4.724,-0.180,-0.075
4.726,-0.185,-0.085
4.728,-0.050,-0.100
4.730,-0.040,-0.110
4.732,0.005,-0.120
4.734,-0.095,-0.120
4.736,-0.100,-0.120
4.738,-0.085,-0.110
4.740,-0.175,-0.095
4.742,-0.205,-0.085
4.744,-0.215,-0.075
4.746,-0.095,-0.065
4.748,-0.050,-0.065
4.750,0.015,-0.065
4.752,0.030,-0.070
4.754,0.000,-0.080
4.756,-0.110,-0.085
4.758,-0.125,-0.095
4.760,-0.195,-0.100
4.762,-0.230,-0.100
4.764,-0.205,-0.100
4.766,-0.180,-0.105
4.768,-0.120,-0.100
4.770,0.050,-0.100
4.772,0.020,-0.095
4.774,-0.065,-0.090
4.776,-0.035,-0.085
4.778,-0.160,-0.075
4.780,-0.160,-0.065
4.782,-0.155,-0.060
4.784,-0.125,-0.060
4.786,-0.075,-0.065
4.788,-0.040,-0.080
4.790,0.000,-0.095
4.792,0.025,-0.110
4.794,-0.125,-0.125
4.796,-0.145,-0.135
4.798,-0.145,-0.135
4.800,-0.270,-0.125
4.802,-0.160,-0.105
4.804,-0.130,-0.085
4.806,-0.095,-0.065
4.808,-0.035,-0.050
4.810,0.070,-0.040
4.812,0.055,-0.045
4.814,0.050,-0.055
4.816,-0.080,-0.075
4.818,-0.125,-0.095
4.820,-0.235,-0.115
4.822,-0.285,-0.130
4.824,-0.205,-0.140
4.826,-0.210,-0.145
4.828,-0.165,-0.140
4.830,-0.005,-0.135
4.832,-0.010,-0.125
4.834,-0.030,-0.115
4.836,-0.155,-0.105
4.838,-0.155,-0.095
4.840,-0.220,-0.080
4.842,-0.155,-0.070
4.844,-0.100,-0.060
4.846,-0.010,-0.050
4.848,0.015,-0.045
4.850,0.075,-0.040
4.852,0.045,-0.045
4.854,-0.050,-0.050
4.856,-0.110,-0.055
4.858,-0.055,-0.065
4.860,-0.195,-0.075
4.862,-0.170,-0.085
4.864,-0.150,-0.085
4.866,-0.120,-0.085
4.868,-0.085,-0.080
4.870,0.060,-0.070
4.872,-0.025,-0.060
4.874,0.020,-0.050
4.876,-0.025,-0.045
4.878,-0.055,-0.035
4.880,-0.145,-0.035
4.882,-0.145,-0.035
4.884,-0.125,-0.040
4.886,-0.005,-0.050
4.888,-0.020,-0.060
4.890,0.010,-0.070
4.892,0.010,-0.080
4.894,-0.015,-0.085
4.896,-0.140,-0.085
4.898,-0.120,-0.080
4.900,-0.170,-0.065
4.902,-0.130,-0.050
4.904,-0.120,-0.025
4.906,0.020,-0.005
4.908,0.050,0.020
4.910,0.175,0.040
4.912,0.175,0.050
4.914,0.040,0.060
4.916,0.040,0.055
4.918,-0.005,0.050
4.920,-0.030,0.040
4.922,-0.125,0.030
4.924,-0.095,0.020
4.926,0.090,0.015
4.928,0.085,0.010
4.930,0.155,0.015
4.932,0.130,0.020
4.934,0.025,0.025
4.936,-0.035,0.035
4.938,0.000,0.040
4.940,-0.060,0.045
4.942,-0.060,0.045
4.944,-0.010,0.040
4.946,0.070,0.035
4.948,0.140,0.025
4.950,0.195,0.020
4.952,0.100,0.015
4.954,0.075,0.015
4.956,-0.030,0.020
4.958,-0.075,0.030
4.960,-0.110,0.040
4.962,-0.060,0.050
4.964,0.040,0.055
4.966,0.105,0.055
4.968,0.160,0.045
4.970,0.135,0.030
4.972,0.095,0.005
4.974,0.020,-0.025
4.976,-0.160,-0.050
4.978,-0.185,-0.075
4.980,-0.270,-0.095
4.982,-0.240,-0.105
4.984,-0.095,-0.110
4.986,-0.040,-0.105
4.988,0.025,-0.095
4.990,0.090,-0.085
4.992,0.070,-0.075
4.994,-0.080,-0.070
4.996,-0.110,-0.060
4.998,-0.160,-0.060
5.000,-0.190,-0.060
5.002,-0.175,-0.065
5.004,-0.090,-0.065
5.006,-0.045,-0.070
5.008,0.015,-0.080
5.010,0.035,-0.085
5.012,-0.040,-0.090
5.014,-0.045,-0.090
5.016,-0.105,-0.090
5.018,-0.225,-0.085
5.020,-0.200,-0.075
5.022,-0.195,-0.055
5.024,-0.015,-0.030
5.026,0.045,0.000
5.028,0.120,0.035
5.030,0.245,0.075
5.032,0.270,0.125
5.034,0.190,0.180
5.036,0.170,0.245
5.038,0.225,0.315
5.040,0.250,0.385
5.042,0.410,0.455
5.044,0.535,0.520
5.046,0.740,0.560
5.048,0.800,0.575
5.050,0.700,0.545
5.052,0.540,0.470
5.054,0.305,0.350
5.056,0.125,0.185
5.058,-0.120,-0.010
5.060,-0.365,-0.220
5.062,-0.475,-0.430
5.064,-0.645,-0.610
5.066,-0.845,-0.755
5.068,-0.750,-0.850
5.070,-0.720,-0.895
5.072,-0.845,-0.885
5.074,-0.890,-0.840
5.076,-0.850,-0.765
5.078,-0.785,-0.680
5.080,-0.635,-0.600
5.082,-0.495,-0.535
5.084,-0.435,-0.480
5.086,-0.415,-0.445
5.088,-0.325,-0.415
5.090,-0.415,-0.395
5.092,-0.245,-0.370
5.094,-0.330,-0.345
5.096,-0.335,-0.310
5.098,-0.395,-0.275
5.100,-0.265,-0.240
5.102,-0.250,-0.210
5.104,-0.185,-0.180
5.106,-0.095,-0.165
5.108,-0.010,-0.150
5.110,-0.035,-0.135
5.112,-0.070,-0.125
5.114,-0.075,-0.105
5.116,-0.095,-0.085
5.118,-0.135,-0.060
5.120,-0.075,-0.040
5.122,-0.035,-0.020
5.124,0.035,-0.015
5.126,0.025,-0.015
5.128,0.015,-0.025
5.130,0.085,-0.045
5.132,-0.035,-0.065
5.134,-0.075,-0.085
5.136,-0.120,-0.095
5.138,-0.130,-0.095
5.140,-0.195,-0.080
5.142,-0.070,-0.060
5.144,0.015,-0.035
5.146,0.005,-0.010
5.148,0.140,0.005
5.150,0.135,0.015
5.152,0.075,0.015
5.154,-0.005,0.005
5.156,-0.050,-0.010
5.158,-0.145,-0.025
5.160,-0.120,-0.035
5.162,-0.040,-0.040
5.164,0.030,-0.035
5.166,0.080,-0.025
5.168,0.090,-0.005
5.170,0.100,0.015
5.172,0.085,0.035
5.174,0.075,0.045
5.176,0.105,0.050
5.178,-0.015,0.040
5.180,-0.110,0.030
5.182,-0.030,0.010
5.184,-0.040,-0.005
5.186,0.015,-0.020
5.188,0.130,-0.030
5.190,0.095,-0.030
5.192,0.055,-0.020
5.194,0.010,-0.005
5.196,-0.040,0.015
5.198,-0.080,0.035
5.200,-0.050,0.060
5.202,0.125,0.080
5.204,0.115,0.095
5.206,0.130,0.105
5.208,0.260,0.115
5.210,0.285,0.115
5.212,0.135,0.115
5.214,0.070,0.110
5.216,0.060,0.100
5.218,0.015,0.095
5.220,0.040,0.090
5.222,0.030,0.085
5.224,0.115,0.090
5.226,0.160,0.095
5.228,0.235,0.110
5.230,0.255,0.125
5.232,0.235,0.145
5.234,0.170,0.165
5.236,0.095,0.185
5.238,0.135,0.200
5.240,0.170,0.210
5.242,0.245,0.215
5.244,0.250,0.215
5.246,0.170,0.205
5.248,0.320,0.195
5.250,0.310,0.180
5.252,0.245,0.170
5.254,0.170,0.165
5.256,0.080,0.165
5.258,-0.040,0.180
5.260,0.065,0.195
5.262,0.250,0.220
5.264,0.380,0.250
5.266,0.430,0.275
5.268,0.440,0.295
5.270,0.360,0.305
5.272,0.355,0.310
5.274,0.320,0.305
5.276,0.235,0.290
5.278,0.080,0.275
5.280,0.165,0.260
5.282,0.230,0.255
5.284,0.405,0.255
5.286,0.340,0.265
5.288,0.430,0.285
5.290,0.445,0.310
5.292,0.395,0.340
5.294,0.400,0.365
5.296,0.340,0.385
5.298,0.255,0.395
5.300,0.315,0.395
5.302,0.450,0.385
5.304,0.440,0.370
5.306,0.375,0.350
5.308,0.460,0.330
5.310,0.450,0.315
5.312,0.370,0.305
5.314,0.310,0.305
5.316,0.190,0.310
5.318,0.215,0.320
5.320,0.305,0.330
5.322,0.380,0.340
5.324,0.385,0.350
5.326,0.500,0.355
5.328,0.470,0.355
5.330,0.430,0.355
5.332,0.370,0.355
5.334,0.310,0.355
5.336,0.250,0.350
5.338,0.335,0.350
5.340,0.265,0.345
5.342,0.335,0.340
5.344,0.405,0.325
5.346,0.430,0.310
5.348,0.405,0.290
5.350,0.340,0.265
5.352,0.210,0.240
5.354,0.190,0.215
5.356,0.090,0.195
5.358,0.035,0.175
5.360,0.165,0.160
5.362,0.230,0.150
5.364,0.240,0.140
5.366,0.160,0.135
5.368,0.230,0.125
5.370,0.175,0.110
5.372,0.095,0.100
5.374,0.130,0.085
5.376,-0.040,0.075
5.378,-0.035,0.065
5.380,0.020,0.060
5.382,0.080,0.060
5.384,0.120,0.060
5.386,0.200,0.060
5.388,0.165,0.060
5.390,0.115,0.060
5.392,0.085,0.055
5.394,0.035,0.045
5.396,-0.075,0.035
5.398,-0.040,0.025
5.400,-0.040,0.015
5.402,0.055,0.005
5.404,0.020,0.000
5.406,0.165,-0.005
5.408,0.175,-0.010
5.410,0.070,-0.015
5.412,-0.025,-0.025
5.414,-0.070,-0.030
5.416,-0.170,-0.035
5.418,-0.130,-0.035
5.420,-0.060,-0.035
5.422,0.050,-0.025
5.424,0.085,-0.020
5.426,0.175,-0.010
5.428,0.190,0.000
5.430,0.075,0.010
5.432,-0.015,0.010
5.434,-0.065,0.005
5.436,-0.180,-0.005
5.438,-0.110,-0.020
5.440,0.005,-0.035
5.442,0.075,-0.045
5.444,0.005,-0.055
5.446,0.075,-0.055
5.448,0.095,-0.055
5.450,0.070,-0.045
5.452,-0.010,-0.035
5.454,-0.070,-0.025
5.456,-0.120,-0.015
5.458,-0.095,-0.010
5.460,-0.030,-0.005
5.462,0.045,-0.010
5.464,0.075,-0.010
5.466,0.130,-0.020
5.468,0.195,-0.025
5.470,0.055,-0.035
5.472,-0.140,-0.045
5.474,-0.110,-0.055
5.476,-0.205,-0.060
5.478,-0.165,-0.070
5.480,-0.010,-0.070
5.482,0.075,-0.070
5.484,0.040,-0.065
5.486,0.100,-0.055
5.488,0.075,-0.040
5.490,0.035,-0.025
5.492,-0.050,-0.010
5.494,-0.015,0.000
5.496,-0.080,0.005
5.498,-0.095,0.005
5.500,-0.075,-0.005
5.502,0.050,-0.015
5.504,0.140,-0.030
5.506,0.120,-0.035
5.508,0.075,-0.040
5.510,0.020,-0.040
5.512,-0.035,-0.030
5.514,-0.025,-0.015
5.516,-0.085,-0.005
5.518,-0.120,0.000
5.520,-0.020,0.005
5.522,0.055,0.000
5.524,0.135,-0.010
5.526,0.130,-0.020
5.528,0.050,-0.030
5.530,0.020,-0.040
5.532,0.005,-0.045
5.534,-0.050,-0.040
5.536,-0.090,-0.040
5.538,-0.115,-0.030
5.540,-0.035,-0.025
5.542,0.040,-0.020
5.544,0.100,-0.020
5.546,0.070,-0.025
5.548,0.050,-0.030
5.550,0.010,-0.030
5.552,0.000,-0.030
5.554,-0.040,-0.030
5.556,-0.135,-0.025
5.558,-0.045,-0.020
5.560,0.040,-0.020
5.562,0.030,-0.020
5.564,0.005,-0.025
5.566,0.070,-0.035
5.568,0.090,-0.045
5.570,0.070,-0.050
5.572,-0.040,-0.055
5.574,-0.090,-0.055
5.576,-0.075,-0.050
5.578,-0.070,-0.040
5.580,-0.040,-0.035
5.582,-0.015,-0.030
5.584,0.075,-0.030
5.586,0.155,-0.035
5.588,0.085,-0.050
5.590,-0.055,-0.065
5.592,-0.070,-0.075
5.594,-0.165,-0.085
5.596,-0.125,-0.085
5.598,-0.185,-0.080
5.600,-0.085,-0.070
5.602,0.085,-0.055
5.604,0.100,-0.045
5.606,0.120,-0.040
5.608,0.050,-0.035
5.610,-0.040,-0.040
5.612,-0.065,-0.040
5.614,-0.100,-0.045
5.616,-0.120,-0.040
5.618,-0.060,-0.035
5.620,-0.070,-0.025
5.622,0.005,-0.015
5.624,0.210,-0.005
5.626,0.225,0.000
5.628,0.110,0.000
5.630,0.020,-0.015
5.632,-0.120,-0.030
5.634,-0.185,-0.055
5.636,-0.165,-0.075
5.638,-0.190,-0.090
5.640,-0.050,-0.100
5.642,0.000,-0.095
5.644,0.080,-0.090
5.646,0.135,-0.075
5.648,0.080,-0.060
5.650,-0.020,-0.050
5.652,-0.090,-0.045
5.654,-0.215,-0.050
5.656,-0.165,-0.055
5.658,-0.085,-0.060
5.660,0.045,-0.070
5.662,-0.010,-0.075
5.664,0.035,-0.075
5.666,0.185,-0.070
5.668,0.035,-0.065
5.670,-0.020,-0.055
5.672,-0.090,-0.045
5.674,-0.180,-0.040
5.676,-0.205,-0.035
5.678,-0.005,-0.035
5.680,0.000,-0.035
5.682,0.075,-0.040
5.684,0.125,-0.045
5.686,0.125,-0.045
5.688,0.060,-0.050
5.690,-0.025,-0.050
5.692,-0.045,-0.055
5.694,-0.145,-0.060
5.696,-0.150,-0.065
5.698,-0.150,-0.070
5.700,-0.085,-0.075
5.702,0.005,-0.080
5.704,0.130,-0.080
5.706,0.050,-0.080
5.708,0.055,-0.075
5.710,-0.005,-0.070
5.712,0.045,-0.060
5.714,-0.190,-0.055
5.716,-0.175,-0.055
5.718,-0.090,-0.055
5.720,-0.010,-0.055
5.722,0.010,-0.060
5.724,0.055,-0.065
5.726,0.115,-0.070
5.728,0.040,-0.070
5.730,-0.055,-0.070
5.732,-0.070,-0.060
5.734,-0.175,-0.050
5.736,-0.150,-0.040
5.738,-0.010,-0.030
5.740,0.025,-0.025
5.742,0.065,-0.020
5.744,0.205,-0.030
5.746,0.085,-0.040
5.748,-0.010,-0.055
5.750,-0.085,-0.070
5.752,-0.150,-0.085
5.754,-0.210,-0.095
5.756,-0.145,-0.100
5.758,-0.040,-0.095
5.760,-0.010,-0.085
5.762,-0.015,-0.075
5.764,0.085,-0.060
5.766,0.110,-0.050
5.768,0.065,-0.040
5.770,-0.015,-0.040
5.772,-0.115,-0.045
5.774,-0.110,-0.050
5.776,-0.085,-0.060
5.778,-0.125,-0.065
5.780,-0.025,-0.070
5.782,0.015,-0.075
5.784,0.080,-0.070
5.786,0.175,-0.065
5.788,0.025,-0.060
5.790,-0.035,-0.060
5.792,-0.135,-0.060
5.794,-0.170,-0.060
5.796,-0.150,-0.070
5.798,-0.115,-0.075
5.800,-0.030,-0.085
5.802,0.015,-0.090
5.804,0.100,-0.095
5.806,0.105,-0.095
5.808,-0.005,-0.090
5.810,-0.070,-0.085
5.812,-0.130,-0.085
5.814,-0.160,-0.080
5.816,-0.120,-0.080
5.818,-0.050,-0.080
5.820,0.020,-0.080
5.822,0.025,-0.085
5.824,0.030,-0.085
5.826,0.045,-0.080
5.828,0.025,-0.075
5.830,-0.105,-0.070
5.832,-0.105,-0.060
5.834,-0.095,-0.055
5.836,-0.085,-0.050
5.838,-0.010,-0.050
5.840,0.050,-0.055
5.842,0.065,-0.060
5.844,0.050,-0.065
5.846,-0.015,-0.070
5.848,-0.085,-0.075
5.850,-0.095,-0.070
5.852,-0.055,-0.060
5.854,-0.105,-0.050
5.856,-0.025,-0.040
5.858,0.030,-0.030
5.860,0.025,-0.030
5.862,0.035,-0.035
5.864,0.105,-0.045
5.866,-0.005,-0.060
5.868,-0.030,-0.070
5.870,-0.025,-0.080
5.872,-0.120,-0.085
5.874,-0.145,-0.075
5.876,-0.145,-0.060
5.878,-0.030,-0.045
5.880,0.095,-0.020
5.882,0.135,0.000
5.884,0.210,0.015
5.886,0.165,0.025
5.888,0.055,0.030
5.890,0.010,0.035
5.892,-0.005,0.035
5.894,-0.050,0.035
5.896,0.015,0.040
5.898,0.085,0.050
5.900,0.240,0.060
5.902,0.170,0.070
5.904,0.240,0.080
5.906,0.210,0.085
5.908,0.130,0.080
5.910,0.085,0.075
5.912,-0.025,0.065
5.914,-0.025,0.060
5.916,0.050,0.055
5.918,0.130,0.055
5.920,0.135,0.065
5.922,0.250,0.075
5.924,0.230,0.090
5.926,0.150,0.100
5.928,0.185,0.110
5.930,0.105,0.115
5.932,0.005,0.110
5.934,0.030,0.100
5.936,0.050,0.095
5.938,0.115,0.085
5.940,0.155,0.075
5.942,0.225,0.075
5.944,0.260,0.070
5.946,0.190,0.070
5.948,0.140,0.070
5.950,0.090,0.065
5.952,-0.045,0.055
5.954,-0.035,0.045
5.956,-0.015,0.025
5.958,0.040,0.005
5.960,0.035,-0.015
5.962,0.105,-0.030
5.964,0.105,-0.040
5.966,0.080,-0.045
5.968,0.005,-0.040
5.970,-0.055,-0.030
5.972,-0.085,-0.025
5.974,-0.090,-0.015
5.976,-0.025,-0.010
5.978,0.025,-0.010
5.980,0.065,-0.015
5.982,0.140,-0.025
5.984,0.170,-0.035
5.986,-0.005,-0.050
5.988,-0.060,-0.060
5.990,-0.035,-0.065
5.992,-0.115,-0.065
5.994,-0.125,-0.055
5.996,-0.070,-0.045
5.998,-0.030,-0.030
6.000,0.120,-0.015
6.002,0.195,-0.005
6.004,0.150,0.010
6.006,0.110,0.025
6.008,0.075,0.040
6.010,0.095,0.060
6.012,0.070,0.095
6.014,0.045,0.140
6.016,0.145,0.200
6.018,0.330,0.275
6.020,0.450,0.355
6.022,0.595,0.440
6.024,0.715,0.510
6.026,0.790,0.565
6.028,0.715,0.585
6.030,0.590,0.570
6.032,0.385,0.505
6.034,0.250,0.400
6.036,0.175,0.255
6.038,0.160,0.085
6.040,0.035,-0.100
6.042,-0.065,-0.290
6.044,-0.340,-0.460
6.046,-0.620,-0.600
6.048,-0.790,-0.705
6.050,-0.790,-0.770
6.052,-0.860,-0.800
6.054,-0.900,-0.790
6.056,-0.815,-0.755
6.058,-0.635,-0.700
6.060,-0.570,-0.635
6.062,-0.365,-0.570
6.064,-0.310,-0.505
6.066,-0.315,-0.450
6.068,-0.345,-0.400
6.070,-0.285,-0.360
6.072,-0.320,-0.325
6.074,-0.340,-0.300
6.076,-0.365,-0.280
6.078,-0.285,-0.265
6.080,-0.220,-0.250
6.082,-0.015,-0.240
6.084,-0.060,-0.225
6.086,-0.050,-0.210
6.088,-0.190,-0.190
6.090,-0.140,-0.165
6.092,-0.195,-0.135
6.094,-0.155,-0.105
6.096,-0.065,-0.075
6.098,0.025,-0.055
6.100,0.050,-0.035
6.102,0.165,-0.030
6.104,0.105,-0.025
6.106,0.040,-0.030
6.108,-0.010,-0.035
6.110,-0.045,-0.045
6.112,-0.130,-0.050
6.114,-0.080,-0.050
6.116,-0.015,-0.045
6.118,0.040,-0.040
6.120,0.130,-0.030
6.122,0.175,-0.020
6.124,0.100,-0.010
6.126,0.085,-0.005
6.128,0.030,0.005
6.130,0.005,0.005
6.132,-0.055,0.010
6.134,-0.075,0.010
6.136,0.050,0.010
6.138,0.030,0.010
6.140,0.055,0.005
6.142,0.195,0.005
6.144,0.240,0.005
6.146,0.075,0.010
6.148,0.050,0.015
6.150,-0.025,0.025
6.152,-0.055,0.040
6.154,0.035,0.050
6.156,0.110,0.060
6.158,0.200,0.065
6.160,0.170,0.065
6.162,0.205,0.060
6.164,0.155,0.045
6.166,0.095,0.030
6.168,0.000,0.020
6.170,-0.025,0.010
6.172,-0.035,0.005
6.174,0.030,0.010
6.176,0.020,0.020
6.178,0.065,0.035
6.180,0.145,0.050
6.182,0.290,0.065
6.184,0.260,0.075
6.186,0.115,0.085
6.188,0.115,0.085
6.190,-0.005,0.090
6.192,-0.015,0.090
6.194,0.035,0.090
6.196,0.140,0.095
6.198,0.205,0.095
6.200,0.295,0.100
6.202,0.295,0.105
6.204,0.235,0.105
6.206,0.115,0.100
6.208,0.030,0.100
6.210,-0.075,0.100
6.212,0.040,0.095
6.214,0.115,0.100
6.216,0.170,0.105
6.218,0.245,0.110
6.220,0.300,0.115
6.222,0.325,0.125
6.224,0.240,0.130
6.226,0.150,0.135
6.228,0.110,0.135
6.230,0.100,0.140
6.232,0.120,0.145
6.234,0.120,0.150
6.236,0.220,0.160
6.238,0.285,0.170
6.240,0.390,0.180
6.242,0.385,0.190
6.244,0.310,0.195
6.246,0.205,0.195
6.248,0.175,0.195
6.250,0.080,0.190
6.252,0.120,0.190
6.254,0.220,0.195
6.256,0.245,0.205
6.258,0.265,0.220
6.260,0.435,0.245
6.262,0.505,0.265
6.264,0.460,0.290
6.266,0.350,0.305
6.268,0.275,0.315
6.270,0.210,0.315
6.272,0.235,0.305
6.274,0.305,0.290
6.276,0.380,0.280
6.278,0.350,0.265
6.280,0.350,0.265
6.282,0.425,0.265
6.284,0.335,0.280
6.286,0.400,0.295
6.288,0.380,0.315
6.290,0.260,0.335
6.292,0.280,0.350
6.294,0.320,0.360
6.296,0.430,0.365
6.298,0.485,0.365
6.300,0.495,0.360
6.302,0.520,0.350
6.304,0.400,0.340
6.306,0.415,0.330
6.308,0.350,0.325
6.310,0.175,0.315
6.312,0.245,0.305
6.314,0.295,0.300
6.316,0.375,0.295
6.318,0.415,0.285
6.320,0.410,0.280
6.322,0.430,0.275
6.324,0.400,0.270
6.326,0.310,0.265
6.328,0.205,0.255
6.330,0.160,0.245
6.332,0.150,0.230
6.334,0.170,0.215
6.336,0.235,0.195
6.338,0.270,0.175
6.340,0.305,0.160
6.342,0.270,0.140
6.344,0.250,0.130
6.346,0.165,0.120
6.348,0.085,0.110
6.350,0.025,0.105
6.352,0.005,0.100
6.354,0.100,0.095
6.356,0.180,0.085
6.358,0.190,0.080
6.360,0.215,0.070
6.362,0.175,0.060
6.364,0.155,0.050
6.366,0.090,0.040
6.368,0.035,0.030
6.370,-0.035,0.020
6.372,-0.020,0.010
6.374,-0.040,-0.005
6.376,0.060,-0.015
6.378,0.090,-0.025
6.380,0.100,-0.035
6.382,0.080,-0.045
6.384,0.015,-0.050
6.386,-0.070,-0.060
6.388,-0.085,-0.065
6.390,-0.090,-0.065
6.392,-0.065,-0.065
6.394,-0.010,-0.065
6.396,-0.015,-0.060
6.398,0.040,-0.055
6.400,0.140,-0.050
6.402,0.125,-0.045
6.404,0.080,-0.040
6.406,-0.015,-0.035
6.408,-0.070,-0.030
6.410,-0.085,-0.025
6.412,-0.020,-0.025
6.414,0.000,-0.025
6.416,0.100,-0.030
6.418,0.055,-0.040
6.420,0.100,-0.050
6.422,0.090,-0.060
6.424,0.020,-0.070
6.426,-0.110,-0.080
6.428,-0.125,-0.090
6.430,-0.105,-0.095
6.432,-0.110,-0.095
6.434,-0.085,-0.090
6.436,0.015,-0.080
6.438,0.040,-0.070
6.440,0.030,-0.060
6.442,0.090,-0.050
6.444,0.040,-0.045
6.446,-0.040,-0.045
6.448,-0.055,-0.045
6.450,-0.125,-0.045
6.452,0.040,-0.050
6.454,-0.055,-0.060
6.456,0.020,-0.065
6.458,0.015,-0.075
6.460,0.060,-0.080
6.462,0.005,-0.085
6.464,0.000,-0.090
6.466,-0.030,-0.090
6.468,-0.045,-0.085
6.470,-0.145,-0.075
6.472,-0.060,-0.065
6.474,-0.015,-0.050
6.476,0.055,-0.030
6.478,0.150,-0.010
6.480,0.205,0.005
6.482,0.120,0.020
6.484,0.105,0.030
6.486,0.040,0.035
6.488,-0.020,0.030
6.490,0.015,0.030
6.492,-0.020,0.025
6.494,0.095,0.020
6.496,0.050,0.020
6.498,0.140,0.015
6.500,0.240,0.015
6.502,0.190,0.010
6.504,0.045,0.000
6.506,-0.050,-0.015
6.508,-0.040,-0.030
6.510,-0.120,-0.050
6.512,-0.145,-0.070
6.514,-0.125,-0.080
6.516,0.010,-0.085
6.518,0.100,-0.075
6.520,0.160,-0.060
6.522,0.170,-0.040
6.524,0.105,-0.020
6.526,0.075,-0.005
6.528,-0.020,0.000
6.530,-0.135,0.000
6.532,-0.120,-0.015
6.534,-0.090,-0.035
6.536,-0.030,-0.055
6.538,0.155,-0.075
6.540,0.165,-0.080
6.542,0.035,-0.080
6.544,0.025,-0.065
6.546,0.010,-0.045
6.548,-0.080,-0.025
6.550,-0.075,-0.005
6.552,-0.005,0.005
6.554,0.025,0.005
6.556,0.060,-0.005
6.558,0.090,-0.020
6.560,0.095,-0.040
6.562,0.150,-0.055
6.564,-0.050,-0.065
6.566,0.025,-0.070
6.568,-0.120,-0.070
6.570,-0.110,-0.065
6.572,-0.055,-0.060
6.574,-0.045,-0.060
6.576,0.030,-0.060
6.578,0.075,-0.065
6.580,0.050,-0.070
6.582,0.050,-0.070
6.584,0.050,-0.070
6.586,-0.030,-0.060
6.588,-0.095,-0.050
6.590,-0.095,-0.035
6.592,-0.035,-0.020
6.594,0.075,-0.020
6.596,0.085,-0.020
6.598,0.125,-0.035
6.600,0.105,-0.055
6.602,-0.030,-0.080
6.604,-0.135,-0.100
6.606,-0.125,-0.110
6.608,-0.110,-0.105
6.610,-0.025,-0.095
6.612,-0.065,-0.075
6.614,0.025,-0.050
6.616,0.045,-0.030
6.618,0.150,-0.025
6.620,0.190,-0.030
6.622,0.010,-0.050
6.624,-0.080,-0.075
6.626,-0.130,-0.105
6.628,-0.200,-0.125
6.630,-0.165,-0.140
6.632,-0.105,-0.135
6.634,-0.030,-0.120
6.636,0.040,-0.090
6.638,0.205,-0.055
6.640,0.130,-0.030
6.642,0.045,-0.010
6.644,0.030,-0.005
6.646,0.010,-0.015
6.648,-0.045,-0.035
6.650,-0.185,-0.070
6.652,-0.165,-0.100
6.654,-0.045,-0.125
6.656,-0.005,-0.145
6.658,0.055,-0.150
6.660,0.050,-0.145
6.662,0.010,-0.135
6.664,-0.085,-0.115
6.666,-0.090,-0.100
6.668,-0.175,-0.085
6.670,-0.190,-0.070
6.672,-0.085,-0.065
6.674,0.065,-0.060
6.676,0.085,-0.060
6.678,0.090,-0.060
6.680,0.135,-0.065
6.682,0.070,-0.065
6.684,-0.030,-0.070
6.686,-0.075,-0.070
6.688,-0.160,-0.070
6.690,-0.195,-0.070
6.692,-0.105,-0.065
6.694,0.030,-0.060
6.696,0.120,-0.055
6.698,0.160,-0.045
6.700,0.200,-0.040
6.702,0.070,-0.035
6.704,-0.050,-0.035
6.706,-0.030,-0.040
6.708,-0.175,-0.050
6.710,-0.165,-0.070
6.712,-0.090,-0.085
6.714,-0.015,-0.105
6.716,0.030,-0.115
6.718,0.130,-0.120
6.720,0.030,-0.115
6.722,0.030,-0.105
6.724,-0.095,-0.090
6.726,-0.130,-0.070
6.728,-0.090,-0.055
6.730,-0.065,-0.040
6.732,0.030,-0.035
6.734,0.125,-0.035
6.736,0.095,-0.040
6.738,0.180,-0.050
6.740,0.095,-0.060
6.742,-0.055,-0.075
6.744,-0.120,-0.080
6.746,-0.110,-0.085
6.748,-0.125,-0.090
6.750,-0.075,-0.090
6.752,-0.080,-0.085
6.754,0.060,-0.085
6.756,0.035,-0.085
6.758,0.090,-0.080
6.760,0.125,-0.080
6.762,0.035,-0.075
6.764,-0.050,-0.075
6.766,-0.105,-0.070
6.768,-0.185,-0.070
6.770,-0.090,-0.070
6.772,-0.030,-0.075
6.774,-0.010,-0.075
6.776,0.095,-0.080
6.778,0.170,-0.085
6.780,0.035,-0.090
6.782,-0.015,-0.095
6.784,-0.025,-0.095
6.786,-0.165,-0.095
6.788,-0.160,-0.090
6.790,-0.085,-0.085
6.792,-0.010,-0.080
6.794,0.010,-0.075
6.796,0.060,-0.075
6.798,0.125,-0.070
6.800,0.065,-0.075
6.802,0.015,-0.075
6.804,-0.060,-0.080
6.806,-0.160,-0.080
6.808,-0.150,-0.080
6.810,-0.075,-0.080
6.812,0.000,-0.075
6.814,0.090,-0.065
6.816,0.170,-0.060
6.818,0.110,-0.055
6.820,0.140,-0.050
6.822,0.055,-0.045
6.824,-0.105,-0.045
6.826,-0.200,-0.045
6.828,-0.105,-0.050
6.830,-0.070,-0.055
6.832,0.040,-0.055
6.834,0.100,-0.055
6.836,0.140,-0.050
6.838,0.105,-0.050
6.840,0.075,-0.045
6.842,-0.025,-0.045
6.844,-0.015,-0.045
6.846,-0.120,-0.050
6.848,-0.125,-0.060
6.850,-0.060,-0.070
6.852,-0.005,-0.075
6.854,0.015,-0.085
6.856,0.105,-0.085
6.858,0.075,-0.085
6.860,0.010,-0.080
6.862,-0.035,-0.070
6.864,-0.005,-0.055
6.866,-0.075,-0.045
6.868,-0.060,-0.040
6.870,-0.005,-0.035
6.872,0.025,-0.035
6.874,0.055,-0.035
6.876,0.125,-0.040
6.878,0.145,-0.045
6.880,0.085,-0.045
6.882,0.010,-0.050
6.884,-0.115,-0.050
6.886,-0.110,-0.050
6.888,-0.060,-0.050
6.890,-0.030,-0.055
6.892,0.015,-0.055
6.894,0.025,-0.055
6.896,0.095,-0.050
6.898,0.170,-0.035
6.900,0.175,-0.020
6.902,0.020,0.005
6.904,0.020,0.030
6.906,0.040,0.060
6.908,0.075,0.085
6.910,0.125,0.100
6.912,0.280,0.110
6.914,0.195,0.110
6.916,0.305,0.095
6.918,0.275,0.075
6.920,0.105,0.055
6.922,0.005,0.035
6.924,-0.055,0.020
6.926,0.010,0.015
6.928,0.000,0.015
6.930,0.105,0.025
6.932,0.125,0.040
6.934,0.205,0.060
6.936,0.285,0.075
6.938,0.270,0.090
6.940,0.210,0.105
6.942,0.095,0.110
6.944,0.090,0.110
6.946,0.055,0.105
6.948,0.030,0.095
6.950,0.065,0.080
6.952,0.145,0.070
6.954,0.175,0.055
6.956,0.305,0.040
6.958,0.180,0.030
6.960,0.070,0.025
6.962,0.040,0.020
6.964,0.080,0.025
6.966,-0.015,0.025
6.968,-0.055,0.030
6.970,0.050,0.035
6.972,0.135,0.030
6.974,0.190,0.025
6.976,0.210,0.010
6.978,0.170,-0.010
6.980,0.030,-0.040
6.982,-0.125,-0.065
6.984,-0.185,-0.090
6.986,-0.145,-0.115
6.988,-0.160,-0.125
6.990,-0.070,-0.125
6.992,0.045,-0.120
6.994,0.070,-0.100
6.996,0.150,-0.080
6.998,0.045,-0.060
7.000,0.020,-0.040
7.002,0.015,-0.025
7.004,-0.040,-0.020
7.006,-0.105,-0.020
7.008,-0.080,-0.030
7.010,-0.015,-0.035
7.012,0.075,-0.045
7.014,0.085,-0.050
7.016,0.175,-0.050
7.018,0.170,-0.040
7.020,0.050,-0.025
7.022,-0.075,0.000
7.024,0.030,0.030
7.026,0.045,0.070
7.028,0.145,0.120
7.030,0.165,0.180
7.032,0.265,0.250
7.034,0.495,0.330
7.036,0.685,0.410
7.038,0.735,0.485
7.040,0.745,0.550
7.042,0.690,0.585
7.044,0.575,0.585
7.046,0.465,0.540
7.048,0.295,0.445
7.050,0.355,0.310
7.052,0.220,0.135
7.054,0.165,-0.060
7.056,-0.035,-0.260
7.058,-0.265,-0.445
7.060,-0.620,-0.600
7.062,-0.780,-0.715
7.064,-0.910,-0.785
7.066,-0.920,-0.815
7.068,-0.870,-0.800
7.070,-0.700,-0.755
7.072,-0.525,-0.690
7.074,-0.360,-0.620
7.076,-0.285,-0.545
7.078,-0.315,-0.475
7.080,-0.360,-0.420
7.082,-0.330,-0.370
7.084,-0.435,-0.335
7.086,-0.360,-0.310
7.088,-0.325,-0.290
7.090,-0.185,-0.270
7.092,-0.105,-0.255
7.094,-0.030,-0.235
7.096,0.045,-0.210
7.098,-0.125,-0.180
7.100,-0.110,-0.150
7.102,-0.060,-0.115
7.104,-0.150,-0.085
7.106,-0.055,-0.060
7.108,-0.060,-0.045
7.110,0.010,-0.040
7.112,0.030,-0.045
7.114,0.090,-0.055
7.116,0.070,-0.070
7.118,0.065,-0.080
7.120,0.050,-0.080
7.122,-0.005,-0.070
7.124,-0.050,-0.050
7.126,-0.025,-0.025
7.128,-0.030,0.005
7.130,0.070,0.035
7.132,0.140,0.050
7.134,0.320,0.055
7.136,0.240,0.050
7.138,0.105,0.030
7.140,0.010,0.010
7.142,0.040,-0.010
7.144,-0.020,-0.025
7.146,-0.020,-0.030
7.148,-0.075,-0.020
7.150,-0.030,-0.005
7.152,0.135,0.015
7.154,0.240,0.040
7.156,0.280,0.060
7.158,0.225,0.070
7.160,0.150,0.070
7.162,0.130,0.060
7.164,-0.035,0.045
7.166,-0.025,0.030
7.168,0.040,0.015
7.170,0.025,0.005
7.172,0.085,0.000
7.174,0.155,0.010
7.176,0.245,0.020
7.178,0.210,0.040
7.180,0.165,0.060
7.182,0.125,0.075
7.184,0.020,0.085
7.186,0.070,0.085
7.188,0.070,0.085
7.190,0.070,0.075
7.192,0.150,0.070
7.194,0.270,0.060
7.196,0.290,0.060
7.198,0.180,0.065
7.200,0.125,0.075
7.202,0.155,0.095
7.204,0.095,0.110
7.206,0.090,0.125
7.208,0.130,0.140
7.210,0.240,0.140
7.212,0.265,0.135
7.214,0.330,0.125
7.216,0.260,0.110
7.218,0.185,0.100
7.220,0.150,0.090
7.222,0.145,0.090
7.224,0.060,0.095
7.226,0.060,0.105
7.228,0.185,0.120
7.230,0.185,0.135
7.232,0.225,0.145
7.234,0.355,0.155
7.236,0.380,0.160
7.238,0.270,0.160
7.240,0.170,0.160
7.242,0.195,0.165
7.244,0.145,0.170
7.246,0.145,0.180
7.248,0.160,0.190
7.250,0.315,0.205
7.252,0.380,0.215
7.254,0.430,0.225
7.256,0.455,0.230
7.258,0.375,0.230
7.260,0.310,0.230
7.262,0.180,0.225
7.264,0.135,0.225
7.266,0.170,0.225
7.268,0.310,0.230
7.270,0.410,0.235
7.272,0.335,0.240
7.274,0.445,0.245
7.276,0.440,0.250
7.278,0.375,0.255
7.280,0.315,0.260
7.282,0.265,0.265
7.284,0.260,0.275
7.286,0.230,0.285
7.288,0.335,0.295
7.290,0.375,0.315
7.292,0.445,0.330
7.294,0.555,0.345
7.296,0.585,0.360
7.298,0.545,0.370
7.300,0.445,0.375
7.302,0.380,0.375
7.304,0.270,0.370
7.306,0.240,0.365
7.308,0.370,0.355
7.310,0.450,0.345
7.312,0.460,0.340
7.314,0.530,0.335
7.316,0.530,0.335
7.318,0.520,0.340
7.320,0.450,0.340
7.322,0.325,0.345
7.324,0.285,0.345
7.326,0.300,0.335
7.328,0.325,0.325
7.330,0.370,0.315
7.332,0.460,0.295
7.334,0.465,0.280
7.336,0.400,0.265
7.338,0.360,0.250
7.340,0.330,0.245
7.342,0.275,0.240
7.344,0.175,0.240
7.346,0.245,0.245
7.348,0.210,0.240
7.350,0.355,0.235
7.352,0.430,0.230
7.354,0.405,0.215
7.356,0.345,0.205
7.358,0.305,0.190
7.360,0.200,0.175
7.362,0.160,0.165
7.364,0.080,0.155
7.366,0.155,0.145
7.368,0.205,0.135
7.370,0.260,0.125
7.372,0.230,0.110
7.374,0.300,0.095
7.376,0.225,0.075
7.378,0.140,0.050
7.380,-0.005,0.030
7.382,-0.050,0.015
7.384,0.005,0.005
7.386,0.030,0.000
7.388,0.105,0.000
7.390,0.115,0.000
7.392,0.160,0.005
7.394,0.210,0.010
7.396,0.145,0.015
7.398,0.110,0.015
7.400,0.035,0.010
7.402,-0.060,0.005
7.404,-0.025,0.000
7.406,0.000,-0.010
7.408,0.015,-0.015
7.410,0.060,-0.025
7.412,0.180,-0.030
7.414,0.105,-0.035
7.416,0.115,-0.040
7.418,0.090,-0.040
7.420,0.065,-0.040
7.422,-0.085,-0.040
7.424,-0.075,-0.035
7.426,0.000,-0.025
7.428,0.060,-0.015
7.430,0.095,0.000
7.432,0.165,0.010
7.434,0.265,0.025
7.436,0.160,0.030
7.438,0.045,0.035
7.440,0.140,0.035
7.442,0.040,0.030
7.444,-0.025,0.020
7.446,0.010,0.005
7.448,0.055,-0.015
7.450,0.015,-0.035
7.452,0.085,-0.055
7.454,0.060,-0.075
7.456,0.125,-0.085
7.458,0.065,-0.085
7.460,-0.060,-0.080
7.462,-0.100,-0.065
7.464,-0.100,-0.040
7.466,-0.050,-0.020
7.468,0.135,0.005
7.470,0.185,0.025
7.472,0.210,0.035
7.474,0.185,0.035
7.476,0.185,0.025
7.478,0.050,0.010
7.480,0.040,-0.010
7.482,-0.055,-0.030
7.484,-0.090,-0.045
7.486,-0.095,-0.055
7.488,0.010,-0.055
7.490,0.075,-0.050
7.492,0.240,-0.045
7.494,0.160,-0.035
7.496,0.095,-0.025
7.498,0.030,-0.015
7.500,0.020,-0.010
7.502,-0.045,-0.010
7.504,-0.035,-0.010
7.506,0.015,-0.010
7.508,0.110,-0.010
7.510,0.185,-0.010
7.512,0.255,-0.010
7.514,0.200,-0.015
7.516,0.010,-0.020
7.518,-0.035,-0.025
7.520,0.055,-0.030
7.522,-0.075,-0.035
7.524,-0.100,-0.040
7.526,-0.020,-0.040
7.528,0.060,-0.040
7.530,0.100,-0.030
7.532,0.170,-0.020
7.534,0.210,-0.010
7.536,0.145,0.000
7.538,0.095,0.005
7.540,0.005,0.010
7.542,-0.075,0.005
7.544,-0.025,0.000
7.546,-0.005,-0.005
7.548,0.090,-0.015
7.550,0.160,-0.025
7.552,0.145,-0.030
7.554,0.085,-0.030
7.556,0.130,-0.030
7.558,0.075,-0.025
7.560,0.015,-0.020
7.562,-0.110,-0.015
7.564,-0.035,-0.010
7.566,0.035,-0.010
7.568,0.090,-0.010
7.570,0.135,-0.010
7.572,0.190,-0.015
7.574,0.175,-0.020
7.576,0.070,-0.025
7.578,0.020,-0.030
7.580,-0.070,-0.035
7.582,-0.125,-0.040
7.584,0.025,-0.050
7.586,0.005,-0.055
7.588,-0.010,-0.060
7.590,0.075,-0.065
7.592,0.130,-0.065
7.594,0.160,-0.060
7.596,0.100,-0.055
7.598,-0.020,-0.045
7.600,-0.015,-0.030
7.602,-0.050,-0.020
7.604,0.030,-0.010
7.606,0.005,-0.010
7.608,0.070,-0.010
7.610,0.110,-0.020
7.612,0.135,-0.030
7.614,0.130,-0.040
7.616,0.080,-0.050
7.618,0.040,-0.060
7.620,-0.080,-0.065
7.622,-0.115,-0.060
7.624,-0.085,-0.060
7.626,0.045,-0.050
7.628,0.095,-0.050
7.630,0.090,-0.045
7.632,0.085,-0.050
7.634,0.035,-0.055
7.636,0.065,-0.065
7.638,0.030,-0.075
7.640,-0.080,-0.080
7.642,-0.075,-0.085
7.644,-0.040,-0.085
7.646,-0.015,-0.075
7.648,0.065,-0.060
7.650,0.115,-0.045
7.652,0.150,-0.030
7.654,0.120,-0.015
7.656,0.055,-0.005
7.658,0.080,0.000
7.660,0.025,0.000
7.662,-0.015,-0.005
7.664,-0.035,-0.015
7.666,0.025,-0.030
7.668,0.070,-0.040
7.670,0.130,-0.055
7.672,0.130,-0.065
7.674,0.050,-0.070
7.676,-0.005,-0.075
7.678,-0.030,-0.080
7.680,-0.090,-0.080
7.682,-0.110,-0.080
7.684,-0.065,-0.075
7.686,0.045,-0.070
7.688,0.050,-0.065
7.690,0.105,-0.060
7.692,0.200,-0.055
7.694,0.145,-0.050
7.696,-0.035,-0.045
7.698,0.000,-0.045
7.700,-0.020,-0.050
7.702,-0.110,-0.055
7.704,-0.085,-0.065
7.706,0.005,-0.070
7.708,0.120,-0.075
7.710,0.145,-0.080
7.712,0.065,-0.080
7.714,0.055,-0.075
7.716,0.055,-0.070
7.718,-0.025,-0.070
7.720,-0.135,-0.070
7.722,-0.085,-0.070
7.724,-0.060,-0.075
7.726,0.015,-0.080
7.728,0.045,-0.085
7.730,0.120,-0.090
7.732,0.150,-0.090
7.734,0.060,-0.085
7.736,-0.060,-0.080
7.738,0.005,-0.070
7.740,-0.115,-0.065
7.742,-0.075,-0.055
7.744,0.000,-0.055
7.746,0.025,-0.060
7.748,0.025,-0.065
7.750,0.140,-0.075
7.752,0.150,-0.085
7.754,0.115,-0.095
7.756,-0.015,-0.100
7.758,-0.075,-0.100
7.760,-0.120,-0.100
7.762,-0.100,-0.090
7.764,-0.065,-0.080
7.766,-0.035,-0.070
7.768,0.035,-0.060
7.770,0.170,-0.055
7.772,0.225,-0.050
7.774,0.160,-0.045
7.776,0.045,-0.045
7.778,-0.020,-0.045
7.780,-0.075,-0.045
7.782,-0.105,-0.050
7.784,-0.040,-0.060
7.786,-0.005,-0.070
7.788,0.095,-0.080
7.790,0.125,-0.095
7.792,0.105,-0.105
7.794,-0.020,-0.115
7.796,-0.100,-0.120
7.798,-0.080,-0.120
7.800,-0.115,-0.110
7.802,-0.105,-0.100
7.804,0.000,-0.090
7.806,0.100,-0.075
7.808,0.080,-0.065
7.810,0.140,-0.055
7.812,0.155,-0.055
7.814,0.085,-0.060
7.816,-0.060,-0.070
7.818,-0.075,-0.080
7.820,-0.125,-0.090
7.822,-0.095,-0.095
7.824,-0.050,-0.095
7.826,0.055,-0.090
7.828,0.055,-0.085
7.830,0.085,-0.070
7.832,0.200,-0.055
7.834,0.115,-0.045
7.836,0.055,-0.035
7.838,0.055,-0.030
7.840,-0.125,-0.030
7.842,-0.110,-0.030
7.844,-0.020,-0.030
7.846,0.100,-0.030
7.848,0.180,-0.025
7.850,0.205,-0.015
7.852,0.220,-0.005
7.854,0.170,0.005
7.856,0.070,0.020
7.858,0.020,0.030
7.860,-0.030,0.035
7.862,0.045,0.040
7.864,0.100,0.045
7.866,0.130,0.045
7.868,0.195,0.045
7.870,0.225,0.045
7.872,0.240,0.045
7.874,0.180,0.045
7.876,0.125,0.045
7.878,0.060,0.040
7.880,0.030,0.035
7.882,0.030,0.030
7.884,0.080,0.020
7.886,0.125,0.010
7.888,0.180,0.000
7.890,0.150,-0.010
7.892,0.075,-0.015
7.894,0.180,-0.020
7.896,0.050,-0.020
7.898,-0.005,-0.020
7.900,-0.085,-0.025
7.902,-0.025,-0.030
7.904,-0.010,-0.040
7.906,0.040,-0.055
7.908,0.140,-0.070
7.910,0.170,-0.085
7.912,0.065,-0.100
7.914,-0.090,-0.110
7.916,-0.065,-0.115
7.918,-0.085,-0.120
7.920,-0.090,-0.120
7.922,-0.105,-0.115
7.924,-0.015,-0.110
7.926,0.050,-0.105
7.928,0.140,-0.105
7.930,0.060,-0.105
7.932,0.030,-0.110
7.934,-0.040,-0.115
7.936,-0.070,-0.125
7.938,-0.145,-0.135
7.940,-0.100,-0.140
7.942,-0.155,-0.150
7.944,-0.075,-0.155
7.946,-0.035,-0.155
7.948,0.005,-0.155
7.950,0.030,-0.145
7.952,0.050,-0.135
7.954,0.050,-0.115
7.956,0.030,-0.090
7.958,-0.145,-0.060
7.960,-0.030,-0.025
7.962,0.040,0.015
7.964,0.165,0.055
7.966,0.265,0.100
7.968,0.375,0.155
7.970,0.405,0.215
7.972,0.410,0.280
7.974,0.485,0.350
7.976,0.565,0.415
7.978,0.510,0.470
7.980,0.550,0.505
7.982,0.555,0.505
7.984,0.550,0.465
7.986,0.425,0.375
7.988,0.405,0.235
7.990,0.300,0.060
7.992,0.065,-0.140
7.994,-0.190,-0.345
7.996,-0.505,-0.540
7.998,-0.905,-0.705
8.000,-0.955,-0.820
8.002,-0.875,-0.890
8.004,-0.800,-0.905
8.006,-0.715,-0.875
8.008,-0.610,-0.815
8.010,-0.565,-0.735
8.012,-0.410,-0.655
8.014,-0.410,-0.575
8.016,-0.495,-0.515
8.018,-0.495,-0.465
8.020,-0.405,-0.430
8.022,-0.400,-0.410
8.024,-0.295,-0.390
8.026,-0.265,-0.375
8.028,-0.150,-0.360
8.030,-0.115,-0.340
8.032,-0.195,-0.320
8.034,-0.125,-0.295
8.036,-0.195,-0.265
8.038,-0.245,-0.240
8.040,-0.255,-0.215
8.042,-0.140,-0.190
8.044,-0.070,-0.165
8.046,0.000,-0.145
8.048,0.120,-0.125
8.050,0.140,-0.105
8.052,0.070,-0.095
8.054,0.035,-0.085
8.056,-0.005,-0.075
8.058,-0.100,-0.070
8.060,-0.110,-0.065
8.062,-0.050,-0.060
8.064,0.055,-0.055
8.066,0.105,-0.050
8.068,0.185,-0.045
8.070,0.185,-0.040
8.072,0.115,-0.040
8.074,0.010,-0.040
8.076,-0.050,-0.045
8.078,-0.060,-0.050
8.080,-0.045,-0.055
8.082,-0.040,-0.060
8.084,-0.015,-0.065
8.086,0.070,-0.060
8.088,0.205,-0.050
8.090,0.190,-0.040
8.092,0.140,-0.025
8.094,0.025,-0.015
8.096,0.010,-0.005
8.098,-0.045,0.000
8.100,-0.070,-0.005
8.102,0.055,-0.010
8.104,0.110,-0.020
8.106,0.100,-0.030
8.108,0.205,-0.040
8.110,0.130,-0.040
8.112,0.095,-0.040
8.114,0.090,-0.030
8.116,0.045,-0.020
8.118,-0.030,-0.005
8.120,-0.050,0.010
8.122,0.035,0.020
8.124,0.145,0.030
8.126,0.245,0.035
8.128,0.325,0.040
8.130,0.240,0.045
8.132,0.140,0.050
8.134,0.105,0.055
8.136,0.115,0.060
8.138,0.105,0.065
8.140,0.050,0.070
8.142,0.125,0.070
8.144,0.125,0.065
8.146,0.180,0.055
8.148,0.275,0.050
8.150,0.260,0.045
8.152,0.150,0.040
8.154,0.065,0.045
8.156,0.075,0.055
8.158,0.075,0.070
8.160,0.100,0.085
8.162,0.155,0.100
8.164,0.260,0.120
8.166,0.315,0.130
8.168,0.370,0.135
8.170,0.255,0.135
8.172,0.265,0.130
8.174,0.220,0.125
8.176,0.100,0.115
8.178,0.125,0.105
8.180,0.110,0.100
8.182,0.105,0.100
8.184,0.185,0.105
8.186,0.310,0.115
8.188,0.370,0.125
8.190,0.365,0.145
8.192,0.340,0.160
8.194,0.215,0.180
8.196,0.230,0.190
8.198,0.155,0.200
8.200,0.200,0.210
8.202,0.255,0.215
8.204,0.300,0.215
8.206,0.425,0.220
8.208,0.445,0.230
8.210,0.445,0.245
8.212,0.385,0.260
8.214,0.345,0.280
8.216,0.315,0.295
8.218,0.320,0.315
8.220,0.325,0.325
8.222,0.395,0.325
8.224,0.450,0.325
8.226,0.455,0.315
8.228,0.425,0.305
8.230,0.460,0.295
8.232,0.460,0.290
8.234,0.395,0.290
8.236,0.275,0.295
8.238,0.250,0.305
8.240,0.355,0.320
8.242,0.460,0.330
8.244,0.470,0.340
8.246,0.520,0.335
8.248,0.490,0.330
8.250,0.440,0.315
8.252,0.330,0.300
8.254,0.370,0.290
8.256,0.310,0.280
8.258,0.320,0.275
8.260,0.245,0.280
8.262,0.310,0.290
8.264,0.480,0.300
8.266,0.560,0.305
8.268,0.515,0.305
8.270,0.400,0.300
8.272,0.380,0.290
8.274,0.365,0.275
8.276,0.215,0.255
8.278,0.220,0.240
8.280,0.270,0.220
8.282,0.290,0.210
8.284,0.330,0.200
8.286,0.395,0.190
8.288,0.330,0.180
8.290,0.285,0.165
8.292,0.210,0.150
8.294,0.160,0.130
8.296,0.085,0.110
8.298,0.050,0.085
8.300,0.110,0.070
8.302,0.160,0.055
8.304,0.195,0.045
8.306,0.225,0.035
8.308,0.140,0.035
8.310,0.185,0.035
8.312,0.110,0.035
8.314,0.050,0.030
8.316,0.005,0.030
8.318,0.005,0.020
8.320,-0.035,0.015
8.322,0.120,0.005
8.324,0.140,0.000
8.326,0.165,-0.005
8.328,0.140,-0.010
8.330,0.130,-0.015
8.332,0.070,-0.020
8.334,0.035,-0.025
8.336,-0.095,-0.030
8.338,-0.040,-0.035
8.340,0.015,-0.040
8.342,0.150,-0.040
8.344,0.020,-0.040
8.346,0.100,-0.040
8.348,0.205,-0.040
8.350,0.120,-0.040
8.352,0.045,-0.040
8.354,-0.020,-0.045
8.356,-0.140,-0.055
8.358,-0.130,-0.060
8.360,-0.035,-0.070
8.362,0.045,-0.080
8.364,0.050,-0.080
8.366,0.145,-0.080
8.368,0.160,-0.075
8.370,0.035,-0.070
8.372,-0.075,-0.060
8.374,-0.065,-0.050
8.376,-0.035,-0.045
8.378,-0.020,-0.045
8.380,-0.030,-0.050
8.382,0.000,-0.055
8.384,0.075,-0.070
8.386,0.115,-0.080
8.388,0.035,-0.095
8.390,0.025,-0.105
8.392,-0.045,-0.115
8.394,-0.120,-0.115
8.396,-0.150,-0.115
8.398,-0.130,-0.110
8.400,-0.095,-0.100
8.402,0.030,-0.085
8.404,0.120,-0.075
8.406,0.180,-0.055
8.408,0.145,-0.040
8.410,0.070,-0.025
8.412,-0.065,-0.015
8.414,-0.005,-0.005
8.416,-0.050,0.000
8.418,-0.020,0.000
8.420,0.005,-0.005
8.422,0.070,-0.015
8.424,0.115,-0.030
8.426,0.120,-0.040
8.428,0.130,-0.050
8.430,0.095,-0.060
8.432,-0.005,-0.065
8.434,-0.095,-0.070
8.436,-0.125,-0.065
8.438,-0.115,-0.060
8.440,0.000,-0.055
8.442,0.020,-0.045
8.444,0.080,-0.040
8.446,0.165,-0.040
8.448,0.130,-0.040
8.450,0.050,-0.040
8.452,0.035,-0.045
8.454,-0.065,-0.050
8.456,-0.100,-0.055
8.458,-0.065,-0.060
8.460,-0.055,-0.060
8.462,0.030,-0.060
8.464,0.135,-0.050
8.466,0.155,-0.045
8.468,0.105,-0.040
8.470,0.050,-0.035
8.472,0.010,-0.030
8.474,-0.050,-0.030
8.476,-0.045,-0.035
8.478,-0.020,-0.040
8.480,-0.065,-0.045
8.482,-0.025,-0.055
8.484,0.070,-0.060
8.486,0.145,-0.065
8.488,0.180,-0.065
8.490,0.030,-0.065
8.492,-0.070,-0.070
8.494,-0.065,-0.070
8.496,-0.135,-0.075
8.498,-0.095,-0.080
8.500,-0.065,-0.080
8.502,-0.105,-0.085
8.504,0.075,-0.080
8.506,0.155,-0.075
8.508,0.120,-0.065
8.510,0.065,-0.050
8.512,0.005,-0.035
8.514,-0.070,-0.020
8.516,-0.085,-0.010
8.518,-0.025,-0.010
8.520,0.075,-0.020
8.522,0.085,-0.035
8.524,0.055,-0.050
8.526,0.040,-0.065
8.528,0.080,-0.080
8.530,0.035,-0.080
8.532,-0.045,-0.080
8.534,-0.130,-0.070
8.536,-0.150,-0.055
8.538,-0.030,-0.040
8.540,0.020,-0.030
8.542,0.070,-0.030
8.544,0.105,-0.030
8.546,0.095,-0.040
8.548,0.065,-0.050
8.550,-0.050,-0.060
8.552,-0.105,-0.070
8.554,-0.120,-0.075
8.556,-0.070,-0.075
8.558,-0.015,-0.070
8.560,0.055,-0.060
8.562,0.065,-0.055
8.564,0.085,-0.050
8.566,0.115,-0.050
8.568,0.070,-0.050
8.570,-0.020,-0.055
8.572,-0.060,-0.060
8.574,-0.175,-0.065
8.576,-0.090,-0.065
8.578,-0.070,-0.060
8.580,-0.030,-0.055
8.582,0.080,-0.045
8.584,0.160,-0.035
8.586,0.180,-0.025
8.588,0.105,-0.020
8.590,0.015,-0.015
8.592,-0.050,-0.015
8.594,-0.140,-0.015
8.596,-0.060,-0.015
8.598,-0.035,-0.025
8.600,0.070,-0.030
8.602,0.070,-0.035
8.604,0.105,-0.045
8.606,0.090,-0.055
8.608,0.005,-0.060
8.610,-0.100,-0.065
8.612,-0.075,-0.070
8.614,-0.105,-0.075
8.616,-0.175,-0.075
8.618,-0.160,-0.080
8.620,0.005,-0.080
8.622,0.030,-0.080
8.624,0.115,-0.080
8.626,0.105,-0.080
8.628,0.055,-0.075
8.630,-0.095,-0.065
8.632,-0.090,-0.050
8.634,-0.165,-0.035
8.636,-0.080,-0.020
8.638,0.035,0.000
8.640,0.090,0.010
8.642,0.135,0.015
8.644,0.185,0.010
8.646,0.140,-0.005
8.648,0.045,-0.025
8.650,-0.090,-0.050
8.652,-0.135,-0.070
8.654,-0.125,-0.085
8.656,-0.160,-0.090
8.658,-0.130,-0.085
8.660,0.050,-0.070
8.662,-0.020,-0.055
8.664,0.135,-0.035
8.666,0.200,-0.020
8.668,0.080,-0.015
8.670,-0.055,-0.020
8.672,-0.060,-0.030
8.674,-0.145,-0.045
8.676,-0.170,-0.060
8.678,-0.095,-0.075
8.680,-0.015,-0.085
8.682,0.070,-0.090
8.684,0.085,-0.090
8.686,0.085,-0.085
8.688,0.040,-0.080
8.690,-0.080,-0.080
8.692,-0.180,-0.080
8.694,-0.265,-0.080
8.696,-0.205,-0.080
8.698,-0.065,-0.080
8.700,0.055,-0.075
8.702,0.085,-0.065
8.704,0.130,-0.050
8.706,0.075,-0.035
8.708,0.095,-0.025
8.710,0.000,-0.015
8.712,-0.095,-0.015
8.714,-0.175,-0.025
8.716,-0.175,-0.035
8.718,-0.130,-0.050
8.720,0.020,-0.065
8.722,0.030,-0.070
8.724,0.130,-0.070
8.726,0.095,-0.060
8.728,0.050,-0.040
8.730,0.010,-0.020
8.732,-0.020,0.000
8.734,-0.110,0.015
8.736,-0.150,0.020
8.738,-0.030,0.015
8.740,0.095,0.010
8.742,0.120,-0.005
8.744,0.110,-0.020
8.746,0.075,-0.035
8.748,-0.020,-0.045
8.750,-0.010,-0.050
8.752,-0.100,-0.050
8.754,-0.260,-0.050
8.756,-0.120,-0.050
8.758,-0.030,-0.055
8.760,-0.020,-0.055
8.762,-0.010,-0.055
8.764,0.115,-0.055
8.766,0.075,-0.055
8.768,0.040,-0.050
8.770,-0.025,-0.040
8.772,-0.100,-0.030
8.774,-0.100,-0.015
8.776,-0.080,-0.005
8.778,0.005,0.005
8.780,0.060,0.010
8.782,0.100,0.010
8.784,0.145,0.010
8.786,0.095,0.010
8.788,0.025,0.005
8.790,-0.105,0.000
8.792,-0.055,-0.005
8.794,-0.095,-0.010
8.796,-0.115,-0.020
8.798,-0.020,-0.030
8.800,0.005,-0.040
8.802,0.040,-0.045
8.804,0.065,-0.055
8.806,0.030,-0.060
8.808,-0.070,-0.060
8.810,-0.050,-0.055
8.812,-0.190,-0.050
8.814,-0.210,-0.040
8.816,-0.045,-0.030
8.818,-0.070,-0.020
8.820,0.070,-0.010
8.822,0.115,-0.005
8.824,0.115,-0.005
8.826,0.110,-0.005
8.828,0.020,-0.005
8.830,-0.115,-0.010
8.832,-0.185,-0.010
8.834,-0.160,-0.005
8.836,-0.085,0.000
8.838,0.135,0.010
8.840,0.115,0.020
8.842,0.100,0.030
8.844,0.185,0.040
8.846,0.135,0.045
8.848,0.030,0.050
8.850,-0.030,0.055
8.852,-0.090,0.055
8.854,-0.045,0.055
8.856,-0.025,0.055
8.858,0.035,0.055
8.860,0.120,0.060
8.862,0.235,0.060
8.864,0.210,0.065
8.866,0.100,0.075
8.868,0.040,0.080
8.870,0.080,0.090
8.872,-0.130,0.100
8.874,0.020,0.105
8.876,0.105,0.110
8.878,0.125,0.120
8.880,0.150,0.125
8.882,0.250,0.125
8.884,0.215,0.130
8.886,0.175,0.130
8.888,0.150,0.130
8.890,0.055,0.125
8.892,-0.055,0.120
8.894,0.010,0.110
8.896,0.075,0.100
8.898,0.110,0.090
8.900,0.080,0.075
8.902,0.165,0.060
8.904,0.115,0.050
8.906,0.060,0.035
8.908,0.030,0.025
8.910,-0.100,0.010
8.912,-0.160,0.000
8.914,-0.105,-0.010
8.916,-0.105,-0.020
8.918,0.040,-0.025
8.920,-0.005,-0.025
8.922,0.045,-0.025
8.924,0.095,-0.025
8.926,0.025,-0.020
8.928,-0.055,-0.020
8.930,-0.075,-0.020
8.932,-0.170,-0.030
8.934,-0.125,-0.040
8.936,-0.145,-0.055
8.938,-0.090,-0.065
8.940,-0.085,-0.075
8.942,-0.030,-0.080
8.944,-0.030,-0.075
8.946,0.005,-0.060
8.948,-0.005,-0.045
8.950,-0.100,-0.030
8.952,-0.160,-0.015
8.954,-0.140,-0.005
8.956,-0.085,-0.005
8.958,0.015,-0.010
8.960,0.055,-0.015
8.962,0.050,-0.020
8.964,-0.035,-0.015
8.966,-0.035,0.000
8.968,0.000,0.035
8.970,0.035,0.080
8.972,0.020,0.140
8.974,0.185,0.210
8.976,0.250,0.290
8.978,0.390,0.365
8.980,0.450,0.440
8.982,0.545,0.505
8.984,0.660,0.555
8.986,0.680,0.580
8.988,0.685,0.570
8.990,0.450,0.530
8.992,0.270,0.445
8.994,0.105,0.315
8.996,0.075,0.150
8.998,-0.060,-0.040
9.000,-0.190,-0.250
9.002,-0.330,-0.450
9.004,-0.575,-0.625
9.006,-0.905,-0.760
9.008,-1.050,-0.840
9.010,-1.040,-0.865
9.012,-1.020,-0.840
9.014,-0.870,-0.770
9.016,-0.650,-0.680
9.018,-0.500,-0.580
9.020,-0.395,-0.490
9.022,-0.270,-0.420
9.024,-0.390,-0.375
9.026,-0.460,-0.345
9.028,-0.445,-0.335
9.030,-0.390,-0.325
9.032,-0.495,-0.315
9.034,-0.345,-0.290
9.036,-0.270,-0.260
9.038,-0.265,-0.215
9.040,-0.100,-0.165
9.042,-0.015,-0.115
9.044,0.005,-0.075
9.046,-0.085,-0.045
9.048,-0.120,-0.025
9.050,-0.115,-0.010
9.052,-0.125,-0.010
9.054,-0.145,-0.005
9.056,-0.075,-0.005
9.058,0.040,0.000
9.060,0.070,0.010
9.062,0.100,0.025
9.064,0.060,0.040
9.066,0.005,0.050
9.068,-0.080,0.060
9.070,-0.075,0.070
9.072,-0.030,0.070
9.074,-0.025,0.070
9.076,0.020,0.065
9.078,0.005,0.060
9.080,0.095,0.060
9.082,0.120,0.055
9.084,0.050,0.060
9.086,0.055,0.060
9.088,-0.010,0.065
9.090,-0.115,0.065
9.092,-0.150,0.065
9.094,-0.050,0.065
9.096,0.100,0.060
9.098,0.020,0.055
9.100,0.075,0.050
9.102,0.120,0.045
9.104,0.060,0.040
9.106,-0.015,0.035
9.108,-0.080,0.040
9.110,-0.110,0.040
9.112,-0.095,0.050
9.114,-0.030,0.055
9.116,0.060,0.070
9.118,0.070,0.085
9.120,0.135,0.100
9.122,0.130,0.115
9.124,0.125,0.130
9.126,0.070,0.140
9.128,0.130,0.155
9.130,0.030,0.160
9.132,0.015,0.160
9.134,-0.080,0.160
9.136,0.085,0.150
9.138,0.145,0.145
9.140,0.175,0.135
9.142,0.130,0.125
9.144,0.090,0.115
9.146,0.045,0.115
9.148,0.005,0.115
9.150,-0.025,0.120
9.152,-0.085,0.125
9.154,-0.005,0.130
9.156,0.100,0.135
9.158,0.150,0.140
9.160,0.190,0.145
9.162,0.215,0.145
9.164,0.165,0.150
9.166,0.065,0.155
9.168,0.000,0.160
9.170,-0.065,0.170
9.172,0.030,0.185
9.174,0.120,0.195
9.176,0.200,0.210
9.178,0.220,0.215
9.180,0.240,0.220
9.182,0.255,0.225
9.184,0.255,0.225
9.186,0.135,0.220
9.188,0.075,0.220
9.190,0.005,0.220
9.192,0.055,0.225
9.194,0.080,0.230
9.196,0.210,0.240
9.198,0.240,0.250
9.200,0.320,0.260
9.202,0.315,0.270
9.204,0.210,0.280
9.206,0.200,0.290
9.208,0.240,0.300
9.210,0.125,0.315
9.212,0.110,0.330
9.214,0.140,0.340
9.216,0.295,0.355
9.218,0.330,0.365
9.220,0.480,0.375
9.222,0.430,0.380
9.224,0.395,0.380
9.226,0.285,0.380
9.228,0.260,0.375
9.230,0.155,0.365
9.232,0.155,0.360
9.234,0.185,0.360
9.236,0.285,0.355
9.238,0.315,0.355
9.240,0.475,0.355
9.242,0.410,0.355
9.244,0.335,0.355
9.246,0.165,0.355
9.248,0.200,0.355
9.250,0.145,0.355
9.252,0.175,0.360
9.254,0.255,0.370
9.256,0.375,0.380
9.258,0.400,0.395
9.260,0.485,0.405
9.262,0.485,0.410
9.264,0.350,0.410
9.266,0.245,0.405
9.268,0.190,0.390
9.270,0.150,0.375
9.272,0.160,0.360
9.274,0.235,0.345
9.276,0.325,0.335
9.278,0.290,0.330
9.280,0.355,0.330
9.282,0.355,0.330
9.284,0.285,0.335
9.286,0.280,0.335
9.288,0.205,0.335
9.290,0.170,0.325
9.292,0.120,0.315
9.294,0.075,0.300
9.296,0.220,0.280
9.298,0.245,0.260
9.300,0.265,0.240
9.302,0.215,0.220
9.304,0.145,0.200
9.306,0.045,0.185
9.308,-0.075,0.175
9.310,-0.035,0.160
9.312,-0.015,0.150
9.314,0.060,0.140
9.316,0.155,0.135
9.318,0.140,0.125
9.320,0.100,0.120
9.322,0.055,0.115
9.324,-0.025,0.115
9.326,-0.025,0.110
9.328,-0.085,0.100
9.330,-0.075,0.090
9.332,-0.080,0.070
9.334,0.005,0.055
9.336,0.010,0.030
9.338,-0.035,0.010
9.340,-0.030,-0.010
9.342,-0.055,-0.025
9.344,-0.110,-0.040
9.346,-0.125,-0.055
9.348,-0.165,-0.060
9.350,-0.295,-0.065
9.352,-0.250,-0.070
9.354,-0.180,-0.075
9.356,-0.090,-0.075
9.358,-0.080,-0.075
9.360,-0.080,-0.075
9.362,-0.075,-0.070
9.364,-0.135,-0.065
9.366,-0.230,-0.055
9.368,-0.220,-0.045
9.370,-0.255,-0.035
9.372,-0.245,-0.025
9.374,-0.090,-0.020
9.376,-0.035,-0.015
9.378,-0.050,-0.020
9.380,0.000,-0.025
9.382,-0.080,-0.035
9.384,-0.125,-0.050
9.386,-0.155,-0.060
9.388,-0.195,-0.065
9.390,-0.295,-0.065
9.392,-0.225,-0.060
9.394,-0.160,-0.050
9.396,-0.145,-0.035
9.398,-0.015,-0.015
9.400,0.030,0.005
9.402,0.070,0.020
9.404,-0.045,0.030
9.406,-0.070,0.035
9.408,-0.175,0.035
9.410,-0.210,0.030
9.412,-0.170,0.020
9.414,-0.125,0.015
9.416,-0.065,0.010
9.418,0.000,0.010
9.420,0.060,0.010
9.422,0.000,0.020
9.424,-0.025,0.030
9.426,-0.095,0.040
9.428,-0.135,0.050
9.430,-0.155,0.055
9.432,-0.080,0.060
9.434,0.010,0.060
9.436,-0.005,0.055
9.438,0.015,0.045
9.440,-0.030,0.025
9.442,-0.080,0.005
9.444,-0.130,-0.020
9.446,-0.160,-0.050
9.448,-0.190,-0.080
9.450,-0.290,-0.110
9.452,-0.340,-0.140
9.454,-0.300,-0.160
9.456,-0.240,-0.180
9.458,-0.195,-0.190
9.460,-0.190,-0.190
9.462,-0.235,-0.185
9.464,-0.300,-0.170
9.466,-0.300,-0.160
9.468,-0.380,-0.140
9.470,-0.325,-0.125
9.472,-0.205,-0.115
9.474,-0.165,-0.110
9.476,-0.175,-0.105
9.478,-0.125,-0.110
9.480,-0.115,-0.115
9.482,-0.140,-0.125
9.484,-0.235,-0.140
9.486,-0.295,-0.160
9.488,-0.400,-0.175
9.490,-0.390,-0.185
9.492,-0.340,-0.195
9.494,-0.300,-0.200
9.496,-0.235,-0.195
9.498,-0.170,-0.185
9.500,-0.150,-0.165
9.502,-0.190,-0.145
9.504,-0.215,-0.120
9.506,-0.300,-0.100
9.508,-0.260,-0.085
9.510,-0.275,-0.075
9.512,-0.295,-0.065
9.514,-0.095,-0.065
9.516,-0.130,-0.065
9.518,-0.040,-0.065
9.520,-0.080,-0.065
9.522,-0.130,-0.065
9.524,-0.220,-0.065
9.526,-0.195,-0.065
9.528,-0.275,-0.065
9.530,-0.315,-0.065
9.532,-0.235,-0.070
9.534,-0.140,-0.080
9.536,-0.080,-0.095
9.538,-0.020,-0.105
9.540,-0.145,-0.115
9.542,-0.260,-0.125
9.544,-0.360,-0.130
9.546,-0.260,-0.135
9.548,-0.340,-0.135
9.550,-0.345,-0.135
9.552,-0.275,-0.135
9.554,-0.210,-0.130
9.556,-0.185,-0.125
9.558,-0.130,-0.120
9.560,-0.085,-0.110
9.562,-0.140,-0.095
9.564,-0.140,-0.085
9.566,-0.215,-0.070
9.568,-0.270,-0.055
9.570,-0.270,-0.045
9.572,-0.255,-0.035
9.574,-0.120,-0.030
9.576,-0.065,-0.025
9.578,0.050,-0.030
9.580,-0.040,-0.035
9.582,-0.045,-0.045
9.584,-0.115,-0.055
9.586,-0.235,-0.070
9.588,-0.360,-0.090
9.590,-0.410,-0.105
9.592,-0.310,-0.125
9.594,-0.260,-0.135
9.596,-0.140,-0.140
9.598,-0.030,-0.140
9.600,-0.100,-0.130
9.602,-0.140,-0.115
9.604,-0.235,-0.095
9.606,-0.245,-0.080
9.608,-0.335,-0.065
9.610,-0.290,-0.060
9.612,-0.185,-0.060
9.614,-0.135,-0.070
9.616,-0.110,-0.080
9.618,-0.120,-0.090
9.620,-0.060,-0.095
9.622,-0.130,-0.095
9.624,-0.215,-0.085
9.626,-0.225,-0.075
9.628,-0.230,-0.070
9.630,-0.255,-0.065
9.632,-0.255,-0.065
9.634,-0.215,-0.075
9.636,-0.140,-0.095
9.638,-0.070,-0.115
9.640,-0.120,-0.140
9.642,-0.205,-0.155
9.644,-0.250,-0.160
9.646,-0.310,-0.155
9.648,-0.375,-0.145
9.650,-0.340,-0.130
9.652,-0.240,-0.110
9.654,-0.210,-0.100
9.656,-0.085,-0.090
9.658,-0.085,-0.090
9.660,-0.095,-0.095
9.662,-0.165,-0.100
9.664,-0.220,-0.105
9.666,-0.245,-0.105
9.668,-0.335,-0.105
9.670,-0.370,-0.100
9.672,-0.185,-0.090
9.674,-0.145,-0.080
9.676,-0.155,-0.075
9.678,-0.060,-0.075
9.680,-0.005,-0.070
9.682,-0.095,-0.070
9.684,-0.175,-0.065
9.686,-0.305,-0.060
9.688,-0.300,-0.050
9.690,-0.265,-0.040
9.692,-0.075,-0.035
9.694,-0.075,-0.030
9.696,-0.050,-0.040
9.698,-0.020,-0.055
9.700,-0.090,-0.080
9.702,-0.225,-0.105
9.704,-0.300,-0.130
9.706,-0.435,-0.155
9.708,-0.400,-0.170
9.710,-0.350,-0.180
9.712,-0.185,-0.180
9.714,-0.195,-0.175
9.716,-0.070,-0.165
9.718,-0.170,-0.160
9.720,-0.210,-0.155
9.722,-0.250,-0.155
9.724,-0.300,-0.155
9.726,-0.355,-0.155
9.728,-0.385,-0.155
9.730,-0.330,-0.155
9.732,-0.175,-0.155
9.734,-0.220,-0.155
9.736,-0.105,-0.150
9.738,-0.135,-0.145
9.740,-0.160,-0.140
9.742,-0.225,-0.135
9.744,-0.285,-0.130
9.746,-0.345,-0.125
9.748,-0.300,-0.120
9.750,-0.280,-0.115
9.752,-0.225,-0.115
9.754,-0.175,-0.110
9.756,-0.100,-0.110
9.758,-0.090,-0.115
9.760,-0.160,-0.120
9.762,-0.215,-0.125
9.764,-0.240,-0.135
9.766,-0.370,-0.140
9.768,-0.335,-0.145
9.770,-0.305,-0.145
9.772,-0.240,-0.150
9.774,-0.210,-0.150
9.776,-0.110,-0.155
9.778,-0.110,-0.160
9.780,-0.175,-0.170
9.782,-0.320,-0.180
9.784,-0.345,-0.190
9.786,-0.440,-0.200
9.788,-0.485,-0.205
9.790,-0.280,-0.205
9.792,-0.215,-0.200
9.794,-0.270,-0.190
9.796,-0.145,-0.180
9.798,-0.145,-0.170
9.800,-0.210,-0.165
9.802,-0.235,-0.165
9.804,-0.250,-0.165
9.806,-0.305,-0.175
9.808,-0.455,-0.190
9.810,-0.360,-0.205
9.812,-0.315,-0.220
9.814,-0.360,-0.240
9.816,-0.220,-0.250
9.818,-0.130,-0.255
9.820,-0.310,-0.260
9.822,-0.335,-0.255
9.824,-0.300,-0.245
9.826,-0.435,-0.230
9.828,-0.435,-0.215
9.830,-0.335,-0.200
9.832,-0.235,-0.185
9.834,-0.210,-0.170
9.836,-0.140,-0.160
9.838,-0.095,-0.155
9.840,-0.160,-0.155
9.842,-0.245,-0.155
9.844,-0.300,-0.160
9.846,-0.335,-0.160
9.848,-0.315,-0.160
9.850,-0.275,-0.155
9.852,-0.195,-0.145
9.854,-0.155,-0.130
9.856,-0.055,-0.110
9.858,-0.050,-0.095
9.860,-0.110,-0.075
9.862,-0.210,-0.065
9.864,-0.205,-0.055
9.866,-0.250,-0.050
9.868,-0.185,-0.050
9.870,-0.160,-0.055
9.872,-0.135,-0.055
9.874,-0.065,-0.050
9.876,-0.060,-0.045
9.878,0.010,-0.035
9.880,-0.020,-0.025
9.882,-0.090,-0.015
9.884,-0.125,-0.005
9.886,-0.165,0.005
9.888,-0.225,0.010
9.890,-0.120,0.010
9.892,-0.090,0.005
9.894,0.015,0.000
9.896,0.085,-0.005
9.898,0.045,-0.010
9.900,0.010,-0.010
9.902,-0.125,-0.010
9.904,-0.195,-0.010
9.906,-0.190,-0.005
9.908,-0.140,-0.005
9.910,-0.080,-0.005
9.912,-0.050,-0.010
9.914,0.020,-0.015
9.916,0.045,-0.025
9.918,-0.075,-0.035
9.920,-0.125,-0.045
9.922,-0.190,-0.050
9.924,-0.180,-0.060
9.926,-0.205,-0.060
9.928,-0.225,-0.065
9.930,-0.205,-0.065
9.932,-0.095,-0.060
9.934,-0.055,-0.055
9.936,0.015,-0.050
9.938,-0.040,-0.045
9.940,-0.070,-0.040
9.942,-0.140,-0.035
9.944,-0.160,-0.030
9.946,-0.195,-0.030
9.948,-0.175,-0.040
9.950,-0.135,-0.050
9.952,-0.115,-0.065
9.954,-0.090,-0.075
9.956,-0.090,-0.085
9.958,-0.150,-0.095
9.960,-0.200,-0.090
9.962,-0.140,-0.080
9.964,-0.200,-0.065
9.966,-0.145,-0.040
9.968,-0.135,-0.015
9.970,-0.055,0.015
9.972,0.030,0.050
9.974,0.125,0.090
9.976,0.155,0.140
9.978,0.205,0.200
9.980,0.210,0.270
9.982,0.265,0.345
9.984,0.385,0.425
9.986,0.415,0.500
9.988,0.495,0.555
9.990,0.550,0.580
9.992,0.540,0.565
9.994,0.520,0.505
9.996,0.375,0.395
9.998,0.250,0.240
