'Elapsed time','ECG I','ECG I filtered'
'seconds','mV','mV'
0.000,-0.005,-0.030
0.002,0.020,-0.035
0.004,0.025,-0.035
0.006,0.040,-0.035
0.008,-0.015,-0.035
0.010,0.005,-0.035
0.012,-0.005,-0.030
0.014,-0.005,-0.025
0.016,-0.015,-0.020
0.018,-0.005,-0.010
0.020,0.045,-0.005
0.022,0.045,0.000
0.024,0.015,0.000
0.026,0.010,0.000
0.028,0.025,0.000
0.030,-0.005,-0.005
0.032,0.010,-0.005
0.034,0.015,-0.010
0.036,0.005,-0.010
0.038,-0.005,-0.015
0.040,0.020,-0.010
0.042,0.030,-0.010
0.044,0.020,-0.010
0.046,0.035,-0.005
0.048,0.055,-0.005
0.050,0.035,-0.005
0.052,0.000,-0.005
0.054,-0.025,-0.010
0.056,-0.005,-0.010
0.058,-0.030,-0.015
0.060,0.010,-0.015
0.062,0.050,-0.015
0.064,0.040,-0.015
0.066,0.035,-0.015
0.068,0.040,-0.015
0.070,0.000,-0.015
0.072,-0.015,-0.015
0.074,0.000,-0.015
0.076,0.025,-0.010
0.078,0.030,-0.015
0.080,0.005,-0.015
0.082,0.015,-0.015
0.084,0.020,-0.015
0.086,0.005,-0.015
0.088,0.000,-0.015
0.090,0.025,-0.015
0.092,0.005,-0.010
0.094,0.050,-0.010
0.096,0.015,-0.010
0.098,0.035,-0.010
0.100,0.040,-0.010
0.102,0.055,-0.010
0.104,0.010,-0.015
0.106,0.000,-0.015
0.108,-0.010,-0.020
0.110,0.015,-0.025
0.112,0.010,-0.025
0.114,0.010,-0.025
0.116,-0.035,-0.025
0.118,0.020,-0.025
0.120,0.015,-0.025
0.122,-0.010,-0.020
0.124,-0.025,-0.020
0.126,0.040,-0.015
0.128,0.050,-0.015
0.130,0.025,-0.015
0.132,-0.020,-0.015
0.134,0.020,-0.015
0.136,0.005,-0.020
0.138,-0.005,-0.025
0.140,-0.005,-0.030
0.142,-0.015,-0.035
0.144,0.005,-0.040
0.146,0.030,-0.045
0.148,0.045,-0.050
0.150,-0.015,-0.050
0.152,-0.060,-0.055
0.154,-0.055,-0.050
0.156,-0.025,-0.045
0.158,0.025,-0.040
0.160,0.040,-0.035
0.162,0.030,-0.025
0.164,0.035,-0.020
0.166,0.010,-0.010
0.168,0.030,-0.010
0.170,0.010,-0.010
0.172,0.020,-0.010
0.174,-0.005,-0.020
0.176,-0.005,-0.030
0.178,0.005,-0.040
0.180,0.010,-0.050
0.182,-0.075,-0.055
0.184,-0.015,-0.060
0.186,-0.005,-0.065
0.188,-0.020,-0.060
0.190,-0.005,-0.060
0.192,0.035,-0.055
0.194,-0.010,-0.050
0.196,-0.060,-0.045
0.198,-0.025,-0.045
0.200,0.005,-0.045
0.202,-0.045,-0.050
0.204,0.000,-0.050
0.206,0.020,-0.050
0.208,-0.005,-0.045
0.210,0.065,-0.040
0.212,0.015,-0.035
0.214,0.025,-0.030
0.216,-0.030,-0.025
0.218,-0.025,-0.025
0.220,-0.030,-0.025
0.222,-0.030,-0.025
0.224,-0.005,-0.030
0.226,0.000,-0.035
0.228,0.060,-0.040
0.230,0.015,-0.050
0.232,0.015,-0.050
0.234,-0.020,-0.050
0.236,-0.020,-0.050
0.238,-0.020,-0.045
0.240,0.000,-0.040
0.242,0.010,-0.035
0.244,0.005,-0.025
0.246,0.040,-0.020
0.248,0.020,-0.020
0.250,-0.025,-0.020
0.252,0.020,-0.025
0.254,0.010,-0.035
0.256,-0.010,-0.040
0.258,0.005,-0.050
0.260,-0.025,-0.055
0.262,-0.055,-0.055
0.264,-0.020,-0.055
0.266,0.045,-0.045
0.268,0.020,-0.035
0.270,0.010,-0.030
0.272,0.030,-0.020
0.274,0.000,-0.020
0.276,-0.010,-0.020
0.278,-0.010,-0.025
0.280,0.000,-0.035
0.282,-0.010,-0.050
0.284,-0.015,-0.060
0.286,-0.005,-0.070
0.288,0.005,-0.075
0.290,-0.015,-0.070
0.292,-0.015,-0.065
0.294,0.000,-0.055
0.296,0.025,-0.045
0.298,0.010,-0.035
0.300,-0.010,-0.030
0.302,-0.035,-0.025
0.304,0.000,-0.020
0.306,0.010,-0.025
0.308,0.010,-0.030
0.310,0.025,-0.030
0.312,0.015,-0.035
0.314,0.010,-0.040
0.316,0.015,-0.040
0.318,-0.040,-0.040
0.320,0.010,-0.040
0.322,0.010,-0.045
0.324,0.005,-0.045
0.326,0.005,-0.050
0.328,-0.020,-0.055
0.330,-0.055,-0.055
0.332,0.010,-0.055
0.334,0.025,-0.055
0.336,0.010,-0.050
0.338,0.005,-0.050
0.340,-0.020,-0.045
0.342,-0.020,-0.045
0.344,-0.020,-0.045
0.346,-0.010,-0.050
0.348,0.030,-0.055
0.350,0.015,-0.055
0.352,0.035,-0.055
0.354,0.040,-0.055
0.356,0.000,-0.050
0.358,0.010,-0.045
0.360,0.000,-0.035
0.362,0.010,-0.025
0.364,0.080,-0.015
0.366,0.040,-0.010
0.368,0.040,-0.010
0.370,-0.010,-0.010
0.372,0.055,-0.015
0.374,0.070,-0.015
0.376,0.045,-0.010
0.378,0.055,-0.005
0.380,0.075,0.005
0.382,0.055,0.025
0.384,0.095,0.040
0.386,0.160,0.055
0.388,0.140,0.065
0.390,0.115,0.065
0.392,0.110,0.060
0.394,0.070,0.050
0.396,0.040,0.030
0.398,0.065,0.010
0.400,0.065,-0.010
0.402,0.030,-0.025
0.404,0.030,-0.035
0.406,0.025,-0.040
0.408,0.025,-0.040
0.410,0.010,-0.035
0.412,0.035,-0.030
0.414,0.000,-0.025
0.416,-0.015,-0.020
0.418,0.055,-0.020
0.420,0.050,-0.020
0.422,0.030,-0.020
0.424,0.055,-0.025
0.426,0.015,-0.030
0.428,0.005,-0.035
0.430,-0.010,-0.045
0.432,0.030,-0.055
0.434,-0.015,-0.065
0.436,-0.040,-0.070
0.438,-0.020,-0.080
0.440,-0.045,-0.080
0.442,-0.035,-0.085
0.444,0.010,-0.080
0.446,-0.040,-0.070
0.448,0.030,-0.065
0.450,0.015,-0.055
0.452,0.050,-0.045
0.454,0.005,-0.040
0.456,-0.020,-0.035
0.458,-0.025,-0.035
0.460,0.020,-0.040
0.462,0.010,-0.050
0.464,0.045,-0.060
0.466,0.015,-0.075
0.468,-0.025,-0.090
0.470,-0.030,-0.110
0.472,-0.020,-0.130
0.474,-0.110,-0.150
0.476,-0.115,-0.175
0.478,-0.175,-0.195
0.480,-0.190,-0.215
0.482,-0.210,-0.220
0.484,-0.145,-0.215
0.486,-0.105,-0.195
0.488,-0.065,-0.155
0.490,-0.020,-0.095
0.492,0.090,-0.020
0.494,0.180,0.070
0.496,0.270,0.175
0.498,0.355,0.285
0.500,0.430,0.395
0.502,0.540,0.500
0.504,0.710,0.595
0.506,0.825,0.675
0.508,0.860,0.730
0.510,0.895,0.755
0.512,0.895,0.745
0.514,0.835,0.700
0.516,0.675,0.620
0.518,0.530,0.510
0.520,0.385,0.380
0.522,0.295,0.245
0.524,0.135,0.110
0.526,-0.035,-0.010
0.528,-0.100,-0.100
0.530,-0.085,-0.160
0.532,-0.065,-0.185
0.534,-0.090,-0.185
0.536,-0.055,-0.160
0.538,-0.040,-0.120
0.540,-0.080,-0.085
0.542,0.005,-0.055
0.544,0.055,-0.035
0.546,0.065,-0.030
0.548,0.020,-0.035
0.550,0.010,-0.045
0.552,0.010,-0.050
0.554,0.015,-0.055
0.556,0.060,-0.055
0.558,0.045,-0.050
0.560,0.020,-0.040
0.562,0.030,-0.030
0.564,0.045,-0.025
0.566,0.045,-0.025
0.568,0.045,-0.035
0.570,0.020,-0.040
0.572,0.025,-0.050
0.574,0.000,-0.060
0.576,0.030,-0.060
0.578,0.035,-0.055
0.580,0.025,-0.045
0.582,0.080,-0.035
0.584,0.110,-0.025
0.586,0.060,-0.020
0.588,0.010,-0.020
0.590,0.030,-0.030
0.592,0.045,-0.040
0.594,0.015,-0.045
0.596,0.050,-0.055
0.598,0.080,-0.055
0.600,0.025,-0.050
0.602,0.045,-0.045
0.604,0.070,-0.035
0.606,0.050,-0.025
0.608,0.020,-0.015
0.610,0.080,-0.015
0.612,0.010,-0.015
0.614,0.065,-0.020
0.616,0.110,-0.030
0.618,0.055,-0.030
0.620,0.085,-0.035
0.622,0.080,-0.030
0.624,0.055,-0.020
0.626,0.075,-0.010
0.628,0.090,0.000
0.630,0.085,0.010
0.632,0.115,0.015
0.634,0.105,0.020
0.636,0.105,0.020
0.638,0.120,0.015
0.640,0.070,0.015
0.642,0.060,0.015
0.644,0.110,0.015
0.646,0.115,0.020
0.648,0.125,0.025
0.650,0.115,0.030
0.652,0.110,0.035
0.654,0.115,0.035
0.656,0.130,0.040
0.658,0.110,0.045
0.660,0.165,0.045
0.662,0.170,0.050
0.664,0.195,0.060
0.666,0.160,0.070
0.668,0.175,0.080
0.670,0.175,0.090
0.672,0.160,0.095
0.674,0.190,0.105
0.676,0.230,0.110
0.678,0.180,0.115
0.680,0.175,0.115
0.682,0.235,0.120
0.684,0.250,0.125
0.686,0.255,0.130
0.688,0.240,0.140
0.690,0.250,0.150
0.692,0.260,0.160
0.694,0.240,0.175
0.696,0.270,0.185
0.698,0.310,0.200
0.700,0.295,0.210
0.702,0.350,0.225
0.704,0.360,0.235
0.706,0.330,0.245
0.708,0.355,0.250
0.710,0.365,0.260
0.712,0.345,0.265
0.714,0.375,0.270
0.716,0.390,0.275
0.718,0.360,0.280
0.720,0.365,0.285
0.722,0.430,0.295
0.724,0.440,0.305
0.726,0.430,0.315
0.728,0.420,0.325
0.730,0.400,0.335
0.732,0.445,0.340
0.734,0.420,0.345
0.736,0.450,0.340
0.738,0.490,0.335
0.740,0.400,0.330
0.742,0.415,0.320
0.744,0.410,0.315
0.746,0.440,0.310
0.748,0.430,0.310
0.750,0.440,0.305
0.752,0.425,0.300
0.754,0.410,0.295
0.756,0.350,0.280
0.758,0.285,0.265
0.760,0.290,0.240
0.762,0.295,0.210
0.764,0.285,0.180
0.766,0.225,0.155
0.768,0.255,0.130
0.770,0.255,0.115
0.772,0.175,0.100
0.774,0.200,0.090
0.776,0.200,0.085
0.778,0.185,0.080
0.780,0.175,0.070
0.782,0.140,0.055
0.784,0.125,0.040
0.786,0.105,0.025
0.788,0.090,0.005
0.790,0.030,-0.010
0.792,0.060,-0.020
0.794,0.110,-0.030
0.796,0.130,-0.030
0.798,0.070,-0.030
0.800,0.100,-0.030
0.802,0.085,-0.025
0.804,0.120,-0.025
0.806,0.075,-0.030
0.808,0.015,-0.040
0.810,0.015,-0.045
0.812,0.040,-0.055
0.814,0.090,-0.060
0.816,0.075,-0.065
0.818,0.060,-0.060
0.820,0.055,-0.055
0.822,0.090,-0.050
0.824,0.045,-0.045
0.826,0.025,-0.045
0.828,0.040,-0.040
0.830,0.075,-0.045
0.832,0.045,-0.050
0.834,0.065,-0.055
0.836,0.035,-0.060
0.838,0.030,-0.065
0.840,0.065,-0.065
0.842,0.060,-0.070
0.844,0.030,-0.070
0.846,0.055,-0.075
0.848,0.035,-0.080
0.850,-0.005,-0.085
0.852,0.005,-0.090
0.854,0.040,-0.095
0.856,0.000,-0.095
0.858,0.010,-0.095
0.860,0.085,-0.090
0.862,0.105,-0.080
0.864,0.065,-0.065
0.866,0.030,-0.050
0.868,-0.035,-0.040
0.870,0.075,-0.030
0.872,0.065,-0.030
0.874,0.065,-0.030
0.876,0.065,-0.035
0.878,0.080,-0.045
0.880,0.060,-0.050
0.882,0.085,-0.055
0.884,0.090,-0.060
0.886,0.060,-0.055
0.888,0.070,-0.050
0.890,0.055,-0.040
0.892,0.065,-0.030
0.894,0.100,-0.025
0.896,0.105,-0.020
0.898,0.085,-0.020
0.900,0.075,-0.025
0.902,0.070,-0.035
0.904,0.025,-0.045
0.906,0.050,-0.060
0.908,0.080,-0.075
0.910,0.070,-0.085
0.912,0.025,-0.090
0.914,0.020,-0.090
0.916,0.045,-0.085
0.918,0.045,-0.080
0.920,0.065,-0.070
0.922,0.090,-0.065
0.924,0.075,-0.055
0.926,0.085,-0.050
0.928,0.085,-0.045
0.930,0.065,-0.045
0.932,0.085,-0.045
0.934,0.040,-0.045
0.936,0.035,-0.045
0.938,0.080,-0.050
0.940,0.110,-0.050
0.942,0.080,-0.050
0.944,0.075,-0.050
0.946,0.080,-0.050
0.948,0.095,-0.045
0.950,0.070,-0.040
0.952,0.080,-0.040
0.954,0.100,-0.035
0.956,0.090,-0.035
0.958,0.085,-0.035
0.960,0.050,-0.035
0.962,0.085,-0.040
0.964,0.070,-0.045
0.966,0.050,-0.050
0.968,0.030,-0.055
0.970,0.070,-0.060
0.972,0.120,-0.065
0.974,0.055,-0.070
0.976,0.065,-0.070
0.978,0.085,-0.070
0.980,0.090,-0.065
0.982,0.100,-0.060
0.984,0.070,-0.055
0.986,0.055,-0.055
0.988,0.070,-0.050
0.990,0.045,-0.050
0.992,0.035,-0.055
0.994,0.105,-0.055
0.996,0.075,-0.065
0.998,0.040,-0.070
1.000,0.055,-0.075
1.002,0.095,-0.075
1.004,0.055,-0.080
1.006,0.050,-0.080
1.008,0.055,-0.075
1.010,0.080,-0.075
1.012,0.090,-0.070
1.014,0.065,-0.065
1.016,0.070,-0.060
1.018,0.080,-0.060
1.020,0.070,-0.055
1.022,0.075,-0.055
1.024,0.075,-0.055
1.026,0.045,-0.055
1.028,0.020,-0.055
1.030,0.085,-0.060
1.032,0.085,-0.065
1.034,0.045,-0.065
1.036,0.050,-0.070
1.038,0.020,-0.070
1.040,0.060,-0.070
1.042,0.100,-0.065
1.044,0.130,-0.060
1.046,0.095,-0.055
1.048,0.110,-0.050
1.050,0.070,-0.045
1.052,0.080,-0.040
1.054,0.095,-0.045
1.056,0.080,-0.045
1.058,0.035,-0.055
1.060,0.095,-0.060
1.062,0.070,-0.070
1.064,0.030,-0.070
1.066,0.030,-0.070
1.068,0.075,-0.070
1.070,0.080,-0.060
1.072,0.055,-0.055
1.074,0.115,-0.045
1.076,0.080,-0.040
1.078,0.080,-0.040
1.080,0.075,-0.050
1.082,0.080,-0.060
1.084,0.045,-0.070
1.086,0.035,-0.085
1.088,0.020,-0.090
1.090,0.045,-0.095
1.092,0.070,-0.090
1.094,0.085,-0.080
1.096,0.085,-0.070
1.098,0.100,-0.055
1.100,0.110,-0.045
1.102,0.085,-0.035
1.104,0.125,-0.035
1.106,0.100,-0.040
1.108,0.055,-0.050
1.110,0.010,-0.060
1.112,0.045,-0.070
1.114,0.095,-0.080
1.116,0.075,-0.080
1.118,0.070,-0.080
1.120,0.105,-0.075
1.122,0.100,-0.065
1.124,0.105,-0.055
1.126,0.100,-0.050
1.128,0.090,-0.050
1.130,0.050,-0.050
1.132,0.065,-0.050
1.134,0.055,-0.055
1.136,0.050,-0.065
1.138,0.060,-0.070
1.140,0.060,-0.070
1.142,0.110,-0.070
1.144,0.055,-0.070
1.146,0.040,-0.070
1.148,0.090,-0.070
1.150,0.075,-0.070
1.152,0.085,-0.070
1.154,0.090,-0.070
1.156,0.065,-0.070
1.158,0.040,-0.070
1.160,0.075,-0.070
1.162,0.070,-0.065
1.164,0.050,-0.065
1.166,0.090,-0.060
1.168,0.100,-0.060
1.170,0.030,-0.060
1.172,0.085,-0.060
1.174,0.095,-0.065
1.176,0.075,-0.065
1.178,0.080,-0.070
1.180,0.085,-0.070
1.182,0.095,-0.070
1.184,0.110,-0.070
1.186,0.075,-0.070
1.188,0.090,-0.070
1.190,0.055,-0.070
1.192,0.080,-0.065
1.194,0.090,-0.065
1.196,0.040,-0.065
1.198,0.085,-0.060
1.200,0.090,-0.060
1.202,0.080,-0.060
1.204,0.060,-0.055
1.206,0.105,-0.055
1.208,0.130,-0.055
1.210,0.085,-0.050
1.212,0.075,-0.050
1.214,0.100,-0.055
1.216,0.060,-0.055
1.218,0.090,-0.055
1.220,0.090,-0.060
1.222,0.085,-0.060
1.224,0.070,-0.060
1.226,0.070,-0.060
1.228,0.085,-0.060
1.230,0.110,-0.055
1.232,0.120,-0.050
1.234,0.110,-0.045
1.236,0.085,-0.035
1.238,0.120,-0.025
1.240,0.145,-0.015
1.242,0.110,-0.005
1.244,0.130,0.005
1.246,0.175,0.010
1.248,0.230,0.020
1.250,0.210,0.020
1.252,0.180,0.020
1.254,0.130,0.020
1.256,0.120,0.015
1.258,0.140,0.005
1.260,0.165,-0.010
1.262,0.135,-0.020
1.264,0.095,-0.030
1.266,0.110,-0.040
1.268,0.140,-0.050
1.270,0.110,-0.055
1.272,0.125,-0.055
1.274,0.075,-0.060
1.276,0.070,-0.060
1.278,0.085,-0.060
1.280,0.065,-0.060
1.282,0.045,-0.060
1.284,0.115,-0.060
1.286,0.100,-0.060
1.288,0.090,-0.060
1.290,0.065,-0.060
1.292,0.090,-0.060
1.294,0.110,-0.065
1.296,0.070,-0.065
1.298,0.100,-0.065
1.300,0.080,-0.065
1.302,0.040,-0.065
1.304,0.115,-0.065
1.306,0.095,-0.060
1.308,0.065,-0.060
1.310,0.030,-0.065
1.312,0.075,-0.065
1.314,0.085,-0.070
1.316,0.050,-0.070
1.318,0.095,-0.075
1.320,0.115,-0.075
1.322,0.100,-0.080
1.324,0.090,-0.075
1.326,0.085,-0.075
1.328,0.015,-0.070
1.330,-0.005,-0.070
1.332,0.075,-0.075
1.334,0.070,-0.080
1.336,0.070,-0.100
1.338,0.060,-0.120
1.340,0.000,-0.145
1.342,-0.070,-0.175
1.344,-0.085,-0.200
1.346,-0.080,-0.210
1.348,-0.095,-0.210
1.350,-0.035,-0.195
1.352,0.005,-0.160
1.354,0.030,-0.105
1.356,0.145,-0.030
1.358,0.275,0.055
1.360,0.335,0.150
1.362,0.395,0.250
1.364,0.500,0.350
1.366,0.595,0.445
1.368,0.725,0.530
1.370,0.805,0.600
1.372,0.820,0.650
1.374,0.845,0.675
1.376,0.845,0.665
1.378,0.875,0.630
1.380,0.765,0.555
1.382,0.595,0.460
1.384,0.430,0.340
1.386,0.310,0.210
1.388,0.180,0.080
1.390,0.035,-0.035
1.392,-0.030,-0.130
1.394,-0.100,-0.195
1.396,-0.120,-0.225
1.398,-0.020,-0.230
1.400,0.020,-0.205
1.402,-0.045,-0.170
1.404,0.025,-0.130
1.406,0.075,-0.090
1.408,0.095,-0.055
1.410,0.135,-0.040
1.412,0.150,-0.030
1.414,0.100,-0.035
1.416,0.050,-0.040
1.418,0.075,-0.050
1.420,0.135,-0.055
1.422,0.150,-0.055
1.424,0.115,-0.055
1.426,0.100,-0.045
1.428,0.115,-0.040
1.430,0.095,-0.030
1.432,0.080,-0.030
1.434,0.085,-0.035
1.436,0.070,-0.040
1.438,0.130,-0.050
1.440,0.135,-0.060
1.442,0.090,-0.070
1.444,0.095,-0.070
1.446,0.100,-0.070
1.448,0.100,-0.065
1.450,0.105,-0.060
1.452,0.095,-0.050
1.454,0.060,-0.045
1.456,0.105,-0.040
1.458,0.135,-0.040
1.460,0.085,-0.040
1.462,0.090,-0.045
1.464,0.140,-0.050
1.466,0.095,-0.055
1.468,0.100,-0.055
1.470,0.130,-0.050
1.472,0.100,-0.045
1.474,0.115,-0.035
1.476,0.130,-0.025
1.478,0.115,-0.015
1.480,0.175,-0.015
1.482,0.155,-0.010
1.484,0.100,-0.015
1.486,0.065,-0.020
1.488,0.115,-0.025
1.490,0.120,-0.025
1.492,0.145,-0.020
1.494,0.150,-0.015
1.496,0.145,-0.005
1.498,0.180,0.005
1.500,0.155,0.015
1.502,0.115,0.020
1.504,0.170,0.025
1.506,0.170,0.025
1.508,0.145,0.025
1.510,0.150,0.020
1.512,0.150,0.015
1.514,0.165,0.015
1.516,0.200,0.015
1.518,0.215,0.020
1.520,0.205,0.025
1.522,0.185,0.035
1.524,0.165,0.040
1.526,0.195,0.050
1.528,0.200,0.055
1.530,0.190,0.055
1.532,0.205,0.060
1.534,0.210,0.060
1.536,0.240,0.065
1.538,0.240,0.070
1.540,0.250,0.080
1.542,0.250,0.090
1.544,0.225,0.100
1.546,0.255,0.115
1.548,0.250,0.125
1.550,0.310,0.135
1.552,0.285,0.145
1.554,0.275,0.150
1.556,0.290,0.155
1.558,0.330,0.165
1.560,0.355,0.175
1.562,0.355,0.185
1.564,0.390,0.195
1.566,0.370,0.210
1.568,0.360,0.230
1.570,0.380,0.245
1.572,0.365,0.260
1.574,0.365,0.270
1.576,0.425,0.275
1.578,0.435,0.280
1.580,0.435,0.280
1.582,0.495,0.285
1.584,0.450,0.285
1.586,0.405,0.290
1.588,0.405,0.295
1.590,0.430,0.300
1.592,0.475,0.305
1.594,0.470,0.310
1.596,0.450,0.315
1.598,0.495,0.320
1.600,0.500,0.315
1.602,0.465,0.315
1.604,0.465,0.310
1.606,0.415,0.310
1.608,0.465,0.305
1.610,0.440,0.305
1.612,0.395,0.305
1.614,0.450,0.300
1.616,0.505,0.295
1.618,0.420,0.280
1.620,0.410,0.265
1.622,0.395,0.245
1.624,0.360,0.220
1.626,0.290,0.195
1.628,0.240,0.170
1.630,0.250,0.150
1.632,0.235,0.135
1.634,0.260,0.125
1.636,0.270,0.115
1.638,0.275,0.105
1.640,0.240,0.095
1.642,0.225,0.085
1.644,0.215,0.075
1.646,0.185,0.060
1.648,0.165,0.045
1.650,0.175,0.030
1.652,0.140,0.015
1.654,0.110,0.005
1.656,0.170,-0.005
1.658,0.145,-0.015
1.660,0.115,-0.025
1.662,0.090,-0.035
1.664,0.085,-0.045
1.666,0.115,-0.055
1.668,0.060,-0.065
1.670,0.075,-0.070
1.672,0.095,-0.070
1.674,0.105,-0.065
1.676,0.150,-0.055
1.678,0.125,-0.045
1.680,0.080,-0.035
1.682,0.015,-0.030
1.684,0.100,-0.025
1.686,0.080,-0.030
1.688,0.085,-0.035
1.690,0.120,-0.045
1.692,0.065,-0.060
1.694,0.045,-0.070
1.696,0.090,-0.075
1.698,0.115,-0.080
1.700,0.120,-0.075
1.702,0.070,-0.075
1.704,0.075,-0.070
1.706,0.065,-0.065
1.708,0.075,-0.060
1.710,0.085,-0.060
1.712,0.030,-0.060
1.714,0.035,-0.065
1.716,0.100,-0.070
1.718,0.080,-0.075
1.720,0.050,-0.080
1.722,0.060,-0.080
1.724,0.080,-0.080
1.726,0.080,-0.075
1.728,0.055,-0.075
1.730,0.060,-0.070
1.732,0.030,-0.070
1.734,0.070,-0.065
1.736,0.130,-0.060
1.738,0.085,-0.055
1.740,0.075,-0.055
1.742,0.090,-0.050
1.744,0.090,-0.050
1.746,0.090,-0.055
1.748,0.110,-0.055
1.750,0.060,-0.065
1.752,0.065,-0.070
1.754,0.095,-0.080
1.756,0.085,-0.085
1.758,0.020,-0.085
1.760,-0.035,-0.085
1.762,0.010,-0.080
1.764,0.095,-0.075
1.766,0.110,-0.065
1.768,0.135,-0.050
1.770,0.095,-0.040
1.772,0.125,-0.030
1.774,0.105,-0.025
1.776,0.120,-0.025
1.778,0.085,-0.025
1.780,0.080,-0.030
1.782,0.105,-0.035
1.784,0.120,-0.040
1.786,0.085,-0.045
1.788,0.105,-0.050
1.790,0.085,-0.050
1.792,0.075,-0.050
1.794,0.050,-0.050
1.796,0.075,-0.045
1.798,0.065,-0.040
1.800,0.085,-0.040
1.802,0.080,-0.035
1.804,0.135,-0.035
1.806,0.210,-0.035
1.808,0.135,-0.035
1.810,0.065,-0.030
1.812,0.085,-0.030
1.814,0.075,-0.030
1.816,0.095,-0.030
1.818,0.105,-0.030
1.820,0.100,-0.035
1.822,0.085,-0.040
1.824,0.060,-0.050
1.826,0.075,-0.060
1.828,0.105,-0.070
1.830,0.050,-0.080
1.832,0.065,-0.090
1.834,0.060,-0.090
1.836,0.020,-0.090
1.838,-0.030,-0.080
1.840,0.020,-0.070
1.842,0.090,-0.055
1.844,0.115,-0.040
1.846,0.130,-0.025
1.848,0.130,-0.020
1.850,0.095,-0.015
1.852,0.080,-0.015
1.854,0.110,-0.020
1.856,0.115,-0.025
1.858,0.110,-0.030
1.860,0.085,-0.035
1.862,0.100,-0.040
1.864,0.095,-0.045
1.866,0.070,-0.050
1.868,0.065,-0.050
1.870,0.060,-0.060
1.872,0.035,-0.065
1.874,0.060,-0.075
1.876,0.065,-0.080
1.878,0.020,-0.085
1.880,0.035,-0.090
1.882,0.065,-0.085
1.884,0.055,-0.080
1.886,0.080,-0.070
1.888,0.060,-0.060
1.890,0.090,-0.045
1.892,0.105,-0.035
1.894,0.100,-0.030
1.896,0.110,-0.030
1.898,0.095,-0.030
1.900,0.070,-0.040
1.902,0.050,-0.045
1.904,0.060,-0.055
1.906,0.055,-0.065
1.908,0.065,-0.065
1.910,0.080,-0.070
1.912,0.115,-0.070
1.914,0.105,-0.065
1.916,0.065,-0.065
1.918,0.035,-0.065
1.920,0.045,-0.065
1.922,0.025,-0.070
1.924,0.015,-0.075
1.926,0.010,-0.080
1.928,0.020,-0.080
1.930,0.035,-0.085
1.932,0.050,-0.085
1.934,0.085,-0.080
1.936,0.085,-0.075
1.938,0.080,-0.070
1.940,0.100,-0.065
1.942,0.085,-0.060
1.944,0.070,-0.050
1.946,0.085,-0.050
1.948,0.075,-0.045
1.950,0.045,-0.045
1.952,0.055,-0.050
1.954,0.070,-0.050
1.956,0.080,-0.060
1.958,0.070,-0.065
1.960,0.040,-0.075
1.962,0.040,-0.085
1.964,0.005,-0.095
1.966,0.045,-0.100
1.968,0.055,-0.105
1.970,0.000,-0.105
1.972,0.015,-0.105
1.974,0.010,-0.100
1.976,-0.005,-0.095
1.978,0.030,-0.085
1.980,0.080,-0.080
1.982,0.095,-0.075
1.984,0.060,-0.065
1.986,0.065,-0.060
1.988,0.085,-0.055
1.990,0.080,-0.045
1.992,0.085,-0.045
1.994,0.070,-0.040
1.996,0.040,-0.040
1.998,0.055,-0.040
2.000,0.060,-0.045
2.002,0.060,-0.055
2.004,0.060,-0.065
2.006,0.030,-0.070
2.008,0.015,-0.080
2.010,0.010,-0.085
2.012,0.040,-0.085
2.014,0.060,-0.080
2.016,0.035,-0.075
2.018,0.015,-0.070
2.020,0.095,-0.060
2.022,0.105,-0.055
2.024,0.065,-0.050
2.026,0.065,-0.050
2.028,0.055,-0.055
2.030,0.055,-0.055
2.032,0.040,-0.060
2.034,0.070,-0.060
2.036,0.025,-0.065
2.038,0.070,-0.065
2.040,0.070,-0.065
2.042,0.045,-0.070
2.044,0.015,-0.070
2.046,0.025,-0.070
2.048,0.030,-0.070
2.050,0.005,-0.070
2.052,0.070,-0.070
2.054,0.055,-0.070
2.056,0.030,-0.070
2.058,0.020,-0.065
2.060,0.080,-0.060
2.062,0.080,-0.060
2.064,0.060,-0.055
2.066,0.065,-0.055
2.068,0.075,-0.060
2.070,0.050,-0.065
2.072,0.065,-0.070
2.074,0.060,-0.075
2.076,0.050,-0.080
2.078,-0.010,-0.085
2.080,-0.030,-0.090
2.082,-0.020,-0.085
2.084,0.030,-0.080
2.086,0.095,-0.070
2.088,0.095,-0.060
2.090,0.070,-0.050
2.092,0.070,-0.040
2.094,0.115,-0.030
2.096,0.115,-0.020
2.098,0.125,-0.015
2.100,0.070,-0.010
2.102,0.090,-0.005
2.104,0.105,-0.005
2.106,0.110,0.000
2.108,0.145,0.005
2.110,0.115,0.005
2.112,0.160,0.010
2.114,0.125,0.015
2.116,0.085,0.015
2.118,0.095,0.015
2.120,0.165,0.015
2.122,0.110,0.015
2.124,0.120,0.010
2.126,0.100,0.005
2.128,0.090,0.000
2.130,0.070,-0.005
2.132,0.095,-0.010
2.134,0.120,-0.015
2.136,0.130,-0.020
2.138,0.075,-0.030
2.140,0.050,-0.035
2.142,0.055,-0.045
2.144,0.025,-0.055
2.146,0.050,-0.065
2.148,0.060,-0.075
2.150,0.025,-0.085
2.152,0.035,-0.095
2.154,0.040,-0.100
2.156,0.010,-0.105
2.158,0.005,-0.100
2.160,0.000,-0.090
2.162,0.040,-0.075
2.164,0.080,-0.060
2.166,0.070,-0.050
2.168,0.055,-0.035
2.170,0.080,-0.030
2.172,0.060,-0.030
2.174,0.040,-0.035
2.176,0.025,-0.045
2.178,0.040,-0.060
2.180,0.045,-0.075
2.182,0.025,-0.090
2.184,0.035,-0.095
2.186,0.015,-0.100
2.188,-0.020,-0.100
2.190,-0.045,-0.095
2.192,-0.100,-0.090
2.194,0.045,-0.085
2.196,0.075,-0.085
2.198,0.060,-0.090
2.200,0.035,-0.100
2.202,-0.040,-0.120
2.204,-0.075,-0.140
2.206,-0.100,-0.160
2.208,-0.135,-0.180
2.210,-0.140,-0.195
2.212,-0.130,-0.195
2.214,-0.085,-0.185
2.216,-0.055,-0.160
2.218,-0.015,-0.115
2.220,0.080,-0.050
2.222,0.185,0.030
2.224,0.285,0.125
2.226,0.375,0.225
2.228,0.435,0.335
2.230,0.490,0.445
2.232,0.650,0.545
2.234,0.765,0.630
2.236,0.845,0.695
2.238,0.890,0.735
2.240,0.935,0.735
2.242,0.890,0.705
2.244,0.815,0.640
2.246,0.625,0.545
2.248,0.455,0.430
2.250,0.315,0.300
2.252,0.220,0.175
2.254,0.070,0.055
2.256,-0.015,-0.045
2.258,-0.035,-0.115
2.260,-0.025,-0.160
2.262,-0.030,-0.175
2.264,-0.015,-0.170
2.266,-0.030,-0.145
2.268,-0.040,-0.115
2.270,-0.070,-0.085
2.272,0.015,-0.060
2.274,0.075,-0.045
2.276,0.105,-0.035
2.278,0.075,-0.030
2.280,0.060,-0.035
2.282,0.050,-0.040
2.284,0.060,-0.040
2.286,0.065,-0.045
2.288,0.070,-0.045
2.290,0.055,-0.045
2.292,0.080,-0.040
2.294,0.090,-0.040
2.296,0.055,-0.040
2.298,0.065,-0.040
2.300,0.065,-0.045
2.302,0.025,-0.050
2.304,0.050,-0.055
2.306,0.060,-0.060
2.308,0.025,-0.065
2.310,0.040,-0.070
2.312,0.020,-0.070
2.314,0.025,-0.070
2.316,0.035,-0.070
2.318,0.040,-0.065
2.320,0.045,-0.055
2.322,0.035,-0.045
2.324,0.080,-0.035
2.326,0.095,-0.025
2.328,0.080,-0.010
2.330,0.075,0.000
2.332,0.105,0.005
2.334,0.100,0.010
2.336,0.095,0.015
2.338,0.100,0.015
2.340,0.110,0.010
2.342,0.090,0.005
2.344,0.070,0.000
2.346,0.100,-0.005
2.348,0.105,-0.015
2.350,0.090,-0.020
2.352,0.080,-0.025
2.354,0.040,-0.035
2.356,0.035,-0.035
2.358,-0.010,-0.035
2.360,0.050,-0.035
2.362,0.125,-0.025
2.364,0.110,-0.020
2.366,0.100,-0.005
2.368,0.105,0.005
2.370,0.110,0.020
2.372,0.145,0.030
2.374,0.155,0.045
2.376,0.150,0.050
2.378,0.170,0.055
2.380,0.175,0.055
2.382,0.130,0.055
2.384,0.165,0.050
2.386,0.135,0.045
2.388,0.100,0.040
2.390,0.075,0.040
2.392,0.130,0.035
2.394,0.110,0.035
2.396,0.160,0.040
2.398,0.190,0.050
2.400,0.165,0.060
2.402,0.150,0.075
2.404,0.210,0.090
2.406,0.215,0.105
2.408,0.210,0.125
2.410,0.250,0.135
2.412,0.270,0.145
2.414,0.240,0.155
2.416,0.235,0.155
2.418,0.220,0.160
2.420,0.245,0.160
2.422,0.275,0.160
2.424,0.265,0.165
2.426,0.280,0.170
2.428,0.260,0.185
2.430,0.245,0.200
2.432,0.295,0.220
2.434,0.385,0.245
2.436,0.380,0.265
2.438,0.395,0.280
2.440,0.385,0.295
2.442,0.415,0.305
2.444,0.385,0.310
2.446,0.355,0.310
2.448,0.365,0.305
2.450,0.420,0.305
2.452,0.405,0.300
2.454,0.435,0.300
2.456,0.420,0.305
2.458,0.420,0.310
2.460,0.395,0.315
2.462,0.385,0.325
2.464,0.405,0.330
2.466,0.400,0.330
2.468,0.430,0.330
2.470,0.490,0.330
2.472,0.465,0.325
2.474,0.380,0.320
2.476,0.390,0.310
2.478,0.395,0.305
2.480,0.380,0.295
2.482,0.350,0.285
2.484,0.355,0.270
2.486,0.330,0.255
2.488,0.315,0.235
2.490,0.300,0.215
2.492,0.315,0.190
2.494,0.260,0.170
2.496,0.210,0.145
2.498,0.225,0.130
2.500,0.140,0.115
2.502,0.210,0.100
2.504,0.230,0.095
2.506,0.225,0.085
2.508,0.140,0.080
2.510,0.115,0.070
2.512,0.130,0.060
2.514,0.130,0.045
2.516,0.090,0.030
2.518,0.075,0.010
2.520,0.060,-0.005
2.522,0.060,-0.020
2.524,0.050,-0.025
2.526,0.065,-0.030
2.528,0.060,-0.030
2.530,0.035,-0.025
2.532,0.090,-0.020
2.534,0.080,-0.020
2.536,0.080,-0.020
2.538,0.075,-0.020
2.540,0.030,-0.030
2.542,0.015,-0.035
2.544,0.035,-0.050
2.546,0.055,-0.060
2.548,0.025,-0.070
2.550,0.010,-0.075
2.552,0.010,-0.080
2.554,0.035,-0.080
2.556,0.050,-0.080
2.558,0.025,-0.075
2.560,0.010,-0.075
2.562,0.005,-0.075
2.564,0.035,-0.075
2.566,0.055,-0.075
2.568,0.010,-0.070
2.570,-0.030,-0.070
2.572,0.015,-0.070
2.574,0.025,-0.065
2.576,0.075,-0.065
2.578,0.065,-0.060
2.580,0.015,-0.060
2.582,0.010,-0.060
2.584,0.015,-0.055
2.586,0.020,-0.055
2.588,0.050,-0.055
2.590,0.075,-0.055
2.592,0.050,-0.050
2.594,0.020,-0.050
2.596,0.035,-0.045
2.598,0.030,-0.045
2.600,0.015,-0.045
2.602,0.015,-0.050
2.604,-0.025,-0.055
2.606,-0.015,-0.060
2.608,-0.020,-0.070
2.610,0.055,-0.075
2.612,0.060,-0.080
2.614,0.010,-0.080
2.616,0.025,-0.080
2.618,-0.020,-0.075
2.620,-0.035,-0.065
2.622,0.060,-0.060
2.624,0.090,-0.050
2.626,0.055,-0.040
2.628,0.030,-0.035
2.630,0.060,-0.035
2.632,0.030,-0.035
2.634,0.010,-0.040
2.636,0.045,-0.045
2.638,0.040,-0.050
2.640,0.010,-0.050
2.642,0.040,-0.055
2.644,0.075,-0.055
2.646,0.025,-0.055
2.648,0.035,-0.050
2.650,0.100,-0.050
2.652,0.045,-0.050
2.654,0.035,-0.045
2.656,0.015,-0.045
2.658,-0.005,-0.045
2.660,0.010,-0.045
2.662,0.035,-0.045
2.664,0.060,-0.045
2.666,0.065,-0.045
2.668,0.060,-0.045
2.670,0.065,-0.045
2.672,-0.010,-0.045
2.674,0.015,-0.045
2.676,0.070,-0.045
2.678,0.040,-0.050
2.680,0.040,-0.050
2.682,0.045,-0.055
2.684,0.010,-0.060
2.686,-0.035,-0.065
2.688,0.020,-0.065
2.690,0.060,-0.060
2.692,0.005,-0.055
2.694,0.075,-0.045
2.696,0.115,-0.040
2.698,0.075,-0.030
2.700,0.025,-0.025
2.702,0.030,-0.025
2.704,-0.005,-0.030
2.706,0.050,-0.035
2.708,0.075,-0.040
2.710,0.080,-0.045
2.712,0.030,-0.050
2.714,0.035,-0.055
2.716,0.065,-0.055
2.718,0.035,-0.055
2.720,-0.020,-0.055
2.722,0.015,-0.050
2.724,0.055,-0.050
2.726,0.020,-0.050
2.728,-0.005,-0.055
2.730,0.080,-0.060
2.732,0.005,-0.065
2.734,0.025,-0.070
2.736,0.040,-0.075
2.738,0.040,-0.080
2.740,0.040,-0.075
2.742,0.025,-0.075
2.744,0.005,-0.065
2.746,0.005,-0.060
2.748,0.030,-0.055
2.750,0.055,-0.050
2.752,0.045,-0.050
2.754,0.040,-0.055
2.756,0.005,-0.065
2.758,-0.025,-0.075
2.760,-0.015,-0.090
2.762,-0.030,-0.095
2.764,-0.075,-0.095
2.766,-0.040,-0.095
2.768,0.040,-0.085
2.770,0.120,-0.070
2.772,0.075,-0.050
2.774,0.025,-0.035
2.776,0.075,-0.020
2.778,0.040,-0.010
2.780,0.035,-0.010
2.782,0.040,-0.015
2.784,0.035,-0.025
2.786,0.010,-0.040
2.788,0.010,-0.055
2.790,0.030,-0.065
2.792,0.030,-0.075
2.794,0.020,-0.075
2.796,0.005,-0.075
2.798,-0.015,-0.070
2.800,0.000,-0.065
2.802,0.025,-0.060
2.804,0.025,-0.055
2.806,0.025,-0.050
2.808,0.030,-0.050
2.810,0.040,-0.050
2.812,0.020,-0.055
2.814,0.010,-0.060
2.816,-0.015,-0.065
2.818,-0.005,-0.070
2.820,0.015,-0.080
2.822,0.025,-0.085
2.824,0.065,-0.090
2.826,-0.045,-0.095
2.828,-0.020,-0.095
2.830,-0.010,-0.095
2.832,0.020,-0.090
2.834,0.025,-0.085
2.836,0.030,-0.080
2.838,0.015,-0.070
2.840,0.020,-0.065
2.842,0.035,-0.055
2.844,0.045,-0.055
2.846,0.010,-0.055
2.848,0.045,-0.055
2.850,0.045,-0.055
2.852,0.025,-0.060
2.854,0.000,-0.060
2.856,0.045,-0.060
2.858,-0.005,-0.060
2.860,0.000,-0.060
2.862,0.050,-0.055
2.864,0.020,-0.055
2.866,0.015,-0.060
2.868,0.050,-0.065
2.870,0.010,-0.070
2.872,-0.015,-0.080
2.874,-0.015,-0.095
2.876,-0.005,-0.105
2.878,-0.060,-0.110
2.880,-0.040,-0.110
2.882,-0.005,-0.110
2.884,0.020,-0.100
2.886,0.040,-0.090
2.888,0.025,-0.075
2.890,0.045,-0.065
2.892,0.030,-0.055
2.894,0.010,-0.050
2.896,-0.020,-0.050
2.898,-0.050,-0.055
2.900,0.010,-0.060
2.902,0.020,-0.070
2.904,0.005,-0.075
2.906,0.050,-0.080
2.908,0.030,-0.080
2.910,0.045,-0.080
2.912,-0.005,-0.075
2.914,-0.015,-0.075
2.916,-0.010,-0.070
2.918,-0.005,-0.070
2.920,0.015,-0.070
2.922,0.000,-0.070
2.924,-0.010,-0.070
2.926,0.030,-0.065
2.928,0.030,-0.060
2.930,0.060,-0.055
2.932,0.025,-0.050
2.934,0.045,-0.040
2.936,0.025,-0.040
2.938,0.015,-0.040
2.940,0.060,-0.045
2.942,0.000,-0.055
2.944,-0.030,-0.065
2.946,-0.030,-0.080
2.948,-0.005,-0.090
2.950,0.020,-0.100
2.952,0.045,-0.100
2.954,0.005,-0.100
2.956,0.005,-0.090
2.958,0.005,-0.080
2.960,0.010,-0.065
2.962,0.010,-0.055
2.964,0.010,-0.040
2.966,0.065,-0.035
2.968,0.065,-0.025
2.970,0.040,-0.025
2.972,0.070,-0.020
2.974,0.055,-0.020
2.976,0.060,-0.020
2.978,0.045,-0.015
2.980,0.090,-0.005
2.982,0.115,0.005
2.984,0.115,0.015
2.986,0.115,0.030
2.988,0.135,0.035
2.990,0.125,0.040
2.992,0.140,0.040
2.994,0.100,0.035
2.996,0.060,0.020
2.998,0.040,0.005
3.000,0.065,-0.010
3.002,0.060,-0.025
3.004,0.050,-0.040
3.006,0.010,-0.050
3.008,0.020,-0.060
3.010,0.025,-0.065
3.012,0.070,-0.065
3.014,0.020,-0.065
3.016,0.025,-0.065
3.018,0.025,-0.070
3.020,0.030,-0.070
3.022,0.035,-0.070
3.024,0.005,-0.070
3.026,-0.030,-0.065
3.028,0.000,-0.065
3.030,-0.015,-0.060
3.032,0.040,-0.055
3.034,0.040,-0.050
3.036,0.045,-0.050
3.038,0.015,-0.050
3.040,0.005,-0.055
3.042,0.015,-0.065
3.044,-0.025,-0.075
3.046,-0.010,-0.090
3.048,-0.020,-0.100
3.050,-0.015,-0.105
3.052,0.010,-0.110
3.054,-0.015,-0.105
3.056,-0.040,-0.100
3.058,-0.005,-0.090
3.060,0.000,-0.080
3.062,0.020,-0.070
3.064,0.005,-0.065
3.066,-0.010,-0.065
3.068,0.030,-0.070
3.070,0.015,-0.090
3.072,-0.030,-0.115
3.074,-0.095,-0.145
3.076,-0.120,-0.180
3.078,-0.195,-0.210
3.080,-0.175,-0.235
3.082,-0.190,-0.245
3.084,-0.190,-0.240
3.086,-0.140,-0.215
3.088,-0.040,-0.170
3.090,-0.020,-0.105
3.092,0.060,-0.020
3.094,0.200,0.075
3.096,0.315,0.180
3.098,0.355,0.295
3.100,0.470,0.405
3.102,0.580,0.510
3.104,0.735,0.605
3.106,0.820,0.685
3.108,0.870,0.735
3.110,0.905,0.760
3.112,0.915,0.745
3.114,0.840,0.695
3.116,0.690,0.610
3.118,0.535,0.490
3.120,0.360,0.355
3.122,0.220,0.215
3.124,0.080,0.080
3.126,-0.015,-0.035
3.128,-0.055,-0.115
3.130,-0.105,-0.165
3.132,-0.070,-0.185
3.134,-0.065,-0.175
3.136,-0.030,-0.145
3.138,0.015,-0.105
3.140,0.030,-0.070
3.142,-0.005,-0.040
3.144,0.025,-0.025
3.146,0.030,-0.025
3.148,0.050,-0.030
3.150,0.045,-0.045
3.152,0.020,-0.055
3.154,0.015,-0.065
3.156,-0.035,-0.070
3.158,0.035,-0.070
3.160,0.040,-0.065
3.162,0.000,-0.060
3.164,-0.015,-0.055
3.166,0.040,-0.050
3.168,0.030,-0.050
3.170,0.040,-0.050
3.172,0.020,-0.055
3.174,0.040,-0.055
3.176,0.020,-0.060
3.178,0.025,-0.060
3.180,0.035,-0.060
3.182,0.010,-0.055
3.184,0.035,-0.055
3.186,0.020,-0.050
3.188,0.010,-0.045
3.190,0.010,-0.035
3.192,0.080,-0.030
3.194,0.065,-0.025
3.196,0.065,-0.020
3.198,0.050,-0.010
3.200,0.030,-0.010
3.202,0.015,-0.005
3.204,0.010,-0.010
3.206,0.085,-0.015
3.208,0.090,-0.020
3.210,0.050,-0.025
3.212,0.040,-0.030
3.214,0.055,-0.035
3.216,0.040,-0.035
3.218,0.035,-0.030
3.220,0.080,-0.020
3.222,0.065,-0.010
3.224,0.050,-0.005
3.226,0.040,0.005
3.228,0.065,0.005
3.230,0.080,0.005
3.232,0.130,0.005
3.234,0.080,0.000
3.236,0.090,-0.005
3.238,0.060,-0.005
3.240,0.090,-0.005
3.242,0.090,0.005
3.244,0.100,0.015
3.246,0.135,0.025
3.248,0.130,0.040
3.250,0.095,0.050
3.252,0.125,0.055
3.254,0.105,0.060
3.256,0.105,0.055
3.258,0.110,0.050
3.260,0.110,0.045
3.262,0.080,0.035
3.264,0.095,0.035
3.266,0.110,0.035
3.268,0.160,0.045
3.270,0.190,0.060
3.272,0.195,0.075
3.274,0.180,0.095
3.276,0.135,0.115
3.278,0.195,0.130
3.280,0.220,0.145
3.282,0.210,0.155
3.284,0.205,0.160
3.286,0.245,0.165
3.288,0.260,0.165
3.290,0.255,0.165
3.292,0.240,0.165
3.294,0.255,0.170
3.296,0.240,0.175
3.298,0.250,0.185
3.300,0.265,0.195
3.302,0.270,0.205
3.304,0.305,0.210
3.306,0.305,0.220
3.308,0.320,0.230
3.310,0.340,0.240
3.312,0.375,0.250
3.314,0.370,0.265
3.316,0.375,0.275
3.318,0.380,0.290
3.320,0.355,0.305
3.322,0.365,0.315
3.324,0.410,0.330
3.326,0.460,0.335
3.328,0.435,0.345
3.330,0.415,0.345
3.332,0.395,0.350
3.334,0.410,0.345
3.336,0.410,0.345
3.338,0.410,0.340
3.340,0.365,0.335
3.342,0.380,0.325
3.344,0.395,0.315
3.346,0.395,0.305
3.348,0.375,0.295
3.350,0.410,0.280
3.352,0.305,0.270
3.354,0.290,0.255
3.356,0.300,0.245
3.358,0.335,0.235
3.360,0.315,0.225
3.362,0.285,0.210
3.364,0.245,0.195
3.366,0.270,0.180
3.368,0.225,0.165
3.370,0.220,0.150
3.372,0.180,0.130
3.374,0.150,0.115
3.376,0.125,0.100
3.378,0.125,0.085
3.380,0.125,0.070
3.382,0.120,0.055
3.384,0.185,0.045
3.386,0.110,0.030
3.388,0.090,0.015
3.390,0.030,0.005
3.392,0.060,-0.010
3.394,0.070,-0.020
3.396,0.040,-0.025
3.398,0.075,-0.030
3.400,0.030,-0.030
3.402,0.020,-0.030
3.404,0.045,-0.030
3.406,0.020,-0.030
3.408,0.070,-0.030
3.410,0.080,-0.030
3.412,0.070,-0.035
3.414,0.005,-0.035
3.416,0.035,-0.040
3.418,0.035,-0.045
3.420,0.040,-0.050
3.422,0.035,-0.050
3.424,0.020,-0.050
3.426,0.020,-0.050
3.428,0.030,-0.055
3.430,0.025,-0.055
3.432,-0.005,-0.060
3.434,-0.035,-0.065
3.436,0.000,-0.070
3.438,-0.010,-0.070
3.440,-0.010,-0.075
3.442,0.035,-0.070
3.444,0.015,-0.070
3.446,0.015,-0.065
3.448,-0.005,-0.060
3.450,0.035,-0.050
3.452,0.030,-0.050
3.454,0.000,-0.045
3.456,0.030,-0.050
3.458,0.070,-0.050
3.460,-0.005,-0.055
3.462,-0.025,-0.060
3.464,0.025,-0.065
3.466,0.020,-0.070
3.468,-0.025,-0.075
3.470,-0.015,-0.075
3.472,0.010,-0.075
3.474,-0.005,-0.075
3.476,0.025,-0.070
3.478,0.045,-0.065
3.480,0.015,-0.055
3.482,0.035,-0.050
3.484,0.055,-0.045
3.486,0.060,-0.035
3.488,0.035,-0.035
3.490,0.020,-0.030
3.492,0.000,-0.035
3.494,0.015,-0.040
3.496,0.015,-0.045
3.498,0.005,-0.050
3.500,0.000,-0.060
3.502,0.005,-0.070
3.504,0.015,-0.075
3.506,0.045,-0.080
3.508,-0.035,-0.080
3.510,0.010,-0.080
3.512,0.045,-0.075
3.514,0.000,-0.070
3.516,-0.005,-0.065
3.518,0.005,-0.060
3.520,0.030,-0.055
3.522,0.035,-0.050
3.524,0.040,-0.045
3.526,0.025,-0.040
3.528,0.055,-0.035
3.530,0.040,-0.030
3.532,0.020,-0.030
3.534,0.030,-0.030
3.536,0.025,-0.030
3.538,0.055,-0.030
3.540,0.040,-0.030
3.542,0.015,-0.035
3.544,0.060,-0.035
3.546,0.055,-0.040
3.548,0.070,-0.040
3.550,0.025,-0.045
3.552,-0.025,-0.045
3.554,-0.005,-0.050
3.556,0.030,-0.055
3.558,0.015,-0.060
3.560,-0.005,-0.065
3.562,0.020,-0.065
3.564,0.040,-0.065
3.566,0.045,-0.060
3.568,0.070,-0.055
3.570,0.040,-0.045
3.572,0.020,-0.040
3.574,0.035,-0.030
3.576,0.035,-0.025
3.578,0.035,-0.025
3.580,0.045,-0.030
3.582,0.045,-0.040
3.584,0.080,-0.055
3.586,-0.015,-0.070
3.588,-0.015,-0.080
3.590,0.000,-0.090
3.592,-0.025,-0.095
3.594,-0.025,-0.090
3.596,-0.015,-0.085
3.598,0.030,-0.075
3.600,0.040,-0.060
3.602,0.030,-0.050
3.604,0.050,-0.035
3.606,0.060,-0.030
3.608,0.050,-0.030
3.610,0.045,-0.030
3.612,0.040,-0.040
3.614,-0.015,-0.050
3.616,-0.015,-0.060
3.618,-0.025,-0.070
3.620,-0.030,-0.080
3.622,0.000,-0.085
3.624,0.035,-0.085
3.626,0.025,-0.080
3.628,0.020,-0.075
3.630,0.045,-0.060
3.632,0.045,-0.050
3.634,-0.050,-0.035
3.636,0.060,-0.025
3.638,0.080,-0.025
3.640,0.045,-0.025
3.642,0.040,-0.030
3.644,0.020,-0.040
3.646,0.025,-0.050
3.648,-0.010,-0.065
3.650,-0.045,-0.075
3.652,0.005,-0.080
3.654,-0.005,-0.085
3.656,-0.005,-0.080
3.658,0.030,-0.075
3.660,0.015,-0.070
3.662,0.020,-0.060
3.664,0.005,-0.055
3.666,0.020,-0.050
3.668,0.030,-0.050
3.670,0.015,-0.050
3.672,0.010,-0.050
3.674,0.000,-0.050
3.676,0.030,-0.055
3.678,0.010,-0.055
3.680,-0.010,-0.055
3.682,0.010,-0.060
3.684,0.010,-0.065
3.686,0.000,-0.070
3.688,0.015,-0.075
3.690,-0.010,-0.080
3.692,-0.025,-0.080
3.694,-0.005,-0.085
3.696,0.005,-0.080
3.698,-0.030,-0.075
3.700,-0.010,-0.070
3.702,0.060,-0.060
3.704,0.055,-0.055
3.706,0.025,-0.050
3.708,-0.010,-0.045
3.710,-0.035,-0.050
3.712,-0.030,-0.055
3.714,0.020,-0.060
3.716,0.035,-0.070
3.718,0.030,-0.075
3.720,-0.010,-0.075
3.722,-0.040,-0.070
3.724,-0.005,-0.065
3.726,0.050,-0.055
3.728,0.035,-0.045
3.730,0.020,-0.035
3.732,0.025,-0.030
3.734,0.035,-0.035
3.736,0.040,-0.035
3.738,-0.010,-0.045
3.740,0.000,-0.055
3.742,0.035,-0.065
3.744,0.040,-0.075
3.746,0.035,-0.080
3.748,-0.030,-0.080
3.750,-0.005,-0.080
3.752,0.000,-0.080
3.754,-0.025,-0.075
3.756,-0.055,-0.070
3.758,-0.010,-0.070
3.760,0.045,-0.065
3.762,0.045,-0.065
3.764,0.025,-0.065
3.766,-0.035,-0.065
3.768,-0.010,-0.065
3.770,0.005,-0.070
3.772,0.045,-0.070
3.774,0.005,-0.075
3.776,-0.005,-0.075
3.778,-0.005,-0.080
3.780,0.000,-0.080
3.782,-0.025,-0.080
3.784,0.030,-0.080
3.786,-0.010,-0.080
3.788,-0.060,-0.075
3.790,0.000,-0.075
3.792,0.000,-0.070
3.794,0.020,-0.070
3.796,0.015,-0.070
3.798,-0.020,-0.070
3.800,-0.015,-0.070
3.802,0.025,-0.070
3.804,0.055,-0.070
3.806,0.030,-0.070
3.808,-0.010,-0.070
3.810,-0.025,-0.065
3.812,-0.010,-0.065
3.814,0.035,-0.065
3.816,0.030,-0.065
3.818,-0.015,-0.070
3.820,0.005,-0.070
3.822,-0.015,-0.075
3.824,0.015,-0.075
3.826,0.035,-0.075
3.828,0.000,-0.070
3.830,0.005,-0.060
3.832,0.025,-0.055
3.834,0.080,-0.045
3.836,0.055,-0.035
3.838,0.030,-0.030
3.840,0.020,-0.025
3.842,0.060,-0.020
3.844,0.080,-0.020
3.846,0.045,-0.020
3.848,0.065,-0.015
3.850,0.115,-0.010
3.852,0.115,-0.005
3.854,0.110,0.005
3.856,0.105,0.010
3.858,0.070,0.020
3.860,0.085,0.025
3.862,0.125,0.025
3.864,0.130,0.020
3.866,0.055,0.010
3.868,0.065,-0.005
3.870,0.055,-0.020
3.872,0.035,-0.035
3.874,0.045,-0.045
3.876,0.045,-0.055
3.878,0.005,-0.060
3.880,0.005,-0.055
3.882,0.005,-0.055
3.884,0.030,-0.050
3.886,0.055,-0.050
3.888,0.050,-0.050
3.890,0.030,-0.055
3.892,-0.005,-0.060
3.894,-0.075,-0.070
3.896,-0.045,-0.085
3.898,0.010,-0.095
3.900,-0.010,-0.100
3.902,0.020,-0.105
3.904,0.010,-0.100
3.906,-0.070,-0.090
3.908,0.000,-0.080
3.910,0.040,-0.065
3.912,0.015,-0.055
3.914,0.005,-0.050
3.916,-0.020,-0.050
3.918,0.005,-0.055
3.920,0.005,-0.065
3.922,-0.010,-0.085
3.924,-0.005,-0.100
3.926,-0.010,-0.110
3.928,-0.080,-0.115
3.930,-0.075,-0.115
3.932,-0.025,-0.105
3.934,0.010,-0.095
3.936,0.010,-0.090
3.938,-0.005,-0.085
3.940,0.015,-0.090
3.942,-0.025,-0.105
3.944,-0.060,-0.130
3.946,-0.130,-0.160
3.948,-0.150,-0.190
3.950,-0.205,-0.220
3.952,-0.225,-0.240
3.954,-0.160,-0.240
3.956,-0.110,-0.220
3.958,-0.090,-0.180
3.960,-0.010,-0.120
3.962,0.065,-0.045
3.964,0.115,0.050
3.966,0.245,0.160
3.968,0.345,0.270
3.970,0.445,0.385
3.972,0.575,0.490
3.974,0.740,0.590
3.976,0.850,0.670
3.978,0.835,0.725
3.980,0.835,0.750
3.982,0.855,0.740
3.984,0.810,0.690
3.986,0.700,0.605
3.988,0.595,0.495
3.990,0.410,0.365
3.992,0.240,0.225
3.994,0.110,0.095
3.996,-0.015,-0.020
3.998,-0.095,-0.105
4.000,-0.100,-0.155
4.002,-0.070,-0.180
4.004,-0.040,-0.180
4.006,-0.020,-0.160
4.008,-0.025,-0.135
4.010,-0.045,-0.105
4.012,-0.030,-0.080
4.014,0.000,-0.065
4.016,0.030,-0.055
4.018,0.015,-0.055
4.020,0.060,-0.055
4.022,0.065,-0.060
4.024,0.050,-0.060
4.026,0.025,-0.060
4.028,-0.010,-0.060
4.030,-0.030,-0.060
4.032,-0.050,-0.060
4.034,0.005,-0.065
4.036,0.080,-0.065
4.038,0.045,-0.070
4.040,0.005,-0.075
4.042,0.015,-0.075
4.044,0.040,-0.075
4.046,0.035,-0.070
4.048,0.040,-0.065
4.050,-0.005,-0.060
4.052,0.005,-0.050
4.054,0.030,-0.045
4.056,0.040,-0.045
4.058,0.020,-0.040
4.060,0.020,-0.040
4.062,0.075,-0.040
4.064,0.085,-0.040
4.066,0.030,-0.040
4.068,0.020,-0.035
4.070,0.005,-0.035
4.072,0.050,-0.035
4.074,0.070,-0.030
4.076,0.050,-0.030
4.078,0.050,-0.030
4.080,0.055,-0.030
4.082,0.055,-0.030
4.084,0.045,-0.030
4.086,0.055,-0.025
4.088,0.070,-0.020
4.090,0.055,-0.015
4.092,0.055,-0.015
4.094,0.085,-0.010
4.096,0.070,-0.005
4.098,0.090,-0.005
4.100,0.100,-0.005
4.102,0.115,-0.005
4.104,0.100,0.000
4.106,0.065,0.000
4.108,0.095,0.000
4.110,0.070,0.000
4.112,0.065,0.005
4.114,0.045,0.005
4.116,0.045,0.010
4.118,0.060,0.010
4.120,0.150,0.015
4.122,0.140,0.020
4.124,0.145,0.025
4.126,0.145,0.035
4.128,0.145,0.040
4.130,0.115,0.050
4.132,0.165,0.065
4.134,0.165,0.070
4.136,0.125,0.080
4.138,0.160,0.085
4.140,0.190,0.085
4.142,0.200,0.090
4.144,0.185,0.085
4.146,0.150,0.085
4.148,0.165,0.085
4.150,0.165,0.090
4.152,0.210,0.095
4.154,0.180,0.100
4.156,0.205,0.110
4.158,0.230,0.115
4.160,0.260,0.130
4.162,0.260,0.140
4.164,0.235,0.150
4.166,0.230,0.160
4.168,0.250,0.170
4.170,0.270,0.185
4.172,0.320,0.200
4.174,0.310,0.215
4.176,0.320,0.230
4.178,0.345,0.245
4.180,0.400,0.260
4.182,0.355,0.275
4.184,0.395,0.285
4.186,0.385,0.295
4.188,0.385,0.300
4.190,0.410,0.305
4.192,0.405,0.315
4.194,0.425,0.320
4.196,0.400,0.325
4.198,0.435,0.330
4.200,0.450,0.335
4.202,0.415,0.340
4.204,0.395,0.340
4.206,0.430,0.340
4.208,0.405,0.335
4.210,0.390,0.330
4.212,0.440,0.320
4.214,0.460,0.315
4.216,0.380,0.305
4.218,0.375,0.300
4.220,0.390,0.300
4.222,0.355,0.295
4.224,0.390,0.290
4.226,0.375,0.280
4.228,0.335,0.265
4.230,0.295,0.245
4.232,0.295,0.220
4.234,0.270,0.190
4.236,0.205,0.165
4.238,0.240,0.140
4.240,0.215,0.115
4.242,0.175,0.100
4.244,0.210,0.090
4.246,0.210,0.085
4.248,0.180,0.080
4.250,0.145,0.075
4.252,0.115,0.070
4.254,0.115,0.060
4.256,0.130,0.050
4.258,0.140,0.035
4.260,0.090,0.015
4.262,0.030,0.000
4.264,0.025,-0.015
4.266,0.135,-0.025
4.268,0.115,-0.030
4.270,0.040,-0.035
4.272,0.015,-0.035
4.274,0.020,-0.035
4.276,0.045,-0.040
4.278,0.055,-0.040
4.280,0.065,-0.045
4.282,0.070,-0.050
4.284,0.035,-0.055
4.286,0.030,-0.060
4.288,0.065,-0.065
4.290,0.020,-0.070
4.292,0.020,-0.070
4.294,0.030,-0.070
4.296,0.050,-0.070
4.298,0.040,-0.070
4.300,0.020,-0.065
4.302,-0.040,-0.060
4.304,-0.005,-0.055
4.306,0.085,-0.055
4.308,0.060,-0.055
4.310,0.050,-0.055
4.312,0.020,-0.060
4.314,0.020,-0.060
4.316,0.020,-0.060
4.318,0.050,-0.060
4.320,0.020,-0.055
4.322,0.055,-0.055
4.324,0.045,-0.045
4.326,0.070,-0.040
4.328,0.085,-0.035
4.330,0.055,-0.035
4.332,0.035,-0.035
4.334,0.090,-0.040
4.336,0.035,-0.045
4.338,0.035,-0.050
4.340,0.015,-0.055
4.342,0.020,-0.060
4.344,0.030,-0.065
4.346,0.085,-0.065
4.348,0.025,-0.070
4.350,0.010,-0.070
4.352,0.050,-0.070
4.354,0.010,-0.075
4.356,-0.025,-0.080
4.358,-0.010,-0.085
4.360,0.010,-0.085
4.362,0.025,-0.085
4.364,0.045,-0.080
4.366,0.065,-0.075
4.368,0.050,-0.065
4.370,0.050,-0.055
4.372,0.080,-0.045
4.374,0.035,-0.040
4.376,0.030,-0.040
4.378,0.065,-0.040
4.380,0.070,-0.045
4.382,0.025,-0.050
4.384,0.040,-0.060
4.386,0.060,-0.060
4.388,0.055,-0.060
4.390,0.035,-0.060
4.392,0.020,-0.055
4.394,0.075,-0.050
4.396,0.045,-0.045
4.398,0.060,-0.040
4.400,0.085,-0.040
4.402,0.085,-0.045
4.404,0.020,-0.050
4.406,0.000,-0.055
4.408,0.045,-0.060
4.410,0.055,-0.060
4.412,0.020,-0.060
4.414,0.060,-0.055
4.416,0.085,-0.055
4.418,0.110,-0.050
4.420,0.070,-0.045
4.422,0.045,-0.040
4.424,0.030,-0.035
4.426,0.060,-0.035
4.428,0.090,-0.035
4.430,0.065,-0.035
4.432,0.055,-0.035
4.434,0.050,-0.035
4.436,0.070,-0.035
4.438,0.075,-0.040
4.440,0.040,-0.040
4.442,0.035,-0.045
4.444,0.030,-0.050
4.446,0.005,-0.050
4.448,0.045,-0.055
4.450,0.040,-0.055
4.452,0.080,-0.055
4.454,0.090,-0.050
4.456,0.050,-0.050
4.458,0.055,-0.045
4.460,0.070,-0.045
4.462,0.065,-0.045
4.464,0.110,-0.050
4.466,0.035,-0.050
4.468,0.025,-0.055
4.470,0.045,-0.055
4.472,0.055,-0.060
4.474,0.030,-0.060
4.476,0.030,-0.055
4.478,0.070,-0.055
4.480,0.010,-0.050
4.482,0.075,-0.050
4.484,0.130,-0.045
4.486,0.070,-0.050
4.488,0.040,-0.050
4.490,0.040,-0.050
4.492,0.060,-0.055
4.494,0.030,-0.055
4.496,0.040,-0.060
4.498,0.040,-0.065
4.500,0.040,-0.065
4.502,0.020,-0.070
4.504,0.020,-0.070
4.506,0.025,-0.075
4.508,0.010,-0.075
4.510,0.050,-0.075
4.512,0.025,-0.070
4.514,0.065,-0.065
4.516,0.055,-0.055
4.518,0.085,-0.045
4.520,0.065,-0.040
4.522,0.040,-0.035
4.524,0.020,-0.035
4.526,0.060,-0.040
4.528,0.095,-0.045
4.530,0.080,-0.055
4.532,0.070,-0.060
4.534,0.015,-0.070
4.536,-0.020,-0.075
4.538,0.030,-0.075
4.540,0.050,-0.075
4.542,0.010,-0.070
4.544,0.085,-0.070
4.546,0.075,-0.065
4.548,0.025,-0.065
4.550,0.030,-0.065
4.552,0.040,-0.065
4.554,0.095,-0.065
4.556,0.100,-0.070
4.558,0.040,-0.070
4.560,-0.005,-0.070
4.562,0.040,-0.070
4.564,0.055,-0.065
4.566,0.035,-0.060
4.568,0.050,-0.060
4.570,0.055,-0.055
4.572,0.050,-0.055
4.574,0.050,-0.055
4.576,0.055,-0.055
4.578,0.055,-0.055
4.580,0.020,-0.060
4.582,0.045,-0.060
4.584,0.045,-0.060
4.586,0.080,-0.060
4.588,0.060,-0.060
4.590,0.050,-0.055
4.592,0.035,-0.050
4.594,0.060,-0.050
4.596,0.045,-0.050
4.598,0.040,-0.050
4.600,0.030,-0.050
4.602,0.085,-0.055
4.604,0.040,-0.060
4.606,0.050,-0.070
4.608,0.070,-0.075
4.610,0.030,-0.075
4.612,0.035,-0.075
4.614,0.055,-0.070
4.616,0.050,-0.065
4.618,0.065,-0.055
4.620,0.090,-0.045
4.622,0.075,-0.045
4.624,0.050,-0.045
4.626,0.110,-0.050
4.628,0.030,-0.060
4.630,-0.005,-0.070
4.632,0.025,-0.085
4.634,0.010,-0.095
4.636,0.035,-0.105
4.638,0.025,-0.105
4.640,0.005,-0.100
4.642,0.050,-0.090
4.644,0.050,-0.075
4.646,0.025,-0.065
4.648,0.060,-0.050
4.650,0.060,-0.045
4.652,0.110,-0.040
4.654,0.065,-0.040
4.656,0.090,-0.045
4.658,0.065,-0.050
4.660,0.085,-0.055
4.662,0.100,-0.055
4.664,0.055,-0.055
4.666,0.005,-0.055
4.668,0.070,-0.055
4.670,0.045,-0.050
4.672,0.075,-0.050
4.674,0.070,-0.055
4.676,0.060,-0.055
4.678,0.065,-0.060
4.680,0.080,-0.065
4.682,0.060,-0.070
4.684,0.045,-0.070
4.686,0.045,-0.070
4.688,0.060,-0.065
4.690,0.030,-0.060
4.692,0.080,-0.050
4.694,0.070,-0.045
4.696,0.065,-0.045
4.698,0.055,-0.045
4.700,0.090,-0.050
4.702,0.080,-0.055
4.704,0.005,-0.060
4.706,0.060,-0.065
4.708,0.080,-0.065
4.710,0.060,-0.060
4.712,0.095,-0.055
4.714,0.075,-0.045
4.716,0.105,-0.035
4.718,0.075,-0.025
4.720,0.105,-0.015
4.722,0.145,-0.005
4.724,0.125,0.005
4.726,0.115,0.010
4.728,0.155,0.015
4.730,0.110,0.015
4.732,0.105,0.020
4.734,0.165,0.025
4.736,0.185,0.025
4.738,0.195,0.025
4.740,0.170,0.020
4.742,0.170,0.015
4.744,0.105,0.010
4.746,0.130,0.005
4.748,0.100,0.000
4.750,0.090,-0.005
4.752,0.100,-0.010
4.754,0.090,-0.015
4.756,0.115,-0.020
4.758,0.130,-0.025
4.760,0.135,-0.035
4.762,0.055,-0.045
4.764,0.060,-0.055
4.766,0.075,-0.065
4.768,0.080,-0.075
4.770,0.040,-0.080
4.772,0.045,-0.085
4.774,0.060,-0.085
4.776,0.030,-0.080
4.778,0.050,-0.075
4.780,0.100,-0.070
4.782,0.085,-0.065
4.784,0.090,-0.060
4.786,0.045,-0.055
4.788,0.035,-0.055
4.790,0.025,-0.060
4.792,0.045,-0.070
4.794,0.075,-0.075
4.796,0.015,-0.085
4.798,0.100,-0.090
4.800,0.135,-0.095
4.802,0.055,-0.090
4.804,0.050,-0.085
4.806,0.040,-0.075
4.808,0.040,-0.060
4.810,0.035,-0.050
4.812,0.120,-0.040
4.814,0.105,-0.040
4.816,0.075,-0.045
4.818,0.060,-0.065
4.820,0.065,-0.090
4.822,0.000,-0.125
4.824,0.015,-0.155
4.826,-0.075,-0.190
4.828,-0.105,-0.210
4.830,-0.120,-0.215
4.832,-0.115,-0.210
4.834,-0.080,-0.180
4.836,-0.005,-0.140
4.838,0.085,-0.085
4.840,0.170,-0.015
4.842,0.235,0.060
4.844,0.330,0.145
4.846,0.435,0.235
4.848,0.445,0.325
4.850,0.490,0.415
4.852,0.625,0.505
4.854,0.770,0.580
4.856,0.815,0.640
4.858,0.835,0.675
4.860,0.875,0.680
4.862,0.845,0.650
4.864,0.775,0.585
4.866,0.625,0.490
4.868,0.475,0.370
4.870,0.315,0.240
4.872,0.185,0.105
4.874,0.025,-0.010
4.876,-0.065,-0.100
4.878,0.010,-0.155
4.880,0.005,-0.180
4.882,-0.025,-0.180
4.884,-0.020,-0.150
4.886,0.065,-0.115
4.888,0.100,-0.075
4.890,0.080,-0.045
4.892,0.035,-0.030
4.894,0.035,-0.025
4.896,0.050,-0.035
4.898,0.135,-0.045
4.900,0.115,-0.060
4.902,0.065,-0.075
4.904,0.090,-0.075
4.906,0.125,-0.070
4.908,0.130,-0.060
4.910,0.110,-0.050
4.912,0.075,-0.035
4.914,0.045,-0.030
4.916,0.075,-0.025
4.918,0.080,-0.035
4.920,0.105,-0.045
4.922,0.110,-0.055
4.924,0.090,-0.065
4.926,0.115,-0.070
4.928,0.070,-0.070
4.930,0.075,-0.065
4.932,0.080,-0.055
4.934,0.120,-0.045
4.936,0.100,-0.030
4.938,0.090,-0.025
4.940,0.110,-0.020
4.942,0.110,-0.020
4.944,0.100,-0.025
4.946,0.140,-0.030
4.948,0.125,-0.030
4.950,0.095,-0.030
4.952,0.115,-0.025
4.954,0.100,-0.020
4.956,0.145,-0.010
4.958,0.190,0.000
4.960,0.155,0.010
4.962,0.140,0.010
4.964,0.145,0.010
4.966,0.145,0.005
4.968,0.140,0.000
4.970,0.150,-0.005
4.972,0.085,-0.005
4.974,0.150,-0.005
4.976,0.145,0.000
4.978,0.220,0.005
4.980,0.165,0.015
4.982,0.130,0.025
4.984,0.170,0.030
4.986,0.165,0.030
4.988,0.140,0.030
4.990,0.140,0.025
4.992,0.175,0.025
4.994,0.200,0.020
4.996,0.200,0.025
4.998,0.190,0.030
5.000,0.165,0.040
5.002,0.190,0.050
5.004,0.215,0.055
5.006,0.190,0.065
5.008,0.165,0.065
5.010,0.235,0.065
5.012,0.260,0.065
5.014,0.225,0.065
5.016,0.200,0.065
5.018,0.225,0.070
5.020,0.220,0.080
5.022,0.275,0.090
5.024,0.265,0.110
5.026,0.250,0.125
5.028,0.285,0.135
5.030,0.285,0.145
5.032,0.260,0.145
5.034,0.280,0.145
5.036,0.275,0.145
5.038,0.350,0.145
5.040,0.365,0.150
5.042,0.320,0.160
5.044,0.350,0.175
5.046,0.350,0.190
5.048,0.335,0.210
5.050,0.405,0.225
5.052,0.425,0.235
5.054,0.405,0.245
5.056,0.330,0.245
5.058,0.395,0.245
5.060,0.420,0.240
5.062,0.440,0.245
5.064,0.465,0.250
5.066,0.420,0.265
5.068,0.450,0.285
5.070,0.405,0.305
5.072,0.450,0.330
5.074,0.540,0.350
5.076,0.535,0.365
5.078,0.520,0.370
5.080,0.500,0.370
5.082,0.485,0.360
5.084,0.485,0.350
5.086,0.500,0.335
5.088,0.515,0.325
5.090,0.510,0.320
5.092,0.465,0.315
5.094,0.410,0.310
5.096,0.445,0.310
5.098,0.490,0.300
5.100,0.490,0.295
5.102,0.400,0.280
5.104,0.405,0.265
5.106,0.390,0.245
5.108,0.325,0.225
5.110,0.300,0.205
5.112,0.390,0.190
5.114,0.360,0.180
5.116,0.325,0.165
5.118,0.300,0.150
5.120,0.295,0.135
5.122,0.270,0.120
5.124,0.260,0.095
5.126,0.190,0.075
5.128,0.210,0.055
5.130,0.165,0.035
5.132,0.205,0.015
5.134,0.150,0.005
5.136,0.185,0.000
5.138,0.205,0.000
5.140,0.160,0.000
5.142,0.135,0.000
5.144,0.170,-0.005
5.146,0.195,-0.005
5.148,0.070,-0.010
5.150,0.145,-0.020
5.152,0.175,-0.025
5.154,0.135,-0.030
5.156,0.135,-0.030
5.158,0.160,-0.035
5.160,0.150,-0.035
5.162,0.120,-0.035
5.164,0.110,-0.035
5.166,0.095,-0.040
5.168,0.105,-0.045
5.170,0.160,-0.050
5.172,0.150,-0.055
5.174,0.075,-0.060
5.176,0.080,-0.060
5.178,0.135,-0.055
5.180,0.100,-0.055
5.182,0.145,-0.050
5.184,0.110,-0.050
5.186,0.095,-0.050
5.188,0.095,-0.050
5.190,0.140,-0.055
5.192,0.135,-0.065
5.194,0.060,-0.070
5.196,0.075,-0.080
5.198,0.055,-0.080
5.200,0.110,-0.080
5.202,0.125,-0.080
5.204,0.140,-0.080
5.206,0.145,-0.075
5.208,0.085,-0.070
5.210,0.040,-0.070
5.212,0.080,-0.075
5.214,0.065,-0.075
5.216,0.085,-0.080
5.218,0.110,-0.090
5.220,0.100,-0.090
5.222,0.070,-0.095
5.224,0.085,-0.095
5.226,0.100,-0.090
5.228,0.100,-0.080
5.230,0.120,-0.075
5.232,0.115,-0.065
5.234,0.130,-0.055
5.236,0.135,-0.045
5.238,0.125,-0.040
5.240,0.125,-0.040
5.242,0.115,-0.045
5.244,0.105,-0.050
5.246,0.050,-0.060
5.248,0.125,-0.070
5.250,0.155,-0.075
5.252,0.090,-0.080
5.254,0.095,-0.085
5.256,0.120,-0.080
5.258,0.110,-0.075
5.260,0.170,-0.070
5.262,0.130,-0.060
5.264,0.105,-0.055
5.266,0.095,-0.050
5.268,0.085,-0.050
5.270,0.090,-0.050
5.272,0.100,-0.055
5.274,0.150,-0.060
5.276,0.120,-0.065
5.278,0.140,-0.065
5.280,0.150,-0.070
5.282,0.100,-0.065
5.284,0.105,-0.060
5.286,0.140,-0.055
5.288,0.155,-0.050
5.290,0.125,-0.045
5.292,0.135,-0.040
5.294,0.120,-0.035
5.296,0.145,-0.035
5.298,0.150,-0.035
5.300,0.115,-0.035
5.302,0.095,-0.035
5.304,0.170,-0.040
5.306,0.150,-0.045
5.308,0.155,-0.050
5.310,0.115,-0.055
5.312,0.095,-0.060
5.314,0.105,-0.065
5.316,0.115,-0.070
5.318,0.135,-0.075
5.320,0.115,-0.080
5.322,0.130,-0.080
5.324,0.105,-0.085
5.326,0.050,-0.080
5.328,0.080,-0.080
5.330,0.090,-0.080
5.332,0.110,-0.080
5.334,0.105,-0.080
5.336,0.170,-0.075
5.338,0.120,-0.075
5.340,0.115,-0.075
5.342,0.135,-0.070
5.344,0.105,-0.070
5.346,0.085,-0.065
5.348,0.110,-0.060
5.350,0.175,-0.055
5.352,0.115,-0.055
5.354,0.120,-0.050
5.356,0.165,-0.050
5.358,0.130,-0.055
5.360,0.100,-0.060
5.362,0.105,-0.065
5.364,0.120,-0.070
5.366,0.125,-0.070
5.368,0.110,-0.070
5.370,0.095,-0.065
5.372,0.065,-0.060
5.374,0.145,-0.055
5.376,0.135,-0.050
5.378,0.130,-0.050
5.380,0.140,-0.050
5.382,0.125,-0.055
5.384,0.110,-0.065
5.386,0.160,-0.080
5.388,0.085,-0.090
5.390,0.090,-0.100
5.392,0.010,-0.110
5.394,0.085,-0.120
5.396,0.100,-0.120
5.398,0.070,-0.115
5.400,0.090,-0.110
5.402,0.120,-0.100
5.404,0.115,-0.090
5.406,0.060,-0.080
5.408,0.120,-0.070
5.410,0.125,-0.065
5.412,0.110,-0.065
5.414,0.130,-0.065
5.416,0.135,-0.075
5.418,0.115,-0.080
5.420,0.095,-0.090
5.422,0.045,-0.100
5.424,0.055,-0.110
5.426,0.065,-0.110
5.428,0.115,-0.115
5.430,0.160,-0.110
5.432,0.115,-0.100
5.434,0.100,-0.090
5.436,0.105,-0.075
5.438,0.100,-0.065
5.440,0.160,-0.055
5.442,0.135,-0.045
5.444,0.160,-0.045
5.446,0.150,-0.045
5.448,0.125,-0.055
5.450,0.140,-0.060
5.452,0.135,-0.070
5.454,0.095,-0.075
5.456,0.115,-0.080
5.458,0.140,-0.080
5.460,0.095,-0.075
5.462,0.145,-0.075
5.464,0.135,-0.070
5.466,0.100,-0.070
5.468,0.100,-0.075
5.470,0.140,-0.075
5.472,0.135,-0.080
5.474,0.120,-0.085
5.476,0.085,-0.090
5.478,0.025,-0.090
5.480,0.085,-0.090
5.482,0.130,-0.085
5.484,0.160,-0.080
5.486,0.170,-0.070
5.488,0.160,-0.065
5.490,0.140,-0.060
5.492,0.120,-0.055
5.494,0.115,-0.055
5.496,0.150,-0.060
5.498,0.110,-0.065
5.500,0.115,-0.075
5.502,0.130,-0.080
5.504,0.125,-0.085
5.506,0.175,-0.085
5.508,0.105,-0.085
5.510,0.105,-0.085
5.512,0.115,-0.080
5.514,0.130,-0.080
5.516,0.125,-0.080
5.518,0.100,-0.085
5.520,0.125,-0.090
5.522,0.135,-0.095
5.524,0.145,-0.100
5.526,0.060,-0.105
5.528,0.090,-0.105
5.530,0.135,-0.100
5.532,0.110,-0.095
5.534,0.120,-0.090
5.536,0.160,-0.080
5.538,0.095,-0.075
5.540,0.135,-0.070
5.542,0.170,-0.065
5.544,0.135,-0.065
5.546,0.115,-0.065
5.548,0.150,-0.060
5.550,0.130,-0.060
5.552,0.130,-0.055
5.554,0.200,-0.050
5.556,0.185,-0.050
5.558,0.155,-0.050
5.560,0.120,-0.050
5.562,0.130,-0.055
5.564,0.110,-0.060
5.566,0.150,-0.070
5.568,0.160,-0.080
5.570,0.115,-0.085
5.572,0.095,-0.090
5.574,0.080,-0.090
5.576,0.070,-0.085
5.578,0.075,-0.080
5.580,0.210,-0.070
5.582,0.210,-0.060
5.584,0.140,-0.050
5.586,0.120,-0.045
5.588,0.175,-0.040
5.590,0.165,-0.035
5.592,0.150,-0.030
5.594,0.175,-0.030
5.596,0.180,-0.030
5.598,0.190,-0.030
5.600,0.185,-0.025
5.602,0.185,-0.025
5.604,0.170,-0.020
5.606,0.155,-0.020
5.608,0.170,-0.015
5.610,0.235,-0.010
5.612,0.255,-0.010
5.614,0.200,-0.005
5.616,0.215,-0.005
5.618,0.265,-0.010
5.620,0.215,-0.015
5.622,0.155,-0.020
5.624,0.160,-0.030
5.626,0.155,-0.040
5.628,0.135,-0.055
5.630,0.125,-0.065
5.632,0.155,-0.075
5.634,0.185,-0.080
5.636,0.140,-0.080
5.638,0.130,-0.075
5.640,0.165,-0.070
5.642,0.155,-0.060
5.644,0.150,-0.055
5.646,0.190,-0.045
5.648,0.185,-0.040
5.650,0.150,-0.035
5.652,0.190,-0.035
5.654,0.180,-0.030
5.656,0.160,-0.035
5.658,0.190,-0.035
5.660,0.165,-0.035
5.662,0.165,-0.035
5.664,0.155,-0.040
5.666,0.155,-0.045
5.668,0.175,-0.050
5.670,0.145,-0.060
5.672,0.135,-0.070
5.674,0.170,-0.075
5.676,0.150,-0.080
5.678,0.090,-0.085
5.680,0.110,-0.080
5.682,0.130,-0.075
5.684,0.235,-0.060
5.686,0.230,-0.050
5.688,0.150,-0.040
5.690,0.150,-0.035
5.692,0.185,-0.040
5.694,0.225,-0.050
5.696,0.135,-0.070
5.698,0.120,-0.095
5.700,0.085,-0.125
5.702,0.010,-0.155
5.704,0.050,-0.175
5.706,0.005,-0.190
5.708,-0.005,-0.190
5.710,0.030,-0.170
5.712,0.120,-0.145
5.714,0.130,-0.100
5.716,0.120,-0.050
5.718,0.230,0.015
5.720,0.340,0.080
5.722,0.415,0.155
5.724,0.455,0.230
5.726,0.565,0.310
5.728,0.640,0.390
5.730,0.680,0.465
5.732,0.780,0.530
5.734,0.900,0.580
5.736,0.895,0.610
5.738,0.870,0.615
5.740,0.855,0.580
5.742,0.775,0.520
5.744,0.645,0.430
5.746,0.480,0.325
5.748,0.445,0.210
5.750,0.270,0.100
5.752,0.125,0.005
5.754,0.100,-0.070
5.756,0.105,-0.115
5.758,0.080,-0.140
5.760,0.035,-0.140
5.762,0.170,-0.125
5.764,0.135,-0.105
5.766,0.140,-0.080
5.768,0.165,-0.065
5.770,0.150,-0.055
5.772,0.190,-0.050
5.774,0.185,-0.050
5.776,0.160,-0.055
5.778,0.180,-0.055
5.780,0.185,-0.055
5.782,0.170,-0.050
5.784,0.180,-0.045
5.786,0.225,-0.040
5.788,0.200,-0.035
5.790,0.185,-0.030
5.792,0.225,-0.030
5.794,0.180,-0.030
5.796,0.195,-0.030
5.798,0.170,-0.035
5.800,0.190,-0.035
5.802,0.180,-0.035
5.804,0.185,-0.035
5.806,0.220,-0.035
5.808,0.205,-0.030
5.810,0.210,-0.030
5.812,0.220,-0.030
5.814,0.205,-0.030
5.816,0.210,-0.025
5.818,0.245,-0.025
5.820,0.215,-0.020
5.822,0.155,-0.020
5.824,0.195,-0.015
5.826,0.200,-0.010
5.828,0.245,-0.005
5.830,0.240,0.000
5.832,0.240,0.005
5.834,0.255,0.005
5.836,0.285,0.005
5.838,0.245,0.005
5.840,0.240,0.010
5.842,0.215,0.010
5.844,0.225,0.010
5.846,0.270,0.015
5.848,0.250,0.020
5.850,0.280,0.030
5.852,0.310,0.035
5.854,0.290,0.040
5.856,0.275,0.040
5.858,0.250,0.040
5.860,0.215,0.035
5.862,0.195,0.025
5.864,0.200,0.015
5.866,0.245,0.010
5.868,0.245,0.005
5.870,0.295,0.005
5.872,0.305,0.010
5.874,0.265,0.020
5.876,0.270,0.035
5.878,0.250,0.050
5.880,0.320,0.065
5.882,0.325,0.075
5.884,0.325,0.080
5.886,0.345,0.080
5.888,0.275,0.080
5.890,0.325,0.075
5.892,0.355,0.070
5.894,0.315,0.070
5.896,0.310,0.075
5.898,0.330,0.080
5.900,0.355,0.090
5.902,0.340,0.105
5.904,0.355,0.120
5.906,0.370,0.135
5.908,0.375,0.145
5.910,0.375,0.150
5.912,0.400,0.155
5.914,0.430,0.160
5.916,0.405,0.165
5.918,0.430,0.170
5.920,0.440,0.180
5.922,0.425,0.190
5.924,0.440,0.200
5.926,0.470,0.210
5.928,0.465,0.225
5.930,0.465,0.235
5.932,0.480,0.245
5.934,0.540,0.250
5.936,0.505,0.255
5.938,0.490,0.260
5.940,0.515,0.265
5.942,0.515,0.270
5.944,0.535,0.275
5.946,0.550,0.285
5.948,0.525,0.290
5.950,0.510,0.300
5.952,0.580,0.310
5.954,0.550,0.320
5.956,0.530,0.325
5.958,0.555,0.330
5.960,0.615,0.330
5.962,0.560,0.330
5.964,0.560,0.325
5.966,0.605,0.320
5.968,0.580,0.315
5.970,0.510,0.305
5.972,0.530,0.300
5.974,0.500,0.290
5.976,0.530,0.285
5.978,0.505,0.275
5.980,0.510,0.265
5.982,0.500,0.255
5.984,0.505,0.245
5.986,0.480,0.230
5.988,0.440,0.215
5.990,0.410,0.195
5.992,0.365,0.175
5.994,0.370,0.155
5.996,0.425,0.130
5.998,0.390,0.105
6.000,0.340,0.085
6.002,0.290,0.065
6.004,0.285,0.055
6.006,0.285,0.050
6.008,0.310,0.045
6.010,0.295,0.045
6.012,0.310,0.045
6.014,0.295,0.050
6.016,0.255,0.045
6.018,0.295,0.040
6.020,0.270,0.030
6.022,0.240,0.015
6.024,0.285,0.000
6.026,0.220,-0.015
6.028,0.185,-0.025
6.030,0.175,-0.035
6.032,0.235,-0.040
6.034,0.165,-0.040
6.036,0.215,-0.040
6.038,0.285,-0.035
6.040,0.210,-0.030
6.042,0.240,-0.025
6.044,0.275,-0.020
6.046,0.220,-0.015
6.048,0.225,-0.015
6.050,0.210,-0.015
6.052,0.190,-0.020
6.054,0.225,-0.025
6.056,0.215,-0.030
6.058,0.200,-0.040
6.060,0.195,-0.050
6.062,0.165,-0.055
6.064,0.180,-0.060
6.066,0.200,-0.060
6.068,0.215,-0.055
6.070,0.255,-0.050
6.072,0.285,-0.040
6.074,0.285,-0.030
6.076,0.200,-0.025
6.078,0.165,-0.020
6.080,0.190,-0.020
6.082,0.215,-0.025
6.084,0.195,-0.035
6.086,0.180,-0.045
6.088,0.190,-0.055
6.090,0.230,-0.055
6.092,0.260,-0.055
6.094,0.260,-0.045
6.096,0.255,-0.035
6.098,0.220,-0.020
6.100,0.220,-0.005
6.102,0.250,0.005
6.104,0.245,0.005
6.106,0.205,0.000
6.108,0.175,-0.015
6.110,0.245,-0.035
6.112,0.215,-0.050
6.114,0.250,-0.065
6.116,0.190,-0.080
6.118,0.180,-0.080
6.120,0.185,-0.075
6.122,0.185,-0.070
6.124,0.205,-0.055
6.126,0.185,-0.040
6.128,0.175,-0.030
6.130,0.245,-0.025
6.132,0.230,-0.025
6.134,0.230,-0.025
6.136,0.245,-0.030
6.138,0.180,-0.035
6.140,0.180,-0.035
6.142,0.240,-0.035
6.144,0.245,-0.030
6.146,0.280,-0.025
6.148,0.250,-0.020
6.150,0.255,-0.015
6.152,0.215,-0.015
6.154,0.235,-0.015
6.156,0.190,-0.025
6.158,0.240,-0.035
6.160,0.200,-0.045
6.162,0.155,-0.055
6.164,0.195,-0.065
6.166,0.220,-0.070
6.168,0.230,-0.070
6.170,0.240,-0.065
6.172,0.240,-0.055
6.174,0.200,-0.045
6.176,0.210,-0.035
6.178,0.210,-0.025
6.180,0.195,-0.025
6.182,0.235,-0.020
6.184,0.220,-0.025
6.186,0.240,-0.035
6.188,0.220,-0.040
6.190,0.230,-0.050
6.192,0.215,-0.060
6.194,0.210,-0.065
6.196,0.195,-0.065
6.198,0.205,-0.060
6.200,0.205,-0.055
6.202,0.220,-0.045
6.204,0.240,-0.040
6.206,0.255,-0.030
6.208,0.260,-0.025
6.210,0.225,-0.025
6.212,0.280,-0.030
6.214,0.185,-0.035
6.216,0.170,-0.040
6.218,0.220,-0.050
6.220,0.180,-0.050
6.222,0.200,-0.050
6.224,0.250,-0.050
6.226,0.245,-0.045
6.228,0.215,-0.040
6.230,0.245,-0.035
6.232,0.230,-0.030
6.234,0.195,-0.035
6.236,0.185,-0.040
6.238,0.135,-0.045
6.240,0.190,-0.050
6.242,0.275,-0.060
6.244,0.205,-0.060
6.246,0.195,-0.060
6.248,0.215,-0.055
6.250,0.240,-0.050
6.252,0.200,-0.045
6.254,0.215,-0.040
6.256,0.200,-0.045
6.258,0.205,-0.050
6.260,0.175,-0.060
6.262,0.125,-0.075
6.264,0.165,-0.085
6.266,0.210,-0.090
6.268,0.215,-0.090
6.270,0.210,-0.085
6.272,0.200,-0.070
6.274,0.205,-0.055
6.276,0.250,-0.040
6.278,0.210,-0.030
6.280,0.175,-0.025
6.282,0.205,-0.025
6.284,0.215,-0.030
6.286,0.195,-0.045
6.288,0.185,-0.055
6.290,0.195,-0.065
6.292,0.200,-0.075
6.294,0.215,-0.075
6.296,0.180,-0.070
6.298,0.210,-0.065
6.300,0.190,-0.060
6.302,0.190,-0.055
6.304,0.205,-0.050
6.306,0.195,-0.055
6.308,0.215,-0.060
6.310,0.250,-0.065
6.312,0.175,-0.070
6.314,0.180,-0.075
6.316,0.205,-0.080
6.318,0.170,-0.075
6.320,0.180,-0.070
6.322,0.210,-0.065
6.324,0.190,-0.065
6.326,0.190,-0.060
6.328,0.165,-0.065
6.330,0.195,-0.070
6.332,0.255,-0.075
6.334,0.165,-0.080
6.336,0.185,-0.085
6.338,0.145,-0.085
6.340,0.170,-0.080
6.342,0.195,-0.070
6.344,0.190,-0.060
6.346,0.195,-0.055
6.348,0.245,-0.045
6.350,0.240,-0.045
6.352,0.210,-0.050
6.354,0.160,-0.055
6.356,0.185,-0.060
6.358,0.165,-0.065
6.360,0.140,-0.070
6.362,0.190,-0.070
6.364,0.185,-0.070
6.366,0.170,-0.065
6.368,0.240,-0.055
6.370,0.225,-0.050
6.372,0.210,-0.040
6.374,0.215,-0.035
6.376,0.190,-0.035
6.378,0.220,-0.035
6.380,0.205,-0.040
6.382,0.200,-0.045
6.384,0.220,-0.050
6.386,0.195,-0.055
6.388,0.190,-0.060
6.390,0.200,-0.065
6.392,0.180,-0.070
6.394,0.190,-0.070
6.396,0.180,-0.070
6.398,0.200,-0.070
6.400,0.165,-0.070
6.402,0.195,-0.065
6.404,0.220,-0.060
6.406,0.195,-0.055
6.408,0.190,-0.050
6.410,0.220,-0.050
6.412,0.200,-0.050
6.414,0.180,-0.050
6.416,0.210,-0.050
6.418,0.175,-0.055
6.420,0.180,-0.060
6.422,0.150,-0.065
6.424,0.205,-0.065
6.426,0.205,-0.065
6.428,0.220,-0.065
6.430,0.185,-0.060
6.432,0.175,-0.060
6.434,0.195,-0.060
6.436,0.230,-0.060
6.438,0.180,-0.065
6.440,0.180,-0.070
6.442,0.180,-0.075
6.444,0.150,-0.085
6.446,0.155,-0.090
6.448,0.165,-0.095
6.450,0.205,-0.100
6.452,0.150,-0.100
6.454,0.180,-0.090
6.456,0.175,-0.085
6.458,0.195,-0.070
6.460,0.235,-0.060
6.462,0.215,-0.050
6.464,0.205,-0.040
6.466,0.205,-0.040
6.468,0.225,-0.040
6.470,0.215,-0.045
6.472,0.225,-0.050
6.474,0.205,-0.060
6.476,0.155,-0.060
6.478,0.165,-0.060
6.480,0.205,-0.055
6.482,0.210,-0.045
6.484,0.200,-0.030
6.486,0.235,-0.010
6.488,0.285,0.005
6.490,0.290,0.020
6.492,0.310,0.025
6.494,0.280,0.030
6.496,0.300,0.030
6.498,0.250,0.020
6.500,0.225,0.015
6.502,0.230,0.005
6.504,0.265,-0.005
6.506,0.245,-0.015
6.508,0.265,-0.025
6.510,0.225,-0.030
6.512,0.195,-0.035
6.514,0.210,-0.040
6.516,0.225,-0.045
6.518,0.195,-0.055
6.520,0.175,-0.060
6.522,0.135,-0.070
6.524,0.150,-0.075
6.526,0.145,-0.080
6.528,0.185,-0.080
6.530,0.185,-0.080
6.532,0.180,-0.080
6.534,0.215,-0.075
6.536,0.180,-0.070
6.538,0.175,-0.065
6.540,0.175,-0.065
6.542,0.165,-0.065
6.544,0.200,-0.065
6.546,0.180,-0.065
6.548,0.195,-0.070
6.550,0.175,-0.075
6.552,0.150,-0.085
6.554,0.160,-0.090
6.556,0.165,-0.095
6.558,0.190,-0.095
6.560,0.165,-0.095
6.562,0.120,-0.095
6.564,0.105,-0.095
6.566,0.130,-0.090
6.568,0.170,-0.085
6.570,0.230,-0.080
6.572,0.220,-0.080
6.574,0.165,-0.080
6.576,0.165,-0.090
6.578,0.100,-0.105
6.580,0.115,-0.125
6.582,0.105,-0.145
6.584,0.035,-0.170
6.586,0.025,-0.190
6.588,0.030,-0.200
6.590,0.000,-0.205
6.592,0.040,-0.195
6.594,0.060,-0.175
6.596,0.100,-0.135
6.598,0.170,-0.080
6.600,0.280,-0.010
6.602,0.385,0.065
6.604,0.430,0.155
6.606,0.500,0.250
6.608,0.580,0.350
6.610,0.665,0.445
6.612,0.815,0.530
6.614,0.900,0.605
6.616,0.935,0.650
6.618,0.975,0.670
6.620,0.990,0.660
6.622,0.925,0.610
6.624,0.770,0.530
6.626,0.645,0.420
6.628,0.515,0.295
6.630,0.345,0.165
6.632,0.170,0.040
6.634,0.060,-0.065
6.636,0.070,-0.140
6.638,0.060,-0.190
6.640,0.070,-0.205
6.642,0.090,-0.190
6.644,0.100,-0.160
6.646,0.150,-0.125
6.648,0.185,-0.090
6.650,0.175,-0.060
6.652,0.195,-0.040
6.654,0.190,-0.035
6.656,0.180,-0.040
6.658,0.170,-0.045
6.660,0.190,-0.055
6.662,0.210,-0.065
6.664,0.175,-0.065
6.666,0.200,-0.060
6.668,0.185,-0.055
6.670,0.170,-0.045
6.672,0.210,-0.040
6.674,0.190,-0.035
6.676,0.180,-0.035
6.678,0.120,-0.040
6.680,0.190,-0.050
6.682,0.185,-0.055
6.684,0.175,-0.060
6.686,0.205,-0.065
6.688,0.225,-0.065
6.690,0.180,-0.060
6.692,0.190,-0.055
6.694,0.240,-0.045
6.696,0.160,-0.045
6.698,0.170,-0.040
6.700,0.175,-0.045
6.702,0.185,-0.050
6.704,0.180,-0.055
6.706,0.190,-0.065
6.708,0.210,-0.070
6.710,0.175,-0.070
6.712,0.135,-0.075
6.714,0.150,-0.070
6.716,0.160,-0.065
6.718,0.185,-0.055
6.720,0.225,-0.050
6.722,0.260,-0.040
6.724,0.210,-0.030
6.726,0.225,-0.020
6.728,0.235,-0.015
6.730,0.190,-0.010
6.732,0.225,-0.005
6.734,0.220,-0.005
6.736,0.185,-0.005
6.738,0.185,-0.010
6.740,0.215,-0.010
6.742,0.235,-0.010
6.744,0.220,-0.010
6.746,0.240,-0.005
6.748,0.275,0.000
6.750,0.250,0.005
6.752,0.255,0.015
6.754,0.265,0.020
6.756,0.265,0.030
6.758,0.290,0.035
6.760,0.255,0.040
6.762,0.270,0.040
6.764,0.270,0.040
6.766,0.275,0.045
6.768,0.275,0.045
6.770,0.280,0.045
6.772,0.275,0.045
6.774,0.245,0.050
6.776,0.260,0.055
6.778,0.300,0.060
6.780,0.310,0.065
6.782,0.300,0.070
6.784,0.315,0.080
6.786,0.325,0.090
6.788,0.355,0.100
6.790,0.365,0.110
6.792,0.360,0.120
6.794,0.345,0.130
6.796,0.370,0.135
6.798,0.385,0.145
6.800,0.390,0.150
6.802,0.415,0.155
6.804,0.375,0.155
6.806,0.410,0.160
6.808,0.405,0.170
6.810,0.400,0.175
6.812,0.395,0.190
6.814,0.375,0.205
6.816,0.450,0.220
6.818,0.500,0.240
6.820,0.500,0.255
6.822,0.510,0.265
6.824,0.515,0.275
6.826,0.535,0.280
6.828,0.545,0.280
6.830,0.555,0.280
6.832,0.495,0.280
6.834,0.485,0.280
6.836,0.475,0.285
6.838,0.495,0.285
6.840,0.550,0.295
6.842,0.545,0.300
6.844,0.535,0.310
6.846,0.500,0.320
6.848,0.555,0.325
6.850,0.525,0.330
6.852,0.505,0.330
6.854,0.590,0.325
6.856,0.525,0.320
6.858,0.505,0.310
6.860,0.490,0.295
6.862,0.485,0.280
6.864,0.465,0.260
6.866,0.435,0.240
6.868,0.410,0.215
6.870,0.425,0.190
6.872,0.385,0.170
6.874,0.325,0.145
6.876,0.325,0.130
6.878,0.315,0.110
6.880,0.300,0.095
6.882,0.300,0.085
6.884,0.290,0.070
6.886,0.250,0.055
6.888,0.220,0.040
6.890,0.230,0.020
6.892,0.220,0.000
6.894,0.220,-0.015
6.896,0.195,-0.035
6.898,0.095,-0.045
6.900,0.120,-0.050
6.902,0.150,-0.050
6.904,0.220,-0.040
6.906,0.280,-0.030
6.908,0.215,-0.020
6.910,0.190,-0.010
6.912,0.195,-0.005
6.914,0.205,-0.005
6.916,0.195,-0.010
6.918,0.145,-0.020
6.920,0.170,-0.035
6.922,0.135,-0.050
6.924,0.130,-0.065
6.926,0.150,-0.075
6.928,0.150,-0.080
6.930,0.175,-0.080
6.932,0.150,-0.075
6.934,0.125,-0.070
6.936,0.115,-0.060
6.938,0.115,-0.055
6.940,0.100,-0.055
6.942,0.115,-0.055
6.944,0.130,-0.060
6.946,0.135,-0.065
6.948,0.145,-0.070
6.950,0.180,-0.075
6.952,0.140,-0.075
6.954,0.135,-0.075
6.956,0.140,-0.075
6.958,0.160,-0.070
6.960,0.170,-0.065
6.962,0.170,-0.060
6.964,0.140,-0.060
6.966,0.155,-0.060
6.968,0.125,-0.060
6.970,0.130,-0.065
6.972,0.120,-0.070
6.974,0.140,-0.070
6.976,0.130,-0.075
6.978,0.100,-0.075
6.980,0.135,-0.075
6.982,0.130,-0.075
6.984,0.110,-0.075
6.986,0.120,-0.075
6.988,0.175,-0.075
6.990,0.150,-0.075
6.992,0.090,-0.075
6.994,0.095,-0.075
6.996,0.130,-0.070
6.998,0.175,-0.070
7.000,0.160,-0.065
7.002,0.170,-0.055
7.004,0.170,-0.050
7.006,0.175,-0.045
7.008,0.180,-0.040
7.010,0.160,-0.040
7.012,0.140,-0.040
7.014,0.090,-0.040
7.016,0.110,-0.045
7.018,0.150,-0.045
7.020,0.180,-0.050
7.022,0.160,-0.050
7.024,0.160,-0.050
7.026,0.180,-0.045
7.028,0.130,-0.045
7.030,0.135,-0.045
7.032,0.160,-0.045
7.034,0.155,-0.050
7.036,0.165,-0.050
7.038,0.110,-0.055
7.040,0.115,-0.060
7.042,0.165,-0.065
7.044,0.150,-0.065
7.046,0.155,-0.070
7.048,0.150,-0.065
7.050,0.110,-0.060
7.052,0.135,-0.055
7.054,0.135,-0.050
7.056,0.120,-0.045
7.058,0.185,-0.040
7.060,0.195,-0.035
7.062,0.160,-0.035
7.064,0.135,-0.035
7.066,0.160,-0.035
7.068,0.140,-0.040
7.070,0.175,-0.045
7.072,0.120,-0.050
7.074,0.100,-0.055
7.076,0.085,-0.055
7.078,0.135,-0.055
7.080,0.130,-0.050
7.082,0.135,-0.045
7.084,0.210,-0.040
7.086,0.160,-0.030
7.088,0.150,-0.025
7.090,0.130,-0.025
7.092,0.135,-0.025
7.094,0.135,-0.030
7.096,0.170,-0.030
7.098,0.150,-0.040
7.100,0.145,-0.045
7.102,0.150,-0.050
7.104,0.165,-0.055
7.106,0.165,-0.055
7.108,0.140,-0.055
7.110,0.130,-0.055
7.112,0.140,-0.055
7.114,0.115,-0.050
7.116,0.095,-0.050
7.118,0.090,-0.050
7.120,0.085,-0.045
7.122,0.140,-0.045
7.124,0.155,-0.045
7.126,0.140,-0.050
7.128,0.125,-0.050
7.130,0.165,-0.055
7.132,0.125,-0.060
7.134,0.120,-0.060
7.136,0.100,-0.065
7.138,0.095,-0.070
7.140,0.100,-0.070
7.142,0.105,-0.070
7.144,0.160,-0.075
7.146,0.105,-0.075
7.148,0.110,-0.075
7.150,0.130,-0.070
7.152,0.135,-0.070
7.154,0.115,-0.065
7.156,0.125,-0.060
7.158,0.125,-0.055
7.160,0.115,-0.050
7.162,0.095,-0.050
7.164,0.130,-0.045
7.166,0.150,-0.045
7.168,0.140,-0.045
7.170,0.125,-0.045
7.172,0.115,-0.050
7.174,0.130,-0.050
7.176,0.120,-0.050
7.178,0.095,-0.055
7.180,0.100,-0.055
7.182,0.125,-0.055
7.184,0.180,-0.055
7.186,0.140,-0.055
7.188,0.130,-0.055
7.190,0.130,-0.055
7.192,0.115,-0.055
7.194,0.120,-0.060
7.196,0.110,-0.060
7.198,0.065,-0.060
7.200,0.100,-0.060
7.202,0.130,-0.060
7.204,0.140,-0.060
7.206,0.115,-0.060
7.208,0.085,-0.060
7.210,0.120,-0.065
7.212,0.085,-0.070
7.214,0.055,-0.075
7.216,0.090,-0.080
7.218,0.120,-0.085
7.220,0.070,-0.085
7.222,0.085,-0.085
7.224,0.135,-0.080
7.226,0.125,-0.075
7.228,0.110,-0.070
7.230,0.115,-0.060
7.232,0.120,-0.055
7.234,0.100,-0.055
7.236,0.070,-0.055
7.238,0.100,-0.065
7.240,0.090,-0.070
7.242,0.055,-0.075
7.244,0.075,-0.080
7.246,0.140,-0.080
7.248,0.150,-0.080
7.250,0.155,-0.075
7.252,0.115,-0.065
7.254,0.100,-0.060
7.256,0.070,-0.050
7.258,0.060,-0.050
7.260,0.050,-0.050
7.262,0.145,-0.050
7.264,0.170,-0.050
7.266,0.105,-0.055
7.268,0.075,-0.060
7.270,0.110,-0.060
7.272,0.100,-0.060
7.274,0.075,-0.060
7.276,0.095,-0.060
7.278,0.120,-0.055
7.280,0.145,-0.055
7.282,0.140,-0.050
7.284,0.085,-0.050
7.286,0.075,-0.050
7.288,0.115,-0.050
7.290,0.085,-0.050
7.292,0.115,-0.050
7.294,0.115,-0.050
7.296,0.095,-0.050
7.298,0.105,-0.055
7.300,0.090,-0.065
7.302,0.110,-0.070
7.304,0.130,-0.080
7.306,0.085,-0.080
7.308,0.060,-0.085
7.310,0.050,-0.080
7.312,0.030,-0.080
7.314,0.020,-0.070
7.316,0.125,-0.065
7.318,0.100,-0.060
7.320,0.085,-0.055
7.322,0.135,-0.055
7.324,0.130,-0.055
7.326,0.085,-0.060
7.328,0.075,-0.060
7.330,0.120,-0.060
7.332,0.125,-0.060
7.334,0.085,-0.055
7.336,0.095,-0.055
7.338,0.115,-0.050
7.340,0.105,-0.050
7.342,0.135,-0.050
7.344,0.125,-0.055
7.346,0.075,-0.060
7.348,0.010,-0.070
7.350,0.040,-0.075
7.352,0.065,-0.080
7.354,0.115,-0.080
7.356,0.110,-0.080
7.358,0.130,-0.070
7.360,0.125,-0.055
7.362,0.130,-0.035
7.364,0.150,-0.020
7.366,0.160,0.000
7.368,0.170,0.015
7.370,0.200,0.030
7.372,0.150,0.035
7.374,0.215,0.040
7.376,0.235,0.035
7.378,0.160,0.030
7.380,0.145,0.020
7.382,0.125,0.010
7.384,0.155,-0.005
7.386,0.130,-0.015
7.388,0.145,-0.025
7.390,0.100,-0.030
7.392,0.060,-0.030
7.394,0.100,-0.030
7.396,0.180,-0.025
7.398,0.160,-0.020
7.400,0.145,-0.015
7.402,0.135,-0.015
7.404,0.095,-0.020
7.406,0.065,-0.025
7.408,0.090,-0.035
7.410,0.105,-0.045
7.412,0.065,-0.060
7.414,0.095,-0.065
7.416,0.085,-0.075
7.418,0.065,-0.080
7.420,0.060,-0.080
7.422,0.090,-0.080
7.424,0.085,-0.075
7.426,0.035,-0.075
7.428,0.060,-0.070
7.430,0.075,-0.070
7.432,0.060,-0.070
7.434,0.050,-0.070
7.436,0.105,-0.070
7.438,0.095,-0.070
7.440,0.085,-0.070
7.442,0.090,-0.070
7.444,0.090,-0.065
7.446,0.080,-0.065
7.448,0.110,-0.060
7.450,0.060,-0.055
7.452,0.040,-0.055
7.454,0.085,-0.060
7.456,0.100,-0.070
7.458,0.040,-0.085
7.460,0.035,-0.110
7.462,-0.005,-0.145
7.464,-0.065,-0.180
7.466,-0.070,-0.215
7.468,-0.130,-0.240
7.470,-0.165,-0.255
7.472,-0.115,-0.250
7.474,-0.055,-0.230
7.476,-0.035,-0.185
7.478,0.005,-0.120
7.480,0.095,-0.045
7.482,0.215,0.045
7.484,0.310,0.140
7.486,0.435,0.240
7.488,0.485,0.335
7.490,0.580,0.430
7.492,0.665,0.515
7.494,0.735,0.595
7.496,0.820,0.655
7.498,0.850,0.700
7.500,0.935,0.720
7.502,0.950,0.705
7.504,0.900,0.660
7.506,0.705,0.580
7.508,0.570,0.475
7.510,0.405,0.350
7.512,0.270,0.215
7.514,0.160,0.090
7.516,0.055,-0.015
7.518,-0.030,-0.090
7.520,-0.010,-0.135
7.522,0.070,-0.145
7.524,0.060,-0.135
7.526,0.110,-0.105
7.528,0.045,-0.070
7.530,0.060,-0.040
7.532,0.050,-0.020
7.534,0.085,-0.015
7.536,0.085,-0.025
7.538,0.075,-0.040
7.540,0.115,-0.060
7.542,0.115,-0.075
7.544,0.050,-0.085
7.546,0.070,-0.085
7.548,0.055,-0.080
7.550,0.040,-0.065
7.552,0.070,-0.055
7.554,0.125,-0.040
7.556,0.120,-0.035
7.558,0.080,-0.030
7.560,0.085,-0.035
7.562,0.120,-0.040
7.564,0.085,-0.045
7.566,0.085,-0.050
7.568,0.115,-0.050
7.570,0.070,-0.050
7.572,0.085,-0.045
7.574,0.115,-0.040
7.576,0.105,-0.035
7.578,0.100,-0.030
7.580,0.080,-0.025
7.582,0.100,-0.025
7.584,0.125,-0.030
7.586,0.110,-0.030
7.588,0.070,-0.030
7.590,0.090,-0.030
7.592,0.115,-0.030
7.594,0.100,-0.030
7.596,0.125,-0.025
7.598,0.105,-0.025
7.600,0.115,-0.020
7.602,0.085,-0.015
7.604,0.115,-0.010
7.606,0.145,-0.005
7.608,0.150,-0.005
7.610,0.075,-0.005
7.612,0.135,-0.005
7.614,0.105,-0.005
7.616,0.115,-0.010
7.618,0.095,-0.015
7.620,0.140,-0.020
7.622,0.150,-0.020
7.624,0.135,-0.020
7.626,0.055,-0.020
7.628,0.090,-0.010
7.630,0.075,-0.005
7.632,0.125,0.010
7.634,0.180,0.020
7.636,0.165,0.025
7.638,0.160,0.035
7.640,0.185,0.040
7.642,0.195,0.040
7.644,0.135,0.040
7.646,0.195,0.045
7.648,0.200,0.045
7.650,0.125,0.050
7.652,0.160,0.055
7.654,0.210,0.060
7.656,0.205,0.065
7.658,0.170,0.070
7.660,0.200,0.075
7.662,0.215,0.080
7.664,0.230,0.085
7.666,0.260,0.085
7.668,0.220,0.095
7.670,0.205,0.100
7.672,0.245,0.115
7.674,0.280,0.125
7.676,0.285,0.140
7.678,0.265,0.150
7.680,0.270,0.165
7.682,0.305,0.170
7.684,0.290,0.180
7.686,0.320,0.185
7.688,0.335,0.190
7.690,0.320,0.195
7.692,0.350,0.205
7.694,0.325,0.215
7.696,0.315,0.230
7.698,0.350,0.245
7.700,0.415,0.260
7.702,0.410,0.275
7.704,0.390,0.290
7.706,0.440,0.300
7.708,0.435,0.310
7.710,0.405,0.320
7.712,0.430,0.325
7.714,0.415,0.325
7.716,0.420,0.325
7.718,0.455,0.325
7.720,0.485,0.320
7.722,0.445,0.315
7.724,0.430,0.310
7.726,0.425,0.310
7.728,0.445,0.305
7.730,0.440,0.305
7.732,0.460,0.305
7.734,0.405,0.310
7.736,0.395,0.310
7.738,0.380,0.310
7.740,0.415,0.305
7.742,0.415,0.300
7.744,0.390,0.290
7.746,0.390,0.270
7.748,0.375,0.250
7.750,0.300,0.225
7.752,0.290,0.200
7.754,0.300,0.175
7.756,0.245,0.155
7.758,0.275,0.135
7.760,0.270,0.125
7.762,0.200,0.110
7.764,0.205,0.100
7.766,0.195,0.090
7.768,0.180,0.075
7.770,0.120,0.065
7.772,0.160,0.050
7.774,0.190,0.035
7.776,0.130,0.020
7.778,0.145,0.005
7.780,0.135,-0.005
7.782,0.120,-0.010
7.784,0.085,-0.015
7.786,0.075,-0.015
7.788,0.105,-0.015
7.790,0.085,-0.015
7.792,0.105,-0.015
7.794,0.090,-0.020
7.796,0.070,-0.025
7.798,0.070,-0.030
7.800,0.095,-0.035
7.802,0.060,-0.040
7.804,0.065,-0.045
7.806,0.060,-0.055
7.808,0.075,-0.060
7.810,0.035,-0.065
7.812,0.050,-0.070
7.814,0.030,-0.075
7.816,0.040,-0.080
7.818,0.045,-0.080
7.820,0.015,-0.085
7.822,0.005,-0.080
7.824,0.010,-0.075
7.826,0.085,-0.070
7.828,0.095,-0.060
7.830,0.065,-0.050
7.832,0.050,-0.040
7.834,0.070,-0.035
7.836,0.040,-0.030
7.838,0.105,-0.030
7.840,0.085,-0.035
7.842,0.055,-0.045
7.844,0.025,-0.055
7.846,0.015,-0.070
7.848,-0.015,-0.080
7.850,-0.015,-0.090
7.852,-0.010,-0.095
7.854,0.025,-0.095
7.856,0.055,-0.090
7.858,0.035,-0.080
7.860,0.080,-0.075
7.862,0.045,-0.065
7.864,0.080,-0.055
7.866,0.070,-0.050
7.868,0.030,-0.045
7.870,0.040,-0.045
7.872,0.065,-0.045
7.874,0.055,-0.050
7.876,0.045,-0.055
7.878,0.070,-0.060
7.880,0.080,-0.060
7.882,0.060,-0.065
7.884,0.045,-0.065
7.886,0.045,-0.065
7.888,0.070,-0.060
7.890,0.075,-0.055
7.892,0.090,-0.050
7.894,0.060,-0.045
7.896,0.015,-0.040
7.898,0.035,-0.040
7.900,0.115,-0.040
7.902,0.060,-0.050
7.904,0.030,-0.060
7.906,0.060,-0.070
7.908,0.005,-0.080
7.910,0.015,-0.085
7.912,0.040,-0.085
7.914,0.010,-0.080
7.916,0.040,-0.075
7.918,0.100,-0.060
7.920,0.045,-0.045
7.922,0.040,-0.035
7.924,0.145,-0.025
7.926,0.105,-0.020
7.928,0.020,-0.025
7.930,0.025,-0.030
7.932,0.025,-0.040
7.934,0.050,-0.050
7.936,0.050,-0.055
7.938,0.045,-0.055
7.940,0.100,-0.055
7.942,0.045,-0.050
7.944,0.060,-0.045
7.946,0.095,-0.035
7.948,0.075,-0.030
7.950,0.050,-0.030
7.952,0.045,-0.035
7.954,0.040,-0.040
7.956,0.055,-0.050
7.958,0.055,-0.055
7.960,0.035,-0.060
7.962,0.025,-0.060
7.964,0.025,-0.060
7.966,0.055,-0.055
7.968,0.110,-0.050
7.970,0.095,-0.040
7.972,0.045,-0.040
7.974,0.045,-0.035
7.976,0.050,-0.040
7.978,0.075,-0.045
7.980,0.085,-0.050
7.982,0.060,-0.055
7.984,0.070,-0.060
7.986,0.025,-0.060
7.988,0.000,-0.060
7.990,0.035,-0.055
7.992,0.010,-0.055
7.994,0.005,-0.050
7.996,0.060,-0.050
7.998,0.095,-0.055
8.000,0.070,-0.060
8.002,0.035,-0.065
8.004,0.045,-0.070
8.006,0.020,-0.070
8.008,0.020,-0.070
8.010,0.030,-0.065
8.012,0.055,-0.055
8.014,0.055,-0.045
8.016,0.055,-0.040
8.018,0.065,-0.035
8.020,0.045,-0.035
8.022,0.045,-0.040
8.024,0.040,-0.045
8.026,0.050,-0.055
8.028,0.060,-0.060
8.030,0.025,-0.065
8.032,0.050,-0.065
8.034,0.035,-0.065
8.036,0.040,-0.060
8.038,0.050,-0.055
8.040,0.080,-0.050
8.042,0.060,-0.055
8.044,0.035,-0.060
8.046,0.030,-0.065
8.048,-0.025,-0.075
8.050,0.000,-0.080
8.052,0.035,-0.085
8.054,0.020,-0.085
8.056,0.015,-0.080
8.058,-0.005,-0.075
8.060,0.055,-0.065
8.062,0.050,-0.060
8.064,0.070,-0.055
8.066,0.055,-0.055
8.068,0.000,-0.060
8.070,0.035,-0.065
8.072,0.040,-0.070
8.074,0.010,-0.070
8.076,0.025,-0.075
8.078,0.065,-0.070
8.080,0.025,-0.065
8.082,0.055,-0.060
8.084,0.035,-0.055
8.086,0.055,-0.050
8.088,0.005,-0.050
8.090,0.045,-0.050
8.092,0.045,-0.055
8.094,0.020,-0.065
8.096,0.025,-0.070
8.098,0.035,-0.080
8.100,0.010,-0.085
8.102,-0.020,-0.090
8.104,0.000,-0.095
8.106,0.035,-0.090
8.108,0.040,-0.085
8.110,0.015,-0.080
8.112,0.015,-0.070
8.114,-0.005,-0.060
8.116,0.045,-0.055
8.118,0.080,-0.050
8.120,0.045,-0.050
8.122,0.030,-0.055
8.124,0.010,-0.060
8.126,0.015,-0.065
8.128,-0.015,-0.075
8.130,0.060,-0.080
8.132,0.005,-0.080
8.134,-0.020,-0.080
8.136,0.015,-0.070
8.138,0.010,-0.060
8.140,0.080,-0.050
8.142,0.065,-0.045
8.144,0.050,-0.040
8.146,0.025,-0.040
8.148,-0.050,-0.045
8.150,0.030,-0.055
8.152,0.070,-0.060
8.154,0.060,-0.070
8.156,0.015,-0.070
8.158,0.065,-0.070
8.160,-0.010,-0.065
8.162,0.050,-0.055
8.164,0.050,-0.050
8.166,0.045,-0.045
8.168,0.015,-0.040
8.170,0.020,-0.045
8.172,0.000,-0.055
8.174,-0.035,-0.060
8.176,0.045,-0.070
8.178,0.080,-0.075
8.180,0.035,-0.075
8.182,0.065,-0.070
8.184,0.035,-0.070
8.186,0.000,-0.060
8.188,-0.020,-0.060
8.190,0.025,-0.055
8.192,0.010,-0.060
8.194,0.005,-0.060
8.196,0.025,-0.065
8.198,0.010,-0.075
8.200,0.000,-0.080
8.202,-0.030,-0.080
8.204,0.025,-0.080
8.206,0.025,-0.080
8.208,-0.015,-0.075
8.210,-0.005,-0.070
8.212,0.050,-0.070
8.214,0.030,-0.065
8.216,0.055,-0.065
8.218,0.065,-0.070
8.220,0.025,-0.070
8.222,0.000,-0.070
8.224,0.020,-0.075
8.226,-0.005,-0.075
8.228,0.005,-0.075
8.230,0.035,-0.070
8.232,0.015,-0.070
8.234,0.035,-0.065
8.236,0.060,-0.065
8.238,0.040,-0.055
8.240,0.035,-0.050
8.242,0.015,-0.040
8.244,0.075,-0.030
8.246,0.050,-0.020
8.248,0.065,-0.010
8.250,0.070,0.000
8.252,0.080,0.010
8.254,0.065,0.015
8.256,0.100,0.020
8.258,0.160,0.025
8.260,0.150,0.025
8.262,0.145,0.025
8.264,0.150,0.015
8.266,0.140,0.010
8.268,0.030,0.000
8.270,0.045,-0.010
8.272,0.060,-0.020
8.274,0.080,-0.030
8.276,0.045,-0.040
8.278,0.030,-0.045
8.280,0.020,-0.050
8.282,0.030,-0.055
8.284,0.010,-0.055
8.286,0.020,-0.055
8.288,0.025,-0.055
8.290,0.015,-0.055
8.292,0.040,-0.055
8.294,0.035,-0.055
8.296,0.030,-0.055
8.298,0.025,-0.060
8.300,0.010,-0.060
8.302,0.020,-0.065
8.304,0.000,-0.070
8.306,0.015,-0.075
8.308,0.010,-0.080
8.310,0.025,-0.085
8.312,-0.015,-0.085
8.314,-0.030,-0.085
8.316,0.015,-0.085
8.318,-0.030,-0.085
8.320,-0.010,-0.085
8.322,-0.010,-0.085
8.324,-0.035,-0.085
8.326,-0.015,-0.085
8.328,0.065,-0.080
8.330,0.075,-0.080
8.332,0.025,-0.075
8.334,0.015,-0.070
8.336,0.000,-0.065
8.338,-0.010,-0.065
8.340,0.010,-0.070
8.342,-0.010,-0.085
8.344,-0.040,-0.110
8.346,-0.060,-0.140
8.348,-0.125,-0.175
8.350,-0.130,-0.205
8.352,-0.185,-0.235
8.354,-0.220,-0.250
8.356,-0.185,-0.250
8.358,-0.150,-0.225
8.360,-0.075,-0.185
8.362,-0.015,-0.120
8.364,0.090,-0.045
8.366,0.135,0.045
8.368,0.250,0.140
8.370,0.335,0.240
8.372,0.425,0.335
8.374,0.470,0.430
8.376,0.610,0.520
8.378,0.755,0.600
8.380,0.800,0.665
8.382,0.850,0.705
8.384,0.855,0.715
8.386,0.810,0.695
8.388,0.750,0.640
8.390,0.620,0.555
8.392,0.460,0.435
8.394,0.340,0.305
8.396,0.200,0.170
8.398,0.065,0.045
8.400,-0.050,-0.060
8.402,-0.085,-0.130
8.404,-0.110,-0.165
8.406,-0.050,-0.170
8.408,0.015,-0.145
8.410,-0.025,-0.110
8.412,-0.030,-0.075
8.414,0.005,-0.040
8.416,0.055,-0.025
8.418,0.045,-0.020
8.420,0.055,-0.030
8.422,0.045,-0.045
8.424,0.055,-0.065
8.426,-0.005,-0.085
8.428,-0.050,-0.095
8.430,-0.070,-0.095
8.432,-0.060,-0.090
8.434,-0.050,-0.075
8.436,0.035,-0.065
8.438,0.065,-0.050
8.440,0.065,-0.040
8.442,0.070,-0.035
8.444,0.060,-0.035
8.446,0.035,-0.035
8.448,0.030,-0.035
8.450,0.045,-0.035
8.452,0.025,-0.035
8.454,0.040,-0.030
8.456,0.035,-0.030
8.458,0.040,-0.025
8.460,0.035,-0.025
8.462,0.035,-0.025
8.464,0.030,-0.030
8.466,-0.005,-0.035
8.468,-0.010,-0.040
8.470,0.045,-0.045
8.472,0.020,-0.050
8.474,0.015,-0.050
8.476,0.040,-0.050
8.478,0.075,-0.045
8.480,0.080,-0.045
8.482,0.075,-0.040
8.484,0.065,-0.030
8.486,0.065,-0.025
8.488,0.055,-0.020
8.490,0.040,-0.015
8.492,0.060,-0.010
8.494,0.120,-0.010
8.496,0.075,-0.010
8.498,0.040,-0.010
8.500,0.055,-0.015
8.502,0.075,-0.020
8.504,0.045,-0.020
8.506,0.025,-0.020
8.508,-0.050,-0.020
8.510,0.075,-0.020
8.512,0.100,-0.015
8.514,0.125,-0.005
8.516,0.135,0.000
8.518,0.045,0.005
8.520,0.035,0.010
8.522,0.075,0.015
8.524,0.105,0.015
8.526,0.100,0.020
8.528,0.110,0.020
8.530,0.115,0.025
8.532,0.125,0.035
8.534,0.140,0.040
8.536,0.165,0.055
8.538,0.125,0.065
8.540,0.150,0.075
8.542,0.160,0.085
8.544,0.145,0.090
8.546,0.125,0.090
8.548,0.145,0.090
8.550,0.190,0.085
8.552,0.140,0.080
8.554,0.130,0.080
8.556,0.170,0.085
8.558,0.165,0.090
8.560,0.235,0.105
8.562,0.245,0.120
8.564,0.200,0.140
8.566,0.195,0.160
8.568,0.230,0.175
8.570,0.215,0.195
8.572,0.275,0.205
8.574,0.320,0.215
8.576,0.335,0.225
8.578,0.310,0.230
8.580,0.305,0.240
8.582,0.305,0.250
8.584,0.335,0.255
8.586,0.380,0.270
8.588,0.340,0.280
8.590,0.355,0.290
8.592,0.380,0.295
8.594,0.380,0.300
8.596,0.345,0.305
8.598,0.350,0.305
8.600,0.350,0.305
8.602,0.385,0.305
8.604,0.355,0.305
8.606,0.390,0.310
8.608,0.420,0.315
8.610,0.415,0.325
8.612,0.420,0.330
8.614,0.395,0.340
8.616,0.390,0.340
8.618,0.380,0.340
8.620,0.380,0.330
8.622,0.380,0.315
8.624,0.340,0.295
8.626,0.320,0.275
8.628,0.350,0.250
8.630,0.290,0.225
8.632,0.250,0.205
8.634,0.265,0.190
8.636,0.255,0.180
8.638,0.180,0.170
8.640,0.155,0.160
8.642,0.225,0.150
8.644,0.200,0.135
8.646,0.190,0.120
8.648,0.175,0.105
8.650,0.105,0.080
8.652,0.110,0.060
8.654,0.120,0.040
8.656,0.140,0.025
8.658,0.115,0.010
8.660,0.050,0.000
8.662,0.025,0.000
8.664,0.005,-0.005
8.666,0.030,0.000
8.668,0.090,0.000
8.670,0.075,0.000
8.672,0.050,0.000
8.674,0.090,-0.005
8.676,0.065,-0.010
8.678,0.015,-0.015
8.680,0.035,-0.025
8.682,0.015,-0.030
8.684,-0.010,-0.040
8.686,0.010,-0.045
8.688,0.005,-0.055
8.690,-0.050,-0.060
8.692,-0.035,-0.070
8.694,0.010,-0.075
8.696,0.025,-0.075
8.698,0.045,-0.075
8.700,0.015,-0.075
8.702,-0.005,-0.070
8.704,-0.025,-0.065
8.706,0.000,-0.055
8.708,-0.020,-0.055
8.710,-0.005,-0.050
8.712,0.050,-0.050
8.714,0.020,-0.050
8.716,0.005,-0.055
8.718,0.005,-0.060
8.720,-0.020,-0.065
8.722,-0.040,-0.065
8.724,-0.015,-0.065
8.726,0.005,-0.065
8.728,-0.030,-0.065
8.730,-0.025,-0.065
8.732,0.035,-0.065
8.734,0.000,-0.065
8.736,-0.020,-0.070
8.738,-0.025,-0.070
8.740,-0.050,-0.075
8.742,-0.010,-0.075
8.744,-0.035,-0.075
8.746,0.005,-0.070
8.748,-0.015,-0.065
8.750,-0.015,-0.060
8.752,0.005,-0.055
8.754,0.025,-0.050
8.756,0.005,-0.045
8.758,0.060,-0.045
8.760,0.005,-0.050
8.762,-0.045,-0.050
8.764,-0.030,-0.055
8.766,-0.030,-0.065
8.768,-0.015,-0.065
8.770,0.015,-0.070
8.772,0.060,-0.070
8.774,0.030,-0.065
8.776,-0.015,-0.065
8.778,-0.030,-0.060
8.780,-0.050,-0.055
8.782,0.005,-0.050
8.784,0.065,-0.050
8.786,0.010,-0.050
8.788,-0.005,-0.050
8.790,0.005,-0.050
8.792,0.015,-0.050
8.794,0.015,-0.050
8.796,-0.010,-0.050
8.798,0.005,-0.045
8.800,-0.005,-0.045
8.802,-0.030,-0.040
8.804,-0.020,-0.040
8.806,0.050,-0.045
8.808,0.040,-0.045
8.810,0.010,-0.050
8.812,-0.025,-0.055
8.814,-0.015,-0.060
8.816,0.000,-0.060
8.818,0.000,-0.060
8.820,0.000,-0.060
8.822,-0.005,-0.050
8.824,-0.045,-0.045
8.826,0.000,-0.040
8.828,0.000,-0.035
8.830,0.000,-0.030
8.832,0.000,-0.030
8.834,0.060,-0.035
8.836,0.040,-0.035
8.838,-0.010,-0.040
8.840,-0.020,-0.040
8.842,-0.035,-0.040
8.844,-0.010,-0.040
8.846,0.000,-0.035
8.848,-0.005,-0.035
8.850,0.080,-0.035
8.852,0.020,-0.040
8.854,0.000,-0.040
8.856,-0.005,-0.045
8.858,-0.015,-0.050
8.860,-0.015,-0.055
8.862,0.000,-0.060
8.864,0.040,-0.060
8.866,0.005,-0.055
8.868,0.025,-0.055
8.870,-0.035,-0.050
8.872,0.000,-0.045
8.874,-0.005,-0.045
8.876,-0.055,-0.045
8.878,0.035,-0.050
8.880,-0.030,-0.060
8.882,-0.015,-0.065
8.884,-0.020,-0.070
8.886,0.000,-0.075
8.888,0.025,-0.070
8.890,-0.025,-0.065
8.892,0.005,-0.055
8.894,0.030,-0.045
8.896,-0.015,-0.035
8.898,-0.010,-0.030
8.900,0.040,-0.030
8.902,0.015,-0.030
8.904,0.010,-0.035
8.906,-0.015,-0.045
8.908,-0.010,-0.055
8.910,-0.010,-0.060
8.912,-0.040,-0.065
8.914,-0.005,-0.065
8.916,0.010,-0.060
8.918,-0.015,-0.055
8.920,-0.020,-0.045
8.922,-0.030,-0.040
8.924,0.020,-0.035
8.926,0.020,-0.035
8.928,-0.005,-0.040
8.930,-0.050,-0.045
8.932,0.000,-0.055
8.934,0.030,-0.065
8.936,-0.025,-0.070
8.938,-0.040,-0.075
8.940,-0.010,-0.075
8.942,-0.045,-0.075
8.944,-0.010,-0.075
8.946,-0.015,-0.070
8.948,-0.060,-0.070
8.950,-0.030,-0.065
8.952,0.020,-0.065
8.954,0.015,-0.065
8.956,-0.020,-0.060
8.958,-0.015,-0.060
8.960,-0.030,-0.055
8.962,-0.040,-0.045
8.964,0.025,-0.045
8.966,0.025,-0.040
8.968,0.000,-0.040
8.970,-0.025,-0.045
8.972,0.010,-0.050
8.974,-0.025,-0.060
8.976,0.005,-0.070
8.978,-0.055,-0.075
8.980,-0.040,-0.080
8.982,-0.025,-0.080
8.984,0.000,-0.080
8.986,0.025,-0.070
8.988,-0.005,-0.065
8.990,-0.015,-0.055
8.992,0.015,-0.050
8.994,-0.020,-0.045
8.996,-0.060,-0.045
8.998,-0.010,-0.040
9.000,0.000,-0.040
9.002,-0.015,-0.040
9.004,-0.015,-0.045
9.006,-0.020,-0.045
9.008,-0.025,-0.045
9.010,0.025,-0.045
9.012,0.045,-0.050
9.014,0.010,-0.055
9.016,-0.035,-0.060
9.018,-0.040,-0.065
9.020,-0.030,-0.065
9.022,-0.010,-0.070
9.024,-0.015,-0.070
9.026,0.005,-0.065
9.028,-0.020,-0.065
9.030,-0.025,-0.060
9.032,0.020,-0.060
9.034,-0.030,-0.060
9.036,-0.040,-0.060
9.038,-0.040,-0.065
9.040,-0.050,-0.065
9.042,0.005,-0.065
9.044,0.020,-0.070
9.046,0.010,-0.065
9.048,-0.080,-0.065
9.050,-0.025,-0.060
9.052,0.005,-0.060
9.054,-0.020,-0.055
9.056,0.005,-0.055
9.058,0.025,-0.055
9.060,-0.010,-0.055
9.062,-0.040,-0.060
9.064,-0.035,-0.060
9.066,-0.020,-0.065
9.068,-0.030,-0.065
9.070,-0.050,-0.065
9.072,0.025,-0.065
9.074,-0.030,-0.060
9.076,-0.015,-0.055
9.078,0.020,-0.050
9.080,-0.020,-0.050
9.082,0.015,-0.045
9.084,-0.010,-0.050
9.086,-0.010,-0.050
9.088,0.005,-0.060
9.090,0.005,-0.065
9.092,0.010,-0.075
9.094,0.015,-0.085
9.096,-0.075,-0.090
9.098,-0.110,-0.095
9.100,-0.085,-0.095
9.102,-0.060,-0.085
9.104,0.020,-0.075
9.106,-0.030,-0.065
9.108,0.005,-0.050
9.110,0.065,-0.035
9.112,0.035,-0.025
9.114,0.035,-0.020
9.116,-0.005,-0.015
9.118,0.025,-0.015
9.120,0.000,-0.015
9.122,-0.010,-0.020
9.124,-0.010,-0.020
9.126,-0.005,-0.020
9.128,-0.045,-0.020
9.130,0.075,-0.015
9.132,0.050,-0.005
9.134,0.025,0.005
9.136,0.085,0.015
9.138,0.110,0.025
9.140,0.090,0.035
9.142,0.080,0.040
9.144,0.065,0.045
9.146,0.065,0.050
9.148,0.065,0.050
9.150,0.070,0.045
9.152,0.065,0.030
9.154,0.050,0.020
9.156,0.045,0.000
9.158,-0.030,-0.020
9.160,-0.030,-0.040
9.162,0.020,-0.060
9.164,-0.005,-0.070
9.166,-0.065,-0.080
9.168,-0.140,-0.080
9.170,-0.055,-0.080
9.172,0.045,-0.070
9.174,0.030,-0.060
9.176,-0.030,-0.050
9.178,-0.040,-0.045
9.180,-0.050,-0.040
9.182,-0.015,-0.035
9.184,-0.010,-0.040
9.186,-0.020,-0.040
9.188,-0.010,-0.045
9.190,-0.005,-0.045
9.192,0.020,-0.050
9.194,-0.005,-0.050
9.196,0.000,-0.050
9.198,0.000,-0.055
9.200,-0.050,-0.055
9.202,-0.025,-0.065
9.204,-0.065,-0.075
9.206,-0.080,-0.085
9.208,-0.090,-0.090
9.210,-0.040,-0.095
9.212,-0.045,-0.090
9.214,0.010,-0.085
9.216,0.005,-0.075
9.218,-0.055,-0.065
9.220,-0.070,-0.055
9.222,-0.010,-0.060
9.224,-0.020,-0.070
9.226,-0.030,-0.095
9.228,-0.055,-0.130
9.230,-0.190,-0.170
9.232,-0.235,-0.205
9.234,-0.220,-0.235
9.236,-0.255,-0.245
9.238,-0.185,-0.240
9.240,-0.185,-0.205
9.242,-0.190,-0.155
9.244,-0.075,-0.085
9.246,0.100,0.000
9.248,0.205,0.095
9.250,0.325,0.200
9.252,0.365,0.300
9.254,0.440,0.400
9.256,0.495,0.500
9.258,0.630,0.585
9.260,0.750,0.655
9.262,0.810,0.705
9.264,0.840,0.725
9.266,0.835,0.710
9.268,0.770,0.660
9.270,0.630,0.570
9.272,0.400,0.455
9.274,0.305,0.320
9.276,0.210,0.180
9.278,0.035,0.050
9.280,-0.130,-0.055
9.282,-0.140,-0.125
9.284,-0.115,-0.165
9.286,-0.080,-0.170
9.288,-0.025,-0.150
9.290,0.015,-0.115
9.292,-0.035,-0.080
9.294,-0.060,-0.045
9.296,-0.030,-0.025
9.298,0.020,-0.015
9.300,0.015,-0.020
9.302,0.040,-0.030
9.304,0.035,-0.045
9.306,-0.030,-0.055
9.308,-0.055,-0.065
9.310,-0.040,-0.065
9.312,0.005,-0.065
9.314,0.005,-0.060
9.316,-0.040,-0.060
9.318,-0.055,-0.060
9.320,-0.045,-0.060
9.322,-0.025,-0.060
9.324,-0.005,-0.065
9.326,0.015,-0.065
9.328,0.000,-0.065
9.330,-0.005,-0.060
9.332,-0.035,-0.050
9.334,0.005,-0.040
9.336,-0.010,-0.035
9.338,0.000,-0.030
9.340,0.030,-0.025
9.342,0.010,-0.030
9.344,0.000,-0.035
9.346,-0.005,-0.040
9.348,0.005,-0.045
9.350,0.005,-0.050
9.352,-0.015,-0.050
9.354,0.010,-0.050
9.356,-0.010,-0.045
9.358,-0.005,-0.040
9.360,-0.025,-0.035
9.362,0.030,-0.030
9.364,0.055,-0.025
9.366,0.020,-0.020
9.368,0.015,-0.015
9.370,0.015,-0.010
9.372,0.055,-0.005
9.374,0.025,0.000
9.376,0.105,0.005
9.378,0.020,0.005
9.380,0.000,0.005
9.382,0.035,0.005
9.384,0.040,0.000
9.386,0.055,-0.005
9.388,0.060,-0.005
9.390,0.060,-0.010
9.392,0.005,-0.010
9.394,-0.025,-0.005
9.396,0.060,0.000
9.398,0.080,0.010
9.400,0.055,0.015
9.402,0.055,0.025
9.404,0.055,0.030
9.406,0.095,0.030
9.408,0.085,0.030
9.410,0.100,0.030
9.412,0.065,0.035
9.414,0.095,0.035
9.416,0.095,0.040
9.418,0.070,0.045
9.420,0.075,0.055
9.422,0.120,0.065
9.424,0.125,0.075
9.426,0.120,0.080
9.428,0.140,0.090
9.430,0.135,0.095
9.432,0.135,0.095
9.434,0.150,0.100
9.436,0.135,0.100
9.438,0.170,0.105
9.440,0.195,0.110
9.442,0.185,0.120
9.444,0.170,0.135
9.446,0.170,0.150
9.448,0.235,0.165
9.450,0.240,0.180
9.452,0.240,0.195
9.454,0.295,0.210
9.456,0.265,0.220
9.458,0.230,0.230
9.460,0.260,0.240
9.462,0.275,0.250
9.464,0.325,0.255
9.466,0.375,0.260
9.468,0.355,0.265
9.470,0.310,0.270
9.472,0.320,0.275
9.474,0.315,0.280
9.476,0.330,0.285
9.478,0.300,0.290
9.480,0.315,0.295
9.482,0.360,0.300
9.484,0.410,0.305
9.486,0.400,0.315
9.488,0.410,0.325
9.490,0.345,0.335
9.492,0.375,0.340
9.494,0.405,0.345
9.496,0.420,0.345
9.498,0.345,0.335
9.500,0.375,0.320
9.502,0.345,0.305
9.504,0.325,0.285
9.506,0.280,0.260
9.508,0.305,0.240
9.510,0.305,0.220
9.512,0.230,0.205
9.514,0.245,0.195
9.516,0.205,0.185
9.518,0.200,0.175
9.520,0.190,0.165
9.522,0.185,0.150
9.524,0.175,0.135
9.526,0.185,0.120
9.528,0.145,0.105
9.530,0.140,0.090
9.532,0.140,0.075
9.534,0.105,0.065
9.536,0.060,0.055
9.538,0.080,0.050
9.540,0.075,0.045
9.542,0.065,0.035
9.544,0.045,0.030
9.546,0.045,0.015
9.548,0.055,0.000
9.550,0.010,-0.015
9.552,-0.020,-0.030
9.554,-0.005,-0.045
9.556,0.010,-0.055
9.558,-0.020,-0.060
9.560,-0.020,-0.055
9.562,0.035,-0.050
9.564,0.015,-0.040
9.566,0.025,-0.030
9.568,0.020,-0.025
9.570,0.020,-0.020
9.572,0.015,-0.025
9.574,0.000,-0.035
9.576,-0.030,-0.045
9.578,-0.075,-0.060
9.580,-0.050,-0.075
9.582,0.030,-0.085
9.584,-0.015,-0.090
9.586,-0.035,-0.090
9.588,0.005,-0.085
9.590,-0.055,-0.075
9.592,-0.055,-0.065
9.594,-0.010,-0.055
9.596,-0.005,-0.050
9.598,-0.005,-0.045
9.600,-0.005,-0.045
9.602,-0.025,-0.045
9.604,-0.035,-0.050
9.606,-0.010,-0.060
9.608,0.030,-0.065
9.610,0.000,-0.065
9.612,-0.015,-0.065
9.614,-0.025,-0.065
9.616,-0.005,-0.065
9.618,0.020,-0.060
9.620,-0.015,-0.060
9.622,0.000,-0.060
9.624,-0.025,-0.060
9.626,-0.005,-0.065
9.628,-0.035,-0.065
9.630,-0.080,-0.070
9.632,-0.005,-0.070
9.634,0.020,-0.070
9.636,-0.010,-0.070
9.638,-0.040,-0.070
9.640,0.010,-0.065
9.642,0.015,-0.060
9.644,-0.015,-0.055
9.646,-0.015,-0.055
9.648,-0.040,-0.050
9.650,0.020,-0.045
9.652,0.035,-0.045
9.654,0.025,-0.045
9.656,0.020,-0.045
9.658,-0.020,-0.045
9.660,-0.025,-0.045
9.662,0.000,-0.050
9.664,0.020,-0.055
9.666,0.015,-0.055
9.668,0.050,-0.060
9.670,-0.030,-0.065
9.672,-0.010,-0.065
9.674,0.000,-0.070
9.676,-0.025,-0.070
9.678,-0.045,-0.070
9.680,-0.050,-0.070
9.682,-0.055,-0.070
9.684,-0.015,-0.070
9.686,0.020,-0.065
9.688,0.030,-0.060
9.690,0.050,-0.050
9.692,0.015,-0.045
9.694,0.030,-0.040
9.696,0.020,-0.035
9.698,0.020,-0.035
9.700,0.005,-0.040
9.702,-0.035,-0.045
9.704,-0.040,-0.055
9.706,-0.015,-0.065
9.708,-0.005,-0.070
9.710,0.015,-0.070
9.712,-0.010,-0.070
9.714,0.010,-0.060
9.716,0.010,-0.050
9.718,0.040,-0.035
9.720,0.130,-0.020
9.722,0.025,-0.010
9.724,-0.015,-0.005
9.726,0.035,-0.010
9.728,0.010,-0.020
9.730,-0.015,-0.035
9.732,-0.010,-0.050
9.734,0.010,-0.065
9.736,0.005,-0.075
9.738,-0.030,-0.075
9.740,0.010,-0.075
9.742,0.005,-0.065
9.744,-0.025,-0.055
9.746,0.000,-0.045
9.748,0.045,-0.040
9.750,0.040,-0.035
9.752,0.020,-0.035
9.754,-0.030,-0.040
9.756,-0.045,-0.040
9.758,-0.040,-0.045
9.760,0.015,-0.050
9.762,0.030,-0.045
9.764,0.035,-0.045
9.766,0.025,-0.040
9.768,0.000,-0.035
9.770,0.010,-0.035
9.772,0.005,-0.040
9.774,0.000,-0.050
9.776,-0.040,-0.060
9.778,-0.020,-0.070
9.780,0.005,-0.080
9.782,-0.035,-0.090
9.784,0.000,-0.090
9.786,0.020,-0.085
9.788,0.020,-0.075
9.790,0.025,-0.060
9.792,0.030,-0.045
9.794,0.065,-0.035
9.796,-0.015,-0.030
9.798,-0.005,-0.035
9.800,0.015,-0.040
9.802,0.010,-0.055
9.804,0.010,-0.070
9.806,0.030,-0.080
9.808,-0.105,-0.090
9.810,-0.045,-0.090
9.812,0.045,-0.090
9.814,0.005,-0.085
9.816,-0.055,-0.075
9.818,-0.070,-0.060
9.820,-0.010,-0.055
9.822,0.030,-0.045
9.824,0.040,-0.045
9.826,0.025,-0.045
9.828,0.005,-0.050
9.830,0.005,-0.060
9.832,-0.010,-0.065
9.834,-0.030,-0.075
9.836,-0.015,-0.080
9.838,-0.060,-0.080
9.840,-0.035,-0.085
9.842,0.015,-0.085
9.844,0.005,-0.080
9.846,0.040,-0.080
9.848,-0.015,-0.075
9.850,-0.050,-0.070
9.852,-0.025,-0.065
9.854,0.000,-0.060
9.856,0.020,-0.055
9.858,0.025,-0.050
9.860,-0.010,-0.045
9.862,0.060,-0.040
9.864,0.070,-0.040
9.866,0.025,-0.040
9.868,-0.010,-0.040
9.870,0.010,-0.040
9.872,0.035,-0.045
9.874,0.020,-0.045
9.876,-0.010,-0.050
9.878,0.025,-0.055
9.880,0.005,-0.055
9.882,-0.030,-0.060
9.884,-0.030,-0.065
9.886,0.015,-0.065
9.888,0.010,-0.065
9.890,-0.015,-0.070
9.892,-0.005,-0.070
9.894,-0.005,-0.070
9.896,0.000,-0.065
9.898,0.020,-0.065
9.900,0.020,-0.065
9.902,-0.010,-0.065
9.904,-0.030,-0.065
9.906,-0.020,-0.065
9.908,0.020,-0.065
9.910,-0.005,-0.065
9.912,-0.005,-0.070
9.914,0.005,-0.070
9.916,0.010,-0.070
9.918,-0.025,-0.070
9.920,-0.040,-0.065
9.922,-0.025,-0.065
9.924,0.040,-0.065
9.926,0.040,-0.065
9.928,-0.015,-0.070
9.930,-0.010,-0.070
9.932,0.035,-0.070
9.934,-0.010,-0.070
9.936,-0.050,-0.070
9.938,0.010,-0.070
9.940,0.025,-0.070
9.942,0.015,-0.065
9.944,-0.035,-0.065
9.946,0.020,-0.060
9.948,0.025,-0.055
9.950,-0.020,-0.050
9.952,-0.030,-0.045
9.954,0.035,-0.040
9.956,0.040,-0.040
9.958,0.040,-0.035
9.960,0.035,-0.035
9.962,0.000,-0.040
9.964,-0.015,-0.040
9.966,0.015,-0.050
9.968,-0.005,-0.055
9.970,0.060,-0.055
9.972,0.040,-0.060
9.974,-0.005,-0.060
9.976,-0.010,-0.055
9.978,0.050,-0.050
9.980,0.055,-0.040
9.982,0.040,-0.035
9.984,0.055,-0.025
9.986,0.070,-0.015
9.988,0.035,-0.010
9.990,0.070,-0.005
9.992,0.105,0.000
9.994,0.085,0.005
9.996,0.070,0.010
9.998,0.085,0.010
