'Elapsed time','ECG I','ECG I filtered'
'seconds','mV','mV'
0.000,-0.255,-0.095
0.002,-0.230,-0.020
0.004,-0.165,0.030
0.006,-0.085,0.065
0.008,-0.095,0.080
0.010,0.050,0.070
0.012,0.035,0.045
0.014,-0.150,0.010
0.016,-0.275,-0.025
0.018,-0.440,-0.045
0.020,-0.230,-0.055
0.022,-0.240,-0.050
0.024,-0.175,-0.030
0.026,-0.130,-0.005
0.028,-0.050,0.020
0.030,0.060,0.035
0.032,0.000,0.045
0.034,-0.115,0.040
0.036,-0.225,0.030
0.038,-0.435,0.015
0.040,-0.225,0.000
0.042,-0.230,-0.010
0.044,-0.195,-0.015
0.046,-0.085,-0.010
0.048,-0.060,0.000
0.050,0.060,0.010
0.052,0.015,0.020
0.054,-0.080,0.025
0.056,-0.355,0.025
0.058,-0.435,0.020
0.060,-0.210,0.010
0.062,-0.195,0.000
0.064,-0.140,-0.005
0.066,-0.125,-0.010
0.068,-0.070,-0.010
0.070,0.005,-0.005
0.072,-0.035,0.000
0.074,-0.125,0.000
0.076,-0.295,0.000
0.078,-0.415,0.000
0.080,-0.270,0.000
0.082,-0.250,-0.005
0.084,-0.145,-0.005
0.086,-0.045,-0.005
0.088,-0.035,0.000
0.090,0.030,0.010
0.092,0.030,0.015
0.094,-0.085,0.025
0.096,-0.280,0.030
0.098,-0.445,0.035
0.100,-0.245,0.030
0.102,-0.215,0.025
0.104,-0.140,0.020
0.106,-0.080,0.010
0.108,-0.075,0.005
0.110,0.095,0.000
0.112,-0.040,0.005
0.114,-0.100,0.010
0.116,-0.290,0.020
0.118,-0.390,0.025
0.120,-0.210,0.030
0.122,-0.230,0.035
0.124,-0.165,0.030
0.126,-0.035,0.020
0.128,-0.035,0.010
0.130,0.075,-0.005
0.132,-0.045,-0.010
0.134,-0.190,-0.015
0.136,-0.325,-0.015
0.138,-0.385,-0.005
0.140,-0.240,0.005
0.142,-0.225,0.015
0.144,-0.145,0.020
0.146,-0.105,0.020
0.148,-0.095,0.015
0.150,0.080,0.005
0.152,-0.015,-0.010
0.154,-0.085,-0.020
0.156,-0.375,-0.030
0.158,-0.380,-0.030
0.160,-0.285,-0.030
0.162,-0.260,-0.020
0.164,-0.165,-0.010
0.166,-0.110,-0.005
0.168,-0.080,0.000
0.170,0.050,0.000
0.172,-0.045,-0.005
0.174,-0.135,-0.015
0.176,-0.405,-0.025
0.178,-0.330,-0.035
0.180,-0.275,-0.040
0.182,-0.310,-0.045
0.184,-0.195,-0.040
0.186,-0.120,-0.040
0.188,-0.090,-0.035
0.190,0.050,-0.030
0.192,-0.100,-0.030
0.194,-0.225,-0.030
0.196,-0.415,-0.035
0.198,-0.345,-0.035
0.200,-0.245,-0.035
0.202,-0.265,-0.030
0.204,-0.215,-0.025
0.206,-0.050,-0.015
0.208,-0.020,-0.010
0.210,0.050,-0.005
0.212,-0.055,0.000
0.214,-0.210,0.000
0.216,-0.435,-0.005
0.218,-0.335,-0.005
0.220,-0.205,-0.010
0.222,-0.225,-0.010
0.224,-0.140,-0.010
0.226,-0.085,-0.005
0.228,0.005,0.005
0.230,0.040,0.010
0.232,-0.075,0.020
0.234,-0.105,0.025
0.236,-0.360,0.030
0.238,-0.300,0.030
0.240,-0.200,0.030
0.242,-0.105,0.025
0.244,-0.095,0.025
0.246,-0.025,0.020
0.248,-0.005,0.020
0.250,0.075,0.020
0.252,-0.060,0.025
0.254,-0.155,0.030
0.256,-0.405,0.040
0.258,-0.220,0.040
0.260,-0.200,0.045
0.262,-0.160,0.045
0.264,-0.130,0.040
0.266,-0.085,0.030
0.268,0.045,0.020
0.270,0.075,0.015
0.272,-0.045,0.005
0.274,-0.200,0.000
0.276,-0.440,-0.005
0.278,-0.300,-0.010
0.280,-0.250,-0.010
0.282,-0.250,-0.015
0.284,-0.130,-0.020
0.286,-0.060,-0.025
0.288,0.000,-0.030
0.290,0.045,-0.035
0.292,-0.190,-0.040
0.294,-0.195,-0.040
0.296,-0.450,-0.035
0.298,-0.365,-0.030
0.300,-0.245,-0.025
0.302,-0.230,-0.020
0.304,-0.145,-0.020
0.306,-0.080,-0.020
0.308,0.010,-0.025
0.310,0.005,-0.030
0.312,-0.135,-0.040
0.314,-0.305,-0.040
0.316,-0.455,-0.040
0.318,-0.330,-0.035
0.320,-0.225,-0.030
0.322,-0.200,-0.025
0.324,-0.135,-0.020
0.326,-0.140,-0.020
0.328,-0.010,-0.025
0.330,-0.045,-0.035
0.332,-0.140,-0.050
0.334,-0.310,-0.065
0.336,-0.480,-0.070
0.338,-0.345,-0.075
0.340,-0.300,-0.070
0.342,-0.265,-0.065
0.344,-0.140,-0.055
0.346,-0.115,-0.045
0.348,0.015,-0.035
0.350,-0.030,-0.030
0.352,-0.140,-0.030
0.354,-0.320,-0.030
0.356,-0.480,-0.030
0.358,-0.300,-0.025
0.360,-0.255,-0.025
0.362,-0.210,-0.020
0.364,-0.130,-0.020
0.366,-0.090,-0.020
0.368,0.060,-0.030
0.370,-0.050,-0.045
0.372,-0.215,-0.065
0.374,-0.385,-0.085
0.376,-0.550,-0.110
0.378,-0.395,-0.125
0.380,-0.260,-0.130
0.382,-0.355,-0.115
0.384,-0.240,-0.090
0.386,-0.090,-0.040
0.388,0.110,0.020
0.390,0.155,0.090
0.392,0.080,0.170
0.394,-0.060,0.250
0.396,-0.075,0.320
0.398,0.135,0.385
0.400,0.210,0.435
0.402,0.340,0.475
0.404,0.415,0.495
0.406,0.510,0.495
0.408,0.600,0.480
0.410,0.445,0.445
0.412,0.205,0.395
0.414,0.005,0.330
0.416,-0.115,0.255
0.418,-0.075,0.175
0.420,-0.205,0.100
0.422,-0.205,0.030
0.424,-0.125,-0.030
0.426,-0.155,-0.070
0.428,-0.020,-0.095
0.430,-0.095,-0.100
0.432,-0.230,-0.095
0.434,-0.410,-0.085
0.436,-0.490,-0.070
0.438,-0.315,-0.060
0.440,-0.305,-0.050
0.442,-0.230,-0.050
0.444,-0.125,-0.055
0.446,-0.135,-0.060
0.448,0.045,-0.065
0.450,-0.130,-0.065
0.452,-0.165,-0.060
0.454,-0.410,-0.055
0.456,-0.385,-0.045
0.458,-0.270,-0.035
0.460,-0.275,-0.025
0.462,-0.185,-0.020
0.464,-0.130,-0.020
0.466,-0.135,-0.020
0.468,0.065,-0.025
0.470,-0.070,-0.030
0.472,-0.165,-0.030
0.474,-0.405,-0.030
0.476,-0.395,-0.025
0.478,-0.230,-0.020
0.480,-0.180,-0.015
0.482,-0.185,-0.010
0.484,-0.145,-0.010
0.486,-0.090,-0.015
0.488,0.090,-0.020
0.490,-0.085,-0.025
0.492,-0.155,-0.030
0.494,-0.390,-0.035
0.496,-0.360,-0.030
0.498,-0.270,-0.030
0.500,-0.230,-0.025
0.502,-0.180,-0.025
0.504,-0.140,-0.025
0.506,-0.095,-0.030
0.508,0.010,-0.035
0.510,-0.110,-0.035
0.512,-0.180,-0.040
0.514,-0.395,-0.040
0.516,-0.350,-0.035
0.518,-0.245,-0.025
0.520,-0.195,-0.010
0.522,-0.175,0.000
0.524,-0.065,0.005
0.526,-0.035,0.010
0.528,0.085,0.010
0.530,-0.090,0.000
0.532,-0.155,-0.010
0.534,-0.395,-0.020
0.536,-0.360,-0.025
0.538,-0.255,-0.030
0.540,-0.225,-0.030
0.542,-0.150,-0.025
0.544,-0.080,-0.015
0.546,0.010,-0.010
0.548,0.065,0.000
0.550,-0.085,0.005
0.552,-0.150,0.005
0.554,-0.430,0.005
0.556,-0.305,0.005
0.558,-0.210,0.000
0.560,-0.180,0.000
0.562,-0.180,-0.005
0.564,-0.095,-0.005
0.566,0.020,0.000
0.568,0.060,0.000
0.570,-0.060,0.010
0.572,-0.150,0.015
0.574,-0.400,0.020
0.576,-0.250,0.030
0.578,-0.215,0.030
0.580,-0.185,0.035
0.582,-0.075,0.035
0.584,-0.075,0.035
0.586,0.110,0.030
0.588,0.060,0.030
0.590,-0.145,0.025
0.592,-0.210,0.025
0.594,-0.355,0.030
0.596,-0.205,0.035
0.598,-0.215,0.040
0.600,-0.120,0.045
0.602,-0.090,0.055
0.604,-0.025,0.060
0.606,0.065,0.065
0.608,0.060,0.070
0.610,-0.035,0.070
0.612,-0.140,0.070
0.614,-0.335,0.070
0.616,-0.155,0.070
0.618,-0.165,0.070
0.620,-0.205,0.070
0.622,-0.105,0.075
0.624,0.045,0.080
0.626,0.165,0.085
0.628,0.125,0.095
0.630,0.020,0.105
0.632,-0.160,0.115
0.634,-0.295,0.120
0.636,-0.175,0.125
0.638,-0.125,0.130
0.640,-0.075,0.125
0.642,0.005,0.125
0.644,0.055,0.125
0.646,0.180,0.125
0.648,0.145,0.125
0.650,-0.010,0.130
0.652,-0.150,0.135
0.654,-0.315,0.140
0.656,-0.120,0.145
0.658,-0.065,0.145
0.660,-0.035,0.140
0.662,0.050,0.135
0.664,0.005,0.125
0.666,0.185,0.115
0.668,0.090,0.110
0.670,-0.020,0.105
0.672,-0.160,0.105
0.674,-0.385,0.105
0.676,-0.160,0.110
0.678,-0.120,0.110
0.680,-0.105,0.110
0.682,0.010,0.105
0.684,0.035,0.100
0.686,0.150,0.090
0.688,0.125,0.075
0.690,-0.050,0.065
0.692,-0.255,0.060
0.694,-0.395,0.050
0.696,-0.235,0.045
0.698,-0.235,0.035
0.700,-0.120,0.030
0.702,-0.080,0.025
0.704,-0.065,0.015
0.706,0.095,0.010
0.708,0.000,0.010
0.710,-0.140,0.010
0.712,-0.295,0.010
0.714,-0.380,0.015
0.716,-0.255,0.015
0.718,-0.250,0.015
0.720,-0.185,0.010
0.722,-0.100,0.000
0.724,-0.075,-0.015
0.726,0.050,-0.030
0.728,-0.030,-0.040
0.730,-0.265,-0.050
0.732,-0.345,-0.050
0.734,-0.450,-0.050
0.736,-0.290,-0.040
0.738,-0.275,-0.030
0.740,-0.160,-0.025
0.742,-0.105,-0.020
0.744,-0.110,-0.020
0.746,0.005,-0.020
0.748,-0.060,-0.030
0.750,-0.170,-0.035
0.752,-0.365,-0.040
0.754,-0.435,-0.040
0.756,-0.265,-0.045
0.758,-0.260,-0.040
0.760,-0.235,-0.040
0.762,-0.165,-0.045
0.764,-0.140,-0.050
0.766,-0.035,-0.055
0.768,-0.075,-0.065
0.770,-0.185,-0.075
0.772,-0.500,-0.075
0.774,-0.420,-0.075
0.776,-0.305,-0.070
0.778,-0.225,-0.055
0.780,-0.165,-0.045
0.782,-0.135,-0.030
0.784,-0.165,-0.020
0.786,0.000,-0.020
0.788,-0.075,-0.025
0.790,-0.190,-0.035
0.792,-0.385,-0.045
0.794,-0.380,-0.055
0.796,-0.305,-0.065
0.798,-0.310,-0.070
0.800,-0.190,-0.070
0.802,-0.105,-0.065
0.804,-0.115,-0.060
0.806,-0.015,-0.050
0.808,-0.155,-0.045
0.810,-0.185,-0.045
0.812,-0.415,-0.050
0.814,-0.380,-0.055
0.816,-0.320,-0.060
0.818,-0.260,-0.060
0.820,-0.210,-0.060
0.822,-0.135,-0.055
0.824,-0.055,-0.045
0.826,0.025,-0.035
0.828,-0.100,-0.030
0.830,-0.245,-0.020
0.832,-0.410,-0.020
0.834,-0.340,-0.020
0.836,-0.280,-0.030
0.838,-0.260,-0.035
0.840,-0.190,-0.045
0.842,-0.120,-0.050
0.844,-0.065,-0.055
0.846,-0.025,-0.055
0.848,-0.130,-0.045
0.850,-0.220,-0.040
0.852,-0.420,-0.035
0.854,-0.320,-0.025
0.856,-0.310,-0.025
0.858,-0.255,-0.020
0.860,-0.155,-0.025
0.862,-0.100,-0.025
0.864,-0.010,-0.030
0.866,0.025,-0.035
0.868,-0.150,-0.035
0.870,-0.265,-0.035
0.872,-0.430,-0.035
0.874,-0.340,-0.035
0.876,-0.265,-0.035
0.878,-0.245,-0.040
0.880,-0.185,-0.040
0.882,-0.210,-0.040
0.884,-0.040,-0.040
0.886,0.055,-0.035
0.888,-0.105,-0.035
0.890,-0.225,-0.025
0.892,-0.470,-0.020
0.894,-0.335,-0.020
0.896,-0.255,-0.015
0.898,-0.205,-0.020
0.900,-0.190,-0.020
0.902,-0.090,-0.030
0.904,-0.005,-0.035
0.906,0.015,-0.040
0.908,-0.120,-0.040
0.910,-0.220,-0.040
0.912,-0.440,-0.035
0.914,-0.370,-0.030
0.916,-0.285,-0.030
0.918,-0.265,-0.030
0.920,-0.165,-0.030
0.922,-0.115,-0.030
0.924,0.005,-0.035
0.926,-0.020,-0.035
0.928,-0.155,-0.035
0.930,-0.305,-0.030
0.932,-0.485,-0.025
0.934,-0.285,-0.025
0.936,-0.265,-0.020
0.938,-0.195,-0.020
0.940,-0.170,-0.020
0.942,-0.160,-0.025
0.944,0.015,-0.030
0.946,-0.030,-0.035
0.948,-0.180,-0.040
0.950,-0.305,-0.040
0.952,-0.450,-0.040
0.954,-0.315,-0.040
0.956,-0.310,-0.040
0.958,-0.260,-0.040
0.960,-0.105,-0.040
0.962,-0.135,-0.040
0.964,-0.015,-0.040
0.966,-0.040,-0.040
0.968,-0.150,-0.040
0.970,-0.330,-0.035
0.972,-0.475,-0.030
0.974,-0.300,-0.025
0.976,-0.290,-0.020
0.978,-0.205,-0.020
0.980,-0.135,-0.025
0.982,-0.145,-0.030
0.984,0.000,-0.035
0.986,-0.055,-0.045
0.988,-0.160,-0.050
0.990,-0.310,-0.050
0.992,-0.485,-0.050
0.994,-0.345,-0.050
0.996,-0.345,-0.045
0.998,-0.225,-0.045
1.000,-0.085,-0.045
1.002,-0.115,-0.045
1.004,0.055,-0.050
1.006,-0.085,-0.050
1.008,-0.205,-0.050
1.010,-0.330,-0.050
1.012,-0.510,-0.045
1.014,-0.300,-0.040
1.016,-0.270,-0.035
1.018,-0.245,-0.030
1.020,-0.185,-0.030
1.022,-0.100,-0.035
1.024,0.020,-0.040
1.026,-0.040,-0.045
1.028,-0.170,-0.045
1.030,-0.360,-0.050
1.032,-0.475,-0.050
1.034,-0.355,-0.045
1.036,-0.285,-0.045
1.038,-0.240,-0.050
1.040,-0.105,-0.050
1.042,-0.130,-0.055
1.044,0.020,-0.060
1.046,-0.060,-0.070
1.048,-0.260,-0.070
1.050,-0.380,-0.070
1.052,-0.465,-0.070
1.054,-0.290,-0.065
1.056,-0.330,-0.055
1.058,-0.240,-0.050
1.060,-0.185,-0.045
1.062,-0.130,-0.040
1.064,0.015,-0.040
1.066,-0.070,-0.040
1.068,-0.180,-0.045
1.070,-0.380,-0.045
1.072,-0.385,-0.040
1.074,-0.275,-0.035
1.076,-0.325,-0.030
1.078,-0.225,-0.025
1.080,-0.130,-0.015
1.082,-0.120,-0.015
1.084,0.060,-0.015
1.086,-0.070,-0.015
1.088,-0.175,-0.020
1.090,-0.325,-0.025
1.092,-0.365,-0.025
1.094,-0.315,-0.030
1.096,-0.280,-0.025
1.098,-0.180,-0.020
1.100,-0.130,-0.015
1.102,-0.100,-0.010
1.104,0.085,0.000
1.106,-0.045,0.005
1.108,-0.160,0.005
1.110,-0.410,0.005
1.112,-0.355,0.005
1.114,-0.245,0.005
1.116,-0.205,0.005
1.118,-0.140,0.005
1.120,-0.045,0.010
1.122,0.005,0.010
1.124,0.035,0.015
1.126,-0.045,0.015
1.128,-0.210,0.010
1.130,-0.390,0.005
1.132,-0.345,-0.005
1.134,-0.245,-0.015
1.136,-0.225,-0.025
1.138,-0.245,-0.030
1.140,-0.095,-0.035
1.142,-0.030,-0.035
1.144,0.000,-0.030
1.146,-0.080,-0.020
1.148,-0.160,-0.010
1.150,-0.380,-0.005
1.152,-0.310,0.000
1.154,-0.280,0.000
1.156,-0.280,-0.010
1.158,-0.205,-0.020
1.160,-0.110,-0.030
1.162,-0.035,-0.040
1.164,0.005,-0.050
1.166,-0.140,-0.055
1.168,-0.240,-0.055
1.170,-0.435,-0.055
1.172,-0.340,-0.050
1.174,-0.320,-0.045
1.176,-0.245,-0.045
1.178,-0.205,-0.040
1.180,-0.135,-0.040
1.182,-0.070,-0.045
1.184,-0.015,-0.045
1.186,-0.105,-0.045
1.188,-0.235,-0.045
1.190,-0.480,-0.045
1.192,-0.365,-0.045
1.194,-0.275,-0.045
1.196,-0.280,-0.045
1.198,-0.195,-0.050
1.200,-0.100,-0.055
1.202,-0.090,-0.055
1.204,-0.025,-0.055
1.206,-0.180,-0.055
1.208,-0.250,-0.055
1.210,-0.440,-0.050
1.212,-0.325,-0.045
1.214,-0.275,-0.045
1.216,-0.305,-0.045
1.218,-0.175,-0.050
1.220,-0.125,-0.055
1.222,-0.025,-0.055
1.224,-0.035,-0.060
1.226,-0.170,-0.060
1.228,-0.290,-0.055
1.230,-0.495,-0.050
1.232,-0.365,-0.050
1.234,-0.255,-0.050
1.236,-0.325,-0.055
1.238,-0.175,-0.065
1.240,-0.095,-0.075
1.242,-0.030,-0.090
1.244,-0.070,-0.105
1.246,-0.275,-0.110
1.248,-0.375,-0.105
1.250,-0.545,-0.090
1.252,-0.455,-0.060
1.254,-0.230,-0.020
1.256,-0.165,0.035
1.258,-0.015,0.095
1.260,0.170,0.170
1.262,0.360,0.245
1.264,0.385,0.330
1.266,0.290,0.410
1.268,0.170,0.490
1.270,0.145,0.555
1.272,0.375,0.600
1.274,0.425,0.620
1.276,0.450,0.610
1.278,0.490,0.575
1.280,0.405,0.510
1.282,0.455,0.425
1.284,0.315,0.330
1.286,0.140,0.230
1.288,-0.170,0.145
1.290,-0.430,0.075
1.292,-0.300,0.020
1.294,-0.275,-0.015
1.296,-0.240,-0.035
1.298,-0.170,-0.040
1.300,-0.100,-0.045
1.302,-0.065,-0.045
1.304,-0.025,-0.045
1.306,-0.190,-0.045
1.308,-0.365,-0.045
1.310,-0.450,-0.045
1.312,-0.315,-0.040
1.314,-0.260,-0.035
1.316,-0.220,-0.025
1.318,-0.135,-0.020
1.320,-0.110,-0.015
1.322,0.025,-0.010
1.324,0.025,-0.015
1.326,-0.135,-0.020
1.328,-0.350,-0.025
1.330,-0.460,-0.025
1.332,-0.315,-0.030
1.334,-0.300,-0.030
1.336,-0.255,-0.025
1.338,-0.110,-0.025
1.340,-0.075,-0.020
1.342,0.070,-0.020
1.344,-0.030,-0.020
1.346,-0.180,-0.020
1.348,-0.365,-0.020
1.350,-0.510,-0.025
1.352,-0.265,-0.025
1.354,-0.275,-0.020
1.356,-0.225,-0.020
1.358,-0.110,-0.020
1.360,-0.075,-0.020
1.362,0.040,-0.020
1.364,-0.015,-0.020
1.366,-0.160,-0.020
1.368,-0.365,-0.020
1.370,-0.475,-0.015
1.372,-0.310,-0.015
1.374,-0.290,-0.010
1.376,-0.190,-0.010
1.378,-0.090,-0.010
1.380,-0.115,-0.010
1.382,0.035,-0.010
1.384,-0.025,-0.015
1.386,-0.120,-0.015
1.388,-0.355,-0.015
1.390,-0.435,-0.015
1.392,-0.255,-0.010
1.394,-0.285,-0.005
1.396,-0.195,0.000
1.398,-0.130,0.005
1.400,-0.070,0.005
1.402,0.080,0.005
1.404,-0.040,0.000
1.406,-0.155,-0.005
1.408,-0.350,-0.005
1.410,-0.385,-0.010
1.412,-0.240,-0.010
1.414,-0.290,-0.010
1.416,-0.205,-0.010
1.418,-0.050,-0.005
1.420,-0.140,0.000
1.422,0.070,0.005
1.424,-0.015,0.005
1.426,-0.140,0.010
1.428,-0.375,0.010
1.430,-0.355,0.010
1.432,-0.240,0.010
1.434,-0.200,0.010
1.436,-0.215,0.010
1.438,-0.065,0.010
1.440,-0.040,0.010
1.442,0.075,0.015
1.444,-0.055,0.015
1.446,-0.175,0.020
1.448,-0.390,0.025
1.450,-0.290,0.025
1.452,-0.205,0.025
1.454,-0.180,0.025
1.456,-0.170,0.025
1.458,-0.075,0.020
1.460,-0.050,0.020
1.462,0.090,0.015
1.464,-0.060,0.020
1.466,-0.140,0.020
1.468,-0.365,0.025
1.470,-0.300,0.035
1.472,-0.175,0.040
1.474,-0.195,0.050
1.476,-0.105,0.055
1.478,0.035,0.055
1.480,-0.005,0.060
1.482,0.095,0.065
1.484,-0.005,0.065
1.486,-0.085,0.070
1.488,-0.325,0.080
1.490,-0.265,0.085
1.492,-0.155,0.090
1.494,-0.115,0.090
1.496,-0.080,0.090
1.498,0.000,0.090
1.500,0.060,0.090
1.502,0.150,0.085
1.504,-0.015,0.090
1.506,-0.065,0.090
1.508,-0.335,0.095
1.510,-0.190,0.100
1.512,-0.140,0.110
1.514,-0.100,0.115
1.516,-0.045,0.115
1.518,0.040,0.120
1.520,0.130,0.115
1.522,0.150,0.115
1.524,0.020,0.115
1.526,-0.055,0.115
1.528,-0.305,0.120
1.530,-0.185,0.125
1.532,-0.100,0.125
1.534,-0.055,0.125
1.536,-0.055,0.125
1.538,-0.010,0.120
1.540,0.115,0.115
1.542,0.100,0.110
1.544,-0.030,0.105
1.546,-0.120,0.105
1.548,-0.285,0.105
1.550,-0.130,0.110
1.552,-0.140,0.115
1.554,-0.160,0.115
1.556,-0.005,0.110
1.558,-0.005,0.100
1.560,0.095,0.090
1.562,0.090,0.075
1.564,-0.005,0.065
1.566,-0.190,0.055
1.568,-0.410,0.050
1.570,-0.275,0.050
1.572,-0.185,0.050
1.574,-0.125,0.055
1.576,-0.090,0.060
1.578,-0.030,0.055
1.580,0.090,0.055
1.582,0.045,0.045
1.584,-0.030,0.035
1.586,-0.305,0.030
1.588,-0.485,0.020
1.590,-0.235,0.015
1.592,-0.210,0.010
1.594,-0.200,0.010
1.596,-0.120,0.005
1.598,-0.090,0.000
1.600,-0.015,-0.005
1.602,0.010,-0.010
1.604,-0.075,-0.015
1.606,-0.280,-0.020
1.608,-0.480,-0.020
1.610,-0.315,-0.015
1.612,-0.255,-0.010
1.614,-0.190,-0.005
1.616,-0.120,0.000
1.618,-0.100,0.000
1.620,0.045,-0.005
1.622,-0.005,-0.015
1.624,-0.180,-0.025
1.626,-0.325,-0.035
1.628,-0.495,-0.040
1.630,-0.305,-0.045
1.632,-0.235,-0.045
1.634,-0.255,-0.040
1.636,-0.175,-0.030
1.638,-0.085,-0.025
1.640,0.055,-0.015
1.642,0.000,-0.015
1.644,-0.155,-0.010
1.646,-0.350,-0.015
1.648,-0.420,-0.020
1.650,-0.300,-0.025
1.652,-0.270,-0.030
1.654,-0.155,-0.035
1.656,-0.125,-0.040
1.658,-0.220,-0.040
1.660,0.010,-0.045
1.662,-0.060,-0.045
1.664,-0.130,-0.045
1.666,-0.355,-0.040
1.668,-0.485,-0.035
1.670,-0.265,-0.030
1.672,-0.280,-0.020
1.674,-0.230,-0.015
1.676,-0.145,-0.010
1.678,-0.085,-0.010
1.680,0.055,-0.010
1.682,-0.030,-0.015
1.684,-0.180,-0.020
1.686,-0.370,-0.030
1.688,-0.455,-0.035
1.690,-0.280,-0.035
1.692,-0.295,-0.040
1.694,-0.215,-0.040
1.696,-0.110,-0.035
1.698,-0.135,-0.030
1.700,0.015,-0.030
1.702,-0.050,-0.025
1.704,-0.170,-0.025
1.706,-0.330,-0.025
1.708,-0.480,-0.025
1.710,-0.285,-0.030
1.712,-0.300,-0.030
1.714,-0.225,-0.035
1.716,-0.085,-0.035
1.718,-0.110,-0.035
1.720,0.035,-0.030
1.722,-0.050,-0.030
1.724,-0.215,-0.030
1.726,-0.390,-0.025
1.728,-0.385,-0.025
1.730,-0.265,-0.030
1.732,-0.280,-0.030
1.734,-0.170,-0.035
1.736,-0.175,-0.035
1.738,-0.130,-0.040
1.740,0.045,-0.035
1.742,-0.070,-0.035
1.744,-0.185,-0.030
1.746,-0.415,-0.025
1.748,-0.380,-0.020
1.750,-0.285,-0.020
1.752,-0.270,-0.020
1.754,-0.195,-0.025
1.756,-0.055,-0.030
1.758,-0.085,-0.035
1.760,-0.005,-0.040
1.762,-0.110,-0.040
1.764,-0.170,-0.040
1.766,-0.405,-0.035
1.768,-0.410,-0.030
1.770,-0.280,-0.025
1.772,-0.255,-0.025
1.774,-0.170,-0.025
1.776,-0.135,-0.025
1.778,-0.090,-0.030
1.780,0.000,-0.035
1.782,-0.150,-0.040
1.784,-0.165,-0.040
1.786,-0.430,-0.040
1.788,-0.335,-0.040
1.790,-0.260,-0.035
1.792,-0.260,-0.030
1.794,-0.165,-0.030
1.796,-0.140,-0.030
1.798,-0.060,-0.030
1.800,0.030,-0.035
1.802,-0.125,-0.035
1.804,-0.240,-0.040
1.806,-0.440,-0.040
1.808,-0.355,-0.040
1.810,-0.290,-0.040
1.812,-0.290,-0.045
1.814,-0.200,-0.045
1.816,-0.100,-0.050
1.818,-0.040,-0.050
1.820,0.000,-0.055
1.822,-0.135,-0.050
1.824,-0.165,-0.045
1.826,-0.480,-0.040
1.828,-0.395,-0.025
1.830,-0.260,-0.015
1.832,-0.220,-0.010
1.834,-0.160,-0.005
1.836,-0.075,-0.010
1.838,-0.060,-0.020
1.840,-0.010,-0.035
1.842,-0.195,-0.045
1.844,-0.185,-0.055
1.846,-0.425,-0.060
1.848,-0.345,-0.060
1.850,-0.310,-0.050
1.852,-0.255,-0.040
1.854,-0.180,-0.030
1.856,-0.065,-0.020
1.858,0.015,-0.020
1.860,0.000,-0.025
1.862,-0.225,-0.030
1.864,-0.185,-0.040
1.866,-0.470,-0.045
1.868,-0.335,-0.045
1.870,-0.260,-0.040
1.872,-0.225,-0.025
1.874,-0.190,-0.015
1.876,-0.090,-0.005
1.878,0.055,0.000
1.880,0.020,0.000
1.882,-0.150,-0.010
1.884,-0.235,-0.020
1.886,-0.410,-0.030
1.888,-0.315,-0.040
1.890,-0.280,-0.040
1.892,-0.315,-0.040
1.894,-0.115,-0.035
1.896,-0.080,-0.025
1.898,0.025,-0.015
1.900,-0.045,-0.010
1.902,-0.125,-0.005
1.904,-0.295,-0.005
1.906,-0.435,-0.010
1.908,-0.285,-0.010
1.910,-0.200,-0.010
1.912,-0.225,-0.005
1.914,-0.090,0.005
1.916,-0.070,0.015
1.918,0.110,0.030
1.920,0.025,0.035
1.922,-0.120,0.040
1.924,-0.260,0.040
1.926,-0.420,0.035
1.928,-0.265,0.025
1.930,-0.170,0.015
1.932,-0.155,0.010
1.934,-0.110,0.005
1.936,-0.095,0.005
1.938,0.075,0.005
1.940,0.005,0.005
1.942,-0.085,0.005
1.944,-0.295,0.000
1.946,-0.400,-0.010
1.948,-0.325,-0.015
1.950,-0.300,-0.025
1.952,-0.175,-0.035
1.954,-0.180,-0.035
1.956,-0.120,-0.035
1.958,0.060,-0.030
1.960,-0.060,-0.025
1.962,-0.160,-0.025
1.964,-0.340,-0.020
1.966,-0.500,-0.025
1.968,-0.280,-0.030
1.970,-0.240,-0.040
1.972,-0.250,-0.045
1.974,-0.135,-0.050
1.976,-0.115,-0.055
1.978,-0.015,-0.055
1.980,-0.090,-0.055
1.982,-0.150,-0.050
1.984,-0.335,-0.050
1.986,-0.490,-0.050
1.988,-0.325,-0.050
1.990,-0.340,-0.055
1.992,-0.225,-0.060
1.994,-0.145,-0.065
1.996,-0.130,-0.065
1.998,-0.020,-0.065
2.000,-0.050,-0.060
2.002,-0.170,-0.055
2.004,-0.355,-0.050
2.006,-0.500,-0.045
2.008,-0.320,-0.045
2.010,-0.350,-0.050
2.012,-0.230,-0.055
2.014,-0.105,-0.060
2.016,-0.175,-0.070
2.018,0.030,-0.070
2.020,-0.040,-0.070
2.022,-0.175,-0.065
2.024,-0.450,-0.060
2.026,-0.535,-0.050
2.028,-0.300,-0.045
2.030,-0.260,-0.040
2.032,-0.220,-0.045
2.034,-0.145,-0.055
2.036,-0.130,-0.070
2.038,0.035,-0.085
2.040,-0.165,-0.100
2.042,-0.270,-0.115
2.044,-0.470,-0.120
2.046,-0.500,-0.120
2.048,-0.370,-0.110
2.050,-0.345,-0.085
2.052,-0.265,-0.050
2.054,-0.105,0.000
2.056,0.015,0.065
2.058,0.260,0.145
2.060,0.250,0.230
2.062,0.225,0.320
2.064,0.040,0.410
2.066,0.095,0.490
2.068,0.315,0.550
2.070,0.395,0.590
2.072,0.480,0.600
2.074,0.535,0.580
2.076,0.450,0.540
2.078,0.570,0.470
2.080,0.320,0.390
2.082,0.150,0.300
2.084,-0.170,0.210
2.086,-0.265,0.125
2.088,-0.225,0.055
2.090,-0.275,-0.005
2.092,-0.250,-0.055
2.094,-0.145,-0.085
2.096,-0.110,-0.105
2.098,-0.060,-0.110
2.100,-0.205,-0.110
2.102,-0.285,-0.100
2.104,-0.440,-0.090
2.106,-0.370,-0.080
2.108,-0.325,-0.070
2.110,-0.310,-0.060
2.112,-0.210,-0.060
2.114,-0.125,-0.060
2.116,-0.095,-0.060
2.118,-0.065,-0.060
2.120,-0.115,-0.055
2.122,-0.155,-0.050
2.124,-0.455,-0.045
2.126,-0.360,-0.035
2.128,-0.285,-0.030
2.130,-0.255,-0.025
2.132,-0.145,-0.030
2.134,-0.090,-0.030
2.136,-0.025,-0.040
2.138,0.000,-0.045
2.140,-0.195,-0.045
2.142,-0.190,-0.045
2.144,-0.480,-0.035
2.146,-0.260,-0.025
2.148,-0.270,-0.010
2.150,-0.260,0.000
2.152,-0.180,0.005
2.154,-0.065,0.005
2.156,0.030,0.000
2.158,0.025,-0.010
2.160,-0.085,-0.020
2.162,-0.225,-0.030
2.164,-0.475,-0.035
2.166,-0.355,-0.035
2.168,-0.280,-0.030
2.170,-0.225,-0.025
2.172,-0.165,-0.020
2.174,-0.120,-0.015
2.176,0.005,-0.015
2.178,0.005,-0.015
2.180,-0.140,-0.020
2.182,-0.270,-0.025
2.184,-0.405,-0.030
2.186,-0.310,-0.030
2.188,-0.295,-0.025
2.190,-0.225,-0.020
2.192,-0.130,-0.015
2.194,-0.155,-0.010
2.196,0.020,-0.010
2.198,-0.015,-0.010
2.200,-0.125,-0.010
2.202,-0.205,-0.015
2.204,-0.400,-0.015
2.206,-0.305,-0.015
2.208,-0.235,-0.010
2.210,-0.160,-0.005
2.212,-0.165,0.000
2.214,-0.045,0.005
2.216,0.065,0.010
2.218,0.025,0.010
2.220,-0.165,0.010
2.222,-0.240,0.005
2.224,-0.390,0.000
2.226,-0.215,-0.010
2.228,-0.350,-0.015
2.230,-0.225,-0.015
2.232,-0.095,-0.015
2.234,-0.060,-0.010
2.236,0.090,0.000
2.238,0.065,0.010
2.240,-0.105,0.020
2.242,-0.330,0.030
2.244,-0.455,0.035
2.246,-0.215,0.035
2.248,-0.230,0.035
2.250,-0.155,0.030
2.252,-0.045,0.025
2.254,-0.045,0.025
2.256,0.045,0.020
2.258,0.010,0.025
2.260,-0.110,0.030
2.262,-0.275,0.035
2.264,-0.385,0.045
2.266,-0.215,0.050
2.268,-0.220,0.050
2.270,-0.125,0.050
2.272,-0.045,0.045
2.274,-0.075,0.040
2.276,0.075,0.035
2.278,0.050,0.040
2.280,-0.120,0.045
2.282,-0.225,0.060
2.284,-0.325,0.075
2.286,-0.135,0.095
2.288,-0.130,0.110
2.290,-0.085,0.120
2.292,0.010,0.125
2.294,-0.030,0.120
2.296,0.150,0.115
2.298,0.125,0.105
2.300,0.005,0.100
2.302,-0.230,0.095
2.304,-0.345,0.100
2.306,-0.130,0.110
2.308,-0.130,0.120
2.310,-0.040,0.130
2.312,0.005,0.135
2.314,0.070,0.140
2.316,0.225,0.135
2.318,0.085,0.130
2.320,-0.025,0.125
2.322,-0.200,0.115
2.324,-0.275,0.115
2.326,-0.135,0.115
2.328,-0.140,0.115
2.330,-0.020,0.120
2.332,0.035,0.130
2.334,0.050,0.135
2.336,0.180,0.135
2.338,0.100,0.135
2.340,-0.015,0.135
2.342,-0.235,0.130
2.344,-0.185,0.120
2.346,-0.155,0.115
2.348,-0.160,0.110
2.350,-0.065,0.100
2.352,0.010,0.095
2.354,-0.020,0.085
2.356,0.140,0.075
2.358,0.020,0.065
2.360,-0.095,0.055
2.362,-0.330,0.050
2.364,-0.330,0.045
2.366,-0.190,0.045
2.368,-0.170,0.045
2.370,-0.110,0.040
2.372,-0.035,0.040
2.374,-0.040,0.035
2.376,0.080,0.030
2.378,-0.015,0.025
2.380,-0.155,0.015
2.382,-0.375,0.005
2.384,-0.430,0.000
2.386,-0.245,-0.005
2.388,-0.250,-0.010
2.390,-0.170,-0.010
2.392,-0.055,-0.010
2.394,-0.055,-0.010
2.396,0.060,-0.010
2.398,-0.065,-0.015
2.400,-0.150,-0.015
2.402,-0.420,-0.020
2.404,-0.370,-0.025
2.406,-0.255,-0.025
2.408,-0.280,-0.025
2.410,-0.175,-0.025
2.412,-0.110,-0.025
2.414,-0.100,-0.025
2.416,0.070,-0.030
2.418,-0.095,-0.030
2.420,-0.175,-0.035
2.422,-0.460,-0.040
2.424,-0.360,-0.045
2.426,-0.300,-0.045
2.428,-0.270,-0.045
2.430,-0.225,-0.040
2.432,-0.070,-0.040
2.434,-0.065,-0.035
2.436,0.010,-0.030
2.438,-0.145,-0.030
2.440,-0.170,-0.035
2.442,-0.405,-0.040
2.444,-0.400,-0.045
2.446,-0.250,-0.055
2.448,-0.285,-0.060
2.450,-0.220,-0.065
2.452,-0.155,-0.070
2.454,-0.075,-0.065
2.456,-0.035,-0.060
2.458,-0.155,-0.050
2.460,-0.185,-0.040
2.462,-0.380,-0.030
2.464,-0.335,-0.020
2.466,-0.250,-0.015
2.468,-0.240,-0.010
2.470,-0.185,-0.015
2.472,-0.125,-0.020
2.474,-0.060,-0.030
2.476,0.030,-0.040
2.478,-0.120,-0.050
2.480,-0.285,-0.055
2.482,-0.445,-0.055
2.484,-0.360,-0.050
2.486,-0.310,-0.045
2.488,-0.210,-0.035
2.490,-0.150,-0.020
2.492,-0.080,-0.015
2.494,0.060,-0.010
2.496,0.000,-0.015
2.498,-0.160,-0.020
2.500,-0.225,-0.030
2.502,-0.515,-0.040
2.504,-0.335,-0.045
2.506,-0.260,-0.050
2.508,-0.265,-0.050
2.510,-0.120,-0.045
2.512,-0.085,-0.035
2.514,0.000,-0.030
2.516,-0.010,-0.020
2.518,-0.145,-0.015
2.520,-0.265,-0.015
2.522,-0.510,-0.010
2.524,-0.280,-0.010
2.526,-0.240,-0.010
2.528,-0.195,-0.010
2.530,-0.085,-0.010
2.532,-0.140,-0.010
2.534,0.065,-0.010
2.536,0.015,-0.010
2.538,-0.160,-0.015
2.540,-0.310,-0.020
2.542,-0.485,-0.025
2.544,-0.325,-0.035
2.546,-0.250,-0.040
2.548,-0.245,-0.045
2.550,-0.130,-0.050
2.552,-0.105,-0.050
2.554,0.025,-0.050
2.556,-0.025,-0.045
2.558,-0.170,-0.040
2.560,-0.280,-0.030
2.562,-0.510,-0.025
2.564,-0.310,-0.025
2.566,-0.245,-0.020
2.568,-0.170,-0.025
2.570,-0.145,-0.025
2.572,-0.135,-0.030
2.574,0.030,-0.035
2.576,-0.005,-0.040
2.578,-0.195,-0.040
2.580,-0.300,-0.040
2.582,-0.465,-0.040
2.584,-0.295,-0.035
2.586,-0.255,-0.035
2.588,-0.270,-0.030
2.590,-0.175,-0.030
2.592,-0.075,-0.030
2.594,0.020,-0.030
2.596,-0.015,-0.030
2.598,-0.145,-0.025
2.600,-0.320,-0.025
2.602,-0.455,-0.025
2.604,-0.305,-0.025
2.606,-0.265,-0.030
2.608,-0.290,-0.030
2.610,-0.135,-0.035
2.612,-0.130,-0.040
2.614,0.100,-0.045
2.616,-0.025,-0.045
2.618,-0.165,-0.040
2.620,-0.410,-0.040
2.622,-0.470,-0.035
2.624,-0.285,-0.030
2.626,-0.250,-0.025
2.628,-0.235,-0.025
2.630,-0.145,-0.030
2.632,-0.090,-0.035
2.634,-0.015,-0.040
2.636,-0.035,-0.045
2.638,-0.170,-0.045
2.640,-0.325,-0.045
2.642,-0.400,-0.040
2.644,-0.330,-0.035
2.646,-0.300,-0.030
2.648,-0.240,-0.030
2.650,-0.145,-0.030
2.652,-0.110,-0.030
2.654,0.030,-0.035
2.656,-0.095,-0.040
2.658,-0.170,-0.040
2.660,-0.370,-0.035
2.662,-0.390,-0.030
2.664,-0.235,-0.020
2.666,-0.250,-0.010
2.668,-0.200,0.000
2.670,-0.140,0.005
2.672,-0.020,0.010
2.674,0.050,0.010
2.676,-0.050,0.005
2.678,-0.145,0.000
2.680,-0.290,-0.005
2.682,-0.400,-0.005
2.684,-0.265,-0.005
2.686,-0.275,-0.005
2.688,-0.180,0.000
2.690,-0.070,0.005
2.692,-0.025,0.010
2.694,0.105,0.015
2.696,-0.005,0.020
2.698,-0.165,0.020
2.700,-0.350,0.020
2.702,-0.355,0.020
2.704,-0.245,0.015
2.706,-0.205,0.005
2.708,-0.150,0.000
2.710,-0.140,-0.010
2.712,-0.105,-0.020
2.714,0.015,-0.030
2.716,-0.085,-0.035
2.718,-0.205,-0.040
2.720,-0.405,-0.040
2.722,-0.330,-0.035
2.724,-0.355,-0.035
2.726,-0.245,-0.035
2.728,-0.215,-0.035
2.730,-0.120,-0.035
2.732,-0.030,-0.045
2.734,-0.035,-0.050
2.736,-0.160,-0.060
2.738,-0.245,-0.070
2.740,-0.430,-0.075
2.742,-0.390,-0.080
2.744,-0.315,-0.075
2.746,-0.245,-0.070
2.748,-0.215,-0.065
2.750,-0.185,-0.055
2.752,-0.080,-0.045
2.754,-0.010,-0.040
2.756,-0.080,-0.035
2.758,-0.205,-0.030
2.760,-0.435,-0.030
2.762,-0.360,-0.035
2.764,-0.275,-0.040
2.766,-0.255,-0.045
2.768,-0.205,-0.050
2.770,-0.145,-0.060
2.772,-0.070,-0.065
2.774,-0.050,-0.070
2.776,-0.165,-0.070
2.778,-0.215,-0.070
2.780,-0.495,-0.065
2.782,-0.330,-0.060
2.784,-0.265,-0.060
2.786,-0.275,-0.055
2.788,-0.215,-0.055
2.790,-0.140,-0.055
2.792,-0.050,-0.055
2.794,-0.025,-0.060
2.796,-0.170,-0.065
2.798,-0.270,-0.070
2.800,-0.465,-0.080
2.802,-0.385,-0.085
2.804,-0.320,-0.090
2.806,-0.310,-0.095
2.808,-0.235,-0.090
2.810,-0.205,-0.085
2.812,-0.100,-0.065
2.814,-0.030,-0.035
2.816,-0.115,0.005
2.818,-0.125,0.065
2.820,-0.265,0.135
2.822,0.000,0.215
2.824,0.125,0.305
2.826,0.180,0.390
2.828,0.305,0.470
2.830,0.475,0.530
2.832,0.640,0.575
2.834,0.680,0.595
2.836,0.550,0.585
2.838,0.375,0.555
2.840,0.035,0.495
2.842,0.090,0.420
2.844,0.120,0.335
2.846,0.065,0.245
2.848,0.025,0.155
2.850,-0.060,0.080
2.852,0.025,0.020
2.854,-0.005,-0.025
2.856,-0.165,-0.050
2.858,-0.375,-0.070
2.860,-0.490,-0.075
2.862,-0.345,-0.075
2.864,-0.335,-0.080
2.866,-0.315,-0.080
2.868,-0.190,-0.085
2.870,-0.155,-0.090
2.872,-0.050,-0.090
2.874,-0.005,-0.085
2.876,-0.140,-0.075
2.878,-0.390,-0.060
2.880,-0.475,-0.045
2.882,-0.290,-0.030
2.884,-0.275,-0.020
2.886,-0.230,-0.015
2.888,-0.095,-0.015
2.890,-0.090,-0.020
2.892,0.025,-0.030
2.894,0.010,-0.040
2.896,-0.190,-0.045
2.898,-0.305,-0.045
2.900,-0.495,-0.045
2.902,-0.280,-0.040
2.904,-0.295,-0.035
2.906,-0.280,-0.035
2.908,-0.100,-0.035
2.910,-0.100,-0.040
2.912,0.020,-0.045
2.914,-0.030,-0.045
2.916,-0.175,-0.045
2.918,-0.350,-0.040
2.920,-0.460,-0.035
2.922,-0.265,-0.025
2.924,-0.275,-0.020
2.926,-0.205,-0.020
2.928,-0.135,-0.020
2.930,-0.100,-0.025
2.932,0.040,-0.035
2.934,-0.060,-0.045
2.936,-0.210,-0.050
2.938,-0.370,-0.055
2.940,-0.460,-0.055
2.942,-0.255,-0.045
2.944,-0.240,-0.040
2.946,-0.235,-0.030
2.948,-0.090,-0.020
2.950,-0.145,-0.010
2.952,0.050,-0.005
2.954,0.020,-0.005
2.956,-0.140,-0.005
2.958,-0.340,-0.005
2.960,-0.440,-0.010
2.962,-0.235,-0.010
2.964,-0.240,-0.015
2.966,-0.200,-0.020
2.968,-0.155,-0.020
2.970,-0.140,-0.025
2.972,0.055,-0.030
2.974,-0.045,-0.030
2.976,-0.165,-0.030
2.978,-0.315,-0.025
2.980,-0.440,-0.020
2.982,-0.285,-0.010
2.984,-0.235,-0.005
2.986,-0.140,0.000
2.988,-0.110,0.000
2.990,-0.020,-0.005
2.992,0.065,-0.005
2.994,-0.030,-0.010
2.996,-0.170,-0.015
2.998,-0.355,-0.015
3.000,-0.365,-0.015
3.002,-0.305,-0.015
3.004,-0.270,-0.010
3.006,-0.120,-0.005
3.008,-0.075,0.000
3.010,-0.090,0.005
3.012,0.085,0.005
3.014,-0.020,0.010
3.016,-0.065,0.015
3.018,-0.320,0.020
3.020,-0.330,0.025
3.022,-0.230,0.030
3.024,-0.220,0.030
3.026,-0.145,0.030
3.028,-0.030,0.030
3.030,-0.025,0.030
3.032,0.145,0.030
3.034,-0.025,0.030
3.036,-0.095,0.035
3.038,-0.325,0.040
3.040,-0.290,0.045
3.042,-0.185,0.055
3.044,-0.170,0.065
3.046,-0.125,0.070
3.048,0.030,0.075
3.050,0.055,0.080
3.052,0.165,0.080
3.054,0.050,0.085
3.056,-0.090,0.090
3.058,-0.400,0.090
3.060,-0.155,0.095
3.062,-0.085,0.100
3.064,-0.130,0.100
3.066,-0.075,0.100
3.068,0.005,0.100
3.070,0.115,0.095
3.072,0.165,0.090
3.074,0.005,0.090
3.076,-0.105,0.090
3.078,-0.295,0.090
3.080,-0.195,0.095
3.082,-0.125,0.100
3.084,-0.075,0.110
3.086,-0.095,0.115
3.088,0.080,0.115
3.090,0.155,0.120
3.092,0.145,0.120
3.094,0.025,0.120
3.096,-0.020,0.115
3.098,-0.270,0.115
3.100,-0.195,0.115
3.102,-0.115,0.110
3.104,-0.060,0.110
3.106,-0.080,0.105
3.108,0.040,0.100
3.110,0.150,0.095
3.112,0.090,0.090
3.114,0.000,0.085
3.116,-0.080,0.085
3.118,-0.290,0.085
3.120,-0.190,0.085
3.122,-0.145,0.085
3.124,-0.100,0.080
3.126,-0.090,0.070
3.128,-0.030,0.060
3.130,0.085,0.045
3.132,0.020,0.030
3.134,-0.065,0.015
3.136,-0.220,0.005
3.138,-0.410,0.000
3.140,-0.255,-0.005
3.142,-0.240,-0.010
3.144,-0.220,-0.010
3.146,-0.115,-0.010
3.148,-0.110,-0.010
3.150,0.070,-0.010
3.152,-0.010,-0.015
3.154,-0.115,-0.015
3.156,-0.235,-0.020
3.158,-0.430,-0.025
3.160,-0.295,-0.025
3.162,-0.250,-0.025
3.164,-0.245,-0.030
3.166,-0.145,-0.030
3.168,-0.110,-0.030
3.170,0.075,-0.035
3.172,-0.030,-0.035
3.174,-0.125,-0.040
3.176,-0.335,-0.040
3.178,-0.485,-0.045
3.180,-0.305,-0.045
3.182,-0.265,-0.045
3.184,-0.225,-0.045
3.186,-0.145,-0.045
3.188,-0.135,-0.045
3.190,0.005,-0.050
3.192,-0.030,-0.055
3.194,-0.100,-0.055
3.196,-0.295,-0.060
3.198,-0.475,-0.060
3.200,-0.350,-0.060
3.202,-0.295,-0.060
3.204,-0.180,-0.060
3.206,-0.120,-0.060
3.208,-0.125,-0.060
3.210,-0.030,-0.060
3.212,0.000,-0.060
3.214,-0.145,-0.060
3.216,-0.350,-0.065
3.218,-0.510,-0.065
3.220,-0.315,-0.065
3.222,-0.250,-0.065
3.224,-0.235,-0.065
3.226,-0.190,-0.065
3.228,-0.105,-0.065
3.230,0.080,-0.065
3.232,-0.035,-0.060
3.234,-0.095,-0.055
3.236,-0.385,-0.050
3.238,-0.490,-0.045
3.240,-0.305,-0.045
3.242,-0.280,-0.040
3.244,-0.210,-0.045
3.246,-0.130,-0.050
3.248,-0.110,-0.055
3.250,0.025,-0.060
3.252,0.010,-0.065
3.254,-0.190,-0.070
3.256,-0.315,-0.070
3.258,-0.505,-0.065
3.260,-0.320,-0.060
3.262,-0.300,-0.055
3.264,-0.200,-0.050
3.266,-0.100,-0.050
3.268,-0.115,-0.050
3.270,0.040,-0.050
3.272,-0.035,-0.055
3.274,-0.145,-0.055
3.276,-0.360,-0.055
3.278,-0.455,-0.050
3.280,-0.235,-0.045
3.282,-0.285,-0.040
3.284,-0.160,-0.035
3.286,-0.100,-0.040
3.288,-0.110,-0.040
3.290,0.045,-0.050
3.292,-0.035,-0.055
3.294,-0.160,-0.065
3.296,-0.455,-0.070
3.298,-0.435,-0.075
3.300,-0.285,-0.080
3.302,-0.275,-0.075
3.304,-0.170,-0.070
3.306,-0.135,-0.070
3.308,-0.105,-0.065
3.310,-0.010,-0.060
3.312,-0.075,-0.055
3.314,-0.180,-0.055
3.316,-0.385,-0.055
3.318,-0.400,-0.055
3.320,-0.240,-0.055
3.322,-0.240,-0.055
3.324,-0.205,-0.055
3.326,-0.085,-0.055
3.328,-0.100,-0.055
3.330,0.040,-0.060
3.332,-0.105,-0.060
3.334,-0.145,-0.065
3.336,-0.410,-0.070
3.338,-0.375,-0.070
3.340,-0.270,-0.070
3.342,-0.295,-0.070
3.344,-0.210,-0.065
3.346,-0.100,-0.065
3.348,-0.075,-0.060
3.350,0.045,-0.055
3.352,-0.105,-0.055
3.354,-0.205,-0.055
3.356,-0.370,-0.060
3.358,-0.375,-0.070
3.360,-0.315,-0.075
3.362,-0.250,-0.085
3.364,-0.235,-0.095
3.366,-0.125,-0.100
3.368,-0.065,-0.095
3.370,0.015,-0.090
3.372,-0.155,-0.085
3.374,-0.190,-0.075
3.376,-0.425,-0.060
3.378,-0.290,-0.055
3.380,-0.235,-0.050
3.382,-0.255,-0.050
3.384,-0.220,-0.055
3.386,-0.105,-0.065
3.388,-0.070,-0.070
3.390,-0.015,-0.080
3.392,-0.070,-0.080
3.394,-0.170,-0.080
3.396,-0.380,-0.075
3.398,-0.390,-0.065
3.400,-0.320,-0.055
3.402,-0.210,-0.040
3.404,-0.125,-0.030
3.406,-0.075,-0.025
3.408,0.050,-0.020
3.410,0.075,-0.015
3.412,-0.080,-0.010
3.414,-0.115,-0.010
3.416,-0.350,-0.010
3.418,-0.265,-0.010
3.420,-0.210,-0.015
3.422,-0.205,-0.020
3.424,-0.180,-0.025
3.426,-0.115,-0.030
3.428,0.040,-0.035
3.430,0.050,-0.040
3.432,-0.065,-0.040
3.434,-0.195,-0.035
3.436,-0.430,-0.025
3.438,-0.225,-0.015
3.440,-0.230,-0.010
3.442,-0.150,0.000
3.444,-0.140,0.000
3.446,-0.085,-0.005
3.448,0.085,-0.015
3.450,0.065,-0.030
3.452,-0.125,-0.045
3.454,-0.225,-0.055
3.456,-0.445,-0.060
3.458,-0.335,-0.065
3.460,-0.225,-0.065
3.462,-0.255,-0.060
3.464,-0.090,-0.055
3.466,-0.080,-0.055
3.468,0.030,-0.055
3.470,-0.005,-0.060
3.472,-0.145,-0.070
3.474,-0.225,-0.075
3.476,-0.500,-0.085
3.478,-0.335,-0.090
3.480,-0.245,-0.090
3.482,-0.230,-0.085
3.484,-0.120,-0.080
3.486,-0.135,-0.070
3.488,0.050,-0.065
3.490,0.055,-0.055
3.492,-0.140,-0.055
3.494,-0.300,-0.055
3.496,-0.430,-0.060
3.498,-0.305,-0.070
3.500,-0.240,-0.075
3.502,-0.250,-0.080
3.504,-0.095,-0.080
3.506,-0.080,-0.075
3.508,0.065,-0.065
3.510,0.000,-0.055
3.512,-0.160,-0.050
3.514,-0.320,-0.040
3.516,-0.435,-0.040
3.518,-0.235,-0.045
3.520,-0.250,-0.050
3.522,-0.225,-0.060
3.524,-0.065,-0.065
3.526,-0.035,-0.070
3.528,0.020,-0.065
3.530,-0.005,-0.060
3.532,-0.065,-0.050
3.534,-0.255,-0.045
3.536,-0.365,-0.040
3.538,-0.260,-0.045
3.540,-0.295,-0.060
3.542,-0.220,-0.080
3.544,-0.190,-0.105
3.546,-0.150,-0.125
3.548,-0.035,-0.135
3.550,-0.055,-0.135
3.552,-0.165,-0.110
3.554,-0.350,-0.070
3.556,-0.370,-0.015
3.558,-0.100,0.050
3.560,-0.085,0.120
3.562,0.080,0.195
3.564,0.235,0.265
3.566,0.305,0.325
3.568,0.505,0.375
3.570,0.460,0.410
3.572,0.445,0.435
3.574,0.260,0.445
3.576,0.095,0.440
3.578,0.225,0.420
3.580,0.140,0.385
3.582,0.230,0.335
3.584,0.230,0.270
3.586,0.195,0.205
3.588,0.225,0.135
3.590,0.075,0.070
3.592,-0.085,0.015
3.594,-0.260,-0.030
3.596,-0.405,-0.065
3.598,-0.265,-0.090
3.600,-0.340,-0.105
3.602,-0.215,-0.110
3.604,-0.145,-0.115
3.606,-0.120,-0.110
3.608,0.025,-0.105
3.610,-0.025,-0.090
3.612,-0.200,-0.075
3.614,-0.340,-0.060
3.616,-0.360,-0.040
3.618,-0.150,-0.025
3.620,-0.155,-0.010
3.622,-0.150,-0.005
3.624,-0.040,-0.005
3.626,-0.010,-0.010
3.628,0.075,-0.020
3.630,0.025,-0.025
3.632,-0.100,-0.035
3.634,-0.345,-0.035
3.636,-0.290,-0.035
3.638,-0.185,-0.030
3.640,-0.170,-0.025
3.642,-0.175,-0.025
3.644,-0.080,-0.025
3.646,-0.035,-0.030
3.648,0.125,-0.040
3.650,-0.040,-0.045
3.652,-0.090,-0.055
3.654,-0.330,-0.055
3.656,-0.290,-0.055
3.658,-0.240,-0.045
3.660,-0.165,-0.030
3.662,-0.085,-0.015
3.664,0.010,0.000
3.666,0.005,0.010
3.668,0.115,0.015
3.670,0.040,0.010
3.672,-0.045,0.005
3.674,-0.305,-0.005
3.676,-0.295,-0.015
3.678,-0.195,-0.015
3.680,-0.175,-0.015
3.682,-0.125,-0.015
3.684,0.050,-0.005
3.686,0.070,0.000
3.688,0.160,0.010
3.690,-0.035,0.010
3.692,-0.060,0.015
3.694,-0.305,0.015
3.696,-0.195,0.010
3.698,-0.185,0.010
3.700,-0.135,0.010
3.702,-0.055,0.010
3.704,0.005,0.015
3.706,0.085,0.020
3.708,0.175,0.020
3.710,0.045,0.025
3.712,-0.065,0.025
3.714,-0.305,0.030
3.716,-0.180,0.030
3.718,-0.165,0.030
3.720,-0.125,0.030
3.722,-0.045,0.030
3.724,0.010,0.030
3.726,0.140,0.035
3.728,0.215,0.040
3.730,0.050,0.040
3.732,-0.060,0.045
3.734,-0.300,0.050
3.736,-0.170,0.055
3.738,-0.095,0.055
3.740,-0.070,0.060
3.742,0.000,0.055
3.744,0.035,0.055
3.746,0.090,0.050
3.748,0.220,0.045
3.750,0.080,0.045
3.752,0.025,0.045
3.754,-0.300,0.050
3.756,-0.175,0.060
3.758,-0.085,0.070
3.760,-0.085,0.080
3.762,0.060,0.085
3.764,0.115,0.085
3.766,0.210,0.085
3.768,0.250,0.080
3.770,0.060,0.075
3.772,-0.080,0.070
3.774,-0.285,0.070
3.776,-0.115,0.075
3.778,-0.050,0.080
3.780,0.000,0.090
3.782,0.045,0.105
3.784,0.015,0.115
3.786,0.305,0.125
3.788,0.255,0.135
3.790,0.130,0.135
3.792,0.020,0.140
3.794,-0.175,0.140
3.796,-0.090,0.135
3.798,-0.025,0.140
3.800,0.045,0.140
3.802,0.145,0.140
3.804,0.170,0.145
3.806,0.335,0.145
3.808,0.265,0.150
3.810,0.065,0.145
3.812,-0.010,0.145
3.814,-0.220,0.140
3.816,-0.015,0.140
3.818,0.040,0.135
3.820,0.075,0.135
3.822,0.125,0.140
3.824,0.105,0.140
3.826,0.295,0.145
3.828,0.240,0.145
3.830,0.100,0.150
3.832,-0.045,0.150
3.834,-0.235,0.145
3.836,0.030,0.145
3.838,0.040,0.140
3.840,0.045,0.135
3.842,0.170,0.130
3.844,0.115,0.125
3.846,0.270,0.120
3.848,0.240,0.115
3.850,0.070,0.115
3.852,-0.080,0.115
3.854,-0.175,0.115
3.856,-0.065,0.110
3.858,-0.010,0.110
3.860,0.015,0.110
3.862,0.090,0.105
3.864,0.140,0.095
3.866,0.245,0.085
3.868,0.170,0.075
3.870,0.085,0.060
3.872,-0.155,0.050
3.874,-0.270,0.040
3.876,-0.155,0.030
3.878,-0.150,0.020
3.880,-0.040,0.015
3.882,0.030,0.015
3.884,0.060,0.015
3.886,0.230,0.015
3.888,0.080,0.015
3.890,-0.045,0.020
3.892,-0.155,0.020
3.894,-0.385,0.020
3.896,-0.130,0.015
3.898,-0.080,0.015
3.900,-0.060,0.010
3.902,0.025,0.005
3.904,0.040,0.000
3.906,0.175,-0.005
3.908,0.055,-0.005
3.910,-0.030,-0.010
3.912,-0.190,-0.010
3.914,-0.320,-0.010
3.916,-0.145,-0.010
3.918,-0.140,-0.015
3.920,-0.100,-0.020
3.922,0.010,-0.025
3.924,0.000,-0.030
3.926,0.135,-0.035
3.928,0.095,-0.035
3.930,-0.070,-0.030
3.932,-0.265,-0.025
3.934,-0.270,-0.015
3.936,-0.165,-0.005
3.938,-0.120,0.000
3.940,-0.055,0.005
3.942,0.015,0.000
3.944,0.030,-0.005
3.946,0.190,-0.020
3.948,0.020,-0.030
3.950,-0.035,-0.040
3.952,-0.245,-0.040
3.954,-0.290,-0.040
3.956,-0.175,-0.035
3.958,-0.135,-0.025
3.960,-0.080,-0.015
3.962,0.040,-0.005
3.964,0.060,0.000
3.966,0.185,0.000
3.968,0.040,-0.010
3.970,-0.045,-0.015
3.972,-0.280,-0.025
3.974,-0.300,-0.035
3.976,-0.130,-0.040
3.978,-0.070,-0.040
3.980,-0.065,-0.040
3.982,0.020,-0.035
3.984,-0.005,-0.030
3.986,0.155,-0.030
3.988,-0.005,-0.030
3.990,-0.085,-0.030
3.992,-0.275,-0.035
3.994,-0.205,-0.035
3.996,-0.140,-0.035
3.998,-0.080,-0.030
4.000,-0.090,-0.030
4.002,0.010,-0.025
4.004,0.045,-0.020
4.006,0.100,-0.020
4.008,0.035,-0.020
4.010,-0.055,-0.025
4.012,-0.315,-0.030
4.014,-0.180,-0.035
4.016,-0.135,-0.040
4.018,-0.160,-0.040
4.020,-0.080,-0.035
4.022,0.050,-0.030
4.024,0.100,-0.025
4.026,0.125,-0.015
4.028,0.055,-0.015
4.030,-0.045,-0.010
4.032,-0.320,-0.015
4.034,-0.215,-0.015
4.036,-0.125,-0.020
4.038,-0.100,-0.025
4.040,-0.060,-0.030
4.042,0.025,-0.035
4.044,0.095,-0.035
4.046,0.160,-0.035
4.048,0.025,-0.030
4.050,-0.060,-0.035
4.052,-0.290,-0.035
4.054,-0.230,-0.035
4.056,-0.185,-0.040
4.058,-0.115,-0.040
4.060,-0.110,-0.040
4.062,0.045,-0.035
4.064,0.165,-0.025
4.066,0.130,-0.020
4.068,0.030,-0.010
4.070,-0.085,-0.005
4.072,-0.300,0.000
4.074,-0.185,-0.005
4.076,-0.160,-0.015
4.078,-0.120,-0.025
4.080,-0.050,-0.040
4.082,-0.010,-0.050
4.084,0.115,-0.060
4.086,0.130,-0.060
4.088,-0.010,-0.055
4.090,-0.145,-0.045
4.092,-0.335,-0.030
4.094,-0.210,-0.020
4.096,-0.115,-0.015
4.098,-0.070,-0.015
4.100,0.050,-0.025
4.102,-0.015,-0.035
4.104,0.145,-0.045
4.106,0.140,-0.055
4.108,-0.065,-0.060
4.110,-0.160,-0.055
4.112,-0.320,-0.050
4.114,-0.155,-0.040
4.116,-0.135,-0.025
4.118,-0.115,-0.015
4.120,0.020,-0.010
4.122,0.020,-0.010
4.124,0.215,-0.010
4.126,0.145,-0.010
4.128,0.005,-0.015
4.130,-0.155,-0.015
4.132,-0.320,-0.010
4.134,-0.145,-0.010
4.136,-0.100,-0.005
4.138,-0.110,-0.005
4.140,0.020,-0.005
4.142,0.070,-0.010
4.144,0.200,-0.020
4.146,0.110,-0.025
4.148,0.030,-0.030
4.150,-0.210,-0.030
4.152,-0.310,-0.030
4.154,-0.090,-0.020
4.156,-0.160,-0.015
4.158,-0.105,-0.005
4.160,0.070,0.005
4.162,0.080,0.010
4.164,0.210,0.010
4.166,0.180,0.005
4.168,0.015,0.000
4.170,-0.205,-0.015
4.172,-0.305,-0.025
4.174,-0.210,-0.035
4.176,-0.175,-0.050
4.178,-0.065,-0.055
4.180,0.015,-0.065
4.182,-0.005,-0.065
4.184,0.120,-0.070
4.186,0.065,-0.065
4.188,-0.080,-0.065
4.190,-0.190,-0.065
4.192,-0.365,-0.060
4.194,-0.175,-0.060
4.196,-0.150,-0.065
4.198,-0.140,-0.065
4.200,-0.010,-0.070
4.202,-0.010,-0.075
4.204,0.175,-0.080
4.206,-0.005,-0.085
4.208,-0.040,-0.090
4.210,-0.240,-0.090
4.212,-0.410,-0.085
4.214,-0.210,-0.085
4.216,-0.190,-0.085
4.218,-0.065,-0.080
4.220,-0.055,-0.085
4.222,-0.045,-0.085
4.224,0.120,-0.085
4.226,0.075,-0.085
4.228,-0.095,-0.085
4.230,-0.300,-0.085
4.232,-0.360,-0.080
4.234,-0.105,-0.075
4.236,-0.175,-0.070
4.238,-0.125,-0.065
4.240,0.005,-0.065
4.242,0.010,-0.065
4.244,0.135,-0.070
4.246,0.040,-0.075
4.248,-0.115,-0.085
4.250,-0.310,-0.090
4.252,-0.280,-0.095
4.254,-0.175,-0.095
4.256,-0.220,-0.100
4.258,-0.100,-0.095
4.260,-0.085,-0.095
4.262,-0.020,-0.095
4.264,0.115,-0.095
4.266,0.015,-0.100
4.268,-0.110,-0.110
4.270,-0.330,-0.115
4.272,-0.345,-0.120
4.274,-0.240,-0.115
4.276,-0.245,-0.100
4.278,-0.095,-0.070
4.280,0.045,-0.025
4.282,0.185,0.040
4.284,0.380,0.120
4.286,0.370,0.205
4.288,0.295,0.290
4.290,0.140,0.365
4.292,0.215,0.425
4.294,0.340,0.460
4.296,0.385,0.470
4.298,0.400,0.455
4.300,0.510,0.415
4.302,0.500,0.360
4.304,0.560,0.295
4.306,0.260,0.225
4.308,0.145,0.160
4.310,-0.160,0.105
4.312,-0.130,0.050
4.314,-0.125,0.010
4.316,-0.150,-0.030
4.318,-0.105,-0.060
4.320,-0.015,-0.085
4.322,0.015,-0.110
4.324,0.020,-0.125
4.326,-0.045,-0.130
4.328,-0.110,-0.135
4.330,-0.405,-0.130
4.332,-0.270,-0.120
4.334,-0.200,-0.105
4.336,-0.170,-0.095
4.338,-0.145,-0.085
4.340,-0.015,-0.080
4.342,0.060,-0.080
4.344,0.150,-0.080
4.346,0.000,-0.085
4.348,-0.070,-0.090
4.350,-0.315,-0.090
4.352,-0.330,-0.090
4.354,-0.200,-0.085
4.356,-0.125,-0.080
4.358,-0.090,-0.075
4.360,0.050,-0.070
4.362,0.055,-0.070
4.364,0.080,-0.070
4.366,-0.005,-0.070
4.368,-0.055,-0.070
4.370,-0.345,-0.070
4.372,-0.215,-0.065
4.374,-0.185,-0.065
4.376,-0.150,-0.060
4.378,-0.020,-0.055
4.380,-0.015,-0.055
4.382,0.125,-0.055
4.384,0.150,-0.055
4.386,-0.030,-0.060
4.388,-0.070,-0.060
4.390,-0.365,-0.065
4.392,-0.185,-0.065
4.394,-0.155,-0.060
4.396,-0.180,-0.055
4.398,-0.050,-0.050
4.400,0.030,-0.050
4.402,0.160,-0.045
4.404,0.090,-0.045
4.406,-0.015,-0.045
4.408,-0.110,-0.050
4.410,-0.280,-0.050
4.412,-0.245,-0.050
4.414,-0.160,-0.050
4.416,-0.095,-0.050
4.418,0.020,-0.050
4.420,-0.020,-0.050
4.422,0.140,-0.050
4.424,0.080,-0.045
4.426,0.005,-0.045
4.428,-0.145,-0.045
4.430,-0.330,-0.045
4.432,-0.210,-0.040
4.434,-0.125,-0.035
4.436,-0.070,-0.030
4.438,0.055,-0.030
4.440,0.000,-0.025
4.442,0.150,-0.025
4.444,0.115,-0.030
4.446,0.010,-0.040
4.448,-0.250,-0.045
4.450,-0.320,-0.050
4.452,-0.150,-0.055
4.454,-0.190,-0.055
4.456,-0.110,-0.050
4.458,-0.005,-0.040
4.460,0.055,-0.030
4.462,0.185,-0.020
4.464,0.110,-0.005
4.466,-0.010,0.000
4.468,-0.145,0.010
4.470,-0.275,0.010
4.472,-0.170,0.005
4.474,-0.130,0.005
4.476,-0.030,-0.005
4.478,0.035,-0.010
4.480,0.065,-0.010
4.482,0.170,-0.010
4.484,0.100,-0.010
4.486,0.035,-0.005
4.488,-0.160,0.005
4.490,-0.325,0.010
4.492,-0.075,0.015
4.494,-0.100,0.020
4.496,-0.055,0.020
4.498,0.055,0.020
4.500,0.110,0.020
4.502,0.220,0.020
4.504,0.145,0.025
4.506,0.060,0.030
4.508,-0.140,0.035
4.510,-0.265,0.045
4.512,-0.080,0.050
4.514,-0.065,0.055
4.516,0.015,0.060
4.518,0.035,0.060
4.520,0.115,0.060
4.522,0.255,0.055
4.524,0.200,0.055
4.526,0.050,0.060
4.528,-0.130,0.060
4.530,-0.260,0.070
4.532,-0.055,0.075
4.534,-0.015,0.080
4.536,0.040,0.085
4.538,0.080,0.085
4.540,0.105,0.085
4.542,0.290,0.085
4.544,0.210,0.085
4.546,0.075,0.085
4.548,-0.115,0.085
4.550,-0.225,0.090
4.552,-0.020,0.095
4.554,-0.035,0.095
4.556,0.055,0.095
4.558,0.100,0.090
4.560,0.100,0.080
4.562,0.275,0.070
4.564,0.165,0.060
4.566,0.035,0.055
4.568,-0.175,0.050
4.570,-0.200,0.050
4.572,-0.060,0.050
4.574,-0.060,0.055
4.576,0.010,0.060
4.578,0.125,0.060
4.580,0.040,0.060
4.582,0.280,0.050
4.584,0.130,0.045
4.586,0.025,0.035
4.588,-0.235,0.025
4.590,-0.225,0.015
4.592,-0.110,0.005
4.594,-0.130,0.000
4.596,-0.035,-0.005
4.598,0.065,-0.015
4.600,0.030,-0.020
4.602,0.125,-0.025
4.604,0.020,-0.030
4.606,-0.020,-0.035
4.608,-0.340,-0.035
4.610,-0.215,-0.035
4.612,-0.135,-0.040
4.614,-0.170,-0.040
4.616,-0.090,-0.040
4.618,-0.010,-0.040
4.620,0.055,-0.045
4.622,0.145,-0.040
4.624,0.035,-0.040
4.626,-0.115,-0.040
4.628,-0.320,-0.035
4.630,-0.255,-0.030
4.632,-0.150,-0.030
4.634,-0.130,-0.030
4.636,-0.105,-0.035
4.638,-0.050,-0.040
4.640,0.065,-0.050
4.642,0.155,-0.050
4.644,-0.030,-0.055
4.646,-0.070,-0.055
4.648,-0.305,-0.050
4.650,-0.275,-0.040
4.652,-0.170,-0.035
4.654,-0.135,-0.030
4.656,-0.125,-0.030
4.658,0.010,-0.035
4.660,0.060,-0.045
4.662,0.110,-0.050
4.664,-0.050,-0.055
4.666,-0.085,-0.055
4.668,-0.320,-0.050
4.670,-0.235,-0.035
4.672,-0.140,-0.020
4.674,-0.105,-0.010
4.676,-0.105,-0.005
4.678,-0.030,-0.005
4.680,0.105,-0.015
4.682,0.120,-0.030
4.684,-0.035,-0.050
4.686,-0.150,-0.065
4.688,-0.365,-0.075
4.690,-0.310,-0.080
4.692,-0.225,-0.070
4.694,-0.120,-0.060
4.696,-0.050,-0.040
4.698,-0.015,-0.025
4.700,0.115,-0.010
4.702,0.070,-0.005
4.704,-0.025,-0.005
4.706,-0.070,-0.010
4.708,-0.375,-0.020
4.710,-0.180,-0.030
4.712,-0.190,-0.035
4.714,-0.140,-0.040
4.716,-0.020,-0.040
4.718,-0.050,-0.035
4.720,0.055,-0.030
4.722,0.110,-0.025
4.724,-0.020,-0.020
4.726,-0.140,-0.020
4.728,-0.370,-0.015
4.730,-0.200,-0.015
4.732,-0.185,-0.015
4.734,-0.165,-0.020
4.736,0.015,-0.020
4.738,0.030,-0.020
4.740,0.095,-0.025
4.742,0.020,-0.025
4.744,-0.045,-0.030
4.746,-0.220,-0.030
4.748,-0.350,-0.030
4.750,-0.210,-0.035
4.752,-0.190,-0.035
4.754,-0.170,-0.035
4.756,-0.070,-0.040
4.758,0.015,-0.040
4.760,0.085,-0.040
4.762,0.105,-0.040
4.764,-0.090,-0.040
4.766,-0.230,-0.040
4.768,-0.375,-0.035
4.770,-0.215,-0.030
4.772,-0.175,-0.020
4.774,-0.155,-0.015
4.776,-0.010,-0.010
4.778,0.065,-0.010
4.780,0.095,-0.005
4.782,0.070,-0.005
4.784,-0.035,-0.010
4.786,-0.220,-0.010
4.788,-0.405,-0.015
4.790,-0.180,-0.015
4.792,-0.170,-0.020
4.794,-0.185,-0.025
4.796,-0.030,-0.030
4.798,0.020,-0.030
4.800,0.105,-0.030
4.802,0.040,-0.030
4.804,-0.090,-0.030
4.806,-0.250,-0.025
4.808,-0.370,-0.025
4.810,-0.230,-0.025
4.812,-0.225,-0.025
4.814,-0.150,-0.030
4.816,-0.085,-0.030
4.818,0.005,-0.035
4.820,0.105,-0.040
4.822,0.025,-0.040
4.824,-0.105,-0.035
4.826,-0.210,-0.030
4.828,-0.360,-0.025
4.830,-0.265,-0.015
4.832,-0.175,-0.010
4.834,-0.095,-0.010
4.836,0.040,-0.010
4.838,-0.010,-0.010
4.840,0.100,-0.015
4.842,0.005,-0.020
4.844,-0.055,-0.020
4.846,-0.260,-0.025
4.848,-0.415,-0.025
4.850,-0.175,-0.025
4.852,-0.225,-0.025
4.854,-0.180,-0.025
4.856,-0.045,-0.025
4.858,0.035,-0.020
4.860,0.100,-0.010
4.862,0.040,0.000
4.864,-0.050,0.015
4.866,-0.175,0.030
4.868,-0.325,0.045
4.870,-0.125,0.060
4.872,-0.140,0.065
4.874,-0.080,0.065
4.876,0.005,0.055
4.878,-0.015,0.045
4.880,0.180,0.030
4.882,0.120,0.020
4.884,-0.065,0.015
4.886,-0.260,0.010
4.888,-0.345,0.015
4.890,-0.160,0.020
4.892,-0.175,0.025
4.894,-0.065,0.025
4.896,-0.015,0.025
4.898,-0.025,0.020
4.900,0.120,0.015
4.902,0.035,0.015
4.904,0.005,0.015
4.906,-0.285,0.015
4.908,-0.255,0.020
4.910,-0.165,0.025
4.912,-0.205,0.030
4.914,-0.125,0.030
4.916,-0.040,0.020
4.918,0.005,0.010
4.920,0.105,-0.005
4.922,-0.015,-0.020
4.924,-0.140,-0.035
4.926,-0.415,-0.040
4.928,-0.275,-0.040
4.930,-0.200,-0.035
4.932,-0.225,-0.020
4.934,-0.135,-0.010
4.936,-0.050,0.000
4.938,-0.040,0.005
4.940,0.120,0.000
4.942,-0.030,-0.005
4.944,-0.115,-0.010
4.946,-0.400,-0.020
4.948,-0.275,-0.025
4.950,-0.215,-0.030
4.952,-0.230,-0.025
4.954,-0.125,-0.025
4.956,-0.075,-0.020
4.958,0.040,-0.015
4.960,0.060,-0.010
4.962,-0.065,-0.010
4.964,-0.120,-0.010
4.966,-0.335,-0.010
4.968,-0.285,-0.015
4.970,-0.210,-0.015
4.972,-0.210,-0.020
4.974,-0.195,-0.025
4.976,-0.080,-0.025
4.978,-0.030,-0.030
4.980,0.030,-0.030
4.982,-0.065,-0.030
4.984,-0.115,-0.030
4.986,-0.380,-0.025
4.988,-0.285,-0.015
4.990,-0.245,-0.010
4.992,-0.210,-0.005
4.994,-0.105,-0.005
4.996,-0.040,-0.010
4.998,-0.015,-0.020
5.000,-0.025,-0.035
5.002,-0.155,-0.050
5.004,-0.250,-0.060
5.006,-0.500,-0.065
5.008,-0.300,-0.055
5.010,-0.240,-0.025
5.012,-0.150,0.015
5.014,-0.015,0.075
5.016,0.155,0.150
5.018,0.340,0.235
5.020,0.355,0.320
5.022,0.300,0.400
5.024,0.250,0.470
5.026,0.175,0.525
5.028,0.340,0.560
5.030,0.370,0.570
5.032,0.395,0.560
5.034,0.475,0.530
5.036,0.385,0.480
5.038,0.470,0.415
5.040,0.380,0.345
5.042,0.125,0.275
5.044,-0.075,0.205
5.046,-0.285,0.145
5.048,-0.165,0.090
5.050,-0.190,0.050
5.052,-0.185,0.020
5.054,-0.135,0.000
5.056,-0.045,-0.010
5.058,0.035,-0.020
5.060,-0.055,-0.020
5.062,-0.135,-0.020
5.064,-0.260,-0.020
5.066,-0.460,-0.020
5.068,-0.325,-0.015
5.070,-0.265,-0.010
5.072,-0.115,-0.005
5.074,-0.080,0.000
5.076,-0.060,0.005
5.078,0.060,0.015
5.080,0.015,0.025
5.082,-0.080,0.035
5.084,-0.270,0.045
5.086,-0.430,0.050
5.088,-0.205,0.055
5.090,-0.170,0.060
5.092,-0.145,0.055
5.094,-0.100,0.050
5.096,-0.015,0.045
5.098,0.085,0.040
5.100,0.020,0.035
5.102,-0.125,0.035
5.104,-0.195,0.035
5.106,-0.375,0.040
5.108,-0.300,0.040
5.110,-0.265,0.045
5.112,-0.075,0.045
5.114,-0.075,0.040
5.116,-0.070,0.040
5.118,0.085,0.035
5.120,0.080,0.035
5.122,-0.145,0.035
5.124,-0.240,0.045
5.126,-0.415,0.055
5.128,-0.215,0.070
5.130,-0.155,0.085
5.132,-0.100,0.095
5.134,-0.005,0.100
5.136,-0.010,0.095
5.138,0.115,0.090
5.140,0.025,0.080
5.142,-0.095,0.070
5.144,-0.285,0.060
5.146,-0.405,0.055
5.148,-0.235,0.055
5.150,-0.215,0.055
5.152,-0.140,0.060
5.154,-0.055,0.070
5.156,-0.045,0.075
5.158,0.085,0.080
5.160,0.045,0.085
5.162,-0.080,0.085
5.164,-0.280,0.090
5.166,-0.350,0.090
5.168,-0.215,0.090
5.170,-0.175,0.095
5.172,-0.125,0.095
5.174,-0.005,0.095
5.176,0.000,0.090
5.178,0.110,0.085
5.180,-0.005,0.075
5.182,-0.090,0.070
5.184,-0.300,0.065
5.186,-0.365,0.065
5.188,-0.190,0.065
5.190,-0.240,0.070
5.192,-0.125,0.080
5.194,0.000,0.090
5.196,0.005,0.100
5.198,0.130,0.105
5.200,-0.020,0.110
5.202,-0.050,0.110
5.204,-0.310,0.110
5.206,-0.270,0.110
5.208,-0.175,0.110
5.210,-0.095,0.110
5.212,-0.145,0.115
5.214,-0.010,0.120
5.216,0.050,0.125
5.218,0.130,0.130
5.220,0.030,0.135
5.222,-0.090,0.135
5.224,-0.315,0.135
5.226,-0.205,0.135
5.228,-0.165,0.135
5.230,-0.205,0.140
5.232,-0.110,0.140
5.234,0.020,0.150
5.236,0.065,0.155
5.238,0.230,0.170
5.240,0.060,0.180
5.242,-0.035,0.190
5.244,-0.245,0.200
5.246,-0.235,0.205
5.248,-0.070,0.205
5.250,-0.060,0.205
5.252,-0.030,0.205
5.254,-0.005,0.200
5.256,0.105,0.200
5.258,0.195,0.195
5.260,0.050,0.200
5.262,0.020,0.200
5.264,-0.240,0.205
5.266,-0.155,0.205
5.268,-0.120,0.210
5.270,-0.120,0.210
5.272,-0.025,0.210
5.274,0.075,0.215
5.276,0.165,0.220
5.278,0.245,0.225
5.280,0.105,0.230
5.282,-0.030,0.240
5.284,-0.310,0.250
5.286,-0.150,0.255
5.288,-0.050,0.260
5.290,-0.035,0.255
5.292,0.030,0.250
5.294,0.070,0.235
5.296,0.155,0.225
5.298,0.130,0.215
5.300,0.005,0.205
5.302,-0.060,0.200
5.304,-0.285,0.205
5.306,-0.170,0.210
5.308,-0.075,0.220
5.310,-0.055,0.230
5.312,-0.010,0.240
5.314,-0.010,0.245
5.316,0.160,0.245
5.318,0.205,0.240
5.320,0.075,0.230
5.322,-0.055,0.215
5.324,-0.270,0.200
5.326,-0.250,0.180
5.328,-0.220,0.165
5.330,-0.155,0.150
5.332,-0.050,0.140
5.334,-0.055,0.135
5.336,0.040,0.135
5.338,0.090,0.140
5.340,-0.020,0.150
5.342,-0.145,0.160
5.344,-0.395,0.170
5.346,-0.245,0.175
5.348,-0.190,0.175
5.350,-0.140,0.175
5.352,-0.035,0.165
5.354,-0.005,0.150
5.356,0.100,0.140
5.358,-0.040,0.130
5.360,-0.130,0.125
5.362,-0.245,0.120
5.364,-0.415,0.125
5.366,-0.220,0.130
5.368,-0.240,0.135
5.370,-0.255,0.140
5.372,-0.045,0.140
5.374,-0.005,0.135
5.376,0.055,0.130
5.378,0.025,0.125
5.380,-0.130,0.120
5.382,-0.235,0.120
5.384,-0.425,0.120
5.386,-0.285,0.130
5.388,-0.235,0.135
5.390,-0.195,0.140
5.392,-0.100,0.145
5.394,-0.025,0.145
5.396,0.105,0.145
5.398,0.015,0.135
5.400,-0.145,0.130
5.402,-0.320,0.125
5.404,-0.410,0.125
5.406,-0.260,0.130
5.408,-0.205,0.135
5.410,-0.155,0.145
5.412,-0.075,0.150
5.414,-0.050,0.150
5.416,0.075,0.150
5.418,-0.045,0.145
5.420,-0.120,0.135
5.422,-0.320,0.130
5.424,-0.440,0.125
5.426,-0.245,0.125
5.428,-0.240,0.130
5.430,-0.210,0.135
5.432,-0.075,0.145
5.434,-0.050,0.160
5.436,0.100,0.170
5.438,0.000,0.175
5.440,-0.110,0.170
5.442,-0.305,0.165
5.444,-0.435,0.160
5.446,-0.235,0.145
5.448,-0.225,0.135
5.450,-0.215,0.130
5.452,-0.095,0.130
5.454,-0.130,0.135
5.456,0.075,0.140
5.458,0.010,0.150
5.460,-0.135,0.165
5.462,-0.305,0.170
5.464,-0.430,0.175
5.466,-0.225,0.170
5.468,-0.280,0.165
5.470,-0.190,0.150
5.472,-0.065,0.135
5.474,-0.075,0.125
5.476,0.035,0.115
5.478,-0.015,0.115
5.480,-0.180,0.120
5.482,-0.365,0.125
5.484,-0.465,0.135
5.486,-0.265,0.140
5.488,-0.290,0.140
5.490,-0.225,0.135
5.492,-0.135,0.125
5.494,-0.100,0.105
5.496,0.005,0.085
5.498,-0.180,0.065
5.500,-0.185,0.050
5.502,-0.460,0.035
5.504,-0.505,0.025
5.506,-0.385,0.015
5.508,-0.450,0.010
5.510,-0.395,-0.005
5.512,-0.300,-0.025
5.514,-0.310,-0.055
5.516,-0.185,-0.095
5.518,-0.320,-0.140
5.520,-0.500,-0.190
5.522,-0.790,-0.240
5.524,-0.820,-0.285
5.526,-0.750,-0.330
5.528,-0.800,-0.365
5.530,-0.715,-0.400
5.532,-0.655,-0.425
5.534,-0.755,-0.450
5.536,-0.640,-0.470
5.538,-0.735,-0.485
5.540,-0.835,-0.500
5.542,-1.055,-0.515
5.544,-1.045,-0.525
5.546,-0.935,-0.535
5.548,-0.980,-0.540
5.550,-0.925,-0.540
5.552,-0.855,-0.540
5.554,-0.750,-0.535
5.556,-0.625,-0.525
5.558,-0.770,-0.510
5.560,-0.805,-0.495
5.562,-1.075,-0.475
5.564,-1.010,-0.455
5.566,-0.825,-0.430
5.568,-0.815,-0.410
5.570,-0.750,-0.390
5.572,-0.645,-0.370
5.574,-0.570,-0.350
5.576,-0.460,-0.335
5.578,-0.600,-0.315
5.580,-0.720,-0.300
5.582,-0.850,-0.280
5.584,-0.775,-0.260
5.586,-0.690,-0.245
5.588,-0.655,-0.230
5.590,-0.555,-0.220
5.592,-0.445,-0.215
5.594,-0.415,-0.205
5.596,-0.375,-0.200
5.598,-0.505,-0.195
5.600,-0.600,-0.190
5.602,-0.795,-0.185
5.604,-0.680,-0.180
5.606,-0.590,-0.170
5.608,-0.600,-0.165
5.610,-0.560,-0.165
5.612,-0.435,-0.160
5.614,-0.345,-0.155
5.616,-0.325,-0.150
5.618,-0.440,-0.145
5.620,-0.510,-0.135
5.622,-0.740,-0.125
5.624,-0.630,-0.115
5.626,-0.595,-0.110
5.628,-0.550,-0.105
5.630,-0.470,-0.105
5.632,-0.440,-0.105
5.634,-0.315,-0.115
5.636,-0.290,-0.120
5.638,-0.440,-0.125
5.640,-0.510,-0.125
5.642,-0.770,-0.125
5.644,-0.640,-0.115
5.646,-0.545,-0.105
5.648,-0.535,-0.095
5.650,-0.455,-0.090
5.652,-0.425,-0.085
5.654,-0.295,-0.090
5.656,-0.315,-0.100
5.658,-0.450,-0.110
5.660,-0.595,-0.115
5.662,-0.775,-0.125
5.664,-0.650,-0.130
5.666,-0.590,-0.125
5.668,-0.585,-0.120
5.670,-0.400,-0.110
5.672,-0.410,-0.100
5.674,-0.305,-0.090
5.676,-0.335,-0.085
5.678,-0.480,-0.080
5.680,-0.590,-0.080
5.682,-0.765,-0.080
5.684,-0.560,-0.080
5.686,-0.540,-0.085
5.688,-0.560,-0.085
5.690,-0.450,-0.085
5.692,-0.425,-0.085
5.694,-0.245,-0.080
5.696,-0.330,-0.075
5.698,-0.450,-0.070
5.700,-0.575,-0.060
5.702,-0.765,-0.055
5.704,-0.600,-0.050
5.706,-0.560,-0.050
5.708,-0.505,-0.060
5.710,-0.380,-0.070
5.712,-0.395,-0.080
5.714,-0.275,-0.095
5.716,-0.355,-0.110
5.718,-0.525,-0.120
5.720,-0.695,-0.120
5.722,-0.835,-0.110
5.724,-0.695,-0.090
5.726,-0.570,-0.060
5.728,-0.450,-0.015
5.730,-0.295,0.045
5.732,-0.155,0.120
5.734,0.080,0.200
5.736,0.005,0.290
5.738,-0.015,0.385
5.740,-0.085,0.475
5.742,-0.130,0.550
5.744,0.120,0.610
5.746,0.200,0.650
5.748,0.235,0.660
5.750,0.290,0.640
5.752,0.265,0.600
5.754,0.325,0.535
5.756,0.170,0.455
5.758,-0.030,0.370
5.760,-0.305,0.285
5.762,-0.495,0.210
5.764,-0.440,0.140
5.766,-0.475,0.080
5.768,-0.445,0.035
5.770,-0.400,0.000
5.772,-0.385,-0.025
5.774,-0.235,-0.040
5.776,-0.350,-0.055
5.778,-0.410,-0.065
5.780,-0.640,-0.070
5.782,-0.885,-0.075
5.784,-0.605,-0.075
5.786,-0.615,-0.080
5.788,-0.570,-0.080
5.790,-0.475,-0.085
5.792,-0.455,-0.085
5.794,-0.305,-0.085
5.796,-0.380,-0.085
5.798,-0.495,-0.080
5.800,-0.715,-0.080
5.802,-0.725,-0.080
5.804,-0.605,-0.085
5.806,-0.690,-0.085
5.808,-0.550,-0.090
5.810,-0.425,-0.095
5.812,-0.460,-0.100
5.814,-0.320,-0.100
5.816,-0.405,-0.100
5.818,-0.505,-0.095
5.820,-0.745,-0.090
5.822,-0.790,-0.085
5.824,-0.660,-0.085
5.826,-0.615,-0.085
5.828,-0.545,-0.095
5.830,-0.500,-0.105
5.832,-0.485,-0.120
5.834,-0.380,-0.135
5.836,-0.535,-0.145
5.838,-0.585,-0.150
5.840,-0.810,-0.150
5.842,-0.780,-0.140
5.844,-0.655,-0.130
5.846,-0.655,-0.120
5.848,-0.600,-0.115
5.850,-0.520,-0.110
5.852,-0.490,-0.115
5.854,-0.385,-0.120
5.856,-0.490,-0.130
5.858,-0.620,-0.140
5.860,-0.855,-0.145
5.862,-0.790,-0.145
5.864,-0.665,-0.140
5.866,-0.655,-0.130
5.868,-0.625,-0.120
5.870,-0.520,-0.110
5.872,-0.470,-0.105
5.874,-0.375,-0.105
5.876,-0.470,-0.105
5.878,-0.610,-0.110
5.880,-0.865,-0.120
5.882,-0.750,-0.125
5.884,-0.685,-0.125
5.886,-0.665,-0.125
5.888,-0.570,-0.115
5.890,-0.440,-0.110
5.892,-0.500,-0.100
5.894,-0.360,-0.090
5.896,-0.485,-0.080
5.898,-0.575,-0.075
5.900,-0.840,-0.070
5.902,-0.700,-0.070
5.904,-0.585,-0.070
5.906,-0.600,-0.070
5.908,-0.580,-0.070
5.910,-0.495,-0.070
5.912,-0.370,-0.065
5.914,-0.360,-0.065
5.916,-0.470,-0.055
5.918,-0.575,-0.050
5.920,-0.815,-0.045
5.922,-0.645,-0.040
5.924,-0.625,-0.035
5.926,-0.605,-0.035
5.928,-0.530,-0.030
5.930,-0.455,-0.030
5.932,-0.370,-0.030
5.934,-0.320,-0.030
5.936,-0.425,-0.025
5.938,-0.485,-0.020
5.940,-0.805,-0.010
5.942,-0.675,-0.005
5.944,-0.555,0.005
5.946,-0.550,0.010
5.948,-0.485,0.015
5.950,-0.430,0.020
5.952,-0.315,0.025
5.954,-0.280,0.025
5.956,-0.410,0.030
5.958,-0.505,0.030
5.960,-0.720,0.035
5.962,-0.615,0.040
5.964,-0.560,0.045
5.966,-0.500,0.050
5.968,-0.370,0.060
5.970,-0.395,0.070
5.972,-0.240,0.075
5.974,-0.255,0.085
5.976,-0.400,0.090
5.978,-0.520,0.095
5.980,-0.685,0.100
5.982,-0.505,0.100
5.984,-0.535,0.100
5.986,-0.470,0.095
5.988,-0.330,0.095
5.990,-0.350,0.090
5.992,-0.225,0.090
5.994,-0.230,0.095
5.996,-0.375,0.100
5.998,-0.525,0.105
6.000,-0.685,0.110
6.002,-0.545,0.110
6.004,-0.550,0.110
6.006,-0.440,0.105
6.008,-0.315,0.100
6.010,-0.350,0.095
6.012,-0.265,0.090
6.014,-0.225,0.095
6.016,-0.365,0.100
6.018,-0.525,0.105
6.020,-0.720,0.115
6.022,-0.540,0.115
6.024,-0.525,0.115
6.026,-0.445,0.105
6.028,-0.420,0.095
6.030,-0.375,0.080
6.032,-0.245,0.065
6.034,-0.310,0.050
6.036,-0.430,0.045
6.038,-0.620,0.045
6.040,-0.720,0.050
6.042,-0.590,0.055
6.044,-0.575,0.055
6.046,-0.540,0.050
6.048,-0.450,0.040
6.050,-0.440,0.020
6.052,-0.325,0.005
6.054,-0.405,-0.010
6.056,-0.510,-0.020
6.058,-0.750,-0.025
6.060,-0.770,-0.015
6.062,-0.575,-0.005
6.064,-0.630,0.005
6.066,-0.615,0.010
6.068,-0.475,0.015
6.070,-0.440,0.010
6.072,-0.290,0.000
6.074,-0.395,-0.010
6.076,-0.540,-0.020
6.078,-0.755,-0.030
6.080,-0.835,-0.035
6.082,-0.650,-0.035
6.084,-0.645,-0.035
6.086,-0.575,-0.035
6.088,-0.575,-0.040
6.090,-0.550,-0.045
6.092,-0.420,-0.055
6.094,-0.445,-0.065
6.096,-0.620,-0.070
6.098,-0.725,-0.070
6.100,-0.800,-0.065
6.102,-0.710,-0.060
6.104,-0.695,-0.050
6.106,-0.645,-0.040
6.108,-0.560,-0.035
6.110,-0.515,-0.035
6.112,-0.315,-0.040
6.114,-0.515,-0.055
6.116,-0.570,-0.070
6.118,-0.790,-0.090
6.120,-0.825,-0.105
6.122,-0.730,-0.120
6.124,-0.760,-0.140
6.126,-0.780,-0.155
6.128,-0.685,-0.175
6.130,-0.680,-0.195
6.132,-0.545,-0.215
6.134,-0.685,-0.240
6.136,-0.830,-0.260
6.138,-1.000,-0.275
6.140,-1.000,-0.285
6.142,-0.925,-0.290
6.144,-0.890,-0.290
6.146,-0.800,-0.290
6.148,-0.780,-0.300
6.150,-0.830,-0.315
6.152,-0.690,-0.340
6.154,-0.840,-0.370
6.156,-0.975,-0.410
6.158,-1.220,-0.450
6.160,-1.230,-0.485
6.162,-1.140,-0.515
6.164,-1.150,-0.535
6.166,-1.115,-0.545
6.168,-1.040,-0.550
6.170,-1.020,-0.550
6.172,-0.910,-0.545
6.174,-1.025,-0.545
6.176,-1.120,-0.545
6.178,-1.345,-0.550
6.180,-1.310,-0.555
6.182,-1.180,-0.560
6.184,-1.170,-0.560
6.186,-1.105,-0.560
6.188,-1.025,-0.550
6.190,-0.965,-0.540
6.192,-0.890,-0.525
6.194,-1.020,-0.510
6.196,-1.065,-0.500
6.198,-1.260,-0.490
6.200,-1.190,-0.480
6.202,-1.135,-0.475
6.204,-1.080,-0.475
6.206,-1.075,-0.475
6.208,-0.925,-0.470
6.210,-0.860,-0.465
6.212,-0.845,-0.460
6.214,-0.940,-0.455
6.216,-1.020,-0.450
6.218,-1.240,-0.445
6.220,-1.150,-0.440
6.222,-1.090,-0.440
6.224,-1.065,-0.445
6.226,-1.050,-0.450
6.228,-0.915,-0.460
6.230,-0.865,-0.465
6.232,-0.845,-0.470
6.234,-0.980,-0.470
6.236,-1.030,-0.465
6.238,-1.255,-0.460
6.240,-1.185,-0.450
6.242,-1.085,-0.440
6.244,-1.050,-0.430
6.246,-0.955,-0.425
6.248,-0.935,-0.420
6.250,-0.850,-0.420
6.252,-0.755,-0.415
6.254,-0.910,-0.415
6.256,-1.035,-0.410
6.258,-1.250,-0.405
6.260,-1.080,-0.395
6.262,-1.100,-0.385
6.264,-1.005,-0.380
6.266,-0.915,-0.375
6.268,-0.865,-0.370
6.270,-0.735,-0.370
6.272,-0.780,-0.375
6.274,-0.920,-0.375
6.276,-0.985,-0.375
6.278,-1.195,-0.370
6.280,-1.065,-0.365
6.282,-0.985,-0.355
6.284,-0.960,-0.340
6.286,-0.860,-0.330
6.288,-0.825,-0.325
6.290,-0.705,-0.320
6.292,-0.710,-0.320
6.294,-0.840,-0.320
6.296,-0.945,-0.320
6.298,-1.160,-0.315
6.300,-1.040,-0.310
6.302,-0.965,-0.300
6.304,-0.910,-0.295
6.306,-0.775,-0.285
6.308,-0.755,-0.280
6.310,-0.655,-0.275
6.312,-0.690,-0.275
6.314,-0.780,-0.275
6.316,-0.985,-0.275
6.318,-1.140,-0.280
6.320,-1.000,-0.280
6.322,-0.925,-0.275
6.324,-0.865,-0.270
6.326,-0.765,-0.265
6.328,-0.760,-0.255
6.330,-0.620,-0.250
6.332,-0.660,-0.240
6.334,-0.750,-0.235
6.336,-0.915,-0.225
6.338,-1.055,-0.215
6.340,-0.900,-0.210
6.342,-0.850,-0.200
6.344,-0.815,-0.195
6.346,-0.670,-0.185
6.348,-0.640,-0.180
6.350,-0.490,-0.175
6.352,-0.630,-0.170
6.354,-0.710,-0.165
6.356,-0.835,-0.160
6.358,-1.015,-0.155
6.360,-0.840,-0.145
6.362,-0.770,-0.135
6.364,-0.710,-0.125
6.366,-0.630,-0.110
6.368,-0.635,-0.095
6.370,-0.415,-0.085
6.372,-0.475,-0.070
6.374,-0.570,-0.060
6.376,-0.800,-0.055
6.378,-0.925,-0.050
6.380,-0.760,-0.045
6.382,-0.695,-0.045
6.384,-0.615,-0.045
6.386,-0.565,-0.040
6.388,-0.485,-0.035
6.390,-0.330,-0.030
6.392,-0.465,-0.020
6.394,-0.520,-0.005
6.396,-0.705,0.005
6.398,-0.830,0.020
6.400,-0.680,0.030
6.402,-0.655,0.035
6.404,-0.525,0.035
6.406,-0.450,0.035
6.408,-0.410,0.030
6.410,-0.265,0.030
6.412,-0.445,0.030
6.414,-0.530,0.035
6.416,-0.680,0.050
6.418,-0.780,0.065
6.420,-0.540,0.080
6.422,-0.565,0.100
6.424,-0.440,0.115
6.426,-0.395,0.130
6.428,-0.375,0.135
6.430,-0.190,0.140
6.432,-0.245,0.140
6.434,-0.400,0.135
6.436,-0.610,0.130
6.438,-0.670,0.130
6.440,-0.540,0.125
6.442,-0.510,0.120
6.444,-0.505,0.120
6.446,-0.410,0.115
6.448,-0.385,0.110
6.450,-0.210,0.105
6.452,-0.320,0.105
6.454,-0.410,0.100
6.456,-0.620,0.105
6.458,-0.630,0.110
6.460,-0.575,0.115
6.462,-0.480,0.120
6.464,-0.425,0.130
6.466,-0.410,0.130
6.468,-0.380,0.130
6.470,-0.210,0.125
6.472,-0.290,0.115
6.474,-0.465,0.110
6.476,-0.645,0.100
6.478,-0.650,0.100
6.480,-0.570,0.105
6.482,-0.470,0.115
6.484,-0.400,0.125
6.486,-0.355,0.140
6.488,-0.275,0.155
6.490,-0.170,0.165
6.492,-0.275,0.170
6.494,-0.410,0.170
6.496,-0.650,0.165
6.498,-0.570,0.150
6.500,-0.485,0.140
6.502,-0.480,0.130
6.504,-0.415,0.125
6.506,-0.330,0.125
6.508,-0.240,0.130
6.510,-0.215,0.135
6.512,-0.320,0.150
6.514,-0.475,0.160
6.516,-0.595,0.170
6.518,-0.520,0.175
6.520,-0.510,0.170
6.522,-0.470,0.165
6.524,-0.385,0.150
6.526,-0.320,0.135
6.528,-0.270,0.115
6.530,-0.290,0.105
6.532,-0.415,0.095
6.534,-0.480,0.100
6.536,-0.690,0.115
6.538,-0.570,0.145
6.540,-0.455,0.190
6.542,-0.265,0.250
6.544,-0.150,0.330
6.546,0.035,0.420
6.548,0.120,0.515
6.550,0.290,0.615
6.552,0.200,0.705
6.554,0.200,0.780
6.556,0.050,0.835
6.558,0.260,0.860
6.560,0.340,0.855
6.562,0.285,0.825
6.564,0.220,0.765
6.566,0.205,0.690
6.568,0.240,0.605
6.570,0.155,0.520
6.572,-0.085,0.435
6.574,-0.250,0.365
6.576,-0.535,0.310
6.578,-0.370,0.265
6.580,-0.350,0.240
6.582,-0.380,0.220
6.584,-0.355,0.210
6.586,-0.265,0.205
6.588,-0.050,0.205
6.590,-0.135,0.205
6.592,-0.330,0.210
6.594,-0.375,0.215
6.596,-0.550,0.220
6.598,-0.410,0.225
6.600,-0.395,0.225
6.602,-0.370,0.225
6.604,-0.275,0.225
6.606,-0.245,0.215
6.608,-0.135,0.205
6.610,-0.140,0.195
6.612,-0.245,0.185
6.614,-0.430,0.175
6.616,-0.625,0.175
6.618,-0.455,0.180
6.620,-0.420,0.185
6.622,-0.330,0.195
6.624,-0.245,0.205
6.626,-0.235,0.215
6.628,-0.105,0.220
6.630,-0.150,0.220
6.632,-0.265,0.220
6.634,-0.405,0.210
6.636,-0.555,0.205
6.638,-0.450,0.195
6.640,-0.405,0.190
6.642,-0.370,0.185
6.644,-0.255,0.185
6.646,-0.270,0.190
6.648,-0.075,0.195
6.650,-0.155,0.200
6.652,-0.265,0.200
6.654,-0.405,0.205
6.656,-0.605,0.205
6.658,-0.415,0.205
6.660,-0.415,0.205
6.662,-0.345,0.200
6.664,-0.245,0.200
6.666,-0.215,0.200
6.668,-0.080,0.205
6.670,-0.130,0.205
6.672,-0.270,0.210
6.674,-0.400,0.215
6.676,-0.565,0.220
6.678,-0.380,0.220
6.680,-0.380,0.215
6.682,-0.345,0.215
6.684,-0.215,0.205
6.686,-0.195,0.200
6.688,-0.040,0.195
6.690,-0.110,0.190
6.692,-0.265,0.190
6.694,-0.530,0.195
6.696,-0.550,0.205
6.698,-0.355,0.210
6.700,-0.335,0.220
6.702,-0.295,0.225
6.704,-0.215,0.230
6.706,-0.175,0.235
6.708,-0.030,0.235
6.710,-0.095,0.230
6.712,-0.245,0.230
6.714,-0.390,0.230
6.716,-0.505,0.225
6.718,-0.370,0.220
6.720,-0.380,0.220
6.722,-0.295,0.215
6.724,-0.185,0.215
6.726,-0.220,0.210
6.728,-0.050,0.210
6.730,-0.095,0.210
6.732,-0.240,0.210
6.734,-0.400,0.215
6.736,-0.485,0.215
6.738,-0.355,0.220
6.740,-0.345,0.225
6.742,-0.275,0.230
6.744,-0.185,0.230
6.746,-0.180,0.235
6.748,0.000,0.240
6.750,-0.075,0.240
6.752,-0.195,0.240
6.754,-0.390,0.245
6.756,-0.440,0.245
6.758,-0.330,0.245
6.760,-0.295,0.245
6.762,-0.175,0.240
6.764,-0.120,0.240
6.766,-0.155,0.240
6.768,-0.035,0.240
6.770,-0.075,0.240
6.772,-0.180,0.245
6.774,-0.400,0.255
6.776,-0.435,0.260
6.778,-0.235,0.270
6.780,-0.230,0.275
6.782,-0.145,0.280
6.784,-0.140,0.285
6.786,-0.075,0.285
6.788,0.050,0.285
6.790,-0.050,0.285
6.792,-0.150,0.285
6.794,-0.385,0.285
6.796,-0.290,0.285
6.798,-0.265,0.285
6.800,-0.230,0.285
6.802,-0.110,0.285
6.804,-0.080,0.285
6.806,-0.120,0.285
6.808,0.085,0.285
6.810,-0.045,0.285
6.812,-0.130,0.285
6.814,-0.355,0.285
6.816,-0.345,0.285
6.818,-0.185,0.280
6.820,-0.185,0.280
6.822,-0.215,0.270
6.824,-0.085,0.265
6.826,-0.025,0.260
6.828,0.060,0.260
6.830,-0.080,0.255
6.832,-0.150,0.260
6.834,-0.385,0.265
6.836,-0.330,0.270
6.838,-0.210,0.275
6.840,-0.215,0.275
6.842,-0.160,0.270
6.844,-0.110,0.265
6.846,-0.020,0.255
6.848,0.045,0.245
6.850,-0.110,0.235
6.852,-0.200,0.225
6.854,-0.445,0.220
6.856,-0.325,0.220
6.858,-0.265,0.220
6.860,-0.280,0.215
6.862,-0.195,0.210
6.864,-0.155,0.200
6.866,-0.080,0.185
6.868,-0.040,0.170
6.870,-0.160,0.155
6.872,-0.210,0.145
6.874,-0.545,0.140
6.876,-0.380,0.135
6.878,-0.345,0.140
6.880,-0.265,0.145
6.882,-0.245,0.150
6.884,-0.250,0.155
6.886,-0.070,0.155
6.888,-0.075,0.150
6.890,-0.210,0.140
6.892,-0.295,0.135
6.894,-0.515,0.125
6.896,-0.410,0.120
6.898,-0.330,0.120
6.900,-0.310,0.125
6.902,-0.265,0.125
6.904,-0.155,0.125
6.906,-0.055,0.125
6.908,-0.125,0.125
6.910,-0.180,0.120
6.912,-0.350,0.110
6.914,-0.525,0.105
6.916,-0.415,0.105
6.918,-0.345,0.105
6.920,-0.320,0.105
6.922,-0.200,0.110
6.924,-0.175,0.115
6.926,-0.080,0.115
6.928,-0.110,0.115
6.930,-0.230,0.110
6.932,-0.375,0.105
6.934,-0.540,0.095
6.936,-0.400,0.090
6.938,-0.350,0.085
6.940,-0.330,0.085
6.942,-0.235,0.085
6.944,-0.170,0.090
6.946,-0.095,0.090
6.948,-0.115,0.090
6.950,-0.195,0.090
6.952,-0.425,0.085
6.954,-0.550,0.080
6.956,-0.435,0.075
6.958,-0.325,0.065
6.960,-0.320,0.060
6.962,-0.215,0.060
6.964,-0.185,0.065
6.966,-0.075,0.070
6.968,-0.135,0.075
6.970,-0.275,0.080
6.972,-0.460,0.085
6.974,-0.580,0.090
6.976,-0.330,0.085
6.978,-0.270,0.080
6.980,-0.280,0.070
6.982,-0.235,0.065
6.984,-0.290,0.055
6.986,-0.100,0.045
6.988,-0.135,0.045
6.990,-0.240,0.040
6.992,-0.420,0.040
6.994,-0.550,0.045
6.996,-0.405,0.045
6.998,-0.375,0.050
7.000,-0.345,0.050
7.002,-0.285,0.050
7.004,-0.225,0.050
7.006,-0.040,0.050
7.008,-0.110,0.050
7.010,-0.220,0.050
7.012,-0.430,0.045
7.014,-0.580,0.045
7.016,-0.415,0.040
7.018,-0.335,0.035
7.020,-0.295,0.030
7.022,-0.260,0.030
7.024,-0.250,0.025
7.026,-0.050,0.020
7.028,-0.160,0.020
7.030,-0.295,0.020
7.032,-0.470,0.025
7.034,-0.560,0.025
7.036,-0.370,0.025
7.038,-0.380,0.020
7.040,-0.355,0.015
7.042,-0.265,0.010
7.044,-0.190,0.000
7.046,-0.090,-0.005
7.048,-0.180,-0.010
7.050,-0.335,-0.015
7.052,-0.510,-0.015
7.054,-0.575,-0.015
7.056,-0.395,-0.015
7.058,-0.360,-0.015
7.060,-0.350,-0.015
7.062,-0.225,-0.015
7.064,-0.230,-0.020
7.066,-0.110,-0.025
7.068,-0.145,-0.030
7.070,-0.350,-0.035
7.072,-0.500,-0.035
7.074,-0.575,-0.040
7.076,-0.410,-0.040
7.078,-0.405,-0.040
7.080,-0.365,-0.035
7.082,-0.220,-0.035
7.084,-0.265,-0.035
7.086,-0.070,-0.035
7.088,-0.210,-0.035
7.090,-0.315,-0.030
7.092,-0.510,-0.030
7.094,-0.560,-0.030
7.096,-0.370,-0.025
7.098,-0.385,-0.025
7.100,-0.325,-0.030
7.102,-0.205,-0.030
7.104,-0.190,-0.035
7.106,-0.105,-0.040
7.108,-0.260,-0.040
7.110,-0.280,-0.045
7.112,-0.495,-0.045
7.114,-0.505,-0.050
7.116,-0.455,-0.050
7.118,-0.390,-0.050
7.120,-0.280,-0.055
7.122,-0.235,-0.055
7.124,-0.180,-0.060
7.126,-0.150,-0.060
7.128,-0.245,-0.060
7.130,-0.290,-0.060
7.132,-0.530,-0.055
7.134,-0.495,-0.050
7.136,-0.385,-0.045
7.138,-0.365,-0.045
7.140,-0.310,-0.040
7.142,-0.245,-0.045
7.144,-0.210,-0.050
7.146,-0.160,-0.055
7.148,-0.235,-0.060
7.150,-0.295,-0.065
7.152,-0.515,-0.070
7.154,-0.415,-0.065
7.156,-0.370,-0.060
7.158,-0.400,-0.055
7.160,-0.325,-0.050
7.162,-0.195,-0.045
7.164,-0.170,-0.045
7.166,-0.080,-0.045
7.168,-0.190,-0.045
7.170,-0.375,-0.050
7.172,-0.540,-0.050
7.174,-0.420,-0.055
7.176,-0.360,-0.055
7.178,-0.360,-0.055
7.180,-0.275,-0.060
7.182,-0.265,-0.060
7.184,-0.115,-0.060
7.186,-0.120,-0.060
7.188,-0.255,-0.065
7.190,-0.320,-0.065
7.192,-0.525,-0.070
7.194,-0.385,-0.070
7.196,-0.330,-0.070
7.198,-0.405,-0.065
7.200,-0.280,-0.065
7.202,-0.225,-0.060
7.204,-0.130,-0.060
7.206,-0.105,-0.060
7.208,-0.235,-0.060
7.210,-0.265,-0.060
7.212,-0.510,-0.060
7.214,-0.420,-0.060
7.216,-0.320,-0.060
7.218,-0.350,-0.060
7.220,-0.270,-0.055
7.222,-0.195,-0.055
7.224,-0.125,-0.050
7.226,-0.080,-0.050
7.228,-0.175,-0.050
7.230,-0.345,-0.055
7.232,-0.540,-0.060
7.234,-0.385,-0.065
7.236,-0.340,-0.070
7.238,-0.345,-0.075
7.240,-0.250,-0.080
7.242,-0.220,-0.080
7.244,-0.100,-0.080
7.246,-0.095,-0.075
7.248,-0.230,-0.070
7.250,-0.375,-0.065
7.252,-0.535,-0.065
7.254,-0.370,-0.065
7.256,-0.365,-0.065
7.258,-0.375,-0.070
7.260,-0.210,-0.075
7.262,-0.200,-0.075
7.264,-0.060,-0.080
7.266,-0.060,-0.080
7.268,-0.225,-0.080
7.270,-0.380,-0.075
7.272,-0.585,-0.075
7.274,-0.380,-0.070
7.276,-0.340,-0.075
7.278,-0.355,-0.075
7.280,-0.195,-0.075
7.282,-0.160,-0.080
7.284,-0.030,-0.080
7.286,-0.115,-0.075
7.288,-0.200,-0.065
7.290,-0.365,-0.055
7.292,-0.565,-0.045
7.294,-0.320,-0.035
7.296,-0.285,-0.030
7.298,-0.245,-0.030
7.300,-0.175,-0.030
7.302,-0.145,-0.035
7.304,0.015,-0.035
7.306,-0.070,-0.035
7.308,-0.240,-0.030
7.310,-0.310,-0.025
7.312,-0.440,-0.015
7.314,-0.295,-0.010
7.316,-0.270,-0.010
7.318,-0.260,-0.015
7.320,-0.125,-0.025
7.322,-0.150,-0.040
7.324,0.005,-0.050
7.326,-0.010,-0.060
7.328,-0.210,-0.070
7.330,-0.440,-0.070
7.332,-0.535,-0.065
7.334,-0.305,-0.055
7.336,-0.300,-0.050
7.338,-0.250,-0.045
7.340,-0.120,-0.045
7.342,-0.160,-0.050
7.344,-0.010,-0.060
7.346,-0.100,-0.070
7.348,-0.235,-0.080
7.350,-0.440,-0.080
7.352,-0.480,-0.080
7.354,-0.305,-0.080
7.356,-0.335,-0.075
7.358,-0.285,-0.075
7.360,-0.190,-0.075
7.362,-0.215,-0.085
7.364,-0.035,-0.095
7.366,-0.130,-0.105
7.368,-0.225,-0.120
7.370,-0.475,-0.125
7.372,-0.585,-0.130
7.374,-0.365,-0.130
7.376,-0.425,-0.125
7.378,-0.255,-0.120
7.380,-0.200,-0.115
7.382,-0.185,-0.110
7.384,-0.075,-0.110
7.386,-0.145,-0.105
7.388,-0.240,-0.105
7.390,-0.420,-0.105
7.392,-0.485,-0.105
7.394,-0.365,-0.110
7.396,-0.375,-0.110
7.398,-0.300,-0.110
7.400,-0.225,-0.120
7.402,-0.155,-0.125
7.404,-0.065,-0.135
7.406,-0.245,-0.145
7.408,-0.270,-0.150
7.410,-0.475,-0.150
7.412,-0.470,-0.145
7.414,-0.350,-0.140
7.416,-0.360,-0.130
7.418,-0.270,-0.120
7.420,-0.225,-0.115
7.422,-0.240,-0.115
7.424,-0.055,-0.120
7.426,-0.160,-0.135
7.428,-0.220,-0.155
7.430,-0.540,-0.175
7.432,-0.505,-0.200
7.434,-0.440,-0.215
7.436,-0.455,-0.225
7.438,-0.405,-0.225
7.440,-0.320,-0.215
7.442,-0.280,-0.190
7.444,-0.145,-0.150
7.446,-0.140,-0.100
7.448,-0.145,-0.035
7.450,-0.290,0.040
7.452,-0.110,0.125
7.454,0.040,0.215
7.456,0.115,0.305
7.458,0.190,0.385
7.460,0.370,0.460
7.462,0.545,0.510
7.464,0.680,0.540
7.466,0.500,0.545
7.468,0.350,0.520
7.470,0.135,0.470
7.472,0.130,0.400
7.474,0.115,0.315
7.476,0.000,0.225
7.478,-0.090,0.135
7.480,-0.110,0.055
7.482,-0.035,-0.010
7.484,0.020,-0.060
7.486,-0.130,-0.085
7.488,-0.200,-0.100
7.490,-0.450,-0.100
7.492,-0.360,-0.095
7.494,-0.335,-0.095
7.496,-0.330,-0.095
7.498,-0.240,-0.100
7.500,-0.215,-0.110
7.502,-0.075,-0.120
7.504,-0.105,-0.130
7.506,-0.260,-0.140
7.508,-0.220,-0.140
7.510,-0.485,-0.135
7.512,-0.395,-0.125
7.514,-0.355,-0.115
7.516,-0.310,-0.105
7.518,-0.230,-0.100
7.520,-0.165,-0.105
7.522,-0.070,-0.110
7.524,-0.050,-0.115
7.526,-0.220,-0.125
7.528,-0.290,-0.130
7.530,-0.510,-0.130
7.532,-0.360,-0.125
7.534,-0.315,-0.115
7.536,-0.325,-0.105
7.538,-0.200,-0.100
7.540,-0.165,-0.095
7.542,-0.065,-0.095
7.544,-0.090,-0.100
7.546,-0.205,-0.110
7.548,-0.310,-0.115
7.550,-0.500,-0.120
7.552,-0.400,-0.120
7.554,-0.340,-0.120
7.556,-0.285,-0.115
7.558,-0.200,-0.105
7.560,-0.125,-0.100
7.562,-0.005,-0.095
7.564,-0.115,-0.095
7.566,-0.225,-0.095
7.568,-0.330,-0.095
7.570,-0.525,-0.100
7.572,-0.340,-0.105
7.574,-0.260,-0.110
7.576,-0.290,-0.110
7.578,-0.145,-0.110
7.580,-0.220,-0.105
7.582,-0.055,-0.105
7.584,-0.020,-0.100
7.586,-0.210,-0.095
7.588,-0.365,-0.095
7.590,-0.440,-0.090
7.592,-0.315,-0.090
7.594,-0.330,-0.085
7.596,-0.265,-0.085
7.598,-0.160,-0.085
7.600,-0.150,-0.085
7.602,-0.025,-0.085
7.604,-0.050,-0.085
7.606,-0.160,-0.085
7.608,-0.365,-0.085
7.610,-0.540,-0.090
7.612,-0.325,-0.090
7.614,-0.320,-0.090
7.616,-0.280,-0.090
7.618,-0.180,-0.085
7.620,-0.140,-0.085
7.622,0.010,-0.080
7.624,-0.055,-0.075
7.626,-0.180,-0.075
7.628,-0.365,-0.070
7.630,-0.495,-0.070
7.632,-0.315,-0.070
7.634,-0.310,-0.070
7.636,-0.235,-0.075
7.638,-0.115,-0.075
7.640,-0.110,-0.075
7.642,0.015,-0.075
7.644,-0.085,-0.070
7.646,-0.165,-0.060
7.648,-0.345,-0.055
7.650,-0.460,-0.050
7.652,-0.265,-0.050
7.654,-0.260,-0.050
7.656,-0.295,-0.050
7.658,-0.095,-0.055
7.660,-0.090,-0.055
7.662,0.025,-0.050
7.664,-0.035,-0.045
7.666,-0.145,-0.035
7.668,-0.315,-0.025
7.670,-0.435,-0.015
7.672,-0.265,-0.005
7.674,-0.285,-0.005
7.676,-0.195,-0.015
7.678,-0.030,-0.025
7.680,-0.060,-0.035
7.682,0.045,-0.040
7.684,-0.035,-0.040
7.686,-0.145,-0.030
7.688,-0.265,-0.015
7.690,-0.400,0.005
7.692,-0.250,0.020
7.694,-0.220,0.035
7.696,-0.155,0.035
7.698,-0.050,0.030
7.700,-0.060,0.015
7.702,0.130,0.000
7.704,-0.045,-0.015
7.706,-0.120,-0.020
7.708,-0.345,-0.020
7.710,-0.335,-0.005
7.712,-0.205,0.010
7.714,-0.145,0.030
7.716,-0.170,0.045
7.718,-0.065,0.050
7.720,0.000,0.050
7.722,0.145,0.040
7.724,-0.015,0.030
7.726,-0.070,0.020
7.728,-0.300,0.015
7.730,-0.265,0.015
7.732,-0.265,0.020
7.734,-0.195,0.030
7.736,-0.105,0.035
7.738,-0.055,0.040
7.740,-0.005,0.040
7.742,0.115,0.035
7.744,-0.040,0.025
7.746,-0.110,0.010
7.748,-0.340,0.000
7.750,-0.290,-0.005
7.752,-0.285,-0.005
7.754,-0.195,0.000
7.756,-0.145,0.005
7.758,-0.065,0.010
7.760,-0.030,0.015
7.762,0.045,0.015
7.764,-0.045,0.005
7.766,-0.145,-0.005
7.768,-0.375,-0.015
7.770,-0.370,-0.025
7.772,-0.300,-0.030
7.774,-0.195,-0.035
7.776,-0.190,-0.040
7.778,-0.115,-0.040
7.780,-0.090,-0.040
7.782,-0.015,-0.045
7.784,-0.150,-0.050
7.786,-0.220,-0.055
7.788,-0.435,-0.065
7.790,-0.355,-0.065
7.792,-0.280,-0.065
7.794,-0.280,-0.065
7.796,-0.235,-0.060
7.798,-0.110,-0.050
7.800,-0.105,-0.050
7.802,-0.025,-0.050
7.804,-0.135,-0.050
7.806,-0.235,-0.060
7.808,-0.480,-0.070
7.810,-0.385,-0.080
7.812,-0.330,-0.085
7.814,-0.275,-0.090
7.816,-0.240,-0.085
7.818,-0.165,-0.080
7.820,-0.070,-0.070
7.822,-0.030,-0.060
7.824,-0.140,-0.055
7.826,-0.235,-0.055
7.828,-0.485,-0.055
7.830,-0.385,-0.060
7.832,-0.300,-0.065
7.834,-0.320,-0.070
7.836,-0.195,-0.075
7.838,-0.130,-0.080
7.840,-0.070,-0.075
7.842,-0.030,-0.075
7.844,-0.180,-0.065
7.846,-0.260,-0.060
7.848,-0.500,-0.055
7.850,-0.345,-0.055
7.852,-0.295,-0.055
7.854,-0.285,-0.055
7.856,-0.190,-0.060
7.858,-0.180,-0.060
7.860,-0.070,-0.065
7.862,-0.050,-0.065
7.864,-0.145,-0.065
7.866,-0.305,-0.065
7.868,-0.480,-0.060
7.870,-0.375,-0.055
7.872,-0.305,-0.055
7.874,-0.275,-0.050
7.876,-0.200,-0.050
7.878,-0.150,-0.050
7.880,-0.025,-0.050
7.882,-0.075,-0.055
7.884,-0.160,-0.055
7.886,-0.380,-0.060
7.888,-0.485,-0.060
7.890,-0.365,-0.055
7.892,-0.300,-0.050
7.894,-0.240,-0.045
7.896,-0.155,-0.040
7.898,-0.130,-0.035
7.900,0.000,-0.030
7.902,-0.080,-0.030
7.904,-0.225,-0.035
7.906,-0.340,-0.040
7.908,-0.505,-0.050
7.910,-0.335,-0.060
7.912,-0.305,-0.065
7.914,-0.285,-0.070
7.916,-0.170,-0.070
7.918,-0.185,-0.065
7.920,-0.030,-0.060
7.922,-0.055,-0.055
7.924,-0.210,-0.045
7.926,-0.335,-0.040
7.928,-0.510,-0.035
7.930,-0.335,-0.035
7.932,-0.295,-0.040
7.934,-0.290,-0.045
7.936,-0.165,-0.050
7.938,-0.150,-0.055
7.940,-0.010,-0.060
7.942,-0.070,-0.060
7.944,-0.230,-0.060
7.946,-0.400,-0.055
7.948,-0.540,-0.050
7.950,-0.370,-0.045
7.952,-0.300,-0.040
7.954,-0.210,-0.035
7.956,-0.175,-0.035
7.958,-0.120,-0.035
7.960,-0.005,-0.035
7.962,-0.065,-0.040
7.964,-0.245,-0.050
7.966,-0.450,-0.055
7.968,-0.500,-0.065
7.970,-0.315,-0.070
7.972,-0.375,-0.075
7.974,-0.280,-0.070
7.976,-0.215,-0.065
7.978,-0.180,-0.060
7.980,-0.025,-0.050
7.982,-0.080,-0.040
7.984,-0.205,-0.035
7.986,-0.375,-0.030
7.988,-0.465,-0.035
7.990,-0.330,-0.045
7.992,-0.380,-0.060
7.994,-0.340,-0.075
7.996,-0.205,-0.085
7.998,-0.180,-0.095
8.000,-0.050,-0.095
8.002,-0.170,-0.095
8.004,-0.245,-0.085
8.006,-0.450,-0.070
8.008,-0.460,-0.060
8.010,-0.330,-0.055
8.012,-0.370,-0.050
8.014,-0.295,-0.050
8.016,-0.230,-0.060
8.018,-0.145,-0.065
8.020,-0.010,-0.075
8.022,-0.160,-0.080
8.024,-0.285,-0.080
8.026,-0.485,-0.075
8.028,-0.490,-0.070
8.030,-0.360,-0.060
8.032,-0.355,-0.055
8.034,-0.265,-0.055
8.036,-0.200,-0.055
8.038,-0.210,-0.060
8.040,-0.060,-0.070
8.042,-0.170,-0.080
8.044,-0.255,-0.085
8.046,-0.500,-0.090
8.048,-0.465,-0.085
8.050,-0.360,-0.080
8.052,-0.360,-0.075
8.054,-0.275,-0.065
8.056,-0.235,-0.060
8.058,-0.175,-0.055
8.060,-0.035,-0.050
8.062,-0.140,-0.050
8.064,-0.235,-0.055
8.066,-0.505,-0.055
8.068,-0.475,-0.060
8.070,-0.400,-0.065
8.072,-0.305,-0.065
8.074,-0.250,-0.070
8.076,-0.250,-0.070
8.078,-0.165,-0.070
8.080,-0.010,-0.070
8.082,-0.270,-0.065
8.084,-0.270,-0.065
8.086,-0.510,-0.060
8.088,-0.430,-0.055
8.090,-0.330,-0.050
8.092,-0.315,-0.045
8.094,-0.290,-0.045
8.096,-0.255,-0.045
8.098,-0.130,-0.045
8.100,-0.035,-0.045
8.102,-0.185,-0.045
8.104,-0.285,-0.050
8.106,-0.510,-0.045
8.108,-0.435,-0.045
8.110,-0.370,-0.045
8.112,-0.320,-0.040
8.114,-0.260,-0.040
8.116,-0.215,-0.040
8.118,-0.140,-0.040
8.120,-0.060,-0.045
8.122,-0.200,-0.045
8.124,-0.280,-0.045
8.126,-0.525,-0.040
8.128,-0.420,-0.040
8.130,-0.355,-0.035
8.132,-0.320,-0.030
8.134,-0.265,-0.030
8.136,-0.210,-0.030
8.138,-0.110,-0.035
8.140,-0.135,-0.040
8.142,-0.215,-0.045
8.144,-0.270,-0.050
8.146,-0.530,-0.050
8.148,-0.425,-0.045
8.150,-0.355,-0.040
8.152,-0.315,-0.030
8.154,-0.230,-0.025
8.156,-0.165,-0.020
8.158,-0.085,-0.020
8.160,-0.085,-0.020
8.162,-0.230,-0.025
8.164,-0.305,-0.025
8.166,-0.520,-0.025
8.168,-0.345,-0.015
8.170,-0.305,-0.005
8.172,-0.310,0.005
8.174,-0.180,0.020
8.176,-0.140,0.030
8.178,-0.030,0.040
8.180,-0.080,0.045
8.182,-0.140,0.040
8.184,-0.295,0.040
8.186,-0.470,0.030
8.188,-0.355,0.025
8.190,-0.285,0.020
8.192,-0.260,0.020
8.194,-0.160,0.020
8.196,-0.145,0.020
8.198,-0.045,0.020
8.200,-0.030,0.020
8.202,-0.175,0.020
8.204,-0.395,0.025
8.206,-0.550,0.025
8.208,-0.295,0.025
8.210,-0.295,0.025
8.212,-0.305,0.025
8.214,-0.180,0.025
8.216,-0.130,0.025
8.218,-0.010,0.025
8.220,-0.015,0.020
8.222,-0.180,0.015
8.224,-0.340,0.010
8.226,-0.565,0.000
8.228,-0.425,-0.005
8.230,-0.395,-0.015
8.232,-0.335,-0.020
8.234,-0.265,-0.025
8.236,-0.180,-0.025
8.238,-0.065,-0.025
8.240,-0.090,-0.020
8.242,-0.230,-0.020
8.244,-0.415,-0.015
8.246,-0.550,-0.015
8.248,-0.420,-0.015
8.250,-0.405,-0.020
8.252,-0.330,-0.030
8.254,-0.270,-0.040
8.256,-0.215,-0.050
8.258,-0.125,-0.060
8.260,-0.130,-0.065
8.262,-0.275,-0.060
8.264,-0.455,-0.055
8.266,-0.530,-0.045
8.268,-0.400,-0.035
8.270,-0.395,-0.025
8.272,-0.365,-0.020
8.274,-0.250,-0.020
8.276,-0.215,-0.025
8.278,-0.070,-0.035
8.280,-0.120,-0.045
8.282,-0.300,-0.050
8.284,-0.475,-0.055
8.286,-0.570,-0.055
8.288,-0.400,-0.050
8.290,-0.415,-0.040
8.292,-0.330,-0.030
8.294,-0.260,-0.025
8.296,-0.210,-0.025
8.298,-0.040,-0.030
8.300,-0.180,-0.040
8.302,-0.325,-0.055
8.304,-0.495,-0.070
8.306,-0.625,-0.085
8.308,-0.460,-0.095
8.310,-0.480,-0.105
8.312,-0.440,-0.110
8.314,-0.350,-0.110
8.316,-0.295,-0.095
8.318,-0.150,-0.065
8.320,-0.160,-0.020
8.322,-0.190,0.045
8.324,-0.305,0.120
8.326,-0.235,0.215
8.328,-0.010,0.320
8.330,0.075,0.420
8.332,0.225,0.515
8.334,0.380,0.590
8.336,0.455,0.640
8.338,0.635,0.665
8.340,0.550,0.655
8.342,0.410,0.620
8.344,0.120,0.560
8.346,-0.005,0.485
8.348,-0.015,0.400
8.350,-0.095,0.315
8.352,-0.100,0.230
8.354,-0.050,0.160
8.356,-0.120,0.100
8.358,-0.030,0.050
8.360,-0.180,0.010
8.362,-0.275,-0.015
8.364,-0.490,-0.030
8.366,-0.485,-0.040
8.368,-0.445,-0.040
8.370,-0.385,-0.040
8.372,-0.345,-0.035
8.374,-0.245,-0.025
8.376,-0.190,-0.020
8.378,-0.065,-0.010
8.380,-0.150,-0.005
8.382,-0.285,0.000
8.384,-0.535,0.005
8.386,-0.490,0.005
8.388,-0.365,0.000
8.390,-0.335,0.000
8.392,-0.285,-0.005
8.394,-0.265,-0.010
8.396,-0.170,-0.015
8.398,-0.055,-0.015
8.400,-0.190,-0.015
8.402,-0.330,-0.015
8.404,-0.545,-0.015
8.406,-0.500,-0.015
8.408,-0.385,-0.015
8.410,-0.385,-0.010
8.412,-0.295,-0.010
8.414,-0.220,-0.010
8.416,-0.150,-0.005
8.418,-0.070,-0.005
8.420,-0.185,0.000
8.422,-0.320,0.005
8.424,-0.555,0.010
8.426,-0.405,0.010
8.428,-0.380,0.010
8.430,-0.340,0.010
8.432,-0.295,0.005
8.434,-0.235,0.000
8.436,-0.125,-0.005
8.438,-0.080,-0.010
8.440,-0.245,-0.010
8.442,-0.280,-0.005
8.444,-0.525,0.000
8.446,-0.415,0.010
8.448,-0.370,0.015
8.450,-0.340,0.025
8.452,-0.275,0.025
8.454,-0.210,0.025
8.456,-0.100,0.020
8.458,-0.105,0.015
8.460,-0.250,0.005
8.462,-0.340,0.000
8.464,-0.495,-0.005
8.466,-0.455,-0.005
8.468,-0.405,0.000
8.470,-0.345,0.005
8.472,-0.200,0.010
8.474,-0.190,0.015
8.476,-0.095,0.020
8.478,-0.090,0.025
8.480,-0.230,0.025
8.482,-0.350,0.025
8.484,-0.535,0.020
8.486,-0.390,0.020
8.488,-0.340,0.020
8.490,-0.370,0.020
8.492,-0.205,0.025
8.494,-0.135,0.030
8.496,-0.070,0.030
8.498,-0.070,0.035
8.500,-0.180,0.040
8.502,-0.390,0.045
8.504,-0.535,0.045
8.506,-0.380,0.045
8.508,-0.300,0.045
8.510,-0.315,0.045
8.512,-0.220,0.045
8.514,-0.150,0.050
8.516,-0.025,0.050
8.518,-0.050,0.055
8.520,-0.170,0.055
8.522,-0.375,0.060
8.524,-0.520,0.065
8.526,-0.360,0.065
8.528,-0.295,0.065
8.530,-0.285,0.060
8.532,-0.195,0.060
8.534,-0.120,0.060
8.536,-0.025,0.065
8.538,-0.050,0.065
8.540,-0.195,0.075
8.542,-0.335,0.080
8.544,-0.505,0.090
8.546,-0.305,0.095
8.548,-0.250,0.095
8.550,-0.225,0.095
8.552,-0.175,0.095
8.554,-0.105,0.090
8.556,-0.005,0.090
8.558,-0.030,0.090
8.560,-0.170,0.095
8.562,-0.350,0.100
8.564,-0.455,0.110
8.566,-0.270,0.120
8.568,-0.240,0.130
8.570,-0.215,0.135
8.572,-0.090,0.135
8.574,-0.080,0.135
8.576,0.055,0.135
8.578,0.015,0.130
8.580,-0.115,0.130
8.582,-0.315,0.135
8.584,-0.470,0.135
8.586,-0.255,0.140
8.588,-0.280,0.140
8.590,-0.195,0.145
8.592,-0.080,0.140
8.594,-0.060,0.140
8.596,0.075,0.140
8.598,-0.010,0.140
8.600,-0.135,0.140
8.602,-0.290,0.140
8.604,-0.450,0.145
8.606,-0.235,0.145
8.608,-0.245,0.140
8.610,-0.200,0.140
8.612,-0.130,0.135
8.614,-0.090,0.130
8.616,0.065,0.125
8.618,-0.020,0.120
8.620,-0.150,0.120
8.622,-0.315,0.120
8.624,-0.360,0.125
8.626,-0.270,0.120
8.628,-0.305,0.115
8.630,-0.200,0.105
8.632,-0.140,0.090
8.634,-0.100,0.070
8.636,-0.050,0.055
8.638,-0.130,0.040
8.640,-0.210,0.035
8.642,-0.385,0.035
8.644,-0.460,0.040
8.646,-0.330,0.045
8.648,-0.350,0.050
8.650,-0.300,0.055
8.652,-0.215,0.050
8.654,-0.180,0.040
8.656,-0.020,0.025
8.658,-0.095,0.015
8.660,-0.225,0.005
8.662,-0.545,0.000
8.664,-0.525,0.000
8.666,-0.355,0.005
8.668,-0.360,0.010
8.670,-0.285,0.015
8.672,-0.210,0.015
8.674,-0.205,0.015
8.676,-0.065,0.005
8.678,-0.190,0.000
8.680,-0.265,-0.005
8.682,-0.495,-0.005
8.684,-0.475,-0.005
8.686,-0.370,0.005
8.688,-0.340,0.010
8.690,-0.280,0.020
8.692,-0.210,0.020
8.694,-0.175,0.015
8.696,-0.075,0.010
8.698,-0.230,0.000
8.700,-0.260,-0.010
8.702,-0.500,-0.015
8.704,-0.420,-0.015
8.706,-0.350,-0.010
8.708,-0.315,0.005
8.710,-0.285,0.015
8.712,-0.200,0.020
8.714,-0.170,0.025
8.716,-0.020,0.025
8.718,-0.175,0.015
8.720,-0.370,0.005
8.722,-0.515,0.000
8.724,-0.405,-0.005
8.726,-0.335,-0.005
8.728,-0.345,0.000
8.730,-0.220,0.010
8.732,-0.185,0.015
8.734,-0.205,0.020
8.736,-0.070,0.020
8.738,-0.200,0.015
8.740,-0.250,0.005
8.742,-0.495,-0.005
8.744,-0.450,-0.010
8.746,-0.365,-0.015
8.748,-0.315,-0.015
8.750,-0.280,-0.010
8.752,-0.220,0.000
8.754,-0.110,0.005
8.756,-0.080,0.005
8.758,-0.200,0.005
8.760,-0.250,0.000
8.762,-0.555,-0.005
8.764,-0.445,-0.010
8.766,-0.310,-0.010
8.768,-0.315,-0.005
8.770,-0.265,0.000
8.772,-0.210,0.010
8.774,-0.120,0.020
8.776,-0.045,0.025
8.778,-0.185,0.030
8.780,-0.285,0.030
8.782,-0.465,0.025
8.784,-0.375,0.015
8.786,-0.350,0.010
8.788,-0.285,0.005
8.790,-0.260,0.005
8.792,-0.195,0.010
8.794,-0.070,0.015
8.796,-0.010,0.025
8.798,-0.145,0.035
8.800,-0.340,0.045
8.802,-0.515,0.050
8.804,-0.360,0.050
8.806,-0.340,0.045
8.808,-0.290,0.040
8.810,-0.160,0.030
8.812,-0.135,0.025
8.814,-0.100,0.025
8.816,-0.070,0.020
8.818,-0.195,0.025
8.820,-0.350,0.025
8.822,-0.520,0.030
8.824,-0.360,0.035
8.826,-0.330,0.035
8.828,-0.275,0.030
8.830,-0.195,0.025
8.832,-0.185,0.015
8.834,-0.080,0.010
8.836,-0.080,0.005
8.838,-0.230,0.000
8.840,-0.370,0.000
8.842,-0.510,0.000
8.844,-0.385,0.000
8.846,-0.340,0.005
8.848,-0.280,0.010
8.850,-0.170,0.010
8.852,-0.205,0.005
8.854,-0.050,0.000
8.856,-0.175,-0.005
8.858,-0.230,-0.015
8.860,-0.355,-0.020
8.862,-0.540,-0.020
8.864,-0.385,-0.025
8.866,-0.345,-0.020
8.868,-0.330,-0.020
8.870,-0.205,-0.010
8.872,-0.230,-0.005
8.874,-0.070,0.000
8.876,-0.105,0.005
8.878,-0.200,0.005
8.880,-0.380,0.010
8.882,-0.540,0.005
8.884,-0.355,0.000
8.886,-0.375,-0.005
8.888,-0.340,-0.010
8.890,-0.185,-0.010
8.892,-0.175,-0.015
8.894,-0.045,-0.015
8.896,-0.130,-0.010
8.898,-0.240,-0.005
8.900,-0.415,0.005
8.902,-0.510,0.010
8.904,-0.330,0.015
8.906,-0.355,0.015
8.908,-0.280,0.010
8.910,-0.185,0.005
8.912,-0.180,0.000
8.914,-0.050,-0.005
8.916,-0.135,-0.010
8.918,-0.270,-0.010
8.920,-0.430,-0.005
8.922,-0.540,-0.005
8.924,-0.335,0.000
8.926,-0.315,0.000
8.928,-0.295,0.000
8.930,-0.230,0.000
8.932,-0.195,-0.005
8.934,-0.050,-0.010
8.936,-0.135,-0.015
8.938,-0.210,-0.015
8.940,-0.415,-0.015
8.942,-0.515,-0.010
8.944,-0.360,-0.010
8.946,-0.385,-0.005
8.948,-0.305,-0.010
8.950,-0.185,-0.010
8.952,-0.180,-0.015
8.954,-0.040,-0.020
8.956,-0.140,-0.025
8.958,-0.255,-0.025
8.960,-0.525,-0.025
8.962,-0.485,-0.025
8.964,-0.370,-0.025
8.966,-0.325,-0.020
8.968,-0.275,-0.020
8.970,-0.270,-0.025
8.972,-0.185,-0.025
8.974,-0.030,-0.025
8.976,-0.190,-0.025
8.978,-0.285,-0.025
8.980,-0.420,-0.020
8.982,-0.470,-0.015
8.984,-0.335,-0.010
8.986,-0.340,-0.010
8.988,-0.290,-0.010
8.990,-0.245,-0.010
8.992,-0.205,-0.015
8.994,-0.055,-0.020
8.996,-0.165,-0.020
8.998,-0.255,-0.020
9.000,-0.460,-0.020
9.002,-0.420,-0.015
9.004,-0.310,-0.010
9.006,-0.375,-0.005
9.008,-0.315,-0.005
9.010,-0.115,-0.005
9.012,-0.205,-0.005
9.014,-0.080,-0.005
9.016,-0.120,-0.010
9.018,-0.220,-0.010
9.020,-0.460,-0.005
9.022,-0.445,-0.005
9.024,-0.365,0.000
9.026,-0.325,0.000
9.028,-0.265,0.000
9.030,-0.205,0.000
9.032,-0.100,-0.005
9.034,0.010,-0.010
9.036,-0.195,-0.015
9.038,-0.290,-0.015
9.040,-0.490,-0.015
9.042,-0.435,-0.015
9.044,-0.340,-0.015
9.046,-0.335,-0.015
9.048,-0.290,-0.015
9.050,-0.210,-0.020
9.052,-0.150,-0.025
9.054,-0.060,-0.030
9.056,-0.200,-0.035
9.058,-0.280,-0.040
9.060,-0.545,-0.035
9.062,-0.395,-0.030
9.064,-0.345,-0.025
9.066,-0.320,-0.015
9.068,-0.250,-0.005
9.070,-0.175,0.000
9.072,-0.120,0.000
9.074,-0.040,0.000
9.076,-0.200,-0.005
9.078,-0.280,-0.005
9.080,-0.505,-0.005
9.082,-0.375,-0.005
9.084,-0.320,0.000
9.086,-0.290,0.000
9.088,-0.220,0.005
9.090,-0.145,0.010
9.092,-0.070,0.015
9.094,-0.015,0.020
9.096,-0.125,0.020
9.098,-0.295,0.025
9.100,-0.490,0.030
9.102,-0.375,0.035
9.104,-0.270,0.040
9.106,-0.210,0.045
9.108,-0.160,0.045
9.110,-0.140,0.045
9.112,-0.050,0.045
9.114,-0.020,0.040
9.116,-0.135,0.035
9.118,-0.260,0.030
9.120,-0.480,0.025
9.122,-0.320,0.020
9.124,-0.315,0.015
9.126,-0.280,0.010
9.128,-0.185,0.005
9.130,-0.175,0.005
9.132,-0.105,0.000
9.134,0.010,0.005
9.136,-0.155,0.010
9.138,-0.290,0.015
9.140,-0.525,0.020
9.142,-0.355,0.025
9.144,-0.280,0.030
9.146,-0.250,0.025
9.148,-0.170,0.020
9.150,-0.175,0.005
9.152,-0.045,-0.010
9.154,-0.135,-0.030
9.156,-0.185,-0.045
9.158,-0.340,-0.055
9.160,-0.600,-0.060
9.162,-0.425,-0.060
9.164,-0.395,-0.055
9.166,-0.320,-0.050
9.168,-0.200,-0.045
9.170,-0.200,-0.045
9.172,-0.090,-0.045
9.174,-0.110,-0.045
9.176,-0.220,-0.050
9.178,-0.425,-0.055
9.180,-0.590,-0.055
9.182,-0.430,-0.055
9.184,-0.425,-0.055
9.186,-0.340,-0.055
9.188,-0.180,-0.055
9.190,-0.165,-0.055
9.192,-0.040,-0.055
9.194,-0.120,-0.055
9.196,-0.305,-0.055
9.198,-0.425,-0.055
9.200,-0.560,-0.055
9.202,-0.400,-0.050
9.204,-0.360,-0.050
9.206,-0.300,-0.050
9.208,-0.200,-0.055
9.210,-0.210,-0.060
9.212,-0.085,-0.065
9.214,-0.100,-0.070
9.216,-0.340,-0.075
9.218,-0.475,-0.080
9.220,-0.580,-0.085
9.222,-0.435,-0.090
9.224,-0.390,-0.095
9.226,-0.305,-0.100
9.228,-0.255,-0.105
9.230,-0.335,-0.110
9.232,-0.125,-0.115
9.234,-0.205,-0.115
9.236,-0.340,-0.110
9.238,-0.505,-0.095
9.240,-0.590,-0.065
9.242,-0.335,-0.020
9.244,-0.245,0.035
9.246,-0.095,0.110
9.248,0.085,0.190
9.250,0.200,0.280
9.252,0.380,0.375
9.254,0.335,0.470
9.256,0.375,0.550
9.258,0.270,0.610
9.260,0.210,0.645
9.262,0.400,0.650
9.264,0.345,0.625
9.266,0.365,0.565
9.268,0.275,0.480
9.270,0.185,0.380
9.272,0.270,0.270
9.274,0.050,0.170
9.276,-0.130,0.085
9.278,-0.420,0.020
9.280,-0.530,-0.025
9.282,-0.400,-0.045
9.284,-0.360,-0.055
9.286,-0.270,-0.055
9.288,-0.245,-0.055
9.290,-0.205,-0.060
9.292,-0.090,-0.065
9.294,-0.200,-0.075
9.296,-0.305,-0.085
9.298,-0.505,-0.090
9.300,-0.495,-0.090
9.302,-0.395,-0.085
9.304,-0.375,-0.075
9.306,-0.285,-0.065
9.308,-0.215,-0.055
9.310,-0.220,-0.045
9.312,-0.065,-0.045
9.314,-0.155,-0.050
9.316,-0.285,-0.055
9.318,-0.500,-0.065
9.320,-0.455,-0.065
9.322,-0.355,-0.070
9.324,-0.355,-0.065
9.326,-0.350,-0.060
9.328,-0.195,-0.050
9.330,-0.170,-0.050
9.332,-0.060,-0.050
9.334,-0.160,-0.055
9.336,-0.270,-0.060
9.338,-0.505,-0.070
9.340,-0.510,-0.080
9.342,-0.425,-0.080
9.344,-0.325,-0.080
9.346,-0.290,-0.075
9.348,-0.190,-0.060
9.350,-0.155,-0.050
9.352,-0.045,-0.040
9.354,-0.165,-0.035
9.356,-0.255,-0.035
9.358,-0.515,-0.040
9.360,-0.435,-0.045
9.362,-0.350,-0.050
9.364,-0.325,-0.055
9.366,-0.275,-0.050
9.368,-0.190,-0.045
9.370,-0.165,-0.040
9.372,-0.025,-0.035
9.374,-0.150,-0.030
9.376,-0.290,-0.025
9.378,-0.550,-0.030
9.380,-0.395,-0.035
9.382,-0.320,-0.040
9.384,-0.325,-0.045
9.386,-0.285,-0.050
9.388,-0.170,-0.050
9.390,-0.045,-0.045
9.392,-0.055,-0.040
9.394,-0.220,-0.035
9.396,-0.280,-0.035
9.398,-0.500,-0.030
9.400,-0.400,-0.035
9.402,-0.340,-0.035
9.404,-0.300,-0.040
9.406,-0.285,-0.040
9.408,-0.175,-0.040
9.410,-0.075,-0.035
9.412,-0.005,-0.030
9.414,-0.165,-0.020
9.416,-0.275,-0.015
9.418,-0.545,-0.010
9.420,-0.370,-0.010
9.422,-0.335,-0.010
9.424,-0.290,-0.015
9.426,-0.225,-0.025
9.428,-0.165,-0.030
9.430,-0.055,-0.035
9.432,-0.025,-0.035
9.434,-0.230,-0.030
9.436,-0.300,-0.025
9.438,-0.470,-0.015
9.440,-0.365,-0.005
9.442,-0.295,0.005
9.444,-0.265,0.010
9.446,-0.150,0.015
9.448,-0.130,0.015
9.450,-0.010,0.015
9.452,-0.010,0.015
9.454,-0.110,0.020
9.456,-0.300,0.020
9.458,-0.465,0.025
9.460,-0.385,0.030
9.462,-0.250,0.035
9.464,-0.205,0.040
9.466,-0.115,0.045
9.468,-0.125,0.045
9.470,0.070,0.045
9.472,0.000,0.045
9.474,-0.190,0.045
9.476,-0.315,0.050
9.478,-0.435,0.050
9.480,-0.240,0.055
9.482,-0.245,0.060
9.484,-0.250,0.060
9.486,-0.105,0.060
9.488,-0.045,0.065
9.490,0.135,0.065
9.492,-0.045,0.065
9.494,-0.110,0.070
9.496,-0.235,0.080
9.498,-0.395,0.090
9.500,-0.255,0.100
9.502,-0.220,0.105
9.504,-0.155,0.110
9.506,-0.090,0.110
9.508,-0.035,0.110
9.510,0.100,0.105
9.512,0.070,0.095
9.514,-0.075,0.090
9.516,-0.270,0.090
9.518,-0.365,0.090
9.520,-0.220,0.095
9.522,-0.235,0.100
9.524,-0.190,0.105
9.526,-0.040,0.105
9.528,-0.025,0.105
9.530,0.115,0.100
9.532,0.080,0.095
9.534,-0.105,0.085
9.536,-0.340,0.080
9.538,-0.395,0.075
9.540,-0.235,0.075
9.542,-0.180,0.075
9.544,-0.135,0.080
9.546,-0.080,0.080
9.548,-0.115,0.080
9.550,0.085,0.080
9.552,-0.025,0.070
9.554,-0.140,0.065
9.556,-0.315,0.055
9.558,-0.395,0.045
9.560,-0.290,0.040
9.562,-0.315,0.030
9.564,-0.215,0.025
9.566,-0.150,0.020
9.568,-0.120,0.020
9.570,0.050,0.015
9.572,-0.080,0.010
9.574,-0.220,0.005
9.576,-0.390,0.000
9.578,-0.470,-0.005
9.580,-0.330,-0.010
9.582,-0.295,-0.015
9.584,-0.280,-0.020
9.586,-0.210,-0.020
9.588,-0.195,-0.025
9.590,0.045,-0.030
9.592,-0.140,-0.030
9.594,-0.235,-0.035
9.596,-0.440,-0.035
9.598,-0.510,-0.040
9.600,-0.365,-0.040
9.602,-0.355,-0.045
9.604,-0.305,-0.045
9.606,-0.210,-0.050
9.608,-0.180,-0.050
9.610,-0.030,-0.055
9.612,-0.170,-0.055
9.614,-0.270,-0.055
9.616,-0.450,-0.055
9.618,-0.475,-0.055
9.620,-0.375,-0.055
9.622,-0.355,-0.055
9.624,-0.295,-0.055
9.626,-0.220,-0.060
9.628,-0.235,-0.065
9.630,-0.035,-0.065
9.632,-0.215,-0.070
9.634,-0.290,-0.075
9.636,-0.440,-0.080
9.638,-0.455,-0.085
9.640,-0.410,-0.085
9.642,-0.350,-0.085
9.644,-0.300,-0.080
9.646,-0.225,-0.075
9.648,-0.165,-0.075
9.650,-0.030,-0.065
9.652,-0.230,-0.060
9.654,-0.325,-0.055
9.656,-0.495,-0.050
9.658,-0.400,-0.045
9.660,-0.360,-0.045
9.662,-0.330,-0.040
9.664,-0.275,-0.045
9.666,-0.200,-0.045
9.668,-0.140,-0.050
9.670,-0.050,-0.055
9.672,-0.190,-0.060
9.674,-0.270,-0.060
9.676,-0.540,-0.060
9.678,-0.420,-0.060
9.680,-0.360,-0.060
9.682,-0.340,-0.055
9.684,-0.315,-0.055
9.686,-0.195,-0.055
9.688,-0.105,-0.055
9.690,-0.065,-0.055
9.692,-0.195,-0.055
9.694,-0.260,-0.055
9.696,-0.485,-0.055
9.698,-0.445,-0.050
9.700,-0.365,-0.040
9.702,-0.325,-0.035
9.704,-0.320,-0.030
9.706,-0.105,-0.030
9.708,-0.115,-0.030
9.710,-0.100,-0.035
9.712,-0.170,-0.040
9.714,-0.240,-0.045
9.716,-0.515,-0.045
9.718,-0.395,-0.045
9.720,-0.345,-0.045
9.722,-0.375,-0.040
9.724,-0.245,-0.040
9.726,-0.180,-0.040
9.728,-0.090,-0.040
9.730,-0.060,-0.045
9.732,-0.210,-0.050
9.734,-0.305,-0.050
9.736,-0.560,-0.050
9.738,-0.450,-0.050
9.740,-0.345,-0.040
9.742,-0.285,-0.035
9.744,-0.215,-0.025
9.746,-0.195,-0.020
9.748,-0.080,-0.020
9.750,-0.095,-0.025
9.752,-0.220,-0.030
9.754,-0.340,-0.040
9.756,-0.545,-0.050
9.758,-0.390,-0.060
9.760,-0.335,-0.065
9.762,-0.370,-0.065
9.764,-0.215,-0.065
9.766,-0.205,-0.060
9.768,-0.105,-0.055
9.770,-0.155,-0.050
9.772,-0.235,-0.045
9.774,-0.390,-0.040
9.776,-0.520,-0.040
9.778,-0.385,-0.045
9.780,-0.315,-0.045
9.782,-0.320,-0.050
9.784,-0.260,-0.055
9.786,-0.195,-0.060
9.788,-0.105,-0.065
9.790,-0.105,-0.065
9.792,-0.270,-0.065
9.794,-0.410,-0.065
9.796,-0.560,-0.060
9.798,-0.430,-0.055
9.800,-0.355,-0.050
9.802,-0.295,-0.045
9.804,-0.190,-0.040
9.806,-0.130,-0.040
9.808,-0.060,-0.040
9.810,-0.060,-0.040
9.812,-0.235,-0.040
9.814,-0.485,-0.040
9.816,-0.575,-0.040
9.818,-0.380,-0.040
9.820,-0.365,-0.045
9.822,-0.310,-0.050
9.824,-0.205,-0.055
9.826,-0.205,-0.060
9.828,-0.095,-0.065
9.830,-0.105,-0.070
9.832,-0.280,-0.070
9.834,-0.460,-0.070
9.836,-0.530,-0.065
9.838,-0.355,-0.060
9.840,-0.405,-0.055
9.842,-0.330,-0.050
9.844,-0.220,-0.050
9.846,-0.190,-0.050
9.848,-0.075,-0.055
9.850,-0.125,-0.055
9.852,-0.265,-0.060
9.854,-0.455,-0.065
9.856,-0.555,-0.065
9.858,-0.390,-0.060
9.860,-0.405,-0.060
9.862,-0.345,-0.055
9.864,-0.265,-0.050
9.866,-0.195,-0.045
9.868,-0.020,-0.045
9.870,-0.100,-0.050
9.872,-0.245,-0.050
9.874,-0.460,-0.055
9.876,-0.540,-0.060
9.878,-0.395,-0.065
9.880,-0.370,-0.070
9.882,-0.370,-0.075
9.884,-0.280,-0.075
9.886,-0.200,-0.080
9.888,-0.065,-0.080
9.890,-0.140,-0.075
9.892,-0.275,-0.070
9.894,-0.485,-0.065
9.896,-0.555,-0.055
9.898,-0.340,-0.045
9.900,-0.370,-0.035
9.902,-0.305,-0.035
9.904,-0.165,-0.035
9.906,-0.155,-0.035
9.908,-0.035,-0.040
9.910,-0.170,-0.045
9.912,-0.250,-0.045
9.914,-0.445,-0.045
9.916,-0.460,-0.045
9.918,-0.370,-0.040
9.920,-0.370,-0.035
9.922,-0.295,-0.030
9.924,-0.210,-0.030
9.926,-0.205,-0.035
9.928,-0.055,-0.040
9.930,-0.160,-0.050
9.932,-0.265,-0.055
9.934,-0.540,-0.060
9.936,-0.465,-0.060
9.938,-0.310,-0.055
9.940,-0.355,-0.050
9.942,-0.280,-0.040
9.944,-0.195,-0.035
9.946,-0.135,-0.030
9.948,-0.090,-0.030
9.950,-0.155,-0.030
9.952,-0.220,-0.030
9.954,-0.480,-0.030
9.956,-0.430,-0.030
9.958,-0.330,-0.025
9.960,-0.310,-0.020
9.962,-0.315,-0.015
9.964,-0.180,-0.005
9.966,-0.055,0.000
9.968,0.065,0.010
9.970,-0.145,0.015
9.972,-0.225,0.025
9.974,-0.440,0.030
9.976,-0.315,0.035
9.978,-0.265,0.040
9.980,-0.270,0.045
9.982,-0.205,0.045
9.984,-0.145,0.045
9.986,-0.080,0.040
9.988,0.045,0.035
9.990,-0.130,0.030
9.992,-0.215,0.025
9.994,-0.405,0.025
9.996,-0.355,0.025
9.998,-0.285,0.025
