'Elapsed time','ECG I','ECG I filtered'
'seconds','mV','mV'
0.000,-0.025,0.070
0.002,-0.005,0.035
0.004,-0.040,0.005
0.006,-0.100,-0.020
0.008,-0.170,-0.040
0.010,-0.220,-0.055
0.012,-0.245,-0.060
0.014,-0.215,-0.060
0.016,-0.160,-0.050
0.018,-0.075,-0.045
0.020,-0.030,-0.035
0.022,-0.010,-0.025
0.024,-0.030,-0.020
0.026,-0.085,-0.015
0.028,-0.175,-0.020
0.030,-0.215,-0.020
0.032,-0.235,-0.025
0.034,-0.205,-0.030
0.036,-0.130,-0.030
0.038,-0.050,-0.030
0.040,-0.005,-0.030
0.042,0.005,-0.025
0.044,-0.030,-0.020
0.046,-0.080,-0.020
0.048,-0.160,-0.015
0.050,-0.215,-0.015
0.052,-0.215,-0.015
0.054,-0.195,-0.015
0.056,-0.135,-0.015
0.058,-0.045,-0.020
0.060,0.000,-0.020
0.062,0.015,-0.020
0.064,-0.015,-0.020
0.066,-0.075,-0.015
0.068,-0.160,-0.015
0.070,-0.210,-0.015
0.072,-0.210,-0.015
0.074,-0.185,-0.010
0.076,-0.130,-0.010
0.078,-0.040,-0.010
0.080,0.005,-0.010
0.082,0.015,-0.010
0.084,-0.025,-0.010
0.086,-0.080,-0.010
0.088,-0.165,-0.010
0.090,-0.210,-0.015
0.092,-0.210,-0.020
0.094,-0.170,-0.020
0.096,-0.125,-0.020
0.098,-0.035,-0.020
0.100,0.010,-0.015
0.102,0.015,-0.015
0.104,-0.030,-0.010
0.106,-0.085,-0.010
0.108,-0.170,-0.005
0.110,-0.215,-0.005
0.112,-0.220,-0.010
0.114,-0.180,-0.010
0.116,-0.135,-0.015
0.118,-0.030,-0.020
0.120,0.000,-0.020
0.122,0.010,-0.020
0.124,-0.035,-0.020
0.126,-0.095,-0.020
0.128,-0.185,-0.015
0.130,-0.220,-0.015
0.132,-0.225,-0.010
0.134,-0.180,-0.010
0.136,-0.120,-0.015
0.138,-0.035,-0.015
0.140,-0.005,-0.020
0.142,-0.005,-0.025
0.144,-0.050,-0.025
0.146,-0.095,-0.030
0.148,-0.200,-0.025
0.150,-0.210,-0.025
0.152,-0.230,-0.020
0.154,-0.175,-0.015
0.156,-0.115,-0.015
0.158,-0.035,-0.010
0.160,0.000,-0.015
0.162,0.005,-0.015
0.164,-0.045,-0.020
0.166,-0.105,-0.025
0.168,-0.185,-0.025
0.170,-0.220,-0.030
0.172,-0.220,-0.030
0.174,-0.165,-0.025
0.176,-0.105,-0.020
0.178,-0.025,-0.020
0.180,0.010,-0.020
0.182,-0.005,-0.015
0.184,-0.045,-0.020
0.186,-0.100,-0.020
0.188,-0.185,-0.020
0.190,-0.215,-0.025
0.192,-0.210,-0.025
0.194,-0.160,-0.025
0.196,-0.100,-0.020
0.198,-0.020,-0.020
0.200,0.000,-0.015
0.202,-0.005,-0.015
0.204,-0.055,-0.015
0.206,-0.120,-0.015
0.208,-0.200,-0.020
0.210,-0.225,-0.025
0.212,-0.220,-0.035
0.214,-0.165,-0.040
0.216,-0.095,-0.045
0.218,-0.030,-0.050
0.220,0.005,-0.050
0.222,-0.010,-0.050
0.224,-0.065,-0.045
0.226,-0.130,-0.040
0.228,-0.205,-0.030
0.230,-0.235,-0.025
0.232,-0.225,-0.025
0.234,-0.160,-0.020
0.236,-0.090,-0.020
0.238,-0.025,-0.020
0.240,0.000,-0.020
0.242,-0.015,-0.025
0.244,-0.080,-0.025
0.246,-0.140,-0.025
0.248,-0.210,-0.030
0.250,-0.240,-0.025
0.252,-0.210,-0.025
0.254,-0.160,-0.025
0.256,-0.080,-0.020
0.258,-0.020,-0.020
0.260,0.000,-0.015
0.262,-0.015,-0.015
0.264,-0.070,-0.010
0.266,-0.140,-0.010
0.268,-0.205,-0.010
0.270,-0.235,-0.015
0.272,-0.215,-0.015
0.274,-0.155,-0.015
0.276,-0.075,-0.015
0.278,-0.020,-0.015
0.280,-0.010,-0.015
0.282,-0.015,-0.020
0.284,-0.075,-0.020
0.286,-0.150,-0.020
0.288,-0.210,-0.025
0.290,-0.235,-0.025
0.292,-0.205,-0.030
0.294,-0.155,-0.035
0.296,-0.075,-0.040
0.298,-0.020,-0.040
0.300,-0.005,-0.040
0.302,-0.025,-0.040
0.304,-0.090,-0.040
0.306,-0.165,-0.040
0.308,-0.215,-0.035
0.310,-0.240,-0.030
0.312,-0.205,-0.030
0.314,-0.145,-0.025
0.316,-0.065,-0.025
0.318,-0.020,-0.025
0.320,0.000,-0.030
0.322,-0.025,-0.030
0.324,-0.080,-0.030
0.326,-0.165,-0.035
0.328,-0.220,-0.035
0.330,-0.225,-0.035
0.332,-0.200,-0.035
0.334,-0.140,-0.035
0.336,-0.055,-0.035
0.338,-0.015,-0.030
0.340,0.000,-0.030
0.342,-0.025,-0.030
0.344,-0.085,-0.030
0.346,-0.165,-0.025
0.348,-0.220,-0.025
0.350,-0.230,-0.025
0.352,-0.195,-0.025
0.354,-0.145,-0.025
0.356,-0.055,-0.030
0.358,-0.020,-0.035
0.360,-0.005,-0.035
0.362,-0.025,-0.040
0.364,-0.100,-0.040
0.366,-0.180,-0.040
0.368,-0.225,-0.040
0.370,-0.235,-0.040
0.372,-0.190,-0.035
0.374,-0.145,-0.030
0.376,-0.045,-0.030
0.378,-0.005,-0.030
0.380,0.005,-0.030
0.382,-0.035,-0.030
0.384,-0.085,-0.030
0.386,-0.170,-0.025
0.388,-0.215,-0.025
0.390,-0.215,-0.020
0.392,-0.180,-0.020
0.394,-0.135,-0.015
0.396,-0.035,-0.015
0.398,0.005,-0.015
0.400,0.020,-0.015
0.402,-0.025,-0.020
0.404,-0.080,-0.025
0.406,-0.180,-0.025
0.408,-0.215,-0.030
0.410,-0.210,-0.030
0.412,-0.170,-0.030
0.414,-0.115,-0.025
0.416,-0.020,-0.025
0.418,0.020,-0.020
0.420,0.020,-0.015
0.422,-0.010,-0.015
0.424,-0.055,-0.010
0.426,-0.150,-0.005
0.428,-0.185,0.000
0.430,-0.190,0.000
0.432,-0.130,0.005
0.434,-0.085,0.010
0.436,0.005,0.015
0.438,0.040,0.015
0.440,0.045,0.020
0.442,0.000,0.015
0.444,-0.055,0.015
0.446,-0.150,0.010
0.448,-0.180,0.010
0.450,-0.185,0.005
0.452,-0.125,0.005
0.454,-0.075,0.010
0.456,0.005,0.010
0.458,0.025,0.010
0.460,0.035,0.010
0.462,-0.025,0.010
0.464,-0.085,0.005
0.466,-0.175,-0.005
0.468,-0.210,-0.010
0.470,-0.210,-0.020
0.472,-0.165,-0.025
0.474,-0.105,-0.030
0.476,-0.030,-0.035
0.478,-0.005,-0.035
0.480,0.000,-0.035
0.482,-0.065,-0.035
0.484,-0.120,-0.030
0.486,-0.195,-0.030
0.488,-0.215,-0.030
0.490,-0.215,-0.030
0.492,-0.165,-0.030
0.494,-0.110,-0.030
0.496,-0.030,-0.030
0.498,0.000,-0.035
0.500,-0.010,-0.035
0.502,-0.080,-0.035
0.504,-0.140,-0.035
0.506,-0.215,-0.040
0.508,-0.240,-0.040
0.510,-0.235,-0.045
0.512,-0.170,-0.050
0.514,-0.100,-0.050
0.516,-0.030,-0.050
0.518,-0.005,-0.050
0.520,-0.010,-0.045
0.522,-0.070,-0.040
0.524,-0.140,-0.035
0.526,-0.220,-0.030
0.528,-0.260,-0.030
0.530,-0.250,-0.035
0.532,-0.200,-0.045
0.534,-0.130,-0.060
0.536,-0.065,-0.070
0.538,-0.055,-0.070
0.540,-0.045,-0.060
0.542,-0.050,-0.035
0.544,-0.075,0.010
0.546,-0.080,0.075
0.548,-0.010,0.155
0.550,0.090,0.245
0.552,0.240,0.330
0.554,0.390,0.405
0.556,0.515,0.460
0.558,0.570,0.490
0.560,0.540,0.485
0.562,0.415,0.455
0.564,0.225,0.395
0.566,0.090,0.320
0.568,0.050,0.235
0.570,-0.005,0.150
0.572,-0.050,0.065
0.574,-0.055,-0.010
0.576,-0.140,-0.075
0.578,-0.170,-0.120
0.580,-0.190,-0.155
0.582,-0.235,-0.180
0.584,-0.295,-0.195
0.586,-0.345,-0.195
0.588,-0.355,-0.190
0.590,-0.315,-0.175
0.592,-0.235,-0.160
0.594,-0.150,-0.135
0.596,-0.075,-0.115
0.598,-0.040,-0.095
0.600,-0.050,-0.075
0.602,-0.085,-0.060
0.604,-0.165,-0.050
0.606,-0.215,-0.040
0.608,-0.220,-0.035
0.610,-0.185,-0.030
0.612,-0.135,-0.030
0.614,-0.035,-0.025
0.616,0.020,-0.025
0.618,0.030,-0.020
0.620,0.000,-0.015
0.622,-0.045,-0.015
0.624,-0.140,-0.010
0.626,-0.190,-0.010
0.628,-0.200,-0.010
0.630,-0.175,-0.015
0.632,-0.110,-0.020
0.634,-0.025,-0.020
0.636,0.015,-0.025
0.638,0.030,-0.025
0.640,-0.005,-0.025
0.642,-0.055,-0.020
0.644,-0.135,-0.015
0.646,-0.180,-0.010
0.648,-0.195,-0.010
0.650,-0.160,-0.005
0.652,-0.100,0.000
0.654,-0.005,0.000
0.656,0.040,0.000
0.658,0.045,0.000
0.660,0.015,0.000
0.662,-0.040,-0.005
0.664,-0.125,-0.005
0.666,-0.165,-0.005
0.668,-0.175,-0.005
0.670,-0.140,0.000
0.672,-0.080,0.000
0.674,0.010,0.005
0.676,0.050,0.010
0.678,0.060,0.015
0.680,0.035,0.025
0.682,-0.030,0.030
0.684,-0.125,0.035
0.686,-0.155,0.040
0.688,-0.155,0.045
0.690,-0.120,0.045
0.692,-0.065,0.040
0.694,0.035,0.040
0.696,0.065,0.035
0.698,0.065,0.025
0.700,0.030,0.020
0.702,-0.015,0.020
0.704,-0.105,0.020
0.706,-0.150,0.025
0.708,-0.140,0.030
0.710,-0.090,0.040
0.712,-0.040,0.050
0.714,0.065,0.060
0.716,0.095,0.070
0.718,0.110,0.075
0.720,0.065,0.080
0.722,0.005,0.080
0.724,-0.085,0.080
0.726,-0.110,0.075
0.728,-0.110,0.075
0.730,-0.070,0.080
0.732,-0.015,0.080
0.734,0.085,0.085
0.736,0.120,0.090
0.738,0.120,0.095
0.740,0.080,0.095
0.742,0.035,0.095
0.744,-0.055,0.095
0.746,-0.085,0.095
0.748,-0.070,0.090
0.750,-0.025,0.090
0.752,0.045,0.095
0.754,0.130,0.100
0.756,0.165,0.105
0.758,0.165,0.115
0.760,0.125,0.120
0.762,0.070,0.130
0.764,-0.010,0.135
0.766,-0.030,0.145
0.768,-0.020,0.150
0.770,0.035,0.150
0.772,0.110,0.155
0.774,0.195,0.160
0.776,0.225,0.170
0.778,0.225,0.175
0.780,0.180,0.185
0.782,0.130,0.195
0.784,0.055,0.205
0.786,0.025,0.210
0.788,0.030,0.220
0.790,0.095,0.225
0.792,0.165,0.230
0.794,0.230,0.235
0.796,0.265,0.240
0.798,0.255,0.240
0.800,0.200,0.235
0.802,0.145,0.235
0.804,0.070,0.230
0.806,0.045,0.225
0.808,0.055,0.220
0.810,0.105,0.215
0.812,0.175,0.210
0.814,0.245,0.205
0.816,0.255,0.205
0.818,0.245,0.200
0.820,0.180,0.200
0.822,0.105,0.195
0.824,0.030,0.195
0.826,-0.005,0.190
0.828,0.000,0.185
0.830,0.040,0.175
0.832,0.100,0.165
0.834,0.160,0.155
0.836,0.165,0.140
0.838,0.140,0.125
0.840,0.070,0.110
0.842,-0.020,0.100
0.844,-0.095,0.085
0.846,-0.120,0.075
0.848,-0.115,0.065
0.850,-0.070,0.055
0.852,-0.010,0.050
0.854,0.060,0.040
0.856,0.070,0.035
0.858,0.055,0.025
0.860,-0.015,0.020
0.862,-0.090,0.015
0.864,-0.155,0.010
0.866,-0.175,0.005
0.868,-0.165,0.000
0.870,-0.115,-0.005
0.872,-0.040,-0.010
0.874,0.010,-0.010
0.876,0.035,-0.020
0.878,0.005,-0.025
0.880,-0.045,-0.030
0.882,-0.135,-0.035
0.884,-0.195,-0.035
0.886,-0.215,-0.040
0.888,-0.195,-0.040
0.890,-0.135,-0.040
0.892,-0.050,-0.040
0.894,-0.005,-0.040
0.896,0.010,-0.040
0.898,-0.015,-0.040
0.900,-0.075,-0.040
0.902,-0.165,-0.045
0.904,-0.215,-0.045
0.906,-0.230,-0.045
0.908,-0.215,-0.050
0.910,-0.150,-0.050
0.912,-0.055,-0.055
0.914,-0.025,-0.060
0.916,-0.015,-0.065
0.918,-0.040,-0.065
0.920,-0.095,-0.070
0.922,-0.180,-0.070
0.924,-0.230,-0.075
0.926,-0.245,-0.075
0.928,-0.210,-0.075
0.930,-0.155,-0.075
0.932,-0.070,-0.070
0.934,-0.025,-0.070
0.936,-0.010,-0.070
0.938,-0.045,-0.065
0.940,-0.095,-0.065
0.942,-0.165,-0.060
0.944,-0.215,-0.055
0.946,-0.230,-0.055
0.948,-0.200,-0.050
0.950,-0.140,-0.050
0.952,-0.045,-0.045
0.954,-0.005,-0.045
0.956,0.005,-0.045
0.958,-0.030,-0.045
0.960,-0.085,-0.045
0.962,-0.170,-0.045
0.964,-0.200,-0.040
0.966,-0.220,-0.040
0.968,-0.180,-0.035
0.970,-0.125,-0.030
0.972,-0.025,-0.025
0.974,0.015,-0.025
0.976,0.020,-0.025
0.978,-0.010,-0.025
0.980,-0.060,-0.030
0.982,-0.155,-0.035
0.984,-0.190,-0.035
0.986,-0.190,-0.035
0.988,-0.150,-0.035
0.990,-0.105,-0.030
0.992,-0.015,-0.025
0.994,0.020,-0.025
0.996,0.040,-0.020
0.998,-0.010,-0.020
1.000,-0.060,-0.020
1.002,-0.155,-0.020
1.004,-0.195,-0.025
1.006,-0.185,-0.030
1.008,-0.155,-0.030
1.010,-0.100,-0.030
1.012,-0.010,-0.030
1.014,0.025,-0.030
1.016,0.020,-0.030
1.018,-0.020,-0.030
1.020,-0.070,-0.035
1.022,-0.160,-0.035
1.024,-0.200,-0.040
1.026,-0.205,-0.045
1.028,-0.160,-0.050
1.030,-0.100,-0.055
1.032,-0.020,-0.055
1.034,0.020,-0.055
1.036,0.020,-0.050
1.038,-0.025,-0.045
1.040,-0.090,-0.040
1.042,-0.170,-0.035
1.044,-0.205,-0.030
1.046,-0.195,-0.025
1.048,-0.155,-0.020
1.050,-0.105,-0.020
1.052,-0.010,-0.020
1.054,0.025,-0.025
1.056,0.005,-0.030
1.058,-0.030,-0.035
1.060,-0.095,-0.040
1.062,-0.185,-0.045
1.064,-0.220,-0.045
1.066,-0.200,-0.045
1.068,-0.145,-0.045
1.070,-0.090,-0.040
1.072,-0.010,-0.040
1.074,0.015,-0.035
1.076,0.010,-0.030
1.078,-0.045,-0.030
1.080,-0.105,-0.030
1.082,-0.180,-0.030
1.084,-0.205,-0.035
1.086,-0.200,-0.035
1.088,-0.140,-0.040
1.090,-0.085,-0.040
1.092,-0.010,-0.040
1.094,0.030,-0.040
1.096,0.010,-0.035
1.098,-0.055,-0.030
1.100,-0.105,-0.030
1.102,-0.195,-0.030
1.104,-0.210,-0.030
1.106,-0.200,-0.030
1.108,-0.150,-0.030
1.110,-0.085,-0.035
1.112,-0.015,-0.035
1.114,0.010,-0.040
1.116,-0.005,-0.040
1.118,-0.055,-0.040
1.120,-0.130,-0.040
1.122,-0.195,-0.040
1.124,-0.210,-0.035
1.126,-0.195,-0.030
1.128,-0.145,-0.030
1.130,-0.075,-0.030
1.132,-0.015,-0.025
1.134,0.015,-0.030
1.136,0.000,-0.030
1.138,-0.065,-0.030
1.140,-0.140,-0.035
1.142,-0.195,-0.035
1.144,-0.220,-0.040
1.146,-0.205,-0.040
1.148,-0.155,-0.045
1.150,-0.065,-0.045
1.152,-0.015,-0.045
1.154,0.010,-0.050
1.156,-0.010,-0.050
1.158,-0.065,-0.050
1.160,-0.150,-0.055
1.162,-0.195,-0.055
1.164,-0.215,-0.050
1.166,-0.195,-0.050
1.168,-0.135,-0.045
1.170,-0.060,-0.045
1.172,-0.005,-0.045
1.174,0.015,-0.045
1.176,-0.010,-0.045
1.178,-0.070,-0.045
1.180,-0.155,-0.050
1.182,-0.210,-0.055
1.184,-0.225,-0.060
1.186,-0.195,-0.065
1.188,-0.140,-0.065
1.190,-0.065,-0.065
1.192,-0.005,-0.065
1.194,0.020,-0.060
1.196,-0.025,-0.055
1.198,-0.065,-0.050
1.200,-0.155,-0.045
1.202,-0.200,-0.040
1.204,-0.215,-0.035
1.206,-0.190,-0.035
1.208,-0.135,-0.035
1.210,-0.040,-0.035
1.212,0.000,-0.040
1.214,0.010,-0.045
1.216,-0.015,-0.045
1.218,-0.065,-0.050
1.220,-0.150,-0.050
1.222,-0.195,-0.050
1.224,-0.210,-0.050
1.226,-0.185,-0.050
1.228,-0.130,-0.045
1.230,-0.040,-0.045
1.232,0.000,-0.040
1.234,0.015,-0.040
1.236,-0.020,-0.040
1.238,-0.075,-0.040
1.240,-0.155,-0.040
1.242,-0.195,-0.040
1.244,-0.210,-0.040
1.246,-0.180,-0.045
1.248,-0.125,-0.045
1.250,-0.045,-0.045
1.252,0.000,-0.045
1.254,0.010,-0.045
1.256,-0.020,-0.045
1.258,-0.075,-0.045
1.260,-0.155,-0.045
1.262,-0.200,-0.045
1.264,-0.220,-0.040
1.266,-0.170,-0.040
1.268,-0.125,-0.040
1.270,-0.040,-0.040
1.272,0.000,-0.045
1.274,0.015,-0.045
1.276,-0.030,-0.045
1.278,-0.085,-0.050
1.280,-0.160,-0.050
1.282,-0.205,-0.055
1.284,-0.210,-0.055
1.286,-0.170,-0.050
1.288,-0.115,-0.050
1.290,-0.025,-0.050
1.292,0.015,-0.045
1.294,0.005,-0.045
1.296,-0.025,-0.045
1.298,-0.080,-0.045
1.300,-0.175,-0.045
1.302,-0.210,-0.050
1.304,-0.215,-0.055
1.306,-0.180,-0.055
1.308,-0.115,-0.055
1.310,-0.020,-0.055
1.312,0.015,-0.050
1.314,0.020,-0.045
1.316,-0.035,-0.040
1.318,-0.095,-0.035
1.320,-0.175,-0.035
1.322,-0.210,-0.035
1.324,-0.210,-0.035
1.326,-0.155,-0.040
1.328,-0.100,-0.040
1.330,-0.020,-0.045
1.332,0.015,-0.050
1.334,0.015,-0.050
1.336,-0.030,-0.050
1.338,-0.090,-0.050
1.340,-0.165,-0.045
1.342,-0.200,-0.045
1.344,-0.200,-0.040
1.346,-0.155,-0.035
1.348,-0.085,-0.030
1.350,0.005,-0.025
1.352,0.025,-0.025
1.354,0.025,-0.025
1.356,-0.025,-0.025
1.358,-0.085,-0.020
1.360,-0.155,-0.020
1.362,-0.175,-0.015
1.364,-0.180,-0.015
1.366,-0.120,-0.010
1.368,-0.065,-0.010
1.370,0.020,-0.005
1.372,0.040,-0.005
1.374,0.045,-0.010
1.376,-0.015,-0.010
1.378,-0.075,-0.015
1.380,-0.150,-0.015
1.382,-0.175,-0.020
1.384,-0.165,-0.020
1.386,-0.105,-0.015
1.388,-0.055,-0.015
1.390,0.025,-0.010
1.392,0.045,-0.005
1.394,0.050,0.000
1.396,-0.020,0.005
1.398,-0.080,0.000
1.400,-0.150,0.000
1.402,-0.190,-0.010
1.404,-0.185,-0.015
1.406,-0.130,-0.025
1.408,-0.070,-0.030
1.410,0.000,-0.035
1.412,0.020,-0.035
1.414,0.005,-0.040
1.416,-0.050,-0.035
1.418,-0.125,-0.035
1.420,-0.195,-0.035
1.422,-0.225,-0.040
1.424,-0.210,-0.040
1.426,-0.160,-0.045
1.428,-0.070,-0.050
1.430,-0.010,-0.050
1.432,-0.005,-0.050
1.434,-0.010,-0.050
1.436,-0.065,-0.050
1.438,-0.145,-0.045
1.440,-0.215,-0.040
1.442,-0.230,-0.040
1.444,-0.210,-0.040
1.446,-0.145,-0.040
1.448,-0.060,-0.045
1.450,-0.015,-0.050
1.452,0.000,-0.060
1.454,-0.015,-0.065
1.456,-0.065,-0.065
1.458,-0.155,-0.065
1.460,-0.205,-0.065
1.462,-0.220,-0.060
1.464,-0.210,-0.060
1.466,-0.155,-0.055
1.468,-0.070,-0.055
1.470,-0.015,-0.050
1.472,0.005,-0.055
1.474,-0.015,-0.055
1.476,-0.090,-0.060
1.478,-0.185,-0.070
1.480,-0.240,-0.080
1.482,-0.280,-0.090
1.484,-0.250,-0.100
1.486,-0.185,-0.105
1.488,-0.110,-0.110
1.490,-0.060,-0.105
1.492,-0.045,-0.085
1.494,-0.010,-0.050
1.496,-0.015,0.005
1.498,-0.025,0.070
1.500,0.000,0.150
1.502,0.090,0.235
1.504,0.200,0.320
1.506,0.360,0.395
1.508,0.525,0.455
1.510,0.585,0.490
1.512,0.580,0.495
1.514,0.485,0.470
1.516,0.305,0.415
1.518,0.165,0.340
1.520,0.105,0.255
1.522,0.010,0.155
1.524,-0.065,0.060
1.526,-0.125,-0.025
1.528,-0.175,-0.100
1.530,-0.180,-0.160
1.532,-0.170,-0.200
1.534,-0.195,-0.225
1.536,-0.250,-0.235
1.538,-0.340,-0.235
1.540,-0.375,-0.225
1.542,-0.360,-0.210
1.544,-0.305,-0.190
1.546,-0.230,-0.170
1.548,-0.115,-0.150
1.550,-0.060,-0.130
1.552,-0.040,-0.110
1.554,-0.060,-0.095
1.556,-0.095,-0.080
1.558,-0.180,-0.075
1.560,-0.230,-0.065
1.562,-0.225,-0.060
1.564,-0.185,-0.060
1.566,-0.140,-0.060
1.568,-0.045,-0.060
1.570,-0.010,-0.060
1.572,0.005,-0.055
1.574,-0.045,-0.050
1.576,-0.080,-0.045
1.578,-0.170,-0.040
1.580,-0.195,-0.030
1.582,-0.215,-0.025
1.584,-0.135,-0.020
1.586,-0.085,-0.020
1.588,0.010,-0.015
1.590,0.035,-0.015
1.592,0.035,-0.020
1.594,-0.010,-0.020
1.596,-0.065,-0.025
1.598,-0.155,-0.025
1.600,-0.195,-0.025
1.602,-0.200,-0.025
1.604,-0.150,-0.025
1.606,-0.090,-0.025
1.608,-0.005,-0.020
1.610,0.025,-0.020
1.612,0.050,-0.020
1.614,-0.005,-0.015
1.616,-0.055,-0.010
1.618,-0.140,-0.005
1.620,-0.160,0.000
1.622,-0.160,0.005
1.624,-0.115,0.010
1.626,-0.055,0.015
1.628,0.040,0.015
1.630,0.065,0.015
1.632,0.065,0.015
1.634,0.005,0.010
1.636,-0.045,0.010
1.638,-0.115,0.005
1.640,-0.155,0.005
1.642,-0.145,0.005
1.644,-0.095,0.005
1.646,-0.040,0.005
1.648,0.040,0.010
1.650,0.075,0.015
1.652,0.080,0.015
1.654,0.020,0.020
1.656,-0.045,0.025
1.658,-0.130,0.030
1.660,-0.125,0.035
1.662,-0.125,0.035
1.664,-0.075,0.035
1.666,-0.020,0.035
1.668,0.060,0.035
1.670,0.085,0.035
1.672,0.075,0.035
1.674,0.025,0.035
1.676,-0.030,0.035
1.678,-0.095,0.035
1.680,-0.125,0.035
1.682,-0.105,0.035
1.684,-0.045,0.040
1.686,0.035,0.045
1.688,0.100,0.045
1.690,0.125,0.050
1.692,0.120,0.055
1.694,0.070,0.065
1.696,0.005,0.070
1.698,-0.070,0.080
1.700,-0.090,0.085
1.702,-0.065,0.090
1.704,-0.005,0.095
1.706,0.070,0.100
1.708,0.130,0.100
1.710,0.155,0.100
1.712,0.150,0.105
1.714,0.100,0.105
1.716,0.040,0.115
1.718,-0.020,0.120
1.720,-0.025,0.130
1.722,0.025,0.145
1.724,0.085,0.160
1.726,0.175,0.175
1.728,0.250,0.190
1.730,0.275,0.200
1.732,0.260,0.210
1.734,0.200,0.215
1.736,0.135,0.215
1.738,0.070,0.215
1.740,0.050,0.215
1.742,0.065,0.215
1.744,0.125,0.210
1.746,0.205,0.210
1.748,0.255,0.210
1.750,0.285,0.215
1.752,0.265,0.215
1.754,0.210,0.220
1.756,0.145,0.225
1.758,0.095,0.230
1.760,0.065,0.230
1.762,0.085,0.230
1.764,0.145,0.230
1.766,0.215,0.230
1.768,0.260,0.225
1.770,0.270,0.220
1.772,0.250,0.215
1.774,0.165,0.210
1.776,0.075,0.205
1.778,0.015,0.195
1.780,-0.015,0.185
1.782,0.000,0.175
1.784,0.050,0.165
1.786,0.125,0.155
1.788,0.160,0.145
1.790,0.180,0.135
1.792,0.135,0.120
1.794,0.070,0.110
1.796,-0.025,0.100
1.798,-0.090,0.090
1.800,-0.130,0.080
1.802,-0.110,0.065
1.804,-0.050,0.055
1.806,0.040,0.045
1.808,0.055,0.030
1.810,0.070,0.020
1.812,0.030,0.010
1.814,-0.025,0.000
1.816,-0.115,-0.005
1.818,-0.165,-0.010
1.820,-0.195,-0.015
1.822,-0.165,-0.015
1.824,-0.110,-0.015
1.826,-0.035,-0.020
1.828,0.000,-0.025
1.830,0.010,-0.030
1.832,-0.005,-0.035
1.834,-0.075,-0.045
1.836,-0.165,-0.050
1.838,-0.215,-0.050
1.840,-0.225,-0.055
1.842,-0.200,-0.050
1.844,-0.155,-0.050
1.846,-0.050,-0.045
1.848,-0.010,-0.045
1.850,-0.010,-0.045
1.852,-0.050,-0.045
1.854,-0.080,-0.045
1.856,-0.175,-0.045
1.858,-0.220,-0.045
1.860,-0.230,-0.045
1.862,-0.195,-0.045
1.864,-0.140,-0.045
1.866,-0.030,-0.045
1.868,-0.005,-0.050
1.870,0.000,-0.050
1.872,-0.035,-0.050
1.874,-0.090,-0.055
1.876,-0.175,-0.055
1.878,-0.215,-0.060
1.880,-0.220,-0.060
1.882,-0.180,-0.060
1.884,-0.130,-0.060
1.886,-0.035,-0.055
1.888,0.000,-0.050
1.890,-0.005,-0.045
1.892,-0.040,-0.040
1.894,-0.105,-0.040
1.896,-0.190,-0.040
1.898,-0.235,-0.040
1.900,-0.240,-0.040
1.902,-0.190,-0.045
1.904,-0.130,-0.050
1.906,-0.025,-0.055
1.908,0.015,-0.055
1.910,0.020,-0.055
1.912,-0.020,-0.055
1.914,-0.100,-0.055
1.916,-0.180,-0.050
1.918,-0.225,-0.050
1.920,-0.230,-0.045
1.922,-0.170,-0.045
1.924,-0.110,-0.045
1.926,-0.015,-0.045
1.928,0.005,-0.050
1.930,0.005,-0.050
1.932,-0.030,-0.050
1.934,-0.095,-0.050
1.936,-0.180,-0.045
1.938,-0.220,-0.045
1.940,-0.210,-0.040
1.942,-0.145,-0.035
1.944,-0.080,-0.030
1.946,-0.005,-0.025
1.948,0.035,-0.025
1.950,0.020,-0.020
1.952,-0.030,-0.020
1.954,-0.100,-0.020
1.956,-0.180,-0.020
1.958,-0.205,-0.025
1.960,-0.200,-0.025
1.962,-0.135,-0.025
1.964,-0.080,-0.025
1.966,0.015,-0.025
1.968,0.030,-0.025
1.970,0.005,-0.025
1.972,-0.045,-0.025
1.974,-0.120,-0.030
1.976,-0.205,-0.030
1.978,-0.230,-0.035
1.980,-0.210,-0.035
1.982,-0.145,-0.040
1.984,-0.070,-0.040
1.986,-0.005,-0.045
1.988,0.020,-0.045
1.990,0.000,-0.045
1.992,-0.055,-0.045
1.994,-0.110,-0.040
1.996,-0.170,-0.040
1.998,-0.210,-0.040
2.000,-0.195,-0.035
2.002,-0.140,-0.035
2.004,-0.065,-0.035
2.006,-0.005,-0.035
2.008,0.020,-0.035
2.010,-0.005,-0.040
2.012,-0.060,-0.040
2.014,-0.145,-0.045
2.016,-0.205,-0.045
2.018,-0.220,-0.050
2.020,-0.200,-0.050
2.022,-0.140,-0.045
2.024,-0.060,-0.040
2.026,0.005,-0.040
2.028,0.025,-0.035
2.030,0.015,-0.030
2.032,-0.060,-0.030
2.034,-0.135,-0.025
2.036,-0.185,-0.025
2.038,-0.215,-0.025
2.040,-0.200,-0.025
2.042,-0.145,-0.025
2.044,-0.055,-0.020
2.046,0.000,-0.020
2.048,0.015,-0.020
2.050,-0.005,-0.020
2.052,-0.050,-0.020
2.054,-0.125,-0.020
2.056,-0.185,-0.020
2.058,-0.215,-0.025
2.060,-0.190,-0.025
2.062,-0.140,-0.030
2.064,-0.055,-0.030
2.066,-0.005,-0.030
2.068,0.020,-0.035
2.070,0.000,-0.035
2.072,-0.065,-0.035
2.074,-0.140,-0.030
2.076,-0.210,-0.030
2.078,-0.230,-0.030
2.080,-0.175,-0.030
2.082,-0.120,-0.030
2.084,-0.055,-0.030
2.086,0.010,-0.030
2.088,0.015,-0.025
2.090,-0.025,-0.025
2.092,-0.075,-0.025
2.094,-0.145,-0.020
2.096,-0.200,-0.020
2.098,-0.215,-0.020
2.100,-0.175,-0.020
2.102,-0.120,-0.020
2.104,-0.045,-0.020
2.106,-0.005,-0.025
2.108,0.005,-0.025
2.110,-0.020,-0.030
2.112,-0.075,-0.030
2.114,-0.165,-0.035
2.116,-0.210,-0.040
2.118,-0.220,-0.040
2.120,-0.185,-0.040
2.122,-0.130,-0.040
2.124,-0.045,-0.040
2.126,0.000,-0.040
2.128,0.010,-0.040
2.130,-0.035,-0.035
2.132,-0.090,-0.035
2.134,-0.165,-0.035
2.136,-0.220,-0.035
2.138,-0.235,-0.035
2.140,-0.195,-0.040
2.142,-0.145,-0.040
2.144,-0.050,-0.040
2.146,0.005,-0.040
2.148,0.010,-0.040
2.150,-0.035,-0.040
2.152,-0.090,-0.040
2.154,-0.185,-0.040
2.156,-0.220,-0.040
2.158,-0.225,-0.040
2.160,-0.180,-0.045
2.162,-0.135,-0.045
2.164,-0.045,-0.050
2.166,-0.005,-0.055
2.168,-0.005,-0.060
2.170,-0.045,-0.065
2.172,-0.095,-0.065
2.174,-0.195,-0.070
2.176,-0.235,-0.070
2.178,-0.245,-0.065
2.180,-0.200,-0.065
2.182,-0.155,-0.065
2.184,-0.055,-0.060
2.186,-0.020,-0.060
2.188,-0.015,-0.060
2.190,-0.050,-0.060
2.192,-0.105,-0.065
2.194,-0.180,-0.065
2.196,-0.220,-0.065
2.198,-0.220,-0.060
2.200,-0.185,-0.060
2.202,-0.125,-0.055
2.204,-0.030,-0.050
2.206,0.000,-0.045
2.208,0.000,-0.040
2.210,-0.050,-0.035
2.212,-0.095,-0.035
2.214,-0.190,-0.035
2.216,-0.235,-0.035
2.218,-0.225,-0.035
2.220,-0.180,-0.040
2.222,-0.120,-0.040
2.224,-0.030,-0.045
2.226,0.000,-0.045
2.228,-0.015,-0.050
2.230,-0.060,-0.055
2.232,-0.120,-0.055
2.234,-0.195,-0.055
2.236,-0.235,-0.060
2.238,-0.235,-0.055
2.240,-0.175,-0.055
2.242,-0.110,-0.050
2.244,-0.025,-0.050
2.246,0.010,-0.045
2.248,0.005,-0.040
2.250,-0.055,-0.035
2.252,-0.110,-0.035
2.254,-0.185,-0.035
2.256,-0.220,-0.035
2.258,-0.220,-0.035
2.260,-0.160,-0.035
2.262,-0.095,-0.035
2.264,-0.025,-0.035
2.266,0.010,-0.035
2.268,-0.005,-0.035
2.270,-0.065,-0.030
2.272,-0.125,-0.030
2.274,-0.195,-0.030
2.276,-0.215,-0.030
2.278,-0.200,-0.030
2.280,-0.140,-0.025
2.282,-0.065,-0.025
2.284,-0.010,-0.020
2.286,0.020,-0.015
2.288,0.025,-0.010
2.290,-0.030,-0.005
2.292,-0.080,0.000
2.294,-0.150,0.005
2.296,-0.175,0.010
2.298,-0.165,0.010
2.300,-0.095,0.010
2.302,-0.040,0.010
2.304,0.030,0.010
2.306,0.045,0.010
2.308,0.040,0.010
2.310,-0.020,0.005
2.312,-0.090,0.000
2.314,-0.155,0.000
2.316,-0.185,-0.005
2.318,-0.160,-0.010
2.320,-0.100,-0.010
2.322,-0.025,-0.010
2.324,0.035,-0.010
2.326,0.050,-0.005
2.328,0.030,0.000
2.330,-0.030,0.005
2.332,-0.110,0.005
2.334,-0.180,0.010
2.336,-0.210,0.010
2.338,-0.175,0.005
2.340,-0.130,0.000
2.342,-0.055,-0.010
2.344,0.000,-0.015
2.346,0.025,-0.025
2.348,-0.015,-0.030
2.350,-0.075,-0.035
2.352,-0.150,-0.035
2.354,-0.205,-0.035
2.356,-0.225,-0.035
2.358,-0.210,-0.030
2.360,-0.145,-0.030
2.362,-0.070,-0.030
2.364,-0.015,-0.030
2.366,0.000,-0.035
2.368,-0.020,-0.035
2.370,-0.080,-0.035
2.372,-0.165,-0.040
2.374,-0.225,-0.040
2.376,-0.230,-0.040
2.378,-0.210,-0.040
2.380,-0.155,-0.040
2.382,-0.070,-0.040
2.384,-0.015,-0.045
2.386,-0.005,-0.045
2.388,-0.025,-0.050
2.390,-0.075,-0.050
2.392,-0.165,-0.050
2.394,-0.220,-0.055
2.396,-0.240,-0.050
2.398,-0.200,-0.050
2.400,-0.155,-0.045
2.402,-0.065,-0.045
2.404,-0.030,-0.045
2.406,-0.020,-0.045
2.408,-0.060,-0.050
2.410,-0.125,-0.060
2.412,-0.225,-0.075
2.414,-0.280,-0.085
2.416,-0.280,-0.090
2.418,-0.260,-0.090
2.420,-0.195,-0.080
2.422,-0.065,-0.050
2.424,0.035,0.000
2.426,0.130,0.065
2.428,0.175,0.145
2.430,0.205,0.235
2.432,0.215,0.330
2.434,0.265,0.415
2.436,0.365,0.485
2.438,0.440,0.535
2.440,0.490,0.550
2.442,0.535,0.535
2.444,0.450,0.485
2.446,0.375,0.410
2.448,0.315,0.310
2.450,0.195,0.200
2.452,-0.030,0.090
2.454,-0.200,-0.010
2.456,-0.345,-0.095
2.458,-0.385,-0.165
2.460,-0.325,-0.210
2.462,-0.225,-0.235
2.464,-0.175,-0.245
2.466,-0.160,-0.240
2.468,-0.205,-0.225
2.470,-0.245,-0.205
2.472,-0.325,-0.185
2.474,-0.340,-0.160
2.476,-0.320,-0.140
2.478,-0.245,-0.115
2.480,-0.180,-0.095
2.482,-0.060,-0.075
2.484,-0.020,-0.060
2.486,0.000,-0.050
2.488,-0.045,-0.040
2.490,-0.100,-0.035
2.492,-0.190,-0.040
2.494,-0.215,-0.040
2.496,-0.220,-0.045
2.498,-0.175,-0.045
2.500,-0.105,-0.045
2.502,-0.025,-0.040
2.504,0.005,-0.035
2.506,0.030,-0.025
2.508,-0.025,-0.015
2.510,-0.085,-0.010
2.512,-0.165,-0.005
2.514,-0.190,0.000
2.516,-0.195,0.005
2.518,-0.145,0.005
2.520,-0.080,0.000
2.522,0.010,0.000
2.524,0.035,0.000
2.526,0.030,0.000
2.528,-0.005,0.005
2.530,-0.070,0.005
2.532,-0.150,0.005
2.534,-0.180,0.005
2.536,-0.175,0.005
2.538,-0.125,0.005
2.540,-0.070,0.005
2.542,0.020,0.005
2.544,0.050,0.005
2.546,0.050,0.005
2.548,-0.005,0.010
2.550,-0.065,0.010
2.552,-0.145,0.015
2.554,-0.165,0.015
2.556,-0.160,0.020
2.558,-0.110,0.020
2.560,-0.040,0.020
2.562,0.035,0.020
2.564,0.080,0.025
2.566,0.060,0.025
2.568,0.005,0.025
2.570,-0.060,0.025
2.572,-0.135,0.025
2.574,-0.160,0.025
2.576,-0.145,0.025
2.578,-0.080,0.025
2.580,-0.015,0.025
2.582,0.050,0.025
2.584,0.075,0.025
2.586,0.070,0.025
2.588,0.015,0.030
2.590,-0.055,0.030
2.592,-0.120,0.030
2.594,-0.150,0.035
2.596,-0.130,0.040
2.598,-0.065,0.040
2.600,0.010,0.040
2.602,0.075,0.045
2.604,0.105,0.045
2.606,0.080,0.050
2.608,0.025,0.050
2.610,-0.045,0.055
2.612,-0.105,0.060
2.614,-0.115,0.065
2.616,-0.100,0.070
2.618,-0.040,0.075
2.620,0.045,0.080
2.622,0.100,0.080
2.624,0.120,0.085
2.626,0.120,0.090
2.628,0.055,0.095
2.630,-0.005,0.095
2.632,-0.055,0.100
2.634,-0.070,0.105
2.636,-0.050,0.110
2.638,0.010,0.115
2.640,0.115,0.120
2.642,0.165,0.130
2.644,0.195,0.135
2.646,0.175,0.145
2.648,0.120,0.150
2.650,0.045,0.160
2.652,0.000,0.165
2.654,-0.005,0.170
2.656,0.030,0.175
2.658,0.090,0.180
2.660,0.170,0.180
2.662,0.230,0.185
2.664,0.250,0.185
2.666,0.225,0.185
2.668,0.170,0.190
2.670,0.100,0.195
2.672,0.055,0.200
2.674,0.035,0.205
2.676,0.075,0.215
2.678,0.140,0.225
2.680,0.225,0.230
2.682,0.270,0.240
2.684,0.265,0.245
2.686,0.245,0.250
2.688,0.190,0.255
2.690,0.105,0.255
2.692,0.050,0.250
2.694,0.045,0.245
2.696,0.070,0.235
2.698,0.120,0.225
2.700,0.200,0.215
2.702,0.235,0.205
2.704,0.230,0.195
2.706,0.190,0.185
2.708,0.130,0.180
2.710,0.035,0.175
2.712,-0.030,0.165
2.714,-0.045,0.160
2.716,-0.030,0.150
2.718,0.005,0.135
2.720,0.085,0.120
2.722,0.115,0.105
2.724,0.110,0.085
2.726,0.065,0.070
2.728,0.000,0.055
2.730,-0.095,0.040
2.732,-0.145,0.030
2.734,-0.175,0.020
2.736,-0.130,0.015
2.738,-0.085,0.010
2.740,0.000,0.005
2.742,0.035,0.000
2.744,0.030,-0.010
2.746,-0.010,-0.015
2.748,-0.065,-0.025
2.750,-0.170,-0.030
2.752,-0.210,-0.035
2.754,-0.220,-0.035
2.756,-0.185,-0.040
2.758,-0.125,-0.035
2.760,-0.045,-0.035
2.762,-0.005,-0.035
2.764,-0.010,-0.035
2.766,-0.050,-0.035
2.768,-0.100,-0.035
2.770,-0.200,-0.040
2.772,-0.240,-0.045
2.774,-0.245,-0.050
2.776,-0.210,-0.060
2.778,-0.145,-0.065
2.780,-0.060,-0.070
2.782,-0.030,-0.075
2.784,-0.030,-0.075
2.786,-0.075,-0.075
2.788,-0.125,-0.075
2.790,-0.220,-0.070
2.792,-0.250,-0.070
2.794,-0.255,-0.065
2.796,-0.210,-0.065
2.798,-0.145,-0.065
2.800,-0.055,-0.065
2.802,-0.035,-0.070
2.804,-0.030,-0.070
2.806,-0.090,-0.075
2.808,-0.135,-0.080
2.810,-0.220,-0.080
2.812,-0.250,-0.080
2.814,-0.250,-0.080
2.816,-0.205,-0.075
2.818,-0.140,-0.075
2.820,-0.060,-0.070
2.822,-0.035,-0.065
2.824,-0.030,-0.065
2.826,-0.080,-0.060
2.828,-0.130,-0.060
2.830,-0.215,-0.060
2.832,-0.240,-0.060
2.834,-0.245,-0.060
2.836,-0.180,-0.060
2.838,-0.115,-0.055
2.840,-0.040,-0.055
2.842,-0.015,-0.050
2.844,-0.020,-0.050
2.846,-0.080,-0.055
2.848,-0.130,-0.055
2.850,-0.210,-0.060
2.852,-0.240,-0.065
2.854,-0.225,-0.070
2.856,-0.170,-0.070
2.858,-0.100,-0.070
2.860,-0.025,-0.065
2.862,0.005,-0.060
2.864,-0.025,-0.050
2.866,-0.070,-0.045
2.868,-0.120,-0.035
2.870,-0.200,-0.030
2.872,-0.225,-0.025
2.874,-0.210,-0.025
2.876,-0.155,-0.020
2.878,-0.085,-0.020
2.880,-0.010,-0.020
2.882,0.020,-0.025
2.884,0.000,-0.025
2.886,-0.060,-0.025
2.888,-0.130,-0.030
2.890,-0.200,-0.030
2.892,-0.215,-0.035
2.894,-0.205,-0.035
2.896,-0.145,-0.035
2.898,-0.075,-0.040
2.900,-0.015,-0.040
2.902,0.015,-0.040
2.904,-0.005,-0.040
2.906,-0.065,-0.040
2.908,-0.135,-0.040
2.910,-0.200,-0.040
2.912,-0.220,-0.040
2.914,-0.200,-0.040
2.916,-0.150,-0.040
2.918,-0.075,-0.035
2.920,-0.020,-0.035
2.922,0.010,-0.035
2.924,-0.010,-0.030
2.926,-0.075,-0.030
2.928,-0.145,-0.030
2.930,-0.205,-0.030
2.932,-0.230,-0.030
2.934,-0.195,-0.035
2.936,-0.150,-0.035
2.938,-0.060,-0.040
2.940,-0.010,-0.040
2.942,0.015,-0.040
2.944,-0.005,-0.045
2.946,-0.070,-0.045
2.948,-0.140,-0.040
2.950,-0.195,-0.040
2.952,-0.210,-0.035
2.954,-0.185,-0.035
2.956,-0.130,-0.030
2.958,-0.050,-0.030
2.960,0.005,-0.025
2.962,0.020,-0.025
2.964,-0.010,-0.025
2.966,-0.070,-0.025
2.968,-0.155,-0.020
2.970,-0.200,-0.020
2.972,-0.220,-0.020
2.974,-0.190,-0.020
2.976,-0.140,-0.020
2.978,-0.050,-0.020
2.980,0.000,-0.020
2.982,0.020,-0.025
2.984,-0.015,-0.030
2.986,-0.070,-0.030
2.988,-0.160,-0.035
2.990,-0.210,-0.035
2.992,-0.225,-0.035
2.994,-0.190,-0.035
2.996,-0.130,-0.035
2.998,-0.040,-0.035
3.000,-0.005,-0.030
3.002,0.010,-0.030
3.004,-0.025,-0.035
3.006,-0.080,-0.035
3.008,-0.160,-0.035
3.010,-0.210,-0.040
3.012,-0.230,-0.040
3.014,-0.185,-0.035
3.016,-0.130,-0.035
3.018,-0.040,-0.030
3.020,-0.005,-0.030
3.022,0.020,-0.030
3.024,-0.025,-0.030
3.026,-0.080,-0.035
3.028,-0.170,-0.040
3.030,-0.220,-0.050
3.032,-0.225,-0.060
3.034,-0.190,-0.065
3.036,-0.125,-0.070
3.038,-0.050,-0.070
3.040,-0.005,-0.065
3.042,0.005,-0.060
3.044,-0.035,-0.050
3.046,-0.085,-0.040
3.048,-0.180,-0.030
3.050,-0.205,-0.020
3.052,-0.215,-0.020
3.054,-0.185,-0.015
3.056,-0.130,-0.020
3.058,-0.040,-0.025
3.060,-0.015,-0.035
3.062,0.000,-0.045
3.064,-0.055,-0.050
3.066,-0.100,-0.055
3.068,-0.185,-0.060
3.070,-0.225,-0.055
3.072,-0.225,-0.055
3.074,-0.185,-0.050
3.076,-0.125,-0.050
3.078,-0.040,-0.045
3.080,-0.015,-0.045
3.082,-0.005,-0.045
3.084,-0.055,-0.045
3.086,-0.110,-0.050
3.088,-0.200,-0.050
3.090,-0.225,-0.050
3.092,-0.235,-0.055
3.094,-0.185,-0.055
3.096,-0.135,-0.050
3.098,-0.040,-0.050
3.100,-0.005,-0.050
3.102,-0.005,-0.050
3.104,-0.060,-0.050
3.106,-0.120,-0.050
3.108,-0.205,-0.050
3.110,-0.225,-0.050
3.112,-0.230,-0.050
3.114,-0.180,-0.050
3.116,-0.120,-0.050
3.118,-0.035,-0.045
3.120,-0.005,-0.045
3.122,-0.020,-0.045
3.124,-0.065,-0.050
3.126,-0.120,-0.050
3.128,-0.210,-0.055
3.130,-0.245,-0.060
3.132,-0.235,-0.065
3.134,-0.180,-0.070
3.136,-0.110,-0.075
3.138,-0.045,-0.080
3.140,-0.010,-0.080
3.142,-0.020,-0.080
3.144,-0.070,-0.080
3.146,-0.145,-0.075
3.148,-0.210,-0.070
3.150,-0.240,-0.070
3.152,-0.230,-0.065
3.154,-0.175,-0.060
3.156,-0.095,-0.060
3.158,-0.025,-0.060
3.160,0.000,-0.060
3.162,-0.015,-0.060
3.164,-0.070,-0.055
3.166,-0.140,-0.055
3.168,-0.205,-0.050
3.170,-0.225,-0.045
3.172,-0.225,-0.040
3.174,-0.160,-0.040
3.176,-0.095,-0.035
3.178,-0.020,-0.035
3.180,0.005,-0.035
3.182,-0.020,-0.035
3.184,-0.075,-0.040
3.186,-0.140,-0.045
3.188,-0.205,-0.045
3.190,-0.230,-0.045
3.192,-0.220,-0.050
3.194,-0.155,-0.050
3.196,-0.085,-0.045
3.198,-0.025,-0.045
3.200,-0.005,-0.045
3.202,-0.020,-0.045
3.204,-0.075,-0.045
3.206,-0.145,-0.045
3.208,-0.210,-0.045
3.210,-0.225,-0.045
3.212,-0.200,-0.045
3.214,-0.145,-0.045
3.216,-0.070,-0.040
3.218,-0.015,-0.040
3.220,0.010,-0.035
3.222,-0.020,-0.035
3.224,-0.065,-0.030
3.226,-0.145,-0.025
3.228,-0.190,-0.025
3.230,-0.205,-0.020
3.232,-0.180,-0.020
3.234,-0.125,-0.015
3.236,-0.035,-0.015
3.238,0.015,-0.015
3.240,0.040,-0.010
3.242,0.010,-0.010
3.244,-0.050,-0.005
3.246,-0.130,-0.005
3.248,-0.190,0.000
3.250,-0.190,0.000
3.252,-0.160,0.005
3.254,-0.105,0.005
3.256,-0.025,0.005
3.258,0.025,0.000
3.260,0.035,0.000
3.262,0.015,-0.005
3.264,-0.035,-0.010
3.266,-0.120,-0.010
3.268,-0.180,-0.015
3.270,-0.200,-0.015
3.272,-0.170,-0.015
3.274,-0.120,-0.015
3.276,-0.040,-0.015
3.278,0.005,-0.015
3.280,0.015,-0.015
3.282,-0.020,-0.020
3.284,-0.075,-0.020
3.286,-0.160,-0.025
3.288,-0.215,-0.030
3.290,-0.230,-0.035
3.292,-0.200,-0.040
3.294,-0.145,-0.045
3.296,-0.055,-0.050
3.298,-0.020,-0.055
3.300,-0.015,-0.055
3.302,-0.050,-0.055
3.304,-0.100,-0.060
3.306,-0.190,-0.060
3.308,-0.220,-0.060
3.310,-0.240,-0.060
3.312,-0.210,-0.060
3.314,-0.145,-0.060
3.316,-0.050,-0.060
3.318,-0.015,-0.060
3.320,-0.015,-0.060
3.322,-0.055,-0.055
3.324,-0.110,-0.055
3.326,-0.190,-0.050
3.328,-0.245,-0.050
3.330,-0.245,-0.050
3.332,-0.205,-0.050
3.334,-0.155,-0.050
3.336,-0.055,-0.055
3.338,-0.015,-0.055
3.340,-0.020,-0.060
3.342,-0.060,-0.060
3.344,-0.125,-0.065
3.346,-0.225,-0.070
3.348,-0.265,-0.075
3.350,-0.280,-0.080
3.352,-0.245,-0.090
3.354,-0.190,-0.100
3.356,-0.095,-0.100
3.358,-0.080,-0.100
3.360,-0.055,-0.085
3.362,-0.055,-0.055
3.364,-0.050,-0.005
3.366,-0.055,0.060
3.368,-0.015,0.140
3.370,0.055,0.230
3.372,0.200,0.315
3.374,0.360,0.395
3.376,0.510,0.455
3.378,0.585,0.485
3.380,0.560,0.490
3.382,0.440,0.465
3.384,0.270,0.410
3.386,0.115,0.330
3.388,0.070,0.240
3.390,-0.005,0.145
3.392,-0.060,0.055
3.394,-0.105,-0.030
3.396,-0.170,-0.100
3.398,-0.210,-0.160
3.400,-0.190,-0.200
3.402,-0.235,-0.225
3.404,-0.290,-0.235
3.406,-0.350,-0.235
3.408,-0.390,-0.230
3.410,-0.385,-0.215
3.412,-0.320,-0.200
3.414,-0.245,-0.180
3.416,-0.130,-0.160
3.418,-0.070,-0.140
3.420,-0.060,-0.115
3.422,-0.090,-0.100
3.424,-0.145,-0.085
3.426,-0.220,-0.070
3.428,-0.230,-0.060
3.430,-0.215,-0.050
3.432,-0.165,-0.045
3.434,-0.085,-0.040
3.436,-0.010,-0.040
3.438,0.015,-0.035
3.440,0.010,-0.030
3.442,-0.055,-0.030
3.444,-0.110,-0.025
3.446,-0.185,-0.020
3.448,-0.215,-0.020
3.450,-0.195,-0.015
3.452,-0.135,-0.015
3.454,-0.065,-0.015
3.456,0.000,-0.015
3.458,0.020,-0.015
3.460,0.015,-0.015
3.462,-0.045,-0.015
3.464,-0.100,-0.015
3.466,-0.175,-0.015
3.468,-0.195,-0.010
3.470,-0.185,-0.010
3.472,-0.120,-0.005
3.474,-0.040,-0.005
3.476,0.015,-0.005
3.478,0.045,0.000
3.480,0.030,0.000
3.482,-0.035,0.005
3.484,-0.095,0.005
3.486,-0.170,0.010
3.488,-0.190,0.015
3.490,-0.165,0.015
3.492,-0.110,0.015
3.494,-0.035,0.015
3.496,0.035,0.015
3.498,0.050,0.010
3.500,0.030,0.010
3.502,-0.025,0.005
3.504,-0.100,0.005
3.506,-0.150,0.000
3.508,-0.170,0.000
3.510,-0.160,0.005
3.512,-0.105,0.010
3.514,-0.010,0.010
3.516,0.040,0.015
3.518,0.050,0.020
3.520,0.040,0.025
3.522,-0.020,0.030
3.524,-0.100,0.030
3.526,-0.150,0.035
3.528,-0.160,0.035
3.530,-0.135,0.035
3.532,-0.060,0.035
3.534,0.010,0.035
3.536,0.065,0.030
3.538,0.080,0.030
3.540,0.055,0.030
3.542,0.000,0.035
3.544,-0.075,0.035
3.546,-0.135,0.040
3.548,-0.135,0.040
3.550,-0.105,0.040
3.552,-0.050,0.045
3.554,0.035,0.045
3.556,0.095,0.045
3.558,0.110,0.050
3.560,0.085,0.050
3.562,0.030,0.055
3.564,-0.035,0.060
3.566,-0.095,0.065
3.568,-0.095,0.070
3.570,-0.055,0.080
3.572,0.010,0.090
3.574,0.095,0.095
3.576,0.145,0.105
3.578,0.160,0.115
3.580,0.125,0.120
3.582,0.090,0.130
3.584,0.005,0.135
3.586,-0.035,0.140
3.588,-0.035,0.145
3.590,0.010,0.150
3.592,0.070,0.155
3.594,0.150,0.155
3.596,0.215,0.160
3.598,0.230,0.165
3.600,0.205,0.175
3.602,0.160,0.185
3.604,0.055,0.190
3.606,0.025,0.205
3.608,0.025,0.215
3.610,0.070,0.220
3.612,0.125,0.230
3.614,0.230,0.230
3.616,0.275,0.235
3.618,0.270,0.235
3.620,0.235,0.235
3.622,0.180,0.230
3.624,0.100,0.230
3.626,0.060,0.230
3.628,0.040,0.230
3.630,0.085,0.235
3.632,0.135,0.235
3.634,0.240,0.235
3.636,0.250,0.230
3.638,0.260,0.225
3.640,0.220,0.215
3.642,0.160,0.210
3.644,0.050,0.200
3.646,0.020,0.190
3.648,0.005,0.185
3.650,0.035,0.180
3.652,0.085,0.170
3.654,0.155,0.165
3.656,0.175,0.160
3.658,0.180,0.155
3.660,0.110,0.145
3.662,0.045,0.135
3.664,-0.045,0.120
3.666,-0.100,0.110
3.668,-0.110,0.095
3.670,-0.075,0.080
3.672,-0.030,0.065
3.674,0.055,0.055
3.676,0.070,0.040
3.678,0.065,0.035
3.680,0.010,0.025
3.682,-0.050,0.020
3.684,-0.150,0.010
3.686,-0.180,0.005
3.688,-0.185,0.005
3.690,-0.130,0.000
3.692,-0.085,-0.005
3.694,0.005,-0.010
3.696,0.020,-0.010
3.698,0.010,-0.015
3.700,-0.035,-0.020
3.702,-0.100,-0.025
3.704,-0.170,-0.025
3.706,-0.205,-0.030
3.708,-0.210,-0.035
3.710,-0.165,-0.035
3.712,-0.095,-0.040
3.714,-0.015,-0.040
3.716,0.005,-0.040
3.718,-0.005,-0.035
3.720,-0.060,-0.035
3.722,-0.120,-0.035
3.724,-0.200,-0.035
3.726,-0.235,-0.040
3.728,-0.225,-0.040
3.730,-0.170,-0.045
3.732,-0.105,-0.045
3.734,-0.035,-0.050
3.736,-0.010,-0.050
3.738,-0.010,-0.050
3.740,-0.075,-0.050
3.742,-0.130,-0.050
3.744,-0.205,-0.045
3.746,-0.235,-0.045
3.748,-0.220,-0.045
3.750,-0.175,-0.040
3.752,-0.105,-0.040
3.754,-0.030,-0.040
3.756,-0.005,-0.040
3.758,-0.025,-0.040
3.760,-0.070,-0.040
3.762,-0.145,-0.035
3.764,-0.205,-0.035
3.766,-0.230,-0.035
3.768,-0.210,-0.030
3.770,-0.155,-0.030
3.772,-0.080,-0.030
3.774,-0.015,-0.030
3.776,-0.005,-0.030
3.778,-0.015,-0.030
3.780,-0.065,-0.030
3.782,-0.140,-0.030
3.784,-0.210,-0.025
3.786,-0.225,-0.025
3.788,-0.210,-0.030
3.790,-0.155,-0.030
3.792,-0.075,-0.030
3.794,-0.015,-0.035
3.796,0.015,-0.035
3.798,-0.015,-0.040
3.800,-0.060,-0.040
3.802,-0.145,-0.040
3.804,-0.210,-0.040
3.806,-0.220,-0.040
3.808,-0.195,-0.035
3.810,-0.145,-0.035
3.812,-0.065,-0.035
3.814,-0.010,-0.030
3.816,0.005,-0.030
3.818,-0.020,-0.025
3.820,-0.060,-0.025
3.822,-0.140,-0.020
3.824,-0.205,-0.020
3.826,-0.215,-0.015
3.828,-0.185,-0.015
3.830,-0.130,-0.010
3.832,-0.050,-0.010
3.834,0.000,-0.010
3.836,0.020,-0.010
3.838,-0.010,-0.015
3.840,-0.060,-0.015
3.842,-0.150,-0.020
3.844,-0.200,-0.025
3.846,-0.215,-0.025
3.848,-0.180,-0.025
3.850,-0.130,-0.030
3.852,-0.045,-0.030
3.854,0.000,-0.030
3.856,0.020,-0.030
3.858,-0.010,-0.035
3.860,-0.060,-0.035
3.862,-0.160,-0.035
3.864,-0.205,-0.035
3.866,-0.215,-0.030
3.868,-0.190,-0.030
3.870,-0.130,-0.025
3.872,-0.035,-0.020
3.874,0.010,-0.020
3.876,0.015,-0.015
3.878,-0.025,-0.020
3.880,-0.075,-0.020
3.882,-0.175,-0.020
3.884,-0.210,-0.025
3.886,-0.220,-0.025
3.888,-0.185,-0.025
3.890,-0.135,-0.025
3.892,-0.040,-0.025
3.894,0.000,-0.020
3.896,0.005,-0.020
3.898,-0.035,-0.020
3.900,-0.090,-0.025
3.902,-0.185,-0.025
3.904,-0.220,-0.030
3.906,-0.235,-0.035
3.908,-0.190,-0.040
3.910,-0.130,-0.045
3.912,-0.050,-0.045
3.914,-0.010,-0.045
3.916,-0.005,-0.045
3.918,-0.035,-0.040
3.920,-0.095,-0.040
3.922,-0.185,-0.035
3.924,-0.230,-0.035
3.926,-0.240,-0.035
3.928,-0.185,-0.040
3.930,-0.135,-0.040
3.932,-0.040,-0.040
3.934,-0.015,-0.045
3.936,0.000,-0.045
3.938,-0.040,-0.045
3.940,-0.115,-0.045
3.942,-0.190,-0.045
3.944,-0.225,-0.045
3.946,-0.235,-0.045
3.948,-0.190,-0.050
3.950,-0.130,-0.050
3.952,-0.055,-0.055
3.954,-0.005,-0.055
3.956,-0.005,-0.050
3.958,-0.050,-0.050
3.960,-0.105,-0.045
3.962,-0.185,-0.040
3.964,-0.220,-0.035
3.966,-0.230,-0.035
3.968,-0.175,-0.030
3.970,-0.120,-0.030
3.972,-0.040,-0.030
3.974,-0.010,-0.030
3.976,-0.005,-0.035
3.978,-0.055,-0.035
3.980,-0.105,-0.035
3.982,-0.190,-0.035
3.984,-0.225,-0.035
3.986,-0.220,-0.035
3.988,-0.180,-0.035
3.990,-0.115,-0.035
3.992,-0.030,-0.035
3.994,0.000,-0.040
3.996,-0.005,-0.040
3.998,-0.055,-0.045
4.000,-0.120,-0.045
4.002,-0.200,-0.045
4.004,-0.220,-0.045
4.006,-0.225,-0.040
4.008,-0.170,-0.040
4.010,-0.100,-0.035
4.012,-0.030,-0.035
4.014,-0.015,-0.030
4.016,-0.010,-0.030
4.018,-0.055,-0.030
4.020,-0.125,-0.030
4.022,-0.195,-0.030
4.024,-0.225,-0.030
4.026,-0.220,-0.030
4.028,-0.175,-0.030
4.030,-0.100,-0.030
4.032,-0.030,-0.035
4.034,0.000,-0.035
4.036,-0.020,-0.040
4.038,-0.070,-0.045
4.040,-0.130,-0.045
4.042,-0.200,-0.045
4.044,-0.225,-0.045
4.046,-0.210,-0.045
4.048,-0.160,-0.045
4.050,-0.090,-0.040
4.052,-0.015,-0.040
4.054,0.005,-0.035
4.056,-0.010,-0.035
4.058,-0.060,-0.030
4.060,-0.130,-0.030
4.062,-0.205,-0.030
4.064,-0.225,-0.035
4.066,-0.205,-0.035
4.068,-0.150,-0.035
4.070,-0.075,-0.035
4.072,-0.015,-0.035
4.074,0.010,-0.035
4.076,-0.005,-0.035
4.078,-0.060,-0.035
4.080,-0.125,-0.030
4.082,-0.180,-0.030
4.084,-0.200,-0.030
4.086,-0.180,-0.030
4.088,-0.120,-0.025
4.090,-0.040,-0.025
4.092,0.020,-0.025
4.094,0.040,-0.020
4.096,0.025,-0.020
4.098,-0.040,-0.015
4.100,-0.110,-0.010
4.102,-0.170,-0.005
4.104,-0.195,0.000
4.106,-0.165,0.000
4.108,-0.120,0.005
4.110,-0.030,0.010
4.112,0.025,0.015
4.114,0.050,0.015
4.116,0.025,0.015
4.118,-0.040,0.010
4.120,-0.120,0.010
4.122,-0.170,0.005
4.124,-0.190,0.000
4.126,-0.160,0.000
4.128,-0.115,0.000
4.130,-0.020,0.000
4.132,0.015,0.000
4.134,0.030,0.000
4.136,-0.005,0.000
4.138,-0.065,-0.005
4.140,-0.155,-0.010
4.142,-0.205,-0.015
4.144,-0.230,-0.025
4.146,-0.185,-0.030
4.148,-0.140,-0.040
4.150,-0.055,-0.045
4.152,-0.015,-0.045
4.154,-0.005,-0.045
4.156,-0.050,-0.045
4.158,-0.085,-0.045
4.160,-0.175,-0.040
4.162,-0.220,-0.040
4.164,-0.240,-0.040
4.166,-0.205,-0.045
4.168,-0.150,-0.045
4.170,-0.065,-0.050
4.172,-0.020,-0.050
4.174,-0.010,-0.055
4.176,-0.045,-0.055
4.178,-0.100,-0.055
4.180,-0.185,-0.050
4.182,-0.235,-0.050
4.184,-0.250,-0.050
4.186,-0.210,-0.050
4.188,-0.155,-0.050
4.190,-0.060,-0.050
4.192,-0.020,-0.050
4.194,-0.010,-0.050
4.196,-0.050,-0.050
4.198,-0.100,-0.050
4.200,-0.180,-0.050
4.202,-0.235,-0.050
4.204,-0.245,-0.050
4.206,-0.210,-0.055
4.208,-0.160,-0.060
4.210,-0.080,-0.065
4.212,-0.045,-0.075
4.214,-0.060,-0.080
4.216,-0.105,-0.090
4.218,-0.155,-0.095
4.220,-0.245,-0.095
4.222,-0.285,-0.085
4.224,-0.280,-0.065
4.226,-0.180,-0.035
4.228,-0.060,0.015
4.230,0.100,0.080
4.232,0.205,0.150
4.234,0.290,0.235
4.236,0.325,0.315
4.238,0.370,0.385
4.240,0.365,0.440
4.242,0.350,0.470
4.244,0.305,0.470
4.246,0.270,0.445
4.248,0.195,0.385
4.250,0.245,0.305
4.252,0.275,0.210
4.254,0.180,0.110
4.256,0.030,0.015
4.258,-0.150,-0.070
4.260,-0.370,-0.135
4.262,-0.445,-0.185
4.264,-0.415,-0.215
4.266,-0.355,-0.225
4.268,-0.295,-0.230
4.270,-0.195,-0.225
4.272,-0.165,-0.215
4.274,-0.160,-0.200
4.276,-0.200,-0.190
4.278,-0.240,-0.175
4.280,-0.290,-0.155
4.282,-0.295,-0.140
4.284,-0.275,-0.120
4.286,-0.210,-0.100
4.288,-0.125,-0.080
4.290,-0.040,-0.065
4.292,-0.005,-0.050
4.294,0.000,-0.040
4.296,-0.060,-0.035
4.298,-0.115,-0.030
4.300,-0.190,-0.030
4.302,-0.210,-0.030
4.304,-0.200,-0.025
4.306,-0.155,-0.020
4.308,-0.090,-0.015
4.310,-0.005,-0.010
4.312,0.015,-0.010
4.314,0.005,-0.005
4.316,-0.045,-0.010
4.318,-0.100,-0.010
4.320,-0.185,-0.015
4.322,-0.205,-0.020
4.324,-0.185,-0.025
4.326,-0.135,-0.025
4.328,-0.065,-0.025
4.330,0.010,-0.025
4.332,0.025,-0.025
4.334,0.015,-0.020
4.336,-0.045,-0.020
4.338,-0.110,-0.015
4.340,-0.175,-0.015
4.342,-0.205,-0.015
4.344,-0.180,-0.015
4.346,-0.135,-0.015
4.348,-0.055,-0.015
4.350,0.015,-0.015
4.352,0.040,-0.010
4.354,0.020,-0.010
4.356,-0.030,-0.010
4.358,-0.105,-0.005
4.360,-0.170,-0.005
4.362,-0.185,-0.005
4.364,-0.165,-0.005
4.366,-0.115,-0.005
4.368,-0.035,-0.005
4.370,0.025,-0.005
4.372,0.055,0.000
4.374,0.040,0.000
4.376,-0.020,0.005
4.378,-0.090,0.010
4.380,-0.160,0.015
4.382,-0.175,0.020
4.384,-0.150,0.025
4.386,-0.090,0.025
4.388,-0.010,0.025
4.390,0.050,0.030
4.392,0.070,0.025
4.394,0.045,0.025
4.396,-0.005,0.030
4.398,-0.075,0.030
4.400,-0.120,0.030
4.402,-0.140,0.035
4.404,-0.120,0.040
4.406,-0.060,0.045
4.408,0.025,0.055
4.410,0.080,0.055
4.412,0.100,0.060
4.414,0.075,0.065
4.416,0.025,0.065
4.418,-0.050,0.065
4.420,-0.110,0.070
4.422,-0.125,0.070
4.424,-0.090,0.070
4.426,-0.025,0.075
4.428,0.060,0.075
4.430,0.110,0.080
4.432,0.135,0.085
4.434,0.115,0.085
4.436,0.065,0.090
4.438,-0.010,0.100
4.440,-0.055,0.105
4.442,-0.075,0.115
4.444,-0.030,0.120
4.446,0.025,0.130
4.448,0.120,0.140
4.450,0.170,0.150
4.452,0.195,0.155
4.454,0.160,0.155
4.456,0.115,0.160
4.458,0.035,0.160
4.460,-0.005,0.155
4.462,-0.010,0.155
4.464,0.025,0.155
4.466,0.090,0.160
4.468,0.185,0.165
4.470,0.230,0.170
4.472,0.240,0.180
4.474,0.205,0.190
4.476,0.155,0.195
4.478,0.070,0.205
4.480,0.020,0.210
4.482,0.020,0.210
4.484,0.055,0.210
4.486,0.105,0.210
4.488,0.200,0.215
4.490,0.250,0.215
4.492,0.245,0.215
4.494,0.205,0.220
4.496,0.160,0.220
4.498,0.065,0.220
4.500,0.025,0.220
4.502,0.020,0.215
4.504,0.050,0.210
4.506,0.090,0.200
4.508,0.175,0.185
4.510,0.195,0.175
4.512,0.190,0.160
4.514,0.150,0.150
4.516,0.085,0.140
4.518,-0.025,0.125
4.520,-0.075,0.115
4.522,-0.095,0.105
4.524,-0.055,0.095
4.526,-0.015,0.085
4.528,0.055,0.075
4.530,0.080,0.070
4.532,0.075,0.060
4.534,0.030,0.050
4.536,-0.035,0.040
4.538,-0.130,0.035
4.540,-0.175,0.025
4.542,-0.185,0.020
4.544,-0.150,0.010
4.546,-0.100,0.000
4.548,-0.015,-0.010
4.550,0.010,-0.020
4.552,0.010,-0.030
4.554,-0.045,-0.035
4.556,-0.105,-0.040
4.558,-0.195,-0.040
4.560,-0.230,-0.040
4.562,-0.230,-0.040
4.564,-0.190,-0.035
4.566,-0.125,-0.035
4.568,-0.040,-0.035
4.570,-0.020,-0.040
4.572,-0.020,-0.045
4.574,-0.075,-0.055
4.576,-0.130,-0.065
4.578,-0.205,-0.070
4.580,-0.245,-0.075
4.582,-0.245,-0.070
4.584,-0.200,-0.065
4.586,-0.135,-0.060
4.588,-0.045,-0.050
4.590,-0.020,-0.040
4.592,-0.030,-0.040
4.594,-0.085,-0.040
4.596,-0.145,-0.045
4.598,-0.225,-0.060
4.600,-0.145,-0.070
4.602,-0.215,-0.080
4.604,-0.245,-0.090
4.606,-0.220,-0.090
4.608,-0.175,-0.085
4.610,-0.090,-0.075
4.612,-0.030,-0.065
4.614,-0.005,-0.050
4.616,-0.025,-0.035
4.618,-0.075,-0.030
4.620,-0.150,-0.025
4.622,-0.210,-0.030
4.624,-0.230,-0.035
4.626,-0.215,-0.045
4.628,-0.150,-0.055
4.630,-0.075,-0.065
4.632,-0.015,-0.070
4.634,0.005,-0.070
4.636,-0.015,-0.070
4.638,-0.075,-0.065
4.640,-0.145,-0.060
4.642,-0.200,-0.050
4.644,-0.230,-0.045
4.646,-0.200,-0.040
4.648,-0.150,-0.035
4.650,-0.060,-0.035
4.652,-0.015,-0.030
4.654,0.005,-0.030
4.656,-0.010,-0.025
4.658,-0.080,-0.025
4.660,-0.150,-0.025
4.662,-0.210,-0.025
4.664,-0.225,-0.030
4.666,-0.195,-0.030
4.668,-0.150,-0.035
4.670,-0.070,-0.040
4.672,-0.010,-0.045
4.674,0.010,-0.045
4.676,-0.020,-0.045
4.678,-0.075,-0.045
4.680,-0.155,-0.045
4.682,-0.210,-0.040
4.684,-0.220,-0.035
4.686,-0.195,-0.030
4.688,-0.150,-0.030
4.690,-0.050,-0.030
4.692,-0.015,-0.030
4.694,-0.005,-0.035
4.696,-0.035,-0.040
4.698,-0.090,-0.045
4.700,-0.175,-0.045
4.702,-0.220,-0.045
4.704,-0.230,-0.045
4.706,-0.200,-0.045
4.708,-0.155,-0.040
4.710,-0.055,-0.040
4.712,-0.015,-0.035
4.714,-0.005,-0.035
4.716,-0.040,-0.035
4.718,-0.095,-0.040
4.720,-0.175,-0.040
4.722,-0.225,-0.045
4.724,-0.240,-0.050
4.726,-0.205,-0.055
4.728,-0.155,-0.055
4.730,-0.070,-0.060
4.732,-0.020,-0.060
4.734,-0.005,-0.060
4.736,-0.045,-0.060
4.738,-0.095,-0.055
4.740,-0.185,-0.055
4.742,-0.230,-0.050
4.744,-0.240,-0.045
4.746,-0.215,-0.045
4.748,-0.160,-0.045
4.750,-0.060,-0.045
4.752,-0.025,-0.050
4.754,-0.015,-0.055
4.756,-0.055,-0.060
4.758,-0.110,-0.065
4.760,-0.195,-0.075
4.762,-0.240,-0.080
4.764,-0.245,-0.080
4.766,-0.205,-0.080
4.768,-0.160,-0.080
4.770,-0.065,-0.075
4.772,-0.030,-0.070
4.774,-0.020,-0.070
4.776,-0.060,-0.070
4.778,-0.115,-0.065
4.780,-0.210,-0.065
4.782,-0.240,-0.065
4.784,-0.250,-0.065
4.786,-0.210,-0.065
4.788,-0.145,-0.065
4.790,-0.065,-0.060
4.792,-0.025,-0.060
4.794,-0.025,-0.060
4.796,-0.070,-0.060
4.798,-0.120,-0.055
4.800,-0.215,-0.055
4.802,-0.250,-0.055
4.804,-0.240,-0.055
4.806,-0.190,-0.055
4.808,-0.135,-0.055
4.810,-0.050,-0.060
4.812,-0.020,-0.060
4.814,-0.020,-0.065
4.816,-0.070,-0.065
4.818,-0.120,-0.070
4.820,-0.220,-0.075
4.822,-0.250,-0.075
4.824,-0.240,-0.075
4.826,-0.190,-0.070
4.828,-0.125,-0.065
4.830,-0.040,-0.060
4.832,-0.020,-0.055
4.834,-0.010,-0.055
4.836,-0.070,-0.055
4.838,-0.130,-0.055
4.840,-0.215,-0.055
4.842,-0.240,-0.060
4.844,-0.235,-0.060
4.846,-0.175,-0.060
4.848,-0.115,-0.060
4.850,-0.035,-0.060
4.852,-0.015,-0.055
4.854,-0.015,-0.050
4.856,-0.065,-0.050
4.858,-0.130,-0.045
4.860,-0.210,-0.045
4.862,-0.240,-0.050
4.864,-0.240,-0.050
4.866,-0.185,-0.055
4.868,-0.110,-0.055
4.870,-0.040,-0.055
4.872,0.000,-0.060
4.874,-0.020,-0.060
4.876,-0.070,-0.055
4.878,-0.135,-0.055
4.880,-0.210,-0.055
4.882,-0.230,-0.055
4.884,-0.225,-0.055
4.886,-0.160,-0.050
4.888,-0.100,-0.045
4.890,-0.025,-0.040
4.892,-0.005,-0.035
4.894,-0.020,-0.035
4.896,-0.075,-0.030
4.898,-0.145,-0.030
4.900,-0.210,-0.030
4.902,-0.235,-0.035
4.904,-0.220,-0.040
4.906,-0.155,-0.045
4.908,-0.085,-0.055
4.910,-0.015,-0.055
4.912,0.005,-0.060
4.914,-0.015,-0.060
4.916,-0.080,-0.055
4.918,-0.145,-0.045
4.920,-0.215,-0.040
4.922,-0.230,-0.035
4.924,-0.210,-0.030
4.926,-0.150,-0.030
4.928,-0.065,-0.030
4.930,-0.005,-0.035
4.932,0.005,-0.040
4.934,-0.015,-0.045
4.936,-0.075,-0.050
4.938,-0.145,-0.055
4.940,-0.205,-0.055
4.942,-0.230,-0.055
4.944,-0.200,-0.050
4.946,-0.155,-0.050
4.948,-0.060,-0.045
4.950,-0.005,-0.045
4.952,0.010,-0.040
4.954,-0.010,-0.040
4.956,-0.065,-0.040
4.958,-0.145,-0.040
4.960,-0.195,-0.040
4.962,-0.200,-0.040
4.964,-0.170,-0.040
4.966,-0.110,-0.040
4.968,-0.030,-0.035
4.970,0.030,-0.030
4.972,0.040,-0.025
4.974,0.015,-0.020
4.976,-0.035,-0.015
4.978,-0.120,-0.015
4.980,-0.180,-0.010
4.982,-0.195,-0.010
4.984,-0.155,-0.005
4.986,-0.095,-0.005
4.988,-0.010,-0.005
4.990,0.035,-0.005
4.992,0.055,0.000
4.994,0.020,0.000
4.996,-0.030,0.005
4.998,-0.115,0.010
5.000,-0.170,0.010
5.002,-0.180,0.010
5.004,-0.155,0.010
5.006,-0.110,0.005
5.008,-0.015,0.000
5.010,0.015,-0.010
5.012,0.020,-0.020
5.014,-0.020,-0.025
5.016,-0.065,-0.035
5.018,-0.155,-0.035
5.020,-0.200,-0.040
5.022,-0.220,-0.040
5.024,-0.190,-0.040
5.026,-0.135,-0.035
5.028,-0.040,-0.035
5.030,0.000,-0.035
5.032,0.005,-0.035
5.034,-0.035,-0.035
5.036,-0.090,-0.035
5.038,-0.175,-0.035
5.040,-0.220,-0.040
5.042,-0.220,-0.040
5.044,-0.185,-0.040
5.046,-0.135,-0.040
5.048,-0.035,-0.040
5.050,0.000,-0.040
5.052,0.015,-0.040
5.054,-0.025,-0.040
5.056,-0.080,-0.040
5.058,-0.175,-0.040
5.060,-0.220,-0.040
5.062,-0.210,-0.040
5.064,-0.175,-0.040
5.066,-0.125,-0.040
5.068,-0.030,-0.040
5.070,0.000,-0.035
5.072,0.005,-0.035
5.074,-0.040,-0.030
5.076,-0.095,-0.030
5.078,-0.175,-0.025
5.080,-0.220,-0.025
5.082,-0.230,-0.030
5.084,-0.210,-0.035
5.086,-0.150,-0.050
5.088,-0.080,-0.060
5.090,-0.045,-0.070
5.092,-0.040,-0.080
5.094,-0.090,-0.075
5.096,-0.110,-0.055
5.098,-0.150,-0.020
5.100,-0.130,0.035
5.102,-0.045,0.110
5.104,0.085,0.195
5.106,0.235,0.280
5.108,0.405,0.365
5.110,0.535,0.435
5.112,0.580,0.480
5.114,0.555,0.500
5.116,0.460,0.490
5.118,0.290,0.455
5.120,0.130,0.395
5.122,0.095,0.315
5.124,0.120,0.230
5.126,0.095,0.140
5.128,0.075,0.055
5.130,-0.005,-0.025
5.132,-0.130,-0.085
5.134,-0.210,-0.135
5.136,-0.265,-0.165
5.138,-0.330,-0.185
5.140,-0.350,-0.190
5.142,-0.325,-0.190
5.144,-0.270,-0.175
5.146,-0.195,-0.160
5.148,-0.090,-0.140
5.150,-0.050,-0.120
5.152,-0.035,-0.100
5.154,-0.080,-0.080
5.156,-0.120,-0.065
5.158,-0.180,-0.055
5.160,-0.210,-0.045
5.162,-0.195,-0.040
5.164,-0.140,-0.035
5.166,-0.055,-0.035
5.168,0.015,-0.030
5.170,0.030,-0.025
5.172,0.030,-0.020
5.174,-0.025,-0.015
5.176,-0.085,-0.010
5.178,-0.155,-0.005
5.180,-0.180,0.000
5.182,-0.165,0.005
5.184,-0.105,0.010
5.186,-0.035,0.015
5.188,0.025,0.015
5.190,0.060,0.015
5.192,0.045,0.015
5.194,-0.015,0.015
5.196,-0.075,0.010
5.198,-0.150,0.010
5.200,-0.180,0.010
5.202,-0.155,0.010
5.204,-0.100,0.010
5.206,-0.020,0.015
5.208,0.040,0.015
5.210,0.070,0.015
5.212,0.055,0.020
5.214,-0.005,0.020
5.216,-0.080,0.025
5.218,-0.140,0.025
5.220,-0.160,0.025
5.222,-0.140,0.025
5.224,-0.085,0.025
5.226,-0.010,0.020
5.228,0.040,0.020
5.230,0.070,0.015
5.232,0.045,0.010
5.234,-0.010,0.010
5.236,-0.080,0.005
5.238,-0.145,0.005
5.240,-0.165,0.005
5.242,-0.140,0.005
5.244,-0.065,0.005
5.246,0.010,0.010
5.248,0.075,0.015
5.250,0.080,0.020
5.252,0.060,0.025
5.254,0.000,0.030
5.256,-0.070,0.035
5.258,-0.135,0.035
5.260,-0.140,0.035
5.262,-0.120,0.035
5.264,-0.055,0.035
5.266,0.025,0.035
5.268,0.085,0.040
5.270,0.090,0.040
5.272,0.065,0.045
5.274,0.020,0.045
5.276,-0.060,0.050
5.278,-0.110,0.050
5.280,-0.120,0.050
5.282,-0.090,0.050
5.284,-0.030,0.050
5.286,0.065,0.050
5.288,0.115,0.055
5.290,0.130,0.055
5.292,0.100,0.060
5.294,0.055,0.070
5.296,-0.030,0.075
5.298,-0.080,0.085
5.300,-0.090,0.095
5.302,-0.050,0.100
5.304,0.010,0.105
5.306,0.105,0.110
5.308,0.145,0.110
5.310,0.155,0.115
5.312,0.140,0.115
5.314,0.095,0.120
5.316,0.010,0.130
5.318,-0.025,0.135
5.320,-0.040,0.145
5.322,0.010,0.155
5.324,0.070,0.160
5.326,0.160,0.165
5.328,0.205,0.170
5.330,0.225,0.170
5.332,0.205,0.175
5.334,0.135,0.175
5.336,0.060,0.180
5.338,0.025,0.185
5.340,0.020,0.190
5.342,0.060,0.200
5.344,0.120,0.205
5.346,0.220,0.210
5.348,0.255,0.215
5.350,0.255,0.215
5.352,0.220,0.215
5.354,0.165,0.210
5.356,0.090,0.210
5.358,0.050,0.210
5.360,0.035,0.210
5.362,0.080,0.210
5.364,0.135,0.215
5.366,0.225,0.220
5.368,0.260,0.225
5.370,0.255,0.230
5.372,0.205,0.230
5.374,0.145,0.225
5.376,0.055,0.215
5.378,0.010,0.205
5.380,0.005,0.190
5.382,0.040,0.180
5.384,0.085,0.165
5.386,0.165,0.150
5.388,0.185,0.140
5.390,0.170,0.130
5.392,0.110,0.125
5.394,0.050,0.115
5.396,-0.050,0.110
5.398,-0.100,0.100
5.400,-0.100,0.090
5.402,-0.065,0.080
5.404,-0.025,0.065
5.406,0.050,0.055
5.408,0.085,0.040
5.410,0.075,0.030
5.412,0.015,0.015
5.414,-0.050,0.010
5.416,-0.140,0.000
5.418,-0.180,-0.005
5.420,-0.185,-0.005
5.422,-0.135,-0.005
5.424,-0.080,-0.010
5.426,0.000,-0.010
5.428,0.030,-0.015
5.430,0.020,-0.015
5.432,-0.035,-0.020
5.434,-0.105,-0.025
5.436,-0.190,-0.035
5.438,-0.210,-0.040
5.440,-0.215,-0.045
5.442,-0.160,-0.045
5.444,-0.095,-0.045
5.446,-0.020,-0.045
5.448,0.005,-0.040
5.450,0.005,-0.040
5.452,-0.055,-0.040
5.454,-0.120,-0.040
5.456,-0.195,-0.040
5.458,-0.230,-0.040
5.460,-0.220,-0.040
5.462,-0.165,-0.040
5.464,-0.095,-0.040
5.466,-0.025,-0.040
5.468,0.010,-0.040
5.470,-0.010,-0.040
5.472,-0.075,-0.040
5.474,-0.135,-0.040
5.476,-0.205,-0.040
5.478,-0.235,-0.045
5.480,-0.225,-0.045
5.482,-0.170,-0.050
5.484,-0.085,-0.055
5.486,-0.025,-0.060
5.488,0.000,-0.060
5.490,-0.020,-0.060
5.492,-0.065,-0.055
5.494,-0.145,-0.055
5.496,-0.200,-0.050
5.498,-0.235,-0.040
5.500,-0.205,-0.035
5.502,-0.150,-0.030
5.504,-0.080,-0.025
5.506,-0.025,-0.025
5.508,0.000,-0.025
5.510,-0.025,-0.025
5.512,-0.075,-0.030
5.514,-0.150,-0.035
5.516,-0.205,-0.040
5.518,-0.220,-0.045
5.520,-0.200,-0.050
5.522,-0.140,-0.055
5.524,-0.060,-0.055
5.526,-0.010,-0.055
5.528,0.010,-0.050
5.530,-0.005,-0.045
5.532,-0.065,-0.040
5.534,-0.145,-0.035
5.536,-0.210,-0.030
5.538,-0.225,-0.030
5.540,-0.200,-0.025
5.542,-0.145,-0.025
5.544,-0.050,-0.025
5.546,-0.005,-0.030
5.548,0.015,-0.030
5.550,-0.010,-0.035
5.552,-0.065,-0.035
5.554,-0.145,-0.040
5.556,-0.200,-0.040
5.558,-0.215,-0.040
5.560,-0.195,-0.045
5.562,-0.130,-0.045
5.564,-0.045,-0.045
5.566,0.000,-0.045
5.568,0.010,-0.045
5.570,-0.010,-0.045
5.572,-0.065,-0.045
5.574,-0.150,-0.045
5.576,-0.200,-0.045
5.578,-0.215,-0.045
5.580,-0.185,-0.040
5.582,-0.130,-0.040
5.584,-0.040,-0.035
5.586,0.000,-0.030
5.588,0.015,-0.030
5.590,-0.015,-0.025
5.592,-0.070,-0.025
5.594,-0.155,-0.025
5.596,-0.205,-0.030
5.598,-0.210,-0.030
5.600,-0.185,-0.035
5.602,-0.120,-0.040
5.604,-0.040,-0.045
5.606,0.000,-0.045
5.608,0.015,-0.045
5.610,-0.010,-0.045
5.612,-0.065,-0.045
5.614,-0.155,-0.040
5.616,-0.205,-0.035
5.618,-0.210,-0.035
5.620,-0.170,-0.030
5.622,-0.125,-0.030
5.624,-0.035,-0.030
5.626,0.010,-0.030
5.628,0.020,-0.030
5.630,-0.025,-0.030
5.632,-0.075,-0.030
5.634,-0.160,-0.030
5.636,-0.200,-0.030
5.638,-0.215,-0.030
5.640,-0.170,-0.030
5.642,-0.135,-0.030
5.644,-0.020,-0.035
5.646,0.000,-0.035
5.648,0.010,-0.040
5.650,-0.030,-0.040
5.652,-0.090,-0.045
5.654,-0.175,-0.045
5.656,-0.220,-0.050
5.658,-0.220,-0.050
5.660,-0.175,-0.050
5.662,-0.115,-0.050
5.664,-0.035,-0.050
5.666,0.010,-0.045
5.668,0.000,-0.045
5.670,-0.040,-0.045
5.672,-0.100,-0.045
5.674,-0.185,-0.045
5.676,-0.220,-0.045
5.678,-0.225,-0.040
5.680,-0.170,-0.040
5.682,-0.120,-0.040
5.684,-0.030,-0.035
5.686,0.010,-0.035
5.688,0.010,-0.035
5.690,-0.040,-0.035
5.692,-0.090,-0.040
5.694,-0.180,-0.040
5.696,-0.215,-0.040
5.698,-0.220,-0.040
5.700,-0.165,-0.040
5.702,-0.120,-0.035
5.704,-0.030,-0.035
5.706,0.000,-0.035
5.708,-0.005,-0.035
5.710,-0.055,-0.035
5.712,-0.115,-0.040
5.714,-0.200,-0.045
5.716,-0.215,-0.050
5.718,-0.220,-0.050
5.720,-0.170,-0.055
5.722,-0.115,-0.050
5.724,-0.030,-0.050
5.726,-0.010,-0.050
5.728,-0.015,-0.045
5.730,-0.060,-0.040
5.732,-0.135,-0.040
5.734,-0.215,-0.035
5.736,-0.230,-0.035
5.738,-0.215,-0.035
5.740,-0.165,-0.040
5.742,-0.105,-0.040
5.744,-0.020,-0.045
5.746,-0.005,-0.045
5.748,-0.010,-0.050
5.750,-0.060,-0.050
5.752,-0.125,-0.055
5.754,-0.205,-0.055
5.756,-0.235,-0.055
5.758,-0.215,-0.055
5.760,-0.160,-0.055
5.762,-0.100,-0.055
5.764,-0.020,-0.050
5.766,-0.005,-0.050
5.768,-0.015,-0.050
5.770,-0.080,-0.045
5.772,-0.145,-0.045
5.774,-0.215,-0.045
5.776,-0.245,-0.050
5.778,-0.220,-0.050
5.780,-0.160,-0.050
5.782,-0.085,-0.050
5.784,-0.025,-0.050
5.786,-0.005,-0.045
5.788,-0.020,-0.045
5.790,-0.080,-0.045
5.792,-0.145,-0.045
5.794,-0.210,-0.045
5.796,-0.235,-0.045
5.798,-0.220,-0.045
5.800,-0.160,-0.050
5.802,-0.085,-0.050
5.804,-0.025,-0.050
5.806,0.005,-0.050
5.808,-0.025,-0.050
5.810,-0.065,-0.050
5.812,-0.150,-0.045
5.814,-0.205,-0.045
5.816,-0.235,-0.045
5.818,-0.215,-0.045
5.820,-0.155,-0.040
5.822,-0.070,-0.040
5.824,-0.020,-0.040
5.826,0.015,-0.035
5.828,-0.010,-0.035
5.830,-0.075,-0.040
5.832,-0.165,-0.040
5.834,-0.225,-0.045
5.836,-0.225,-0.045
5.838,-0.215,-0.050
5.840,-0.160,-0.050
5.842,-0.075,-0.055
5.844,-0.010,-0.050
5.846,0.005,-0.050
5.848,-0.030,-0.045
5.850,-0.080,-0.040
5.852,-0.165,-0.035
5.854,-0.205,-0.030
5.856,-0.230,-0.025
5.858,-0.200,-0.025
5.860,-0.145,-0.025
5.862,-0.055,-0.030
5.864,-0.015,-0.035
5.866,0.005,-0.035
5.868,-0.025,-0.040
5.870,-0.075,-0.040
5.872,-0.160,-0.040
5.874,-0.210,-0.035
5.876,-0.225,-0.035
5.878,-0.185,-0.030
5.880,-0.135,-0.030
5.882,-0.040,-0.030
5.884,0.010,-0.030
5.886,0.020,-0.030
5.888,-0.005,-0.030
5.890,-0.055,-0.030
5.892,-0.145,-0.030
5.894,-0.190,-0.030
5.896,-0.195,-0.025
5.898,-0.155,-0.020
5.900,-0.095,-0.015
5.902,0.005,-0.005
5.904,0.030,0.000
5.906,0.045,0.005
5.908,0.005,0.005
5.910,-0.045,0.005
5.912,-0.130,0.005
5.914,-0.170,0.005
5.916,-0.185,0.005
5.918,-0.140,0.005
5.920,-0.090,0.000
5.922,0.000,0.000
5.924,0.040,0.000
5.926,0.050,0.000
5.928,0.005,0.000
5.930,-0.050,0.000
5.932,-0.145,0.000
5.934,-0.180,0.000
5.936,-0.190,0.000
5.938,-0.160,0.000
5.940,-0.115,0.000
5.942,-0.020,-0.005
5.944,0.015,-0.005
5.946,0.020,-0.010
5.948,-0.025,-0.015
5.950,-0.090,-0.020
5.952,-0.185,-0.025
5.954,-0.220,-0.030
5.956,-0.225,-0.035
5.958,-0.190,-0.035
5.960,-0.130,-0.035
5.962,-0.040,-0.035
5.964,-0.010,-0.040
5.966,-0.010,-0.040
5.968,-0.060,-0.040
5.970,-0.110,-0.045
5.972,-0.200,-0.050
5.974,-0.230,-0.055
5.976,-0.235,-0.055
5.978,-0.195,-0.060
5.980,-0.135,-0.055
5.982,-0.050,-0.055
5.984,-0.005,-0.050
5.986,-0.020,-0.045
5.988,-0.070,-0.040
5.990,-0.120,-0.040
5.992,-0.210,-0.040
5.994,-0.245,-0.045
5.996,-0.240,-0.050
5.998,-0.190,-0.060
6.000,-0.140,-0.065
6.002,-0.045,-0.065
6.004,-0.010,-0.065
6.006,-0.015,-0.065
6.008,-0.070,-0.065
6.010,-0.145,-0.065
6.012,-0.240,-0.070
6.014,-0.280,-0.080
6.016,-0.285,-0.095
6.018,-0.230,-0.105
6.020,-0.175,-0.110
6.022,-0.090,-0.100
6.024,-0.030,-0.075
6.026,0.015,-0.035
6.028,0.020,0.025
6.030,0.040,0.105
6.032,0.045,0.190
6.034,0.110,0.280
6.036,0.200,0.360
6.038,0.350,0.425
6.040,0.465,0.465
6.042,0.550,0.485
6.044,0.550,0.470
6.046,0.455,0.435
6.048,0.265,0.375
6.050,0.175,0.300
6.052,0.070,0.215
6.054,-0.055,0.125
6.056,-0.145,0.035
6.058,-0.210,-0.040
6.060,-0.245,-0.110
6.062,-0.205,-0.165
6.064,-0.180,-0.205
6.066,-0.175,-0.225
6.068,-0.220,-0.235
6.070,-0.280,-0.225
6.072,-0.345,-0.210
6.074,-0.350,-0.180
6.076,-0.310,-0.150
6.078,-0.230,-0.120
6.080,-0.135,-0.095
6.082,-0.050,-0.075
6.084,-0.020,-0.060
6.086,-0.020,-0.050
6.088,-0.075,-0.045
6.090,-0.140,-0.045
6.092,-0.205,-0.050
6.094,-0.230,-0.050
6.096,-0.205,-0.050
6.098,-0.140,-0.045
6.100,-0.060,-0.045
6.102,-0.010,-0.035
6.104,0.020,-0.030
6.106,0.010,-0.025
6.108,-0.055,-0.020
6.110,-0.125,-0.015
6.112,-0.180,-0.010
6.114,-0.205,-0.010
6.116,-0.170,-0.015
6.118,-0.125,-0.015
6.120,-0.050,-0.020
6.122,0.005,-0.020
6.124,0.025,-0.025
6.126,0.005,-0.025
6.128,-0.045,-0.030
6.130,-0.130,-0.030
6.132,-0.185,-0.025
6.134,-0.205,-0.025
6.136,-0.170,-0.020
6.138,-0.105,-0.015
6.140,-0.015,-0.010
6.142,0.025,-0.005
6.144,0.045,0.000
6.146,0.010,0.005
6.148,-0.040,0.010
6.150,-0.115,0.015
6.152,-0.170,0.020
6.154,-0.180,0.020
6.156,-0.155,0.020
6.158,-0.085,0.020
6.160,-0.010,0.015
6.162,0.045,0.015
6.164,0.055,0.010
6.166,0.025,0.005
6.168,-0.025,0.005
6.170,-0.115,0.005
6.172,-0.165,0.010
6.174,-0.185,0.015
6.176,-0.145,0.020
6.178,-0.090,0.025
6.180,0.010,0.025
6.182,0.065,0.025
6.184,0.055,0.025
6.186,0.030,0.020
6.188,-0.020,0.015
6.190,-0.105,0.015
6.192,-0.155,0.010
6.194,-0.160,0.010
6.196,-0.115,0.010
6.198,-0.055,0.015
6.200,0.030,0.020
6.202,0.080,0.025
6.204,0.080,0.030
6.206,0.050,0.035
6.208,0.000,0.040
6.210,-0.090,0.040
6.212,-0.135,0.045
6.214,-0.135,0.045
6.216,-0.090,0.050
6.218,-0.035,0.055
6.220,0.065,0.060
6.222,0.110,0.065
6.224,0.105,0.070
6.226,0.080,0.075
6.228,0.035,0.080
6.230,-0.050,0.080
6.232,-0.090,0.085
6.234,-0.085,0.090
6.236,-0.045,0.090
6.238,0.015,0.100
6.240,0.115,0.105
6.242,0.160,0.115
6.244,0.175,0.125
6.246,0.135,0.135
6.248,0.085,0.140
6.250,0.000,0.150
6.252,-0.030,0.150
6.254,-0.030,0.155
6.256,0.025,0.155
6.258,0.090,0.155
6.260,0.180,0.155
6.262,0.220,0.160
6.264,0.220,0.165
6.266,0.180,0.175
6.268,0.135,0.185
6.270,0.055,0.195
6.272,0.020,0.205
6.274,0.025,0.210
6.276,0.065,0.215
6.278,0.140,0.220
6.280,0.230,0.215
6.282,0.255,0.215
6.284,0.255,0.210
6.286,0.205,0.210
6.288,0.150,0.210
6.290,0.060,0.210
6.292,0.035,0.210
6.294,0.035,0.215
6.296,0.080,0.215
6.298,0.135,0.220
6.300,0.220,0.220
6.302,0.240,0.220
6.304,0.235,0.215
6.306,0.165,0.210
6.308,0.100,0.200
6.310,0.020,0.190
6.312,-0.025,0.180
6.314,-0.030,0.165
6.316,0.005,0.155
6.318,0.060,0.140
6.320,0.140,0.130
6.322,0.150,0.115
6.324,0.135,0.105
6.326,0.065,0.095
6.328,-0.015,0.090
6.330,-0.095,0.080
6.332,-0.135,0.075
6.334,-0.125,0.065
6.336,-0.080,0.060
6.338,-0.020,0.055
6.340,0.040,0.050
6.342,0.060,0.040
6.344,0.050,0.030
6.346,-0.020,0.025
6.348,-0.090,0.015
6.350,-0.170,0.010
6.352,-0.195,0.000
6.354,-0.190,-0.005
6.356,-0.135,-0.010
6.358,-0.075,-0.015
6.360,-0.010,-0.020
6.362,0.015,-0.020
6.364,-0.005,-0.020
6.366,-0.070,-0.025
6.368,-0.135,-0.025
6.370,-0.200,-0.025
6.372,-0.225,-0.030
6.374,-0.215,-0.030
6.376,-0.150,-0.030
6.378,-0.085,-0.035
6.380,-0.020,-0.035
6.382,-0.010,-0.035
6.384,-0.025,-0.035
6.386,-0.075,-0.035
6.388,-0.145,-0.035
6.390,-0.210,-0.035
6.392,-0.230,-0.035
6.394,-0.215,-0.035
6.396,-0.160,-0.035
6.398,-0.075,-0.040
6.400,-0.025,-0.040
6.402,-0.005,-0.045
6.404,-0.025,-0.050
6.406,-0.070,-0.055
6.408,-0.155,-0.060
6.410,-0.210,-0.065
6.412,-0.235,-0.065
6.414,-0.215,-0.065
6.416,-0.155,-0.065
6.418,-0.080,-0.065
6.420,-0.015,-0.060
6.422,-0.010,-0.055
6.424,-0.025,-0.045
6.426,-0.095,-0.040
6.428,-0.170,-0.035
6.430,-0.225,-0.035
6.432,-0.240,-0.035
6.434,-0.210,-0.035
6.436,-0.165,-0.035
6.438,-0.065,-0.040
6.440,-0.020,-0.045
6.442,0.000,-0.050
6.444,-0.020,-0.055
6.446,-0.080,-0.055
6.448,-0.170,-0.055
6.450,-0.210,-0.055
6.452,-0.225,-0.055
6.454,-0.195,-0.050
6.456,-0.130,-0.050
6.458,-0.050,-0.045
6.460,-0.005,-0.040
6.462,0.010,-0.035
6.464,-0.030,-0.030
6.466,-0.075,-0.030
6.468,-0.160,-0.025
6.470,-0.220,-0.025
6.472,-0.230,-0.025
6.474,-0.190,-0.025
6.476,-0.135,-0.030
6.478,-0.035,-0.030
6.480,0.010,-0.030
6.482,0.025,-0.030
6.484,-0.010,-0.030
6.486,-0.075,-0.030
6.488,-0.155,-0.025
6.490,-0.205,-0.025
6.492,-0.220,-0.020
6.494,-0.180,-0.020
6.496,-0.125,-0.020
6.498,-0.030,-0.025
6.500,0.015,-0.025
6.502,0.015,-0.030
6.504,-0.015,-0.035
6.506,-0.080,-0.035
6.508,-0.165,-0.035
6.510,-0.200,-0.030
6.512,-0.220,-0.030
6.514,-0.175,-0.025
6.516,-0.125,-0.020
6.518,-0.030,-0.020
6.520,0.005,-0.020
6.522,0.015,-0.020
6.524,-0.030,-0.025
6.526,-0.075,-0.030
6.528,-0.175,-0.035
6.530,-0.215,-0.035
6.532,-0.220,-0.035
6.534,-0.180,-0.035
6.536,-0.115,-0.035
6.538,-0.030,-0.035
6.540,0.000,-0.030
6.542,0.020,-0.030
6.544,-0.030,-0.035
6.546,-0.090,-0.035
6.548,-0.185,-0.035
6.550,-0.220,-0.035
6.552,-0.225,-0.035
6.554,-0.170,-0.035
6.556,-0.110,-0.035
6.558,-0.025,-0.030
6.560,0.010,-0.030
6.562,0.005,-0.030
6.564,-0.040,-0.035
6.566,-0.095,-0.035
6.568,-0.190,-0.040
6.570,-0.215,-0.045
6.572,-0.215,-0.050
6.574,-0.170,-0.050
6.576,-0.110,-0.050
6.578,-0.025,-0.045
6.580,0.005,-0.040
6.582,0.005,-0.035
6.584,-0.050,-0.035
6.586,-0.100,-0.035
6.588,-0.190,-0.035
6.590,-0.220,-0.035
6.592,-0.225,-0.040
6.594,-0.160,-0.045
6.596,-0.100,-0.045
6.598,-0.030,-0.045
6.600,0.010,-0.045
6.602,0.000,-0.040
6.604,-0.055,-0.035
6.606,-0.105,-0.035
6.608,-0.195,-0.030
6.610,-0.225,-0.025
6.612,-0.215,-0.025
6.614,-0.165,-0.030
6.616,-0.095,-0.030
6.618,-0.020,-0.035
6.620,0.000,-0.040
6.622,0.000,-0.045
6.624,-0.055,-0.050
6.626,-0.120,-0.050
6.628,-0.200,-0.050
6.630,-0.220,-0.050
6.632,-0.210,-0.045
6.634,-0.155,-0.045
6.636,-0.095,-0.040
6.638,-0.010,-0.040
6.640,0.010,-0.035
6.642,0.005,-0.035
6.644,-0.060,-0.035
6.646,-0.125,-0.035
6.648,-0.200,-0.040
6.650,-0.215,-0.040
6.652,-0.210,-0.045
6.654,-0.155,-0.050
6.656,-0.080,-0.050
6.658,-0.010,-0.055
6.660,0.005,-0.055
6.662,0.000,-0.055
6.664,-0.060,-0.050
6.666,-0.130,-0.050
6.668,-0.200,-0.045
6.670,-0.220,-0.045
6.672,-0.205,-0.040
6.674,-0.155,-0.035
6.676,-0.070,-0.030
6.678,-0.010,-0.030
6.680,0.010,-0.030
6.682,-0.015,-0.030
6.684,-0.060,-0.035
6.686,-0.150,-0.035
6.688,-0.195,-0.040
6.690,-0.225,-0.045
6.692,-0.195,-0.045
6.694,-0.140,-0.045
6.696,-0.055,-0.045
6.698,-0.005,-0.045
6.700,0.010,-0.040
6.702,-0.005,-0.035
6.704,-0.075,-0.035
6.706,-0.145,-0.030
6.708,-0.200,-0.035
6.710,-0.215,-0.035
6.712,-0.195,-0.040
6.714,-0.135,-0.045
6.716,-0.045,-0.050
6.718,-0.005,-0.055
6.720,0.010,-0.055
6.722,-0.020,-0.055
6.724,-0.070,-0.050
6.726,-0.155,-0.045
6.728,-0.195,-0.040
6.730,-0.225,-0.035
6.732,-0.195,-0.030
6.734,-0.140,-0.030
6.736,-0.045,-0.030
6.738,0.000,-0.035
6.740,0.010,-0.035
6.742,-0.015,-0.040
6.744,-0.075,-0.040
6.746,-0.150,-0.040
6.748,-0.205,-0.040
6.750,-0.215,-0.035
6.752,-0.180,-0.030
6.754,-0.130,-0.030
6.756,-0.045,-0.025
6.758,0.005,-0.025
6.760,0.015,-0.025
6.762,-0.020,-0.030
6.764,-0.080,-0.030
6.766,-0.155,-0.035
6.768,-0.210,-0.035
6.770,-0.215,-0.035
6.772,-0.180,-0.035
6.774,-0.120,-0.030
6.776,-0.035,-0.030
6.778,0.010,-0.030
6.780,0.025,-0.030
6.782,-0.015,-0.035
6.784,-0.070,-0.040
6.786,-0.165,-0.040
6.788,-0.205,-0.045
6.790,-0.205,-0.045
6.792,-0.175,-0.040
6.794,-0.115,-0.035
6.796,-0.015,-0.030
6.798,0.030,-0.020
6.800,0.035,-0.015
6.802,-0.005,-0.010
6.804,-0.055,-0.010
6.806,-0.135,-0.010
6.808,-0.185,-0.010
6.810,-0.190,-0.015
6.812,-0.140,-0.015
6.814,-0.100,-0.020
6.816,-0.005,-0.020
6.818,0.035,-0.020
6.820,0.050,-0.020
6.822,0.010,-0.015
6.824,-0.045,-0.015
6.826,-0.130,-0.010
6.828,-0.175,-0.010
6.830,-0.175,-0.005
6.832,-0.125,-0.005
6.834,-0.075,-0.005
6.836,0.015,-0.005
6.838,0.045,-0.005
6.840,0.045,-0.010
6.842,-0.010,-0.010
6.844,-0.070,-0.015
6.846,-0.160,-0.015
6.848,-0.205,-0.020
6.850,-0.210,-0.025
6.852,-0.150,-0.025
6.854,-0.105,-0.030
6.856,-0.020,-0.035
6.858,0.010,-0.035
6.860,0.010,-0.040
6.862,-0.040,-0.040
6.864,-0.100,-0.045
6.866,-0.185,-0.045
6.868,-0.215,-0.045
6.870,-0.230,-0.050
6.872,-0.175,-0.050
6.874,-0.115,-0.055
6.876,-0.020,-0.055
6.878,0.005,-0.060
6.880,-0.005,-0.065
6.882,-0.050,-0.065
6.884,-0.115,-0.070
6.886,-0.195,-0.070
6.888,-0.235,-0.070
6.890,-0.235,-0.070
6.892,-0.175,-0.065
6.894,-0.110,-0.060
6.896,-0.025,-0.055
6.898,0.000,-0.050
6.900,-0.005,-0.050
6.902,-0.065,-0.050
6.904,-0.120,-0.050
6.906,-0.190,-0.055
6.908,-0.230,-0.060
6.910,-0.220,-0.060
6.912,-0.165,-0.065
6.914,-0.100,-0.070
6.916,-0.035,-0.075
6.918,-0.025,-0.075
6.920,-0.040,-0.080
6.922,-0.100,-0.085
6.924,-0.170,-0.090
6.926,-0.245,-0.090
6.928,-0.280,-0.085
6.930,-0.250,-0.065
6.932,-0.125,-0.035
6.934,-0.010,0.015
6.936,0.140,0.080
6.938,0.235,0.155
6.940,0.310,0.240
6.942,0.340,0.325
6.944,0.375,0.400
6.946,0.380,0.460
6.948,0.370,0.490
6.950,0.360,0.490
6.952,0.340,0.460
6.954,0.285,0.405
6.956,0.305,0.325
6.958,0.300,0.230
6.960,0.205,0.130
6.962,0.035,0.030
6.964,-0.155,-0.055
6.966,-0.355,-0.125
6.968,-0.410,-0.180
6.970,-0.380,-0.215
6.972,-0.320,-0.235
6.974,-0.235,-0.240
6.976,-0.160,-0.235
6.978,-0.140,-0.220
6.980,-0.150,-0.200
6.982,-0.185,-0.180
6.984,-0.240,-0.160
6.986,-0.275,-0.140
6.988,-0.265,-0.120
6.990,-0.240,-0.105
6.992,-0.165,-0.095
6.994,-0.070,-0.085
6.996,-0.010,-0.080
6.998,0.015,-0.075
7.000,-0.005,-0.070
7.002,-0.060,-0.060
7.004,-0.125,-0.055
7.006,-0.185,-0.045
7.008,-0.195,-0.035
7.010,-0.180,-0.025
7.012,-0.115,-0.020
7.014,-0.040,-0.020
7.016,0.020,-0.015
7.018,0.035,-0.020
7.020,0.010,-0.020
7.022,-0.040,-0.025
7.024,-0.120,-0.030
7.026,-0.180,-0.030
7.028,-0.205,-0.030
7.030,-0.170,-0.025
7.032,-0.115,-0.025
7.034,-0.015,-0.020
7.036,0.030,-0.020
7.038,0.035,-0.020
7.040,0.020,-0.015
7.042,-0.035,-0.015
7.044,-0.120,-0.015
7.046,-0.175,-0.015
7.048,-0.180,-0.015
7.050,-0.140,-0.015
7.052,-0.095,-0.010
7.054,-0.005,-0.010
7.056,0.040,-0.010
7.058,0.045,-0.010
7.060,0.025,-0.010
7.062,-0.030,-0.010
7.064,-0.115,-0.010
7.066,-0.155,-0.010
7.068,-0.175,-0.005
7.070,-0.130,0.000
7.072,-0.075,0.000
7.074,0.010,0.005
7.076,0.055,0.010
7.078,0.075,0.010
7.080,0.030,0.010
7.082,-0.010,0.010
7.084,-0.100,0.005
7.086,-0.145,0.005
7.088,-0.140,0.005
7.090,-0.110,0.010
7.092,-0.055,0.010
7.094,0.035,0.015
7.096,0.075,0.015
7.098,0.080,0.020
7.100,0.055,0.025
7.102,-0.005,0.025
7.104,-0.100,0.025
7.106,-0.135,0.030
7.108,-0.140,0.030
7.110,-0.095,0.035
7.112,-0.035,0.035
7.114,0.060,0.040
7.116,0.105,0.045
7.118,0.120,0.045
7.120,0.080,0.050
7.122,0.030,0.050
7.124,-0.070,0.055
7.126,-0.105,0.055
7.128,-0.100,0.055
7.130,-0.050,0.060
7.132,0.010,0.065
7.134,0.105,0.070
7.136,0.140,0.075
7.138,0.150,0.080
7.140,0.110,0.090
7.142,0.070,0.095
7.144,-0.020,0.100
7.146,-0.040,0.105
7.148,-0.040,0.110
7.150,0.025,0.115
7.152,0.080,0.120
7.154,0.165,0.130
7.156,0.205,0.135
7.158,0.205,0.145
7.160,0.160,0.150
7.162,0.120,0.160
7.164,0.045,0.165
7.166,0.010,0.170
7.168,0.030,0.175
7.170,0.075,0.180
7.172,0.145,0.180
7.174,0.230,0.185
7.176,0.250,0.190
7.178,0.265,0.195
7.180,0.220,0.200
7.182,0.150,0.205
7.184,0.075,0.205
7.186,0.045,0.210
7.188,0.055,0.210
7.190,0.105,0.215
7.192,0.165,0.215
7.194,0.255,0.215
7.196,0.275,0.215
7.198,0.265,0.215
7.200,0.215,0.215
7.202,0.150,0.210
7.204,0.070,0.205
7.206,0.040,0.200
7.208,0.045,0.195
7.210,0.100,0.190
7.212,0.160,0.190
7.214,0.225,0.185
7.216,0.240,0.180
7.218,0.220,0.180
7.220,0.155,0.175
7.222,0.075,0.170
7.224,-0.005,0.160
7.226,-0.045,0.150
7.228,-0.045,0.135
7.230,0.015,0.120
7.232,0.065,0.100
7.234,0.115,0.085
7.236,0.120,0.070
7.238,0.105,0.055
7.240,0.030,0.045
7.242,-0.035,0.035
7.244,-0.120,0.030
7.246,-0.140,0.025
7.248,-0.130,0.020
7.250,-0.080,0.015
7.252,-0.010,0.010
7.254,0.040,0.005
7.256,0.060,0.000
7.258,0.045,-0.005
7.260,-0.025,-0.005
7.262,-0.100,-0.005
7.264,-0.170,-0.005
7.266,-0.195,-0.005
7.268,-0.175,-0.005
7.270,-0.115,-0.010
7.272,-0.045,-0.010
7.274,0.020,-0.015
7.276,0.035,-0.020
7.278,0.005,-0.025
7.280,-0.050,-0.035
7.282,-0.125,-0.040
7.284,-0.180,-0.045
7.286,-0.215,-0.050
7.288,-0.190,-0.055
7.290,-0.130,-0.055
7.292,-0.055,-0.055
7.294,-0.010,-0.055
7.296,0.020,-0.055
7.298,-0.010,-0.055
7.300,-0.070,-0.055
7.302,-0.140,-0.055
7.304,-0.195,-0.050
7.306,-0.215,-0.050
7.308,-0.190,-0.050
7.310,-0.130,-0.050
7.312,-0.040,-0.050
7.314,0.010,-0.050
7.316,0.015,-0.045
7.318,-0.005,-0.045
7.320,-0.065,-0.040
7.322,-0.150,-0.040
7.324,-0.195,-0.035
7.326,-0.205,-0.035
7.328,-0.175,-0.035
7.330,-0.125,-0.040
7.332,-0.035,-0.045
7.334,0.005,-0.050
7.336,0.010,-0.055
7.338,-0.015,-0.055
7.340,-0.060,-0.060
7.342,-0.145,-0.060
7.344,-0.210,-0.055
7.346,-0.210,-0.055
7.348,-0.175,-0.050
7.350,-0.120,-0.045
7.352,-0.035,-0.040
7.354,0.015,-0.040
7.356,0.025,-0.045
7.358,-0.005,-0.045
7.360,-0.055,-0.050
7.362,-0.150,-0.050
7.364,-0.195,-0.050
7.366,-0.210,-0.050
7.368,-0.155,-0.050
7.370,-0.100,-0.045
7.372,-0.020,-0.045
7.374,0.025,-0.045
7.376,0.030,-0.045
7.378,0.000,-0.045
7.380,-0.045,-0.045
7.382,-0.145,-0.050
7.384,-0.180,-0.050
7.386,-0.190,-0.045
7.388,-0.155,-0.040
7.390,-0.100,-0.040
7.392,-0.015,-0.035
7.394,0.035,-0.030
7.396,0.035,-0.025
7.398,0.000,-0.025
7.400,-0.050,-0.030
7.402,-0.145,-0.030
7.404,-0.180,-0.030
7.406,-0.190,-0.030
7.408,-0.145,-0.030
7.410,-0.095,-0.025
7.412,0.010,-0.025
7.414,0.045,-0.020
7.416,0.040,-0.015
7.418,-0.005,-0.015
7.420,-0.060,-0.015
7.422,-0.145,-0.020
7.424,-0.185,-0.025
7.426,-0.200,-0.030
7.428,-0.150,-0.035
7.430,-0.090,-0.035
7.432,0.005,-0.035
7.434,0.040,-0.035
7.436,0.030,-0.035
7.438,0.000,-0.030
7.440,-0.060,-0.025
7.442,-0.150,-0.025
7.444,-0.190,-0.020
7.446,-0.185,-0.020
7.448,-0.140,-0.020
7.450,-0.075,-0.025
7.452,0.005,-0.025
7.454,0.045,-0.030
7.456,0.020,-0.030
7.458,-0.015,-0.035
7.460,-0.080,-0.040
7.462,-0.170,-0.040
7.464,-0.200,-0.045
7.466,-0.190,-0.045
7.468,-0.140,-0.045
7.470,-0.070,-0.045
7.472,0.000,-0.045
7.474,0.030,-0.045
7.476,0.035,-0.040
7.478,-0.025,-0.040
7.480,-0.080,-0.035
7.482,-0.175,-0.035
7.484,-0.200,-0.035
7.486,-0.195,-0.035
7.488,-0.150,-0.040
7.490,-0.075,-0.040
7.492,-0.005,-0.045
7.494,0.025,-0.045
7.496,0.015,-0.050
7.498,-0.040,-0.050
7.500,-0.100,-0.050
7.502,-0.185,-0.050
7.504,-0.225,-0.050
7.506,-0.205,-0.050
7.508,-0.140,-0.050
7.510,-0.065,-0.055
7.512,0.000,-0.055
7.514,0.025,-0.055
7.516,0.010,-0.055
7.518,-0.040,-0.060
7.520,-0.105,-0.060
7.522,-0.175,-0.060
7.524,-0.195,-0.055
7.526,-0.190,-0.055
7.528,-0.135,-0.050
7.530,-0.070,-0.050
7.532,0.000,-0.045
7.534,0.020,-0.040
7.536,0.015,-0.040
7.538,-0.045,-0.040
7.540,-0.115,-0.035
7.542,-0.180,-0.040
7.544,-0.210,-0.040
7.546,-0.195,-0.045
7.548,-0.125,-0.045
7.550,-0.060,-0.050
7.552,0.000,-0.050
7.554,0.025,-0.050
7.556,0.005,-0.050
7.558,-0.050,-0.050
7.560,-0.130,-0.045
7.562,-0.195,-0.045
7.564,-0.210,-0.040
7.566,-0.185,-0.040
7.568,-0.130,-0.040
7.570,-0.050,-0.040
7.572,0.000,-0.040
7.574,0.020,-0.045
7.576,0.000,-0.045
7.578,-0.060,-0.050
7.580,-0.135,-0.050
7.582,-0.195,-0.050
7.584,-0.210,-0.050
7.586,-0.180,-0.050
7.588,-0.120,-0.050
7.590,-0.050,-0.045
7.592,0.010,-0.045
7.594,0.025,-0.045
7.596,0.000,-0.040
7.598,-0.055,-0.040
7.600,-0.135,-0.040
7.602,-0.185,-0.040
7.604,-0.205,-0.040
7.606,-0.175,-0.040
7.608,-0.115,-0.045
7.610,-0.030,-0.045
7.612,0.015,-0.050
7.614,0.030,-0.055
7.616,0.005,-0.055
7.618,-0.045,-0.055
7.620,-0.135,-0.055
7.622,-0.195,-0.055
7.624,-0.205,-0.050
7.626,-0.175,-0.050
7.628,-0.125,-0.045
7.630,-0.020,-0.040
7.632,0.015,-0.040
7.634,0.030,-0.035
7.636,0.000,-0.035
7.638,-0.065,-0.035
7.640,-0.150,-0.030
7.642,-0.190,-0.030
7.644,-0.200,-0.030
7.646,-0.165,-0.030
7.648,-0.105,-0.030
7.650,-0.020,-0.030
7.652,0.025,-0.035
7.654,0.030,-0.040
7.656,0.000,-0.045
7.658,-0.055,-0.050
7.660,-0.150,-0.055
7.662,-0.190,-0.055
7.664,-0.205,-0.055
7.666,-0.165,-0.055
7.668,-0.110,-0.050
7.670,-0.015,-0.045
7.672,0.030,-0.040
7.674,0.045,-0.035
7.676,0.005,-0.030
7.678,-0.050,-0.030
7.680,-0.135,-0.030
7.682,-0.175,-0.030
7.684,-0.180,-0.030
7.686,-0.135,-0.030
7.688,-0.080,-0.025
7.690,0.015,-0.025
7.692,0.060,-0.020
7.694,0.055,-0.015
7.696,0.010,-0.015
7.698,-0.030,-0.015
7.700,-0.130,-0.015
7.702,-0.165,-0.015
7.704,-0.180,-0.020
7.706,-0.130,-0.020
7.708,-0.060,-0.025
7.710,0.020,-0.025
7.712,0.050,-0.025
7.714,0.060,-0.020
7.716,0.015,-0.020
7.718,-0.035,-0.015
7.720,-0.120,-0.015
7.722,-0.155,-0.010
7.724,-0.160,-0.010
7.726,-0.120,-0.015
7.728,-0.070,-0.015
7.730,0.010,-0.020
7.732,0.040,-0.025
7.734,0.045,-0.025
7.736,-0.015,-0.030
7.738,-0.065,-0.035
7.740,-0.155,-0.035
7.742,-0.195,-0.035
7.744,-0.195,-0.035
7.746,-0.145,-0.040
7.748,-0.095,-0.040
7.750,-0.010,-0.045
7.752,0.020,-0.045
7.754,0.020,-0.050
7.756,-0.025,-0.050
7.758,-0.090,-0.050
7.760,-0.175,-0.050
7.762,-0.205,-0.050
7.764,-0.205,-0.045
7.766,-0.150,-0.040
7.768,-0.090,-0.040
7.770,-0.010,-0.040
7.772,0.025,-0.040
7.774,0.020,-0.040
7.776,-0.035,-0.040
7.778,-0.095,-0.040
7.780,-0.180,-0.045
7.782,-0.205,-0.045
7.784,-0.200,-0.045
7.786,-0.140,-0.045
7.788,-0.080,-0.045
7.790,0.005,-0.045
7.792,0.030,-0.045
7.794,0.020,-0.045
7.796,-0.040,-0.045
7.798,-0.110,-0.050
7.800,-0.190,-0.050
7.802,-0.215,-0.055
7.804,-0.215,-0.060
7.806,-0.160,-0.065
7.808,-0.105,-0.075
7.810,-0.035,-0.085
7.812,-0.020,-0.090
7.814,-0.030,-0.095
7.816,-0.100,-0.085
7.818,-0.150,-0.065
7.820,-0.175,-0.030
7.822,-0.140,0.020
7.824,-0.035,0.085
7.826,0.095,0.160
7.828,0.240,0.245
7.830,0.390,0.325
7.832,0.505,0.395
7.834,0.575,0.445
7.836,0.530,0.470
7.838,0.425,0.470
7.840,0.275,0.440
7.842,0.135,0.385
7.844,0.090,0.305
7.846,0.130,0.215
7.848,0.135,0.120
7.850,0.095,0.025
7.852,-0.005,-0.065
7.854,-0.165,-0.140
7.856,-0.275,-0.195
7.858,-0.325,-0.235
7.860,-0.370,-0.255
7.862,-0.380,-0.260
7.864,-0.350,-0.255
7.866,-0.300,-0.245
7.868,-0.225,-0.225
7.870,-0.155,-0.200
7.872,-0.095,-0.175
7.874,-0.095,-0.155
7.876,-0.125,-0.135
7.878,-0.180,-0.115
7.880,-0.220,-0.100
7.882,-0.230,-0.090
7.884,-0.190,-0.080
7.886,-0.125,-0.070
7.888,-0.035,-0.060
7.890,0.015,-0.055
7.892,0.030,-0.050
7.894,0.010,-0.040
7.896,-0.040,-0.035
7.898,-0.115,-0.030
7.900,-0.170,-0.025
7.902,-0.185,-0.025
7.904,-0.145,-0.020
7.906,-0.085,-0.020
7.908,-0.005,-0.020
7.910,0.050,-0.020
7.912,0.065,-0.020
7.914,0.040,-0.020
7.916,-0.025,-0.020
7.918,-0.100,-0.015
7.920,-0.155,-0.010
7.922,-0.165,-0.010
7.924,-0.145,-0.005
7.926,-0.085,0.000
7.928,0.020,0.000
7.930,0.055,0.000
7.932,0.065,0.000
7.934,0.035,0.000
7.936,-0.010,-0.005
7.938,-0.100,-0.005
7.940,-0.150,0.000
7.942,-0.150,0.000
7.944,-0.120,0.010
7.946,-0.070,0.015
7.948,0.020,0.020
7.950,0.065,0.030
7.952,0.075,0.035
7.954,0.040,0.035
7.956,-0.015,0.035
7.958,-0.105,0.030
7.960,-0.140,0.030
7.962,-0.145,0.025
7.964,-0.095,0.020
7.966,-0.045,0.020
7.968,0.045,0.020
7.970,0.090,0.020
7.972,0.095,0.020
7.974,0.065,0.025
7.976,0.015,0.030
7.978,-0.075,0.030
7.980,-0.115,0.035
7.982,-0.115,0.040
7.984,-0.075,0.040
7.986,-0.025,0.045
7.988,0.070,0.045
7.990,0.105,0.045
7.992,0.115,0.050
7.994,0.085,0.050
7.996,0.030,0.050
7.998,-0.060,0.050
8.000,-0.095,0.050
8.002,-0.090,0.050
8.004,-0.045,0.050
8.006,0.015,0.055
8.008,0.100,0.060
8.010,0.140,0.070
8.012,0.150,0.075
8.014,0.105,0.080
8.016,0.050,0.090
8.018,-0.030,0.095
8.020,-0.070,0.100
8.022,-0.060,0.105
8.024,-0.015,0.105
8.026,0.045,0.110
8.028,0.140,0.115
8.030,0.175,0.115
8.032,0.185,0.120
8.034,0.140,0.125
8.036,0.095,0.130
8.038,0.015,0.135
8.040,-0.020,0.135
8.042,-0.015,0.140
8.044,0.050,0.150
8.046,0.115,0.155
8.048,0.200,0.160
8.050,0.235,0.165
8.052,0.250,0.170
8.054,0.190,0.180
8.056,0.145,0.185
8.058,0.080,0.190
8.060,0.050,0.200
8.062,0.065,0.205
8.064,0.120,0.210
8.066,0.175,0.215
8.068,0.265,0.220
8.070,0.290,0.220
8.072,0.290,0.225
8.074,0.245,0.225
8.076,0.175,0.225
8.078,0.105,0.225
8.080,0.070,0.225
8.082,0.080,0.225
8.084,0.130,0.225
8.086,0.195,0.225
8.088,0.265,0.225
8.090,0.295,0.225
8.092,0.275,0.225
8.094,0.225,0.220
8.096,0.160,0.215
8.098,0.070,0.210
8.100,0.040,0.200
8.102,0.040,0.195
8.104,0.085,0.185
8.106,0.140,0.175
8.108,0.205,0.170
8.110,0.215,0.165
8.112,0.190,0.155
8.114,0.120,0.150
8.116,0.040,0.140
8.118,-0.045,0.130
8.120,-0.075,0.120
8.122,-0.070,0.105
8.124,-0.020,0.090
8.126,0.045,0.075
8.128,0.090,0.060
8.130,0.095,0.050
8.132,0.080,0.035
8.134,0.015,0.025
8.136,-0.070,0.020
8.138,-0.130,0.015
8.140,-0.155,0.010
8.142,-0.150,0.010
8.144,-0.100,0.005
8.146,-0.035,0.005
8.148,0.025,0.000
8.150,0.035,-0.005
8.152,0.010,-0.010
8.154,-0.050,-0.015
8.156,-0.125,-0.020
8.158,-0.190,-0.025
8.160,-0.205,-0.025
8.162,-0.175,-0.030
8.164,-0.125,-0.035
8.166,-0.050,-0.040
8.168,0.005,-0.040
8.170,0.020,-0.045
8.172,0.000,-0.050
8.174,-0.055,-0.050
8.176,-0.145,-0.055
8.178,-0.195,-0.055
8.180,-0.215,-0.060
8.182,-0.195,-0.060
8.184,-0.140,-0.060
8.186,-0.065,-0.055
8.188,-0.010,-0.055
8.190,0.005,-0.055
8.192,-0.005,-0.050
8.194,-0.065,-0.050
8.196,-0.145,-0.050
8.198,-0.205,-0.050
8.200,-0.220,-0.050
8.202,-0.190,-0.050
8.204,-0.130,-0.050
8.206,-0.055,-0.050
8.208,0.000,-0.045
8.210,0.015,-0.045
8.212,-0.020,-0.045
8.214,-0.065,-0.040
8.216,-0.155,-0.040
8.218,-0.200,-0.040
8.220,-0.210,-0.035
8.222,-0.180,-0.035
8.224,-0.125,-0.030
8.226,-0.045,-0.030
8.228,0.010,-0.030
8.230,0.020,-0.030
8.232,0.000,-0.030
8.234,-0.065,-0.035
8.236,-0.150,-0.035
8.238,-0.190,-0.035
8.240,-0.200,-0.035
8.242,-0.165,-0.035
8.244,-0.115,-0.030
8.246,-0.020,-0.025
8.248,0.020,-0.025
8.250,0.025,-0.020
8.252,-0.015,-0.015
8.254,-0.055,-0.015
8.256,-0.150,-0.015
8.258,-0.190,-0.020
8.260,-0.195,-0.020
8.262,-0.150,-0.025
8.264,-0.100,-0.030
8.266,-0.010,-0.030
8.268,0.025,-0.030
8.270,0.035,-0.025
8.272,-0.005,-0.025
8.274,-0.055,-0.020
8.276,-0.130,-0.015
8.278,-0.180,-0.015
8.280,-0.190,-0.015
8.282,-0.145,-0.015
8.284,-0.090,-0.015
8.286,-0.005,-0.020
8.288,0.040,-0.020
8.290,0.045,-0.015
8.292,0.000,-0.015
8.294,-0.040,-0.015
8.296,-0.135,-0.015
8.298,-0.175,-0.015
8.300,-0.185,-0.015
8.302,-0.145,-0.015
8.304,-0.095,-0.020
8.306,-0.005,-0.025
8.308,0.020,-0.025
8.310,0.020,-0.030
8.312,-0.010,-0.030
8.314,-0.080,-0.030
8.316,-0.150,-0.025
8.318,-0.190,-0.020
8.320,-0.195,-0.020
8.322,-0.145,-0.015
8.324,-0.085,-0.015
8.326,0.005,-0.015
8.328,0.035,-0.015
8.330,0.045,-0.020
8.332,0.000,-0.020
8.334,-0.075,-0.020
8.336,-0.145,-0.020
8.338,-0.185,-0.020
8.340,-0.175,-0.020
8.342,-0.130,-0.015
8.344,-0.075,-0.015
8.346,0.005,-0.015
8.348,0.035,-0.015
8.350,0.040,-0.015
8.352,-0.020,-0.015
8.354,-0.090,-0.020
8.356,-0.155,-0.020
8.358,-0.200,-0.025
8.360,-0.195,-0.030
8.362,-0.145,-0.030
8.364,-0.080,-0.035
8.366,-0.010,-0.035
8.368,0.015,-0.040
8.370,0.010,-0.045
8.372,-0.045,-0.045
8.374,-0.100,-0.045
8.376,-0.180,-0.045
8.378,-0.210,-0.045
8.380,-0.195,-0.045
8.382,-0.140,-0.045
8.384,-0.075,-0.040
8.386,-0.005,-0.040
8.388,0.020,-0.035
8.390,0.010,-0.035
8.392,-0.045,-0.030
8.394,-0.100,-0.030
8.396,-0.180,-0.030
8.398,-0.200,-0.030
8.400,-0.185,-0.030
8.402,-0.130,-0.035
8.404,-0.065,-0.035
8.406,0.005,-0.035
8.408,0.040,-0.035
8.410,0.035,-0.035
8.412,-0.010,-0.035
8.414,-0.095,-0.035
8.416,-0.170,-0.035
8.418,-0.210,-0.035
8.420,-0.180,-0.035
8.422,-0.120,-0.035
8.424,-0.040,-0.035
8.426,0.030,-0.030
8.428,0.060,-0.030
8.430,0.035,-0.025
8.432,-0.025,-0.025
8.434,-0.115,-0.020
8.436,-0.185,-0.015
8.438,-0.195,-0.010
8.440,-0.175,-0.010
8.442,-0.120,-0.010
8.444,-0.045,-0.015
8.446,0.000,-0.020
8.448,0.010,-0.025
8.450,-0.015,-0.035
8.452,-0.075,-0.040
8.454,-0.155,-0.040
8.456,-0.195,-0.040
8.458,-0.195,-0.040
8.460,-0.165,-0.035
8.462,-0.110,-0.035
8.464,-0.030,-0.030
8.466,0.015,-0.025
8.468,0.025,-0.025
8.470,0.010,-0.025
8.472,-0.060,-0.025
8.474,-0.135,-0.025
8.476,-0.205,-0.030
8.478,-0.215,-0.035
8.480,-0.160,-0.035
8.482,-0.110,-0.040
8.484,-0.025,-0.040
8.486,0.015,-0.040
8.488,0.030,-0.040
8.490,0.000,-0.035
8.492,-0.045,-0.035
8.494,-0.135,-0.030
8.496,-0.180,-0.030
8.498,-0.190,-0.030
8.500,-0.165,-0.025
8.502,-0.125,-0.030
8.504,-0.045,-0.030
8.506,-0.010,-0.035
8.508,0.020,-0.035
8.510,0.020,-0.040
8.512,-0.045,-0.045
8.514,-0.150,-0.050
8.516,-0.215,-0.050
8.518,-0.215,-0.050
8.520,-0.195,-0.050
8.522,-0.120,-0.045
8.524,-0.035,-0.040
8.526,0.010,-0.035
8.528,0.030,-0.030
8.530,0.005,-0.025
8.532,-0.020,-0.015
8.534,-0.090,-0.015
8.536,-0.150,-0.010
8.538,-0.220,-0.015
8.540,-0.180,-0.015
8.542,-0.120,-0.020
8.544,-0.025,-0.025
8.546,0.010,-0.030
8.548,0.030,-0.035
8.550,-0.020,-0.035
8.552,-0.075,-0.035
8.554,-0.145,-0.030
8.556,-0.175,-0.020
8.558,-0.190,-0.010
8.560,-0.115,0.000
8.562,-0.050,0.010
8.564,0.075,0.015
8.566,0.075,0.020
8.568,0.090,0.015
8.570,0.055,0.015
8.572,-0.040,0.005
8.574,-0.145,0.000
8.576,-0.185,-0.005
8.578,-0.180,-0.010
8.580,-0.110,-0.015
8.582,-0.085,-0.020
8.584,-0.005,-0.025
8.586,0.040,-0.030
8.588,0.055,-0.035
8.590,-0.015,-0.040
8.592,-0.095,-0.040
8.594,-0.205,-0.040
8.596,-0.250,-0.035
8.598,-0.195,-0.030
8.600,-0.085,-0.020
8.602,-0.035,-0.015
8.604,0.065,-0.015
8.606,0.050,-0.015
8.608,0.010,-0.025
8.610,-0.085,-0.035
8.612,-0.150,-0.050
8.614,-0.260,-0.060
8.616,-0.235,-0.070
8.618,-0.160,-0.075
8.620,-0.130,-0.075
8.622,-0.105,-0.065
8.624,-0.065,-0.050
8.626,-0.015,-0.035
8.628,0.055,-0.020
8.630,-0.015,-0.010
8.632,-0.085,0.000
8.634,-0.160,0.000
8.636,-0.200,-0.005
8.638,-0.200,-0.015
8.640,-0.155,-0.025
8.642,-0.090,-0.035
8.644,0.005,-0.040
8.646,0.030,-0.045
8.648,0.010,-0.045
8.650,-0.050,-0.045
8.652,-0.125,-0.045
8.654,-0.180,-0.045
8.656,-0.205,-0.045
8.658,-0.190,-0.050
8.660,-0.165,-0.055
8.662,-0.100,-0.065
8.664,-0.025,-0.070
8.666,0.020,-0.075
8.668,-0.020,-0.075
8.670,-0.080,-0.075
8.672,-0.135,-0.070
8.674,-0.205,-0.070
8.676,-0.220,-0.065
8.678,-0.230,-0.065
8.680,-0.165,-0.065
8.682,-0.105,-0.070
8.684,-0.030,-0.075
8.686,-0.030,-0.080
8.688,-0.070,-0.090
8.690,-0.125,-0.100
8.692,-0.205,-0.110
8.694,-0.250,-0.110
8.696,-0.295,-0.105
8.698,-0.275,-0.085
8.700,-0.165,-0.055
8.702,-0.020,-0.010
8.704,0.120,0.050
8.706,0.220,0.125
8.708,0.280,0.210
8.710,0.320,0.295
8.712,0.320,0.370
8.714,0.330,0.435
8.716,0.370,0.470
8.718,0.385,0.485
8.720,0.380,0.465
8.722,0.335,0.415
8.724,0.320,0.340
8.726,0.310,0.250
8.728,0.235,0.155
8.730,0.035,0.055
8.732,-0.125,-0.030
8.734,-0.310,-0.105
8.736,-0.405,-0.165
8.738,-0.395,-0.200
8.740,-0.340,-0.225
8.742,-0.265,-0.235
8.744,-0.190,-0.235
8.746,-0.165,-0.225
8.748,-0.150,-0.215
8.750,-0.180,-0.200
8.752,-0.270,-0.180
8.754,-0.265,-0.165
8.756,-0.285,-0.145
8.758,-0.275,-0.125
8.760,-0.195,-0.110
8.762,-0.100,-0.100
8.764,-0.010,-0.085
8.766,0.000,-0.080
8.768,-0.015,-0.075
8.770,-0.075,-0.070
8.772,-0.165,-0.070
8.774,-0.245,-0.070
8.776,-0.230,-0.065
8.778,-0.205,-0.065
8.780,-0.155,-0.065
8.782,-0.065,-0.065
8.784,-0.010,-0.060
8.786,0.015,-0.055
8.788,0.020,-0.055
8.790,-0.050,-0.050
8.792,-0.150,-0.045
8.794,-0.200,-0.045
8.796,-0.215,-0.040
8.798,-0.180,-0.040
8.800,-0.100,-0.040
8.802,-0.025,-0.040
8.804,0.000,-0.045
8.806,0.040,-0.045
8.808,0.005,-0.050
8.810,-0.045,-0.055
8.812,-0.160,-0.055
8.814,-0.215,-0.060
8.816,-0.225,-0.060
8.818,-0.195,-0.055
8.820,-0.135,-0.055
8.822,-0.030,-0.045
8.824,0.020,-0.040
8.826,0.050,-0.030
8.828,0.020,-0.025
8.830,-0.030,-0.015
8.832,-0.140,-0.010
8.834,-0.165,-0.010
8.836,-0.185,-0.010
8.838,-0.140,-0.010
8.840,-0.075,-0.015
8.842,0.000,-0.020
8.844,0.015,-0.025
8.846,0.035,-0.030
8.848,0.030,-0.030
8.850,-0.040,-0.025
8.852,-0.105,-0.020
8.854,-0.150,-0.015
8.856,-0.165,-0.010
8.858,-0.140,0.000
8.860,-0.100,0.005
8.862,0.010,0.005
8.864,0.050,0.005
8.866,0.055,0.005
8.868,0.020,0.005
8.870,-0.020,0.000
8.872,-0.115,0.005
8.874,-0.135,0.005
8.876,-0.145,0.015
8.878,-0.080,0.020
8.880,-0.035,0.030
8.882,0.065,0.040
8.884,0.100,0.050
8.886,0.090,0.050
8.888,0.060,0.055
8.890,-0.005,0.055
8.892,-0.075,0.050
8.894,-0.115,0.050
8.896,-0.115,0.045
8.898,-0.040,0.045
8.900,0.015,0.050
8.902,0.100,0.055
8.904,0.130,0.060
8.906,0.120,0.070
8.908,0.065,0.080
8.910,0.030,0.090
8.912,-0.030,0.095
8.914,-0.065,0.100
8.916,-0.055,0.105
8.918,-0.005,0.105
8.920,0.060,0.110
8.922,0.150,0.110
8.924,0.170,0.110
8.926,0.175,0.110
8.928,0.140,0.115
8.930,0.100,0.120
8.932,0.025,0.130
8.934,-0.015,0.135
8.936,0.015,0.145
8.938,0.060,0.155
8.940,0.130,0.165
8.942,0.220,0.175
8.944,0.255,0.180
8.946,0.240,0.185
8.948,0.185,0.185
8.950,0.135,0.185
8.952,0.040,0.185
8.954,0.035,0.185
8.956,0.040,0.190
8.958,0.105,0.190
8.960,0.165,0.195
8.962,0.240,0.200
8.964,0.265,0.200
8.966,0.255,0.205
8.968,0.195,0.205
8.970,0.120,0.200
8.972,0.045,0.200
8.974,0.030,0.195
8.976,0.045,0.190
8.978,0.080,0.185
8.980,0.145,0.180
8.982,0.215,0.175
8.984,0.225,0.170
8.986,0.200,0.160
8.988,0.145,0.155
8.990,0.060,0.145
8.992,-0.020,0.135
8.994,-0.060,0.130
8.996,-0.065,0.115
8.998,-0.015,0.105
9.000,0.055,0.095
9.002,0.115,0.080
9.004,0.120,0.065
9.006,0.110,0.050
9.008,0.030,0.040
9.010,-0.040,0.025
9.012,-0.130,0.015
9.014,-0.155,0.010
9.016,-0.140,0.000
9.018,-0.085,-0.005
9.020,-0.015,-0.005
9.022,0.025,-0.010
9.024,0.050,-0.010
9.026,0.025,-0.010
9.028,-0.040,-0.015
9.030,-0.120,-0.015
9.032,-0.185,-0.020
9.034,-0.205,-0.025
9.036,-0.190,-0.030
9.038,-0.135,-0.030
9.040,-0.060,-0.035
9.042,-0.005,-0.040
9.044,0.010,-0.040
9.046,-0.005,-0.040
9.048,-0.065,-0.040
9.050,-0.140,-0.040
9.052,-0.200,-0.040
9.054,-0.230,-0.045
9.056,-0.205,-0.045
9.058,-0.130,-0.050
9.060,-0.055,-0.055
9.062,-0.015,-0.060
9.064,0.005,-0.065
9.066,-0.015,-0.070
9.068,-0.065,-0.075
9.070,-0.150,-0.075
9.072,-0.210,-0.075
9.074,-0.225,-0.075
9.076,-0.195,-0.070
9.078,-0.140,-0.070
9.080,-0.050,-0.065
9.082,0.000,-0.065
9.084,0.000,-0.065
9.086,-0.020,-0.070
9.088,-0.075,-0.070
9.090,-0.160,-0.075
9.092,-0.210,-0.075
9.094,-0.230,-0.075
9.096,-0.205,-0.075
9.098,-0.155,-0.070
9.100,-0.060,-0.070
9.102,0.000,-0.065
9.104,0.000,-0.065
9.106,-0.030,-0.070
9.108,-0.080,-0.070
9.110,-0.165,-0.075
9.112,-0.220,-0.075
9.114,-0.225,-0.075
9.116,-0.180,-0.075
9.118,-0.125,-0.070
9.120,-0.040,-0.065
9.122,0.015,-0.060
9.124,0.015,-0.050
9.126,-0.030,-0.045
9.128,-0.075,-0.045
9.130,-0.160,-0.040
9.132,-0.200,-0.040
9.134,-0.200,-0.045
9.136,-0.165,-0.045
9.138,-0.115,-0.040
9.140,-0.015,-0.040
9.142,0.040,-0.035
9.144,0.045,-0.035
9.146,0.000,-0.030
9.148,-0.055,-0.025
9.150,-0.135,-0.025
9.152,-0.180,-0.030
9.154,-0.195,-0.030
9.156,-0.145,-0.035
9.158,-0.095,-0.040
9.160,-0.010,-0.040
9.162,0.030,-0.040
9.164,0.035,-0.040
9.166,-0.005,-0.035
9.168,-0.055,-0.030
9.170,-0.150,-0.030
9.172,-0.175,-0.025
9.174,-0.180,-0.025
9.176,-0.135,-0.025
9.178,-0.085,-0.025
9.180,0.020,-0.025
9.182,0.050,-0.025
9.184,0.060,-0.025
9.186,-0.005,-0.020
9.188,-0.055,-0.020
9.190,-0.140,-0.015
9.192,-0.160,-0.015
9.194,-0.160,-0.010
9.196,-0.120,-0.010
9.198,-0.065,-0.010
9.200,0.030,-0.015
9.202,0.050,-0.015
9.204,0.055,-0.020
9.206,0.000,-0.020
9.208,-0.055,-0.025
9.210,-0.140,-0.025
9.212,-0.175,-0.025
9.214,-0.175,-0.020
9.216,-0.125,-0.020
9.218,-0.075,-0.020
9.220,0.025,-0.020
9.222,0.045,-0.020
9.224,0.045,-0.025
9.226,0.000,-0.025
9.228,-0.055,-0.025
9.230,-0.135,-0.025
9.232,-0.165,-0.020
9.234,-0.160,-0.020
9.236,-0.110,-0.020
9.238,-0.045,-0.020
9.240,0.030,-0.020
9.242,0.055,-0.015
9.244,0.055,-0.015
9.246,-0.015,-0.015
9.248,-0.065,-0.015
9.250,-0.150,-0.010
9.252,-0.165,-0.010
9.254,-0.150,-0.010
9.256,-0.080,-0.015
9.258,-0.035,-0.015
9.260,0.030,-0.020
9.262,0.035,-0.025
9.264,0.025,-0.030
9.266,-0.025,-0.035
9.268,-0.085,-0.035
9.270,-0.165,-0.040
9.272,-0.190,-0.040
9.274,-0.180,-0.035
9.276,-0.115,-0.030
9.278,-0.050,-0.025
9.280,0.005,-0.025
9.282,0.030,-0.020
9.284,0.025,-0.020
9.286,-0.025,-0.020
9.288,-0.100,-0.025
9.290,-0.160,-0.030
9.292,-0.180,-0.035
9.294,-0.170,-0.040
9.296,-0.115,-0.040
9.298,-0.035,-0.040
9.300,0.030,-0.040
9.302,0.050,-0.035
9.304,0.045,-0.030
9.306,-0.025,-0.030
9.308,-0.100,-0.025
9.310,-0.160,-0.025
9.312,-0.170,-0.020
9.314,-0.155,-0.020
9.316,-0.100,-0.020
9.318,-0.020,-0.025
9.320,0.025,-0.025
9.322,0.055,-0.020
9.324,0.040,-0.020
9.326,-0.020,-0.020
9.328,-0.095,-0.020
9.330,-0.175,-0.020
9.332,-0.180,-0.025
9.334,-0.180,-0.025
9.336,-0.135,-0.030
9.338,-0.045,-0.035
9.340,0.010,-0.040
9.342,0.035,-0.045
9.344,0.010,-0.045
9.346,-0.045,-0.050
9.348,-0.130,-0.050
9.350,-0.185,-0.055
9.352,-0.200,-0.055
9.354,-0.165,-0.055
9.356,-0.095,-0.055
9.358,-0.010,-0.055
9.360,0.040,-0.050
9.362,0.060,-0.050
9.364,0.025,-0.045
9.366,-0.040,-0.040
9.368,-0.115,-0.040
9.370,-0.185,-0.040
9.372,-0.210,-0.035
9.374,-0.170,-0.040
9.376,-0.110,-0.040
9.378,-0.020,-0.045
9.380,0.025,-0.050
9.382,0.030,-0.050
9.384,-0.010,-0.050
9.386,-0.050,-0.050
9.388,-0.140,-0.045
9.390,-0.175,-0.040
9.392,-0.185,-0.035
9.394,-0.150,-0.035
9.396,-0.095,-0.030
9.398,-0.020,-0.030
9.400,0.020,-0.035
9.402,0.035,-0.035
9.404,0.000,-0.040
9.406,-0.050,-0.040
9.408,-0.140,-0.045
9.410,-0.165,-0.045
9.412,-0.170,-0.040
9.414,-0.140,-0.035
9.416,-0.085,-0.030
9.418,0.000,-0.025
9.420,0.040,-0.020
9.422,0.055,-0.020
9.424,0.020,-0.015
9.426,-0.035,-0.015
9.428,-0.115,-0.010
9.430,-0.150,-0.010
9.432,-0.155,-0.010
9.434,-0.105,-0.005
9.436,-0.060,-0.005
9.438,0.030,0.000
9.440,0.080,0.000
9.442,0.080,0.000
9.444,0.030,0.005
9.446,-0.020,0.000
9.448,-0.115,0.000
9.450,-0.145,0.000
9.452,-0.135,0.000
9.454,-0.110,0.000
9.456,-0.050,0.000
9.458,0.045,0.000
9.460,0.065,0.000
9.462,0.070,0.000
9.464,0.025,0.000
9.466,-0.025,-0.005
9.468,-0.120,-0.010
9.470,-0.155,-0.010
9.472,-0.160,-0.015
9.474,-0.120,-0.015
9.476,-0.060,-0.020
9.478,0.020,-0.020
9.480,0.045,-0.025
9.482,0.050,-0.030
9.484,-0.010,-0.030
9.486,-0.065,-0.035
9.488,-0.160,-0.040
9.490,-0.185,-0.040
9.492,-0.195,-0.045
9.494,-0.140,-0.045
9.496,-0.080,-0.040
9.498,0.010,-0.040
9.500,0.035,-0.040
9.502,0.035,-0.035
9.504,-0.020,-0.035
9.506,-0.070,-0.035
9.508,-0.160,-0.040
9.510,-0.205,-0.040
9.512,-0.190,-0.045
9.514,-0.150,-0.050
9.516,-0.075,-0.055
9.518,-0.005,-0.055
9.520,0.025,-0.055
9.522,0.020,-0.055
9.524,-0.025,-0.050
9.526,-0.080,-0.045
9.528,-0.165,-0.045
9.530,-0.215,-0.040
9.532,-0.190,-0.040
9.534,-0.130,-0.040
9.536,-0.060,-0.045
9.538,0.015,-0.045
9.540,0.035,-0.050
9.542,0.025,-0.050
9.544,-0.035,-0.050
9.546,-0.105,-0.055
9.548,-0.180,-0.055
9.550,-0.205,-0.060
9.552,-0.215,-0.065
9.554,-0.165,-0.070
9.556,-0.115,-0.080
9.558,-0.050,-0.090
9.560,-0.035,-0.100
9.562,-0.045,-0.100
9.564,-0.095,-0.090
9.566,-0.125,-0.060
9.568,-0.135,-0.020
9.570,-0.095,0.045
9.572,0.005,0.120
9.574,0.150,0.205
9.576,0.305,0.300
9.578,0.465,0.385
9.580,0.595,0.455
9.582,0.635,0.505
9.584,0.590,0.530
9.586,0.470,0.520
9.588,0.305,0.480
9.590,0.190,0.415
9.592,0.180,0.330
9.594,0.185,0.230
9.596,0.140,0.125
9.598,0.075,0.025
9.600,-0.050,-0.065
9.602,-0.170,-0.130
9.604,-0.220,-0.180
9.606,-0.280,-0.210
9.608,-0.335,-0.220
9.610,-0.340,-0.215
9.612,-0.330,-0.200
9.614,-0.250,-0.185
9.616,-0.155,-0.170
9.618,-0.085,-0.155
9.620,-0.040,-0.140
9.622,-0.040,-0.125
9.624,-0.090,-0.115
9.626,-0.145,-0.100
9.628,-0.195,-0.085
9.630,-0.190,-0.070
9.632,-0.160,-0.055
9.634,-0.110,-0.040
9.636,-0.020,-0.030
9.638,0.025,-0.025
9.640,0.050,-0.025
9.642,0.045,-0.025
9.644,-0.030,-0.030
9.646,-0.100,-0.030
9.648,-0.165,-0.035
9.650,-0.170,-0.035
9.652,-0.140,-0.030
9.654,-0.080,-0.030
9.656,0.005,-0.025
9.658,0.065,-0.020
9.660,0.060,-0.015
9.662,0.045,-0.015
9.664,-0.005,-0.010
9.666,-0.090,-0.010
9.668,-0.140,-0.005
9.670,-0.155,0.000
9.672,-0.130,0.000
9.674,-0.080,0.005
9.676,0.020,0.010
9.678,0.065,0.010
9.680,0.075,0.010
9.682,0.050,0.010
9.684,-0.005,0.005
9.686,-0.095,0.000
9.688,-0.135,-0.005
9.690,-0.150,-0.010
9.692,-0.120,-0.010
9.694,-0.055,-0.010
9.696,0.040,-0.005
9.698,0.070,-0.005
9.700,0.085,0.000
9.702,0.055,0.000
9.704,-0.005,0.005
9.706,-0.085,0.005
9.708,-0.130,0.005
9.710,-0.140,0.005
9.712,-0.095,0.005
9.714,-0.045,0.005
9.716,0.040,0.005
9.718,0.085,0.010
9.720,0.110,0.015
9.722,0.060,0.020
9.724,0.020,0.025
9.726,-0.075,0.030
9.728,-0.110,0.035
9.730,-0.115,0.035
9.732,-0.080,0.040
9.734,-0.025,0.045
9.736,0.075,0.045
9.738,0.120,0.050
9.740,0.110,0.050
9.742,0.065,0.050
9.744,0.020,0.050
9.746,-0.055,0.055
9.748,-0.095,0.055
9.750,-0.090,0.055
9.752,-0.030,0.060
9.754,0.025,0.060
9.756,0.105,0.060
9.758,0.135,0.060
9.760,0.135,0.060
9.762,0.095,0.060
9.764,0.055,0.060
9.766,-0.035,0.065
9.768,-0.080,0.070
9.770,-0.055,0.075
9.772,0.000,0.085
9.774,0.055,0.095
9.776,0.145,0.105
9.778,0.195,0.110
9.780,0.205,0.120
9.782,0.155,0.125
9.784,0.100,0.125
9.786,0.035,0.125
9.788,0.005,0.130
9.790,0.015,0.130
9.792,0.060,0.135
9.794,0.120,0.145
9.796,0.210,0.155
9.798,0.260,0.165
9.800,0.240,0.175
9.802,0.205,0.185
9.804,0.155,0.195
9.806,0.085,0.200
9.808,0.055,0.205
9.810,0.055,0.205
9.812,0.110,0.205
9.814,0.175,0.205
9.816,0.260,0.200
9.818,0.300,0.205
9.820,0.300,0.205
9.822,0.255,0.205
9.824,0.190,0.210
9.826,0.120,0.215
9.828,0.100,0.220
9.830,0.100,0.225
9.832,0.150,0.230
9.834,0.215,0.230
9.836,0.280,0.235
9.838,0.305,0.235
9.840,0.305,0.235
9.842,0.240,0.230
9.844,0.165,0.225
9.846,0.070,0.220
9.848,0.055,0.210
9.850,0.040,0.200
9.852,0.095,0.190
9.854,0.140,0.185
9.856,0.205,0.175
9.858,0.225,0.160
9.860,0.190,0.150
9.862,0.130,0.140
9.864,0.045,0.125
9.866,-0.035,0.110
9.868,-0.065,0.100
9.870,-0.070,0.085
9.872,-0.035,0.075
9.874,0.035,0.065
9.876,0.085,0.060
9.878,0.105,0.050
9.880,0.085,0.040
9.882,0.025,0.035
9.884,-0.050,0.025
9.886,-0.130,0.015
9.888,-0.145,0.005
9.890,-0.145,-0.005
9.892,-0.080,-0.015
9.894,-0.020,-0.020
9.896,0.045,-0.025
9.898,0.055,-0.025
9.900,0.040,-0.025
9.902,-0.040,-0.025
9.904,-0.110,-0.025
9.906,-0.175,-0.025
9.908,-0.200,-0.025
9.910,-0.165,-0.030
9.912,-0.110,-0.035
9.914,-0.045,-0.040
9.916,0.005,-0.045
9.918,0.025,-0.050
9.920,-0.010,-0.055
9.922,-0.060,-0.055
9.924,-0.130,-0.060
9.926,-0.185,-0.055
9.928,-0.205,-0.055
9.930,-0.180,-0.055
9.932,-0.130,-0.055
9.934,-0.040,-0.055
9.936,-0.005,-0.050
9.938,0.015,-0.050
9.940,-0.010,-0.050
9.942,-0.070,-0.050
9.944,-0.145,-0.050
9.946,-0.205,-0.050
9.948,-0.210,-0.050
9.950,-0.195,-0.050
9.952,-0.130,-0.055
9.954,-0.050,-0.060
9.956,0.010,-0.060
9.958,0.015,-0.065
9.960,-0.010,-0.065
9.962,-0.065,-0.065
9.964,-0.145,-0.065
9.966,-0.200,-0.065
9.968,-0.205,-0.065
9.970,-0.170,-0.060
9.972,-0.110,-0.060
9.974,-0.040,-0.060
9.976,0.000,-0.060
9.978,0.015,-0.055
9.980,-0.015,-0.055
9.982,-0.070,-0.050
9.984,-0.140,-0.050
9.986,-0.200,-0.045
9.988,-0.210,-0.045
9.990,-0.180,-0.040
9.992,-0.125,-0.040
9.994,-0.025,-0.045
9.996,0.015,-0.050
9.998,0.025,-0.055
