'Elapsed time','ECG I','ECG I filtered'
'seconds','mV','mV'
0.000,0.105,0.060
0.002,0.055,0.025
0.004,0.010,0.000
0.006,-0.030,-0.020
0.008,-0.010,-0.030
0.010,-0.030,-0.030
0.012,0.025,-0.025
0.014,0.090,-0.015
0.016,0.115,0.000
0.018,0.090,0.010
0.020,0.095,0.015
0.022,0.060,0.020
0.024,-0.005,0.015
0.026,0.000,0.005
0.028,-0.015,-0.005
0.030,-0.030,-0.020
0.032,-0.050,-0.030
0.034,0.055,-0.035
0.036,0.110,-0.040
0.038,0.055,-0.040
0.040,0.075,-0.030
0.042,0.045,-0.025
0.044,-0.065,-0.015
0.046,0.000,-0.005
0.048,0.025,0.005
0.050,0.035,0.010
0.052,0.025,0.015
0.054,0.060,0.020
0.056,0.090,0.020
0.058,0.100,0.015
0.060,0.095,0.015
0.062,0.065,0.005
0.064,0.010,0.000
0.066,-0.045,-0.010
0.068,-0.040,-0.020
0.070,0.010,-0.025
0.072,0.000,-0.030
0.074,0.040,-0.030
0.076,0.075,-0.030
0.078,0.115,-0.020
0.080,0.055,-0.015
0.082,0.050,-0.005
0.084,-0.015,0.005
0.086,0.020,0.010
0.088,-0.010,0.015
0.090,-0.035,0.015
0.092,0.005,0.010
0.094,0.065,0.005
0.096,0.090,0.000
0.098,0.090,-0.005
0.100,0.055,-0.015
0.102,0.045,-0.020
0.104,-0.005,-0.020
0.106,-0.060,-0.025
0.108,-0.060,-0.030
0.110,-0.035,-0.035
0.112,-0.025,-0.035
0.114,0.025,-0.035
0.116,0.060,-0.035
0.118,0.085,-0.030
0.120,0.060,-0.025
0.122,0.035,-0.015
0.124,0.020,-0.005
0.126,-0.020,0.000
0.128,-0.040,0.005
0.130,-0.040,0.005
0.132,-0.025,0.005
0.134,0.045,-0.005
0.136,0.070,-0.015
0.138,0.085,-0.030
0.140,0.045,-0.040
0.142,0.010,-0.045
0.144,-0.020,-0.045
0.146,-0.050,-0.040
0.148,-0.035,-0.035
0.150,-0.020,-0.030
0.152,-0.015,-0.030
0.154,0.055,-0.025
0.156,0.080,-0.030
0.158,0.035,-0.035
0.160,-0.030,-0.040
0.162,-0.025,-0.045
0.164,-0.015,-0.045
0.166,-0.040,-0.045
0.168,-0.075,-0.045
0.170,-0.065,-0.040
0.172,-0.045,-0.035
0.174,0.060,-0.035
0.176,0.110,-0.035
0.178,0.005,-0.040
0.180,0.040,-0.050
0.182,-0.035,-0.060
0.184,-0.110,-0.070
0.186,-0.125,-0.080
0.188,-0.120,-0.080
0.190,-0.060,-0.080
0.192,-0.005,-0.075
0.194,0.050,-0.065
0.196,0.070,-0.055
0.198,0.075,-0.045
0.200,0.035,-0.035
0.202,-0.020,-0.030
0.204,-0.060,-0.030
0.206,-0.075,-0.030
0.208,-0.075,-0.035
0.210,-0.090,-0.040
0.212,-0.065,-0.040
0.214,0.030,-0.045
0.216,0.065,-0.045
0.218,0.060,-0.045
0.220,0.045,-0.040
0.222,-0.020,-0.040
0.224,-0.095,-0.035
0.226,-0.135,-0.035
0.228,-0.115,-0.035
0.230,-0.020,-0.035
0.232,0.020,-0.035
0.234,0.050,-0.040
0.236,0.030,-0.045
0.238,0.045,-0.050
0.240,-0.025,-0.055
0.242,-0.085,-0.055
0.244,-0.100,-0.060
0.246,-0.085,-0.065
0.248,-0.090,-0.065
0.250,-0.080,-0.070
0.252,-0.040,-0.070
0.254,-0.025,-0.070
0.256,0.020,-0.070
0.258,0.035,-0.070
0.260,-0.025,-0.070
0.262,-0.095,-0.065
0.264,-0.065,-0.065
0.266,-0.125,-0.060
0.268,-0.110,-0.055
0.270,-0.050,-0.050
0.272,-0.005,-0.050
0.274,0.045,-0.045
0.276,0.035,-0.045
0.278,-0.015,-0.045
0.280,0.000,-0.050
0.282,-0.065,-0.055
0.284,-0.095,-0.060
0.286,-0.120,-0.060
0.288,-0.085,-0.060
0.290,-0.100,-0.060
0.292,-0.010,-0.055
0.294,0.020,-0.050
0.296,0.000,-0.050
0.298,0.030,-0.045
0.300,0.020,-0.045
0.302,-0.050,-0.045
0.304,-0.125,-0.050
0.306,-0.125,-0.060
0.308,-0.100,-0.065
0.310,-0.085,-0.070
0.312,0.015,-0.070
0.314,0.000,-0.065
0.316,0.000,-0.055
0.318,-0.020,-0.045
0.320,0.045,-0.035
0.322,-0.015,-0.020
0.324,-0.060,-0.010
0.326,-0.080,-0.005
0.328,-0.055,-0.005
0.330,-0.035,-0.005
0.332,0.040,-0.005
0.334,0.085,-0.005
0.336,0.100,-0.005
0.338,0.030,0.000
0.340,0.020,0.005
0.342,-0.035,0.010
0.344,-0.025,0.020
0.346,-0.055,0.025
0.348,-0.030,0.025
0.350,0.010,0.030
0.352,0.040,0.030
0.354,0.110,0.030
0.356,0.120,0.030
0.358,0.110,0.035
0.360,0.045,0.045
0.362,-0.030,0.050
0.364,-0.025,0.060
0.366,0.025,0.070
0.368,0.055,0.070
0.370,0.045,0.070
0.372,0.115,0.065
0.374,0.090,0.060
0.376,0.130,0.050
0.378,0.115,0.045
0.380,0.085,0.040
0.382,-0.005,0.035
0.384,-0.025,0.035
0.386,-0.015,0.040
0.388,0.000,0.045
0.390,0.035,0.050
0.392,0.060,0.050
0.394,0.085,0.050
0.396,0.125,0.045
0.398,0.075,0.035
0.400,0.040,0.025
0.402,-0.050,0.010
0.404,-0.060,0.000
0.406,-0.150,-0.010
0.408,-0.050,-0.025
0.410,-0.055,-0.030
0.412,-0.015,-0.040
0.414,-0.005,-0.045
0.416,-0.040,-0.055
0.418,-0.045,-0.060
0.420,-0.075,-0.065
0.422,-0.140,-0.070
0.424,-0.140,-0.070
0.426,-0.135,-0.070
0.428,-0.135,-0.070
0.430,-0.080,-0.065
0.432,-0.010,-0.060
0.434,0.025,-0.055
0.436,0.000,-0.050
0.438,0.005,-0.050
0.440,-0.070,-0.050
0.442,-0.155,-0.060
0.444,-0.145,-0.070
0.446,-0.215,-0.085
0.448,-0.195,-0.095
0.450,-0.110,-0.105
0.452,-0.045,-0.115
0.454,-0.060,-0.115
0.456,-0.025,-0.115
0.458,-0.080,-0.115
0.460,-0.105,-0.115
0.462,-0.225,-0.115
0.464,-0.235,-0.125
0.466,-0.255,-0.140
0.468,-0.270,-0.160
0.470,-0.230,-0.180
0.472,-0.155,-0.195
0.474,-0.135,-0.195
0.476,-0.110,-0.185
0.478,-0.140,-0.150
0.480,-0.165,-0.090
0.482,-0.145,-0.005
0.484,0.040,0.100
0.486,0.155,0.220
0.488,0.305,0.355
0.490,0.495,0.490
0.492,0.650,0.625
0.494,0.830,0.745
0.496,0.955,0.850
0.498,1.030,0.930
0.500,1.010,0.975
0.502,0.920,0.990
0.504,0.845,0.965
0.506,0.795,0.900
0.508,0.685,0.805
0.510,0.615,0.685
0.512,0.580,0.545
0.514,0.460,0.400
0.516,0.320,0.265
0.518,0.080,0.145
0.520,-0.080,0.045
0.522,-0.145,-0.025
0.524,-0.185,-0.075
0.526,-0.200,-0.110
0.528,-0.180,-0.125
0.530,-0.195,-0.140
0.532,-0.165,-0.155
0.534,-0.145,-0.165
0.536,-0.235,-0.185
0.538,-0.220,-0.200
0.540,-0.270,-0.210
0.542,-0.255,-0.215
0.544,-0.260,-0.215
0.546,-0.315,-0.205
0.548,-0.240,-0.190
0.550,-0.190,-0.170
0.552,-0.140,-0.155
0.554,-0.110,-0.135
0.556,-0.100,-0.125
0.558,-0.165,-0.120
0.560,-0.245,-0.115
0.562,-0.190,-0.110
0.564,-0.215,-0.110
0.566,-0.185,-0.110
0.568,-0.140,-0.105
0.570,-0.110,-0.105
0.572,-0.120,-0.095
0.574,-0.090,-0.090
0.576,-0.115,-0.085
0.578,-0.095,-0.080
0.580,-0.115,-0.075
0.582,-0.155,-0.070
0.584,-0.195,-0.070
0.586,-0.160,-0.065
0.588,-0.190,-0.065
0.590,-0.090,-0.065
0.592,-0.050,-0.060
0.594,-0.050,-0.060
0.596,-0.085,-0.060
0.598,-0.105,-0.060
0.600,-0.125,-0.060
0.602,-0.155,-0.065
0.604,-0.195,-0.065
0.606,-0.155,-0.065
0.608,-0.140,-0.065
0.610,-0.100,-0.065
0.612,-0.065,-0.065
0.614,-0.060,-0.065
0.616,-0.095,-0.060
0.618,-0.080,-0.060
0.620,-0.145,-0.055
0.622,-0.160,-0.050
0.624,-0.180,-0.045
0.626,-0.135,-0.035
0.628,-0.105,-0.030
0.630,-0.075,-0.025
0.632,-0.040,-0.025
0.634,-0.030,-0.025
0.636,-0.055,-0.025
0.638,-0.075,-0.025
0.640,-0.120,-0.030
0.642,-0.160,-0.035
0.644,-0.165,-0.035
0.646,-0.150,-0.035
0.648,-0.115,-0.030
0.650,-0.040,-0.025
0.652,-0.030,-0.020
0.654,-0.005,-0.015
0.656,-0.025,-0.010
0.658,-0.040,0.000
0.660,-0.120,0.000
0.662,-0.165,0.005
0.664,-0.130,0.005
0.666,-0.110,0.005
0.668,-0.140,0.005
0.670,-0.015,0.010
0.672,0.025,0.010
0.674,0.015,0.015
0.676,-0.005,0.020
0.678,-0.010,0.030
0.680,-0.085,0.035
0.682,-0.080,0.045
0.684,-0.100,0.055
0.686,-0.065,0.060
0.688,-0.040,0.065
0.690,0.030,0.065
0.692,0.050,0.065
0.694,0.070,0.060
0.696,0.065,0.060
0.698,-0.030,0.065
0.700,-0.035,0.075
0.702,-0.025,0.085
0.704,-0.030,0.100
0.706,-0.005,0.115
0.708,0.075,0.130
0.710,0.140,0.145
0.712,0.130,0.155
0.714,0.100,0.160
0.716,0.115,0.165
0.718,0.085,0.165
0.720,0.030,0.165
0.722,-0.015,0.170
0.724,0.070,0.180
0.726,0.065,0.190
0.728,0.080,0.200
0.730,0.185,0.210
0.732,0.195,0.220
0.734,0.200,0.230
0.736,0.170,0.230
0.738,0.130,0.230
0.740,0.065,0.225
0.742,0.055,0.220
0.744,0.085,0.220
0.746,0.130,0.220
0.748,0.180,0.220
0.750,0.225,0.230
0.752,0.220,0.235
0.754,0.210,0.245
0.756,0.190,0.250
0.758,0.105,0.250
0.760,0.105,0.250
0.762,0.055,0.245
0.764,0.085,0.235
0.766,0.115,0.225
0.768,0.110,0.210
0.770,0.155,0.200
0.772,0.180,0.190
0.774,0.200,0.180
0.776,0.110,0.175
0.778,0.050,0.165
0.780,-0.040,0.155
0.782,-0.010,0.145
0.784,-0.030,0.130
0.786,-0.010,0.110
0.788,-0.135,0.090
0.790,0.020,0.070
0.792,0.030,0.050
0.794,0.000,0.030
0.796,-0.060,0.020
0.798,-0.095,0.010
0.800,-0.150,0.005
0.802,-0.175,0.005
0.804,-0.165,0.010
0.806,-0.130,0.010
0.808,-0.095,0.010
0.810,-0.085,0.010
0.812,-0.030,0.005
0.814,-0.075,-0.005
0.816,-0.105,-0.015
0.818,-0.135,-0.030
0.820,-0.210,-0.045
0.822,-0.225,-0.055
0.824,-0.205,-0.060
0.826,-0.170,-0.065
0.828,-0.170,-0.060
0.830,-0.110,-0.055
0.832,-0.130,-0.050
0.834,-0.090,-0.040
0.836,-0.100,-0.030
0.838,-0.155,-0.025
0.840,-0.230,-0.020
0.842,-0.220,-0.020
0.844,-0.200,-0.025
0.846,-0.180,-0.030
0.848,-0.125,-0.040
0.850,-0.080,-0.045
0.852,-0.050,-0.050
0.854,-0.115,-0.050
0.856,-0.155,-0.050
0.858,-0.185,-0.045
0.860,-0.200,-0.040
0.862,-0.210,-0.035
0.864,-0.210,-0.035
0.866,-0.195,-0.035
0.868,-0.150,-0.035
0.870,-0.090,-0.040
0.872,-0.110,-0.050
0.874,-0.150,-0.055
0.876,-0.170,-0.060
0.878,-0.220,-0.070
0.880,-0.245,-0.070
0.882,-0.275,-0.070
0.884,-0.245,-0.070
0.886,-0.200,-0.065
0.888,-0.135,-0.065
0.890,-0.125,-0.060
0.892,-0.110,-0.060
0.894,-0.115,-0.055
0.896,-0.185,-0.055
0.898,-0.235,-0.055
0.900,-0.265,-0.050
0.902,-0.285,-0.050
0.904,-0.270,-0.045
0.906,-0.180,-0.040
0.908,-0.130,-0.035
0.910,-0.075,-0.035
0.912,-0.090,-0.030
0.914,-0.085,-0.030
0.916,-0.110,-0.030
0.918,-0.190,-0.030
0.920,-0.280,-0.030
0.922,-0.350,-0.035
0.924,-0.245,-0.040
0.926,-0.165,-0.045
0.928,-0.125,-0.050
0.930,-0.130,-0.055
0.932,-0.125,-0.055
0.934,-0.135,-0.050
0.936,-0.170,-0.045
0.938,-0.250,-0.040
0.940,-0.225,-0.030
0.942,-0.210,-0.025
0.944,-0.205,-0.025
0.946,-0.205,-0.025
0.948,-0.155,-0.030
0.950,-0.165,-0.040
0.952,-0.125,-0.045
0.954,-0.110,-0.055
0.956,-0.125,-0.055
0.958,-0.250,-0.055
0.960,-0.255,-0.050
0.962,-0.230,-0.040
0.964,-0.215,-0.035
0.966,-0.185,-0.030
0.968,-0.145,-0.025
0.970,-0.115,-0.030
0.972,-0.150,-0.040
0.974,-0.160,-0.055
0.976,-0.235,-0.065
0.978,-0.280,-0.080
0.980,-0.300,-0.085
0.982,-0.300,-0.090
0.984,-0.260,-0.085
0.986,-0.225,-0.075
0.988,-0.170,-0.065
0.990,-0.140,-0.060
0.992,-0.120,-0.050
0.994,-0.125,-0.045
0.996,-0.165,-0.045
0.998,-0.270,-0.050
1.000,-0.285,-0.055
1.002,-0.275,-0.060
1.004,-0.255,-0.065
1.006,-0.215,-0.065
1.008,-0.150,-0.065
1.010,-0.130,-0.065
1.012,-0.180,-0.060
1.014,-0.205,-0.060
1.016,-0.225,-0.055
1.018,-0.285,-0.055
1.020,-0.280,-0.055
1.022,-0.290,-0.055
1.024,-0.230,-0.055
1.026,-0.180,-0.055
1.028,-0.165,-0.055
1.030,-0.185,-0.055
1.032,-0.175,-0.055
1.034,-0.155,-0.055
1.036,-0.245,-0.050
1.038,-0.285,-0.050
1.040,-0.345,-0.050
1.042,-0.255,-0.055
1.044,-0.280,-0.060
1.046,-0.255,-0.070
1.048,-0.195,-0.075
1.050,-0.190,-0.080
1.052,-0.165,-0.085
1.054,-0.215,-0.085
1.056,-0.265,-0.085
1.058,-0.295,-0.075
1.060,-0.290,-0.065
1.062,-0.265,-0.055
1.064,-0.225,-0.050
1.066,-0.215,-0.045
1.068,-0.195,-0.040
1.070,-0.175,-0.045
1.072,-0.155,-0.055
1.074,-0.200,-0.060
1.076,-0.230,-0.070
1.078,-0.325,-0.075
1.080,-0.350,-0.075
1.082,-0.340,-0.070
1.084,-0.245,-0.065
1.086,-0.225,-0.055
1.088,-0.140,-0.050
1.090,-0.140,-0.045
1.092,-0.210,-0.045
1.094,-0.220,-0.050
1.096,-0.235,-0.055
1.098,-0.300,-0.065
1.100,-0.370,-0.075
1.102,-0.305,-0.080
1.104,-0.285,-0.085
1.106,-0.245,-0.085
1.108,-0.205,-0.085
1.110,-0.225,-0.085
1.112,-0.195,-0.080
1.114,-0.210,-0.075
1.116,-0.285,-0.075
1.118,-0.305,-0.080
1.120,-0.320,-0.080
1.122,-0.330,-0.085
1.124,-0.300,-0.085
1.126,-0.250,-0.085
1.128,-0.250,-0.085
1.130,-0.175,-0.080
1.132,-0.205,-0.075
1.134,-0.235,-0.075
1.136,-0.300,-0.070
1.138,-0.350,-0.070
1.140,-0.325,-0.075
1.142,-0.300,-0.075
1.144,-0.300,-0.080
1.146,-0.250,-0.080
1.148,-0.220,-0.080
1.150,-0.200,-0.080
1.152,-0.185,-0.075
1.154,-0.245,-0.075
1.156,-0.275,-0.070
1.158,-0.340,-0.065
1.160,-0.335,-0.060
1.162,-0.310,-0.055
1.164,-0.270,-0.050
1.166,-0.195,-0.045
1.168,-0.165,-0.040
1.170,-0.180,-0.035
1.172,-0.180,-0.030
1.174,-0.200,-0.030
1.176,-0.260,-0.025
1.178,-0.295,-0.025
1.180,-0.305,-0.025
1.182,-0.260,-0.025
1.184,-0.230,-0.030
1.186,-0.215,-0.030
1.188,-0.220,-0.035
1.190,-0.175,-0.040
1.192,-0.200,-0.040
1.194,-0.225,-0.040
1.196,-0.295,-0.035
1.198,-0.295,-0.030
1.200,-0.260,-0.020
1.202,-0.210,-0.010
1.204,-0.210,0.000
1.206,-0.145,0.015
1.208,-0.115,0.025
1.210,-0.095,0.035
1.212,-0.100,0.040
1.214,-0.160,0.045
1.216,-0.250,0.050
1.218,-0.210,0.050
1.220,-0.235,0.050
1.222,-0.175,0.050
1.224,-0.180,0.050
1.226,-0.110,0.050
1.228,-0.110,0.050
1.230,-0.060,0.055
1.232,-0.110,0.055
1.234,-0.145,0.050
1.236,-0.245,0.050
1.238,-0.230,0.045
1.240,-0.215,0.040
1.242,-0.205,0.035
1.244,-0.200,0.025
1.246,-0.145,0.020
1.248,-0.160,0.010
1.250,-0.140,0.000
1.252,-0.200,-0.010
1.254,-0.265,-0.025
1.256,-0.320,-0.035
1.258,-0.360,-0.045
1.260,-0.345,-0.055
1.262,-0.280,-0.065
1.264,-0.285,-0.070
1.266,-0.220,-0.075
1.268,-0.210,-0.070
1.270,-0.210,-0.070
1.272,-0.235,-0.065
1.274,-0.275,-0.060
1.276,-0.320,-0.055
1.278,-0.315,-0.060
1.280,-0.325,-0.060
1.282,-0.335,-0.065
1.284,-0.305,-0.070
1.286,-0.240,-0.075
1.288,-0.235,-0.075
1.290,-0.225,-0.075
1.292,-0.265,-0.070
1.294,-0.280,-0.065
1.296,-0.365,-0.060
1.298,-0.310,-0.055
1.300,-0.305,-0.055
1.302,-0.270,-0.060
1.304,-0.280,-0.070
1.306,-0.280,-0.080
1.308,-0.300,-0.090
1.310,-0.290,-0.105
1.312,-0.315,-0.115
1.314,-0.385,-0.130
1.316,-0.425,-0.145
1.318,-0.465,-0.160
1.320,-0.495,-0.180
1.322,-0.480,-0.200
1.324,-0.425,-0.220
1.326,-0.410,-0.230
1.328,-0.375,-0.230
1.330,-0.350,-0.210
1.332,-0.345,-0.165
1.334,-0.370,-0.095
1.336,-0.290,0.000
1.338,-0.200,0.115
1.340,-0.015,0.250
1.342,0.165,0.390
1.344,0.335,0.530
1.346,0.530,0.655
1.348,0.635,0.765
1.350,0.740,0.850
1.352,0.770,0.905
1.354,0.715,0.930
1.356,0.670,0.920
1.358,0.590,0.875
1.360,0.505,0.805
1.362,0.425,0.710
1.364,0.325,0.595
1.366,0.250,0.470
1.368,0.195,0.345
1.370,0.065,0.230
1.372,-0.145,0.125
1.374,-0.255,0.045
1.376,-0.295,-0.015
1.378,-0.340,-0.060
1.380,-0.375,-0.085
1.382,-0.420,-0.100
1.384,-0.360,-0.105
1.386,-0.320,-0.120
1.388,-0.310,-0.130
1.390,-0.345,-0.150
1.392,-0.380,-0.165
1.394,-0.445,-0.185
1.396,-0.470,-0.195
1.398,-0.485,-0.200
1.400,-0.460,-0.190
1.402,-0.390,-0.180
1.404,-0.355,-0.155
1.406,-0.290,-0.135
1.408,-0.290,-0.110
1.410,-0.275,-0.095
1.412,-0.305,-0.085
1.414,-0.355,-0.080
1.416,-0.395,-0.080
1.418,-0.385,-0.085
1.420,-0.345,-0.095
1.422,-0.310,-0.100
1.424,-0.360,-0.105
1.426,-0.315,-0.110
1.428,-0.310,-0.110
1.430,-0.275,-0.105
1.432,-0.300,-0.105
1.434,-0.355,-0.100
1.436,-0.380,-0.095
1.438,-0.395,-0.095
1.440,-0.385,-0.090
1.442,-0.340,-0.085
1.444,-0.270,-0.085
1.446,-0.240,-0.080
1.448,-0.270,-0.080
1.450,-0.295,-0.075
1.452,-0.285,-0.075
1.454,-0.360,-0.070
1.456,-0.335,-0.065
1.458,-0.350,-0.060
1.460,-0.330,-0.055
1.462,-0.330,-0.050
1.464,-0.260,-0.045
1.466,-0.260,-0.045
1.468,-0.200,-0.040
1.470,-0.225,-0.045
1.472,-0.240,-0.045
1.474,-0.345,-0.050
1.476,-0.350,-0.055
1.478,-0.370,-0.055
1.480,-0.340,-0.055
1.482,-0.320,-0.050
1.484,-0.250,-0.045
1.486,-0.220,-0.040
1.488,-0.175,-0.035
1.490,-0.205,-0.025
1.492,-0.240,-0.025
1.494,-0.300,-0.020
1.496,-0.325,-0.020
1.498,-0.355,-0.025
1.500,-0.315,-0.025
1.502,-0.310,-0.025
1.504,-0.235,-0.025
1.506,-0.205,-0.020
1.508,-0.200,-0.015
1.510,-0.200,-0.005
1.512,-0.190,0.000
1.514,-0.235,0.000
1.516,-0.330,0.000
1.518,-0.370,0.000
1.520,-0.315,-0.005
1.522,-0.260,-0.010
1.524,-0.225,-0.010
1.526,-0.205,-0.015
1.528,-0.170,-0.010
1.530,-0.185,-0.005
1.532,-0.225,0.000
1.534,-0.295,0.010
1.536,-0.290,0.020
1.538,-0.260,0.030
1.540,-0.260,0.035
1.542,-0.200,0.040
1.544,-0.150,0.045
1.546,-0.135,0.050
1.548,-0.125,0.055
1.550,-0.120,0.060
1.552,-0.150,0.070
1.554,-0.175,0.080
1.556,-0.215,0.090
1.558,-0.185,0.105
1.560,-0.160,0.115
1.562,-0.125,0.130
1.564,-0.080,0.135
1.566,-0.055,0.145
1.568,0.015,0.150
1.570,-0.005,0.155
1.572,-0.110,0.160
1.574,-0.110,0.170
1.576,-0.110,0.175
1.578,-0.125,0.185
1.580,-0.125,0.190
1.582,-0.075,0.195
1.584,-0.015,0.200
1.586,0.015,0.205
1.588,0.025,0.205
1.590,0.015,0.200
1.592,-0.005,0.200
1.594,-0.085,0.195
1.596,-0.095,0.195
1.598,-0.105,0.195
1.600,-0.150,0.200
1.602,-0.050,0.205
1.604,0.050,0.210
1.606,0.020,0.215
1.608,0.010,0.215
1.610,0.025,0.220
1.612,-0.030,0.215
1.614,-0.105,0.210
1.616,-0.135,0.205
1.618,-0.135,0.195
1.620,-0.115,0.180
1.622,-0.065,0.170
1.624,0.005,0.155
1.626,-0.010,0.140
1.628,-0.075,0.130
1.630,-0.095,0.115
1.632,-0.145,0.100
1.634,-0.235,0.090
1.636,-0.280,0.080
1.638,-0.255,0.070
1.640,-0.190,0.060
1.642,-0.190,0.050
1.644,-0.135,0.040
1.646,-0.135,0.035
1.648,-0.135,0.030
1.650,-0.220,0.025
1.652,-0.230,0.015
1.654,-0.275,0.010
1.656,-0.335,0.000
1.658,-0.345,-0.010
1.660,-0.315,-0.020
1.662,-0.290,-0.030
1.664,-0.225,-0.035
1.666,-0.215,-0.045
1.668,-0.200,-0.045
1.670,-0.220,-0.045
1.672,-0.300,-0.045
1.674,-0.410,-0.045
1.676,-0.375,-0.045
1.678,-0.355,-0.045
1.680,-0.310,-0.050
1.682,-0.260,-0.050
1.684,-0.255,-0.055
1.686,-0.265,-0.055
1.688,-0.270,-0.060
1.690,-0.275,-0.055
1.692,-0.325,-0.050
1.694,-0.305,-0.045
1.696,-0.330,-0.035
1.698,-0.350,-0.030
1.700,-0.365,-0.030
1.702,-0.285,-0.035
1.704,-0.265,-0.040
1.706,-0.245,-0.050
1.708,-0.265,-0.060
1.710,-0.310,-0.070
1.712,-0.330,-0.075
1.714,-0.360,-0.075
1.716,-0.355,-0.075
1.718,-0.390,-0.065
1.720,-0.365,-0.060
1.722,-0.270,-0.050
1.724,-0.240,-0.045
1.726,-0.210,-0.040
1.728,-0.225,-0.045
1.730,-0.245,-0.045
1.732,-0.350,-0.050
1.734,-0.370,-0.055
1.736,-0.400,-0.060
1.738,-0.360,-0.065
1.740,-0.350,-0.060
1.742,-0.260,-0.060
1.744,-0.245,-0.055
1.746,-0.245,-0.050
1.748,-0.285,-0.045
1.750,-0.260,-0.045
1.752,-0.350,-0.050
1.754,-0.390,-0.055
1.756,-0.380,-0.065
1.758,-0.360,-0.070
1.760,-0.340,-0.080
1.762,-0.285,-0.085
1.764,-0.250,-0.085
1.766,-0.305,-0.085
1.768,-0.265,-0.080
1.770,-0.320,-0.075
1.772,-0.390,-0.070
1.774,-0.370,-0.060
1.776,-0.340,-0.055
1.778,-0.350,-0.055
1.780,-0.305,-0.050
1.782,-0.270,-0.050
1.784,-0.255,-0.050
1.786,-0.235,-0.050
1.788,-0.275,-0.050
1.790,-0.295,-0.050
1.792,-0.345,-0.050
1.794,-0.330,-0.050
1.796,-0.355,-0.050
1.798,-0.380,-0.050
1.800,-0.315,-0.055
1.802,-0.275,-0.055
1.804,-0.275,-0.060
1.806,-0.250,-0.060
1.808,-0.245,-0.060
1.810,-0.275,-0.055
1.812,-0.355,-0.050
1.814,-0.345,-0.045
1.816,-0.335,-0.035
1.818,-0.335,-0.030
1.820,-0.315,-0.030
1.822,-0.250,-0.030
1.824,-0.200,-0.035
1.826,-0.185,-0.045
1.828,-0.270,-0.060
1.830,-0.380,-0.070
1.832,-0.405,-0.085
1.834,-0.385,-0.090
1.836,-0.390,-0.095
1.838,-0.345,-0.090
1.840,-0.300,-0.085
1.842,-0.270,-0.075
1.844,-0.310,-0.060
1.846,-0.260,-0.055
1.848,-0.240,-0.050
1.850,-0.305,-0.050
1.852,-0.340,-0.055
1.854,-0.375,-0.060
1.856,-0.420,-0.070
1.858,-0.385,-0.080
1.860,-0.330,-0.090
1.862,-0.270,-0.095
1.864,-0.265,-0.095
1.866,-0.235,-0.090
1.868,-0.260,-0.085
1.870,-0.310,-0.075
1.872,-0.380,-0.070
1.874,-0.375,-0.060
1.876,-0.375,-0.060
1.878,-0.365,-0.055
1.880,-0.315,-0.060
1.882,-0.265,-0.065
1.884,-0.240,-0.070
1.886,-0.275,-0.075
1.888,-0.290,-0.080
1.890,-0.315,-0.085
1.892,-0.390,-0.085
1.894,-0.390,-0.085
1.896,-0.370,-0.085
1.898,-0.325,-0.080
1.900,-0.325,-0.080
1.902,-0.265,-0.075
1.904,-0.260,-0.070
1.906,-0.270,-0.065
1.908,-0.300,-0.065
1.910,-0.350,-0.060
1.912,-0.385,-0.065
1.914,-0.375,-0.065
1.916,-0.375,-0.070
1.918,-0.345,-0.075
1.920,-0.295,-0.080
1.922,-0.290,-0.085
1.924,-0.260,-0.085
1.926,-0.250,-0.085
1.928,-0.295,-0.085
1.930,-0.370,-0.080
1.932,-0.395,-0.080
1.934,-0.390,-0.075
1.936,-0.340,-0.070
1.938,-0.325,-0.065
1.940,-0.295,-0.065
1.942,-0.285,-0.065
1.944,-0.245,-0.065
1.946,-0.285,-0.070
1.948,-0.310,-0.070
1.950,-0.295,-0.075
1.952,-0.370,-0.080
1.954,-0.355,-0.085
1.956,-0.395,-0.090
1.958,-0.390,-0.090
1.960,-0.355,-0.095
1.962,-0.280,-0.090
1.964,-0.245,-0.090
1.966,-0.280,-0.085
1.968,-0.275,-0.080
1.970,-0.295,-0.080
1.972,-0.375,-0.075
1.974,-0.405,-0.075
1.976,-0.385,-0.075
1.978,-0.355,-0.075
1.980,-0.300,-0.080
1.982,-0.270,-0.080
1.984,-0.265,-0.075
1.986,-0.240,-0.075
1.988,-0.290,-0.075
1.990,-0.335,-0.075
1.992,-0.350,-0.075
1.994,-0.405,-0.080
1.996,-0.390,-0.080
1.998,-0.365,-0.085
2.000,-0.300,-0.090
2.002,-0.245,-0.090
2.004,-0.215,-0.090
2.006,-0.280,-0.085
2.008,-0.295,-0.075
2.010,-0.365,-0.060
2.012,-0.355,-0.050
2.014,-0.375,-0.040
2.016,-0.300,-0.035
2.018,-0.295,-0.035
2.020,-0.280,-0.040
2.022,-0.230,-0.045
2.024,-0.245,-0.055
2.026,-0.245,-0.065
2.028,-0.255,-0.065
2.030,-0.275,-0.065
2.032,-0.360,-0.060
2.034,-0.360,-0.050
2.036,-0.325,-0.035
2.038,-0.315,-0.025
2.040,-0.245,-0.015
2.042,-0.175,-0.010
2.044,-0.165,-0.010
2.046,-0.200,-0.015
2.048,-0.275,-0.020
2.050,-0.290,-0.020
2.052,-0.345,-0.025
2.054,-0.370,-0.020
2.056,-0.280,-0.015
2.058,-0.285,-0.005
2.060,-0.180,0.005
2.062,-0.160,0.015
2.064,-0.135,0.025
2.066,-0.150,0.030
2.068,-0.170,0.035
2.070,-0.260,0.035
2.072,-0.260,0.040
2.074,-0.245,0.040
2.076,-0.220,0.045
2.078,-0.205,0.045
2.080,-0.150,0.050
2.082,-0.150,0.045
2.084,-0.115,0.045
2.086,-0.160,0.040
2.088,-0.150,0.035
2.090,-0.280,0.030
2.092,-0.285,0.025
2.094,-0.300,0.025
2.096,-0.245,0.020
2.098,-0.215,0.020
2.100,-0.170,0.020
2.102,-0.160,0.020
2.104,-0.150,0.015
2.106,-0.195,0.010
2.108,-0.210,-0.005
2.110,-0.310,-0.015
2.112,-0.320,-0.025
2.114,-0.345,-0.040
2.116,-0.330,-0.045
2.118,-0.315,-0.050
2.120,-0.225,-0.050
2.122,-0.235,-0.050
2.124,-0.240,-0.045
2.126,-0.235,-0.040
2.128,-0.280,-0.040
2.130,-0.335,-0.040
2.132,-0.360,-0.040
2.134,-0.385,-0.045
2.136,-0.325,-0.055
2.138,-0.275,-0.060
2.140,-0.270,-0.065
2.142,-0.265,-0.070
2.144,-0.255,-0.070
2.146,-0.295,-0.070
2.148,-0.270,-0.070
2.150,-0.320,-0.070
2.152,-0.370,-0.070
2.154,-0.410,-0.075
2.156,-0.390,-0.075
2.158,-0.310,-0.080
2.160,-0.270,-0.090
2.162,-0.270,-0.095
2.164,-0.275,-0.105
2.166,-0.305,-0.110
2.168,-0.385,-0.120
2.170,-0.455,-0.130
2.172,-0.435,-0.140
2.174,-0.490,-0.155
2.176,-0.460,-0.175
2.178,-0.415,-0.195
2.180,-0.415,-0.215
2.182,-0.415,-0.230
2.184,-0.400,-0.230
2.186,-0.405,-0.215
2.188,-0.415,-0.175
2.190,-0.450,-0.120
2.192,-0.345,-0.035
2.194,-0.205,0.065
2.196,-0.070,0.185
2.198,0.135,0.315
2.200,0.250,0.450
2.202,0.440,0.575
2.204,0.560,0.695
2.206,0.640,0.790
2.208,0.720,0.865
2.210,0.670,0.915
2.212,0.645,0.930
2.214,0.665,0.910
2.216,0.585,0.865
2.218,0.530,0.790
2.220,0.500,0.690
2.222,0.385,0.580
2.224,0.310,0.460
2.226,0.180,0.340
2.228,-0.060,0.225
2.230,-0.265,0.130
2.232,-0.305,0.050
2.234,-0.325,-0.010
2.236,-0.325,-0.055
2.238,-0.305,-0.085
2.240,-0.285,-0.110
2.242,-0.350,-0.130
2.244,-0.355,-0.150
2.246,-0.385,-0.170
2.248,-0.465,-0.185
2.250,-0.460,-0.200
2.252,-0.510,-0.205
2.254,-0.475,-0.205
2.256,-0.410,-0.195
2.258,-0.380,-0.180
2.260,-0.270,-0.155
2.262,-0.265,-0.130
2.264,-0.295,-0.110
2.266,-0.295,-0.090
2.268,-0.335,-0.080
2.270,-0.390,-0.080
2.272,-0.400,-0.085
2.274,-0.380,-0.090
2.276,-0.325,-0.100
2.278,-0.285,-0.110
2.280,-0.235,-0.115
2.282,-0.275,-0.110
2.284,-0.290,-0.105
2.286,-0.315,-0.100
2.288,-0.345,-0.085
2.290,-0.325,-0.075
2.292,-0.335,-0.065
2.294,-0.365,-0.060
2.296,-0.280,-0.055
2.298,-0.285,-0.055
2.300,-0.200,-0.055
2.302,-0.230,-0.060
2.304,-0.280,-0.065
2.306,-0.275,-0.070
2.308,-0.340,-0.075
2.310,-0.320,-0.080
2.312,-0.345,-0.085
2.314,-0.375,-0.090
2.316,-0.355,-0.090
2.318,-0.305,-0.090
2.320,-0.260,-0.085
2.322,-0.190,-0.080
2.324,-0.190,-0.070
2.326,-0.205,-0.065
2.328,-0.285,-0.060
2.330,-0.365,-0.055
2.332,-0.400,-0.050
2.334,-0.350,-0.050
2.336,-0.315,-0.050
2.338,-0.210,-0.050
2.340,-0.220,-0.055
2.342,-0.215,-0.060
2.344,-0.215,-0.060
2.346,-0.260,-0.060
2.348,-0.345,-0.055
2.350,-0.315,-0.055
2.352,-0.325,-0.050
2.354,-0.295,-0.045
2.356,-0.300,-0.040
2.358,-0.215,-0.035
2.360,-0.215,-0.035
2.362,-0.160,-0.030
2.364,-0.195,-0.030
2.366,-0.220,-0.025
2.368,-0.305,-0.020
2.370,-0.285,-0.015
2.372,-0.285,-0.010
2.374,-0.260,-0.005
2.376,-0.275,-0.005
2.378,-0.200,0.000
2.380,-0.170,0.000
2.382,-0.125,0.005
2.384,-0.170,0.005
2.386,-0.195,0.005
2.388,-0.220,0.010
2.390,-0.250,0.020
2.392,-0.255,0.025
2.394,-0.215,0.035
2.396,-0.200,0.045
2.398,-0.140,0.050
2.400,-0.115,0.055
2.402,-0.085,0.060
2.404,-0.105,0.060
2.406,-0.120,0.060
2.408,-0.240,0.060
2.410,-0.225,0.060
2.412,-0.190,0.060
2.414,-0.185,0.070
2.416,-0.135,0.075
2.418,-0.065,0.090
2.420,-0.025,0.105
2.422,-0.055,0.120
2.424,-0.065,0.135
2.426,-0.030,0.145
2.428,-0.110,0.160
2.430,-0.145,0.165
2.432,-0.090,0.175
2.434,-0.060,0.175
2.436,-0.040,0.180
2.438,0.015,0.180
2.440,0.035,0.185
2.442,0.005,0.185
2.444,-0.020,0.190
2.446,-0.005,0.195
2.448,-0.045,0.200
2.450,-0.055,0.205
2.452,-0.040,0.210
2.454,-0.030,0.215
2.456,-0.030,0.215
2.458,0.035,0.215
2.460,0.065,0.210
2.462,0.045,0.210
2.464,0.000,0.205
2.466,-0.015,0.195
2.468,-0.075,0.190
2.470,-0.075,0.185
2.472,-0.090,0.180
2.474,-0.045,0.175
2.476,-0.070,0.170
2.478,0.010,0.170
2.480,-0.025,0.165
2.482,0.010,0.160
2.484,-0.020,0.155
2.486,-0.040,0.145
2.488,-0.140,0.135
2.490,-0.185,0.125
2.492,-0.190,0.110
2.494,-0.155,0.095
2.496,-0.110,0.080
2.498,-0.150,0.065
2.500,-0.130,0.050
2.502,-0.105,0.035
2.504,-0.155,0.025
2.506,-0.170,0.010
2.508,-0.275,0.000
2.510,-0.275,-0.005
2.512,-0.270,-0.010
2.514,-0.205,-0.010
2.516,-0.225,-0.010
2.518,-0.175,-0.005
2.520,-0.180,-0.005
2.522,-0.165,0.000
2.524,-0.175,0.000
2.526,-0.215,0.000
2.528,-0.275,-0.005
2.530,-0.295,-0.010
2.532,-0.285,-0.015
2.534,-0.245,-0.025
2.536,-0.240,-0.035
2.538,-0.195,-0.040
2.540,-0.200,-0.045
2.542,-0.225,-0.045
2.544,-0.230,-0.045
2.546,-0.230,-0.040
2.548,-0.325,-0.035
2.550,-0.345,-0.030
2.552,-0.260,-0.025
2.554,-0.270,-0.020
2.556,-0.235,-0.020
2.558,-0.215,-0.025
2.560,-0.180,-0.030
2.562,-0.145,-0.035
2.564,-0.230,-0.040
2.566,-0.270,-0.045
2.568,-0.330,-0.050
2.570,-0.345,-0.055
2.572,-0.310,-0.055
2.574,-0.290,-0.055
2.576,-0.270,-0.055
2.578,-0.220,-0.055
2.580,-0.180,-0.055
2.582,-0.165,-0.055
2.584,-0.215,-0.055
2.586,-0.290,-0.055
2.588,-0.320,-0.050
2.590,-0.325,-0.045
2.592,-0.290,-0.040
2.594,-0.290,-0.035
2.596,-0.210,-0.030
2.598,-0.175,-0.025
2.600,-0.170,-0.025
2.602,-0.180,-0.025
2.604,-0.240,-0.030
2.606,-0.260,-0.035
2.608,-0.265,-0.040
2.610,-0.285,-0.045
2.612,-0.325,-0.045
2.614,-0.305,-0.045
2.616,-0.275,-0.045
2.618,-0.170,-0.040
2.620,-0.180,-0.040
2.622,-0.185,-0.040
2.624,-0.230,-0.040
2.626,-0.265,-0.040
2.628,-0.340,-0.045
2.630,-0.325,-0.045
2.632,-0.340,-0.050
2.634,-0.260,-0.050
2.636,-0.205,-0.050
2.638,-0.205,-0.050
2.640,-0.145,-0.045
2.642,-0.175,-0.040
2.644,-0.225,-0.035
2.646,-0.355,-0.035
2.648,-0.325,-0.030
2.650,-0.330,-0.035
2.652,-0.310,-0.040
2.654,-0.255,-0.045
2.656,-0.200,-0.050
2.658,-0.185,-0.055
2.660,-0.170,-0.055
2.662,-0.190,-0.050
2.664,-0.215,-0.045
2.666,-0.275,-0.035
2.668,-0.290,-0.025
2.670,-0.280,-0.015
2.672,-0.275,-0.015
2.674,-0.255,-0.015
2.676,-0.235,-0.025
2.678,-0.180,-0.035
2.680,-0.175,-0.045
2.682,-0.235,-0.060
2.684,-0.275,-0.065
2.686,-0.310,-0.065
2.688,-0.300,-0.060
2.690,-0.255,-0.045
2.692,-0.260,-0.030
2.694,-0.255,-0.015
2.696,-0.180,-0.005
2.698,-0.170,0.000
2.700,-0.155,0.000
2.702,-0.170,-0.015
2.704,-0.235,-0.030
2.706,-0.280,-0.050
2.708,-0.355,-0.065
2.710,-0.360,-0.080
2.712,-0.320,-0.085
2.714,-0.230,-0.080
2.716,-0.205,-0.070
2.718,-0.180,-0.055
2.720,-0.205,-0.035
2.722,-0.250,-0.025
2.724,-0.215,-0.015
2.726,-0.270,-0.015
2.728,-0.260,-0.025
2.730,-0.270,-0.035
2.732,-0.290,-0.050
2.734,-0.320,-0.060
2.736,-0.230,-0.065
2.738,-0.210,-0.070
2.740,-0.180,-0.065
2.742,-0.195,-0.060
2.744,-0.235,-0.050
2.746,-0.330,-0.040
2.748,-0.285,-0.035
2.750,-0.315,-0.035
2.752,-0.285,-0.040
2.754,-0.255,-0.045
2.756,-0.185,-0.050
2.758,-0.145,-0.055
2.760,-0.135,-0.055
2.762,-0.210,-0.055
2.764,-0.265,-0.050
2.766,-0.335,-0.040
2.768,-0.295,-0.040
2.770,-0.305,-0.035
2.772,-0.285,-0.040
2.774,-0.235,-0.045
2.776,-0.230,-0.055
2.778,-0.170,-0.065
2.780,-0.205,-0.070
2.782,-0.220,-0.080
2.784,-0.250,-0.080
2.786,-0.315,-0.080
2.788,-0.310,-0.075
2.790,-0.330,-0.075
2.792,-0.310,-0.070
2.794,-0.255,-0.070
2.796,-0.225,-0.070
2.798,-0.180,-0.070
2.800,-0.170,-0.070
2.802,-0.235,-0.070
2.804,-0.245,-0.065
2.806,-0.285,-0.060
2.808,-0.325,-0.055
2.810,-0.305,-0.055
2.812,-0.305,-0.050
2.814,-0.260,-0.050
2.816,-0.185,-0.050
2.818,-0.130,-0.055
2.820,-0.170,-0.060
2.822,-0.200,-0.065
2.824,-0.225,-0.065
2.826,-0.300,-0.065
2.828,-0.340,-0.065
2.830,-0.340,-0.060
2.832,-0.315,-0.060
2.834,-0.245,-0.055
2.836,-0.185,-0.055
2.838,-0.200,-0.060
2.840,-0.235,-0.060
2.842,-0.175,-0.065
2.844,-0.260,-0.070
2.846,-0.300,-0.070
2.848,-0.325,-0.070
2.850,-0.305,-0.070
2.852,-0.285,-0.070
2.854,-0.235,-0.065
2.856,-0.220,-0.060
2.858,-0.175,-0.060
2.860,-0.175,-0.055
2.862,-0.225,-0.055
2.864,-0.280,-0.055
2.866,-0.325,-0.055
2.868,-0.305,-0.055
2.870,-0.315,-0.060
2.872,-0.280,-0.060
2.874,-0.195,-0.060
2.876,-0.195,-0.060
2.878,-0.165,-0.065
2.880,-0.190,-0.065
2.882,-0.200,-0.065
2.884,-0.245,-0.060
2.886,-0.340,-0.060
2.888,-0.345,-0.055
2.890,-0.275,-0.045
2.892,-0.235,-0.035
2.894,-0.205,-0.025
2.896,-0.140,-0.015
2.898,-0.130,-0.010
2.900,-0.145,-0.005
2.902,-0.175,-0.005
2.904,-0.225,-0.005
2.906,-0.240,-0.010
2.908,-0.280,-0.010
2.910,-0.250,-0.010
2.912,-0.190,-0.005
2.914,-0.100,0.000
2.916,-0.105,0.010
2.918,-0.120,0.020
2.920,-0.130,0.030
2.922,-0.130,0.040
2.924,-0.170,0.050
2.926,-0.225,0.055
2.928,-0.175,0.060
2.930,-0.165,0.065
2.932,-0.115,0.065
2.934,-0.090,0.065
2.936,-0.055,0.065
2.938,-0.025,0.075
2.940,-0.050,0.080
2.942,-0.035,0.090
2.944,-0.125,0.100
2.946,-0.160,0.110
2.948,-0.175,0.115
2.950,-0.125,0.115
2.952,-0.080,0.110
2.954,-0.055,0.100
2.956,-0.045,0.090
2.958,-0.045,0.080
2.960,-0.045,0.070
2.962,-0.070,0.070
2.964,-0.190,0.070
2.966,-0.150,0.075
2.968,-0.175,0.080
2.970,-0.170,0.080
2.972,-0.095,0.080
2.974,-0.090,0.070
2.976,-0.080,0.050
2.978,-0.120,0.030
2.980,-0.125,0.005
2.982,-0.170,-0.020
2.984,-0.290,-0.035
2.986,-0.300,-0.045
2.988,-0.270,-0.045
2.990,-0.260,-0.035
2.992,-0.175,-0.025
2.994,-0.115,-0.015
2.996,-0.090,-0.005
2.998,-0.135,-0.005
3.000,-0.190,-0.010
3.002,-0.180,-0.025
3.004,-0.320,-0.045
3.006,-0.320,-0.060
3.008,-0.255,-0.075
3.010,-0.295,-0.080
3.012,-0.240,-0.080
3.014,-0.165,-0.070
3.016,-0.140,-0.055
3.018,-0.165,-0.040
3.020,-0.175,-0.030
3.022,-0.240,-0.025
3.024,-0.255,-0.025
3.026,-0.230,-0.030
3.028,-0.295,-0.040
3.030,-0.285,-0.050
3.032,-0.215,-0.065
3.034,-0.185,-0.070
3.036,-0.190,-0.070
3.038,-0.175,-0.070
3.040,-0.250,-0.070
3.042,-0.290,-0.075
3.044,-0.340,-0.085
3.046,-0.370,-0.105
3.048,-0.370,-0.130
3.050,-0.395,-0.160
3.052,-0.375,-0.185
3.054,-0.350,-0.205
3.056,-0.325,-0.205
3.058,-0.255,-0.185
3.060,-0.235,-0.135
3.062,-0.255,-0.060
3.064,-0.235,0.040
3.066,-0.085,0.165
3.068,0.100,0.305
3.070,0.280,0.445
3.072,0.440,0.590
3.074,0.630,0.720
3.076,0.785,0.835
3.078,0.885,0.925
3.080,0.890,0.985
3.082,0.845,1.015
3.084,0.790,1.010
3.086,0.715,0.965
3.088,0.670,0.890
3.090,0.555,0.785
3.092,0.500,0.655
3.094,0.325,0.515
3.096,0.270,0.370
3.098,0.135,0.240
3.100,-0.045,0.120
3.102,-0.230,0.030
3.104,-0.270,-0.035
3.106,-0.300,-0.075
3.108,-0.320,-0.100
3.110,-0.320,-0.110
3.112,-0.285,-0.115
3.114,-0.280,-0.125
3.116,-0.280,-0.135
3.118,-0.265,-0.145
3.120,-0.315,-0.160
3.122,-0.375,-0.170
3.124,-0.385,-0.175
3.126,-0.410,-0.170
3.128,-0.415,-0.165
3.130,-0.340,-0.145
3.132,-0.270,-0.130
3.134,-0.180,-0.115
3.136,-0.160,-0.100
3.138,-0.210,-0.095
3.140,-0.300,-0.095
3.142,-0.315,-0.095
3.144,-0.320,-0.100
3.146,-0.335,-0.110
3.148,-0.290,-0.110
3.150,-0.330,-0.115
3.152,-0.240,-0.110
3.154,-0.195,-0.105
3.156,-0.185,-0.105
3.158,-0.180,-0.100
3.160,-0.265,-0.095
3.162,-0.330,-0.095
3.164,-0.340,-0.095
3.166,-0.370,-0.090
3.168,-0.300,-0.090
3.170,-0.260,-0.090
3.172,-0.215,-0.085
3.174,-0.165,-0.080
3.176,-0.175,-0.070
3.178,-0.160,-0.065
3.180,-0.210,-0.060
3.182,-0.275,-0.060
3.184,-0.300,-0.060
3.186,-0.325,-0.060
3.188,-0.305,-0.060
3.190,-0.265,-0.060
3.192,-0.215,-0.065
3.194,-0.155,-0.070
3.196,-0.165,-0.070
3.198,-0.180,-0.070
3.200,-0.235,-0.070
3.202,-0.255,-0.070
3.204,-0.285,-0.065
3.206,-0.270,-0.065
3.208,-0.265,-0.055
3.210,-0.275,-0.050
3.212,-0.190,-0.045
3.214,-0.120,-0.040
3.216,-0.100,-0.040
3.218,-0.110,-0.035
3.220,-0.200,-0.035
3.222,-0.265,-0.030
3.224,-0.300,-0.030
3.226,-0.255,-0.030
3.228,-0.225,-0.030
3.230,-0.220,-0.030
3.232,-0.150,-0.035
3.234,-0.110,-0.035
3.236,-0.080,-0.045
3.238,-0.165,-0.050
3.240,-0.195,-0.055
3.242,-0.245,-0.055
3.244,-0.280,-0.050
3.246,-0.245,-0.040
3.248,-0.215,-0.025
3.250,-0.205,-0.010
3.252,-0.085,0.010
3.254,-0.085,0.025
3.256,-0.105,0.040
3.258,-0.130,0.045
3.260,-0.090,0.050
3.262,-0.155,0.045
3.264,-0.135,0.035
3.266,-0.120,0.030
3.268,-0.160,0.020
3.270,-0.210,0.020
3.272,-0.165,0.020
3.274,-0.050,0.025
3.276,-0.025,0.035
3.278,-0.080,0.045
3.280,-0.090,0.050
3.282,-0.150,0.060
3.284,-0.155,0.070
3.286,-0.150,0.075
3.288,-0.100,0.080
3.290,-0.050,0.085
3.292,-0.010,0.095
3.294,-0.010,0.100
3.296,0.030,0.110
3.298,-0.005,0.120
3.300,-0.030,0.130
3.302,-0.055,0.140
3.304,-0.060,0.145
3.306,-0.065,0.150
3.308,-0.015,0.155
3.310,0.030,0.160
3.312,0.055,0.165
3.314,0.065,0.170
3.316,0.095,0.180
3.318,0.090,0.185
3.320,0.035,0.190
3.322,-0.095,0.195
3.324,0.015,0.195
3.326,-0.020,0.200
3.328,0.035,0.195
3.330,0.010,0.195
3.332,0.075,0.195
3.334,0.120,0.190
3.336,0.120,0.190
3.338,0.070,0.190
3.340,0.020,0.190
3.342,-0.020,0.190
3.344,-0.050,0.185
3.346,-0.060,0.175
3.348,-0.005,0.170
3.350,-0.015,0.160
3.352,0.040,0.150
3.354,0.040,0.140
3.356,0.065,0.130
3.358,0.010,0.120
3.360,-0.065,0.115
3.362,-0.120,0.105
3.364,-0.120,0.095
3.366,-0.120,0.080
3.368,-0.145,0.065
3.370,-0.135,0.050
3.372,-0.090,0.030
3.374,-0.055,0.010
3.376,-0.095,-0.010
3.378,-0.105,-0.025
3.380,-0.215,-0.035
3.382,-0.240,-0.040
3.384,-0.260,-0.040
3.386,-0.240,-0.035
3.388,-0.190,-0.030
3.390,-0.160,-0.025
3.392,-0.130,-0.015
3.394,-0.150,-0.015
3.396,-0.130,-0.010
3.398,-0.165,-0.015
3.400,-0.200,-0.020
3.402,-0.255,-0.030
3.404,-0.270,-0.040
3.406,-0.245,-0.055
3.408,-0.240,-0.065
3.410,-0.245,-0.075
3.412,-0.175,-0.075
3.414,-0.145,-0.075
3.416,-0.150,-0.075
3.418,-0.165,-0.065
3.420,-0.215,-0.060
3.422,-0.260,-0.055
3.424,-0.250,-0.050
3.426,-0.255,-0.050
3.428,-0.265,-0.055
3.430,-0.225,-0.060
3.432,-0.240,-0.070
3.434,-0.155,-0.075
3.436,-0.105,-0.075
3.438,-0.175,-0.075
3.440,-0.200,-0.075
3.442,-0.265,-0.065
3.444,-0.330,-0.060
3.446,-0.305,-0.055
3.448,-0.250,-0.055
3.450,-0.205,-0.055
3.452,-0.165,-0.060
3.454,-0.140,-0.060
3.456,-0.195,-0.065
3.458,-0.210,-0.065
3.460,-0.175,-0.065
3.462,-0.260,-0.060
3.464,-0.255,-0.055
3.466,-0.245,-0.050
3.468,-0.245,-0.050
3.470,-0.190,-0.045
3.472,-0.130,-0.045
3.474,-0.090,-0.045
3.476,-0.140,-0.045
3.478,-0.180,-0.050
3.480,-0.320,-0.050
3.482,-0.250,-0.050
3.484,-0.270,-0.050
3.486,-0.280,-0.050
3.488,-0.205,-0.050
3.490,-0.155,-0.055
3.492,-0.195,-0.065
3.494,-0.150,-0.070
3.496,-0.145,-0.080
3.498,-0.225,-0.085
3.500,-0.295,-0.090
3.502,-0.295,-0.085
3.504,-0.295,-0.080
3.506,-0.245,-0.070
3.508,-0.220,-0.060
3.510,-0.190,-0.050
3.512,-0.145,-0.045
3.514,-0.130,-0.040
3.516,-0.185,-0.040
3.518,-0.175,-0.045
3.520,-0.245,-0.050
3.522,-0.245,-0.055
3.524,-0.265,-0.060
3.526,-0.230,-0.065
3.528,-0.245,-0.065
3.530,-0.205,-0.065
3.532,-0.160,-0.065
3.534,-0.150,-0.060
3.536,-0.140,-0.060
3.538,-0.200,-0.060
3.540,-0.275,-0.060
3.542,-0.245,-0.055
3.544,-0.295,-0.055
3.546,-0.265,-0.050
3.548,-0.190,-0.050
3.550,-0.145,-0.045
3.552,-0.140,-0.045
3.554,-0.130,-0.045
3.556,-0.160,-0.045
3.558,-0.185,-0.050
3.560,-0.255,-0.055
3.562,-0.270,-0.060
3.564,-0.245,-0.070
3.566,-0.290,-0.075
3.568,-0.230,-0.075
3.570,-0.155,-0.075
3.572,-0.195,-0.075
3.574,-0.140,-0.070
3.576,-0.170,-0.065
3.578,-0.195,-0.055
3.580,-0.250,-0.050
3.582,-0.265,-0.040
3.584,-0.265,-0.035
3.586,-0.245,-0.035
3.588,-0.205,-0.035
3.590,-0.180,-0.040
3.592,-0.140,-0.045
3.594,-0.140,-0.055
3.596,-0.175,-0.065
3.598,-0.180,-0.070
3.600,-0.270,-0.075
3.602,-0.270,-0.080
3.604,-0.295,-0.080
3.606,-0.330,-0.075
3.608,-0.285,-0.070
3.610,-0.150,-0.065
3.612,-0.115,-0.060
3.614,-0.140,-0.055
3.616,-0.165,-0.055
3.618,-0.165,-0.060
3.620,-0.315,-0.065
3.622,-0.305,-0.065
3.624,-0.255,-0.070
3.626,-0.245,-0.070
3.628,-0.190,-0.070
3.630,-0.195,-0.065
3.632,-0.190,-0.060
3.634,-0.150,-0.060
3.636,-0.120,-0.060
3.638,-0.210,-0.060
3.640,-0.290,-0.065
3.642,-0.290,-0.070
3.644,-0.300,-0.070
3.646,-0.260,-0.075
3.648,-0.225,-0.075
3.650,-0.160,-0.075
3.652,-0.150,-0.070
3.654,-0.150,-0.070
3.656,-0.170,-0.070
3.658,-0.220,-0.070
3.660,-0.285,-0.070
3.662,-0.335,-0.075
3.664,-0.305,-0.075
3.666,-0.255,-0.080
3.668,-0.220,-0.085
3.670,-0.190,-0.085
3.672,-0.150,-0.085
3.674,-0.145,-0.080
3.676,-0.200,-0.080
3.678,-0.255,-0.075
3.680,-0.290,-0.075
3.682,-0.275,-0.075
3.684,-0.295,-0.075
3.686,-0.290,-0.075
3.688,-0.220,-0.075
3.690,-0.115,-0.075
3.692,-0.145,-0.070
3.694,-0.195,-0.065
3.696,-0.180,-0.065
3.698,-0.225,-0.060
3.700,-0.255,-0.060
3.702,-0.255,-0.060
3.704,-0.310,-0.065
3.706,-0.215,-0.070
3.708,-0.145,-0.080
3.710,-0.215,-0.090
3.712,-0.185,-0.095
3.714,-0.180,-0.100
3.716,-0.230,-0.100
3.718,-0.255,-0.095
3.720,-0.320,-0.090
3.722,-0.305,-0.080
3.724,-0.250,-0.070
3.726,-0.240,-0.060
3.728,-0.200,-0.060
3.730,-0.185,-0.060
3.732,-0.150,-0.060
3.734,-0.140,-0.070
3.736,-0.155,-0.075
3.738,-0.240,-0.085
3.740,-0.315,-0.090
3.742,-0.335,-0.090
3.744,-0.300,-0.090
3.746,-0.230,-0.085
3.748,-0.185,-0.080
3.750,-0.120,-0.075
3.752,-0.150,-0.070
3.754,-0.130,-0.070
3.756,-0.235,-0.070
3.758,-0.265,-0.070
3.760,-0.305,-0.075
3.762,-0.340,-0.075
3.764,-0.285,-0.070
3.766,-0.220,-0.065
3.768,-0.150,-0.055
3.770,-0.100,-0.045
3.772,-0.110,-0.030
3.774,-0.100,-0.020
3.776,-0.140,-0.015
3.778,-0.215,-0.015
3.780,-0.245,-0.015
3.782,-0.245,-0.020
3.784,-0.245,-0.030
3.786,-0.215,-0.035
3.788,-0.140,-0.035
3.790,-0.120,-0.035
3.792,-0.110,-0.025
3.794,-0.135,-0.015
3.796,-0.120,0.000
3.798,-0.180,0.015
3.800,-0.175,0.030
3.802,-0.175,0.040
3.804,-0.115,0.045
3.806,-0.100,0.050
3.808,-0.080,0.055
3.810,-0.060,0.055
3.812,-0.010,0.055
3.814,-0.030,0.055
3.816,-0.100,0.055
3.818,-0.165,0.055
3.820,-0.135,0.050
3.822,-0.170,0.050
3.824,-0.145,0.045
3.826,-0.150,0.045
3.828,-0.095,0.040
3.830,-0.085,0.040
3.832,-0.005,0.040
3.834,-0.045,0.040
3.836,-0.080,0.045
3.838,-0.140,0.045
3.840,-0.175,0.050
3.842,-0.200,0.045
3.844,-0.220,0.040
3.846,-0.125,0.030
3.848,-0.070,0.015
3.850,-0.120,0.005
3.852,-0.110,-0.010
3.854,-0.165,-0.020
3.856,-0.150,-0.030
3.858,-0.245,-0.030
3.860,-0.275,-0.030
3.862,-0.230,-0.030
3.864,-0.240,-0.025
3.866,-0.200,-0.025
3.868,-0.165,-0.030
3.870,-0.165,-0.035
3.872,-0.115,-0.045
3.874,-0.170,-0.055
3.876,-0.230,-0.065
3.878,-0.260,-0.070
3.880,-0.265,-0.080
3.882,-0.275,-0.080
3.884,-0.320,-0.080
3.886,-0.245,-0.080
3.888,-0.175,-0.080
3.890,-0.170,-0.080
3.892,-0.205,-0.080
3.894,-0.195,-0.080
3.896,-0.250,-0.080
3.898,-0.290,-0.080
3.900,-0.290,-0.080
3.902,-0.310,-0.080
3.904,-0.260,-0.085
3.906,-0.220,-0.085
3.908,-0.200,-0.090
3.910,-0.190,-0.095
3.912,-0.175,-0.105
3.914,-0.230,-0.115
3.916,-0.350,-0.130
3.918,-0.370,-0.150
3.920,-0.410,-0.170
3.922,-0.415,-0.185
3.924,-0.415,-0.200
3.926,-0.405,-0.205
3.928,-0.310,-0.200
3.930,-0.295,-0.180
3.932,-0.220,-0.135
3.934,-0.145,-0.075
3.936,-0.170,0.015
3.938,-0.105,0.125
3.940,0.050,0.260
3.942,0.190,0.405
3.944,0.400,0.550
3.946,0.575,0.690
3.948,0.755,0.815
3.950,0.855,0.915
3.952,0.960,0.975
3.954,0.915,1.000
3.956,0.845,0.980
3.958,0.740,0.925
3.960,0.510,0.840
3.962,0.440,0.730
3.964,0.430,0.605
3.966,0.330,0.475
3.968,0.275,0.350
3.970,0.150,0.230
3.972,-0.035,0.130
3.974,-0.180,0.045
3.976,-0.235,-0.020
3.978,-0.325,-0.070
3.980,-0.310,-0.100
3.982,-0.345,-0.125
3.984,-0.325,-0.140
3.986,-0.320,-0.150
3.988,-0.280,-0.160
3.990,-0.330,-0.170
3.992,-0.335,-0.175
3.994,-0.285,-0.185
3.996,-0.360,-0.190
3.998,-0.385,-0.190
4.000,-0.410,-0.190
4.002,-0.355,-0.180
4.004,-0.335,-0.165
4.006,-0.290,-0.150
4.008,-0.235,-0.135
4.010,-0.190,-0.115
4.012,-0.210,-0.100
4.014,-0.210,-0.090
4.016,-0.250,-0.085
4.018,-0.300,-0.080
4.020,-0.305,-0.080
4.022,-0.305,-0.085
4.024,-0.255,-0.090
4.026,-0.265,-0.095
4.028,-0.205,-0.095
4.030,-0.160,-0.100
4.032,-0.205,-0.100
4.034,-0.210,-0.095
4.036,-0.240,-0.095
4.038,-0.315,-0.090
4.040,-0.350,-0.090
4.042,-0.335,-0.085
4.044,-0.300,-0.085
4.046,-0.185,-0.085
4.048,-0.160,-0.085
4.050,-0.125,-0.085
4.052,-0.200,-0.085
4.054,-0.235,-0.085
4.056,-0.270,-0.080
4.058,-0.325,-0.075
4.060,-0.300,-0.075
4.062,-0.245,-0.070
4.064,-0.235,-0.065
4.066,-0.240,-0.065
4.068,-0.190,-0.065
4.070,-0.160,-0.065
4.072,-0.120,-0.065
4.074,-0.200,-0.065
4.076,-0.210,-0.065
4.078,-0.290,-0.065
4.080,-0.305,-0.060
4.082,-0.270,-0.060
4.084,-0.235,-0.055
4.086,-0.210,-0.045
4.088,-0.185,-0.040
4.090,-0.095,-0.035
4.092,-0.125,-0.030
4.094,-0.175,-0.025
4.096,-0.275,-0.020
4.098,-0.235,-0.015
4.100,-0.225,-0.015
4.102,-0.210,-0.015
4.104,-0.195,-0.015
4.106,-0.160,-0.020
4.108,-0.170,-0.020
4.110,-0.160,-0.020
4.112,-0.145,-0.025
4.114,-0.125,-0.020
4.116,-0.170,-0.020
4.118,-0.195,-0.015
4.120,-0.225,-0.010
4.122,-0.235,0.000
4.124,-0.210,0.005
4.126,-0.110,0.010
4.128,-0.075,0.015
4.130,-0.050,0.015
4.132,-0.085,0.020
4.134,-0.110,0.025
4.136,-0.170,0.030
4.138,-0.235,0.040
4.140,-0.185,0.045
4.142,-0.150,0.055
4.144,-0.115,0.065
4.146,-0.100,0.070
4.148,-0.095,0.070
4.150,0.010,0.075
4.152,-0.020,0.075
4.154,-0.075,0.080
4.156,-0.120,0.080
4.158,-0.115,0.090
4.160,-0.130,0.100
4.162,-0.120,0.115
4.164,-0.060,0.125
4.166,0.055,0.140
4.168,0.070,0.155
4.170,0.050,0.160
4.172,0.015,0.165
4.174,0.005,0.170
4.176,-0.085,0.170
4.178,-0.040,0.170
4.180,-0.075,0.170
4.182,-0.050,0.175
4.184,0.005,0.185
4.186,0.125,0.195
4.188,0.135,0.210
4.190,0.105,0.220
4.192,0.050,0.235
4.194,0.080,0.240
4.196,-0.005,0.245
4.198,0.000,0.245
4.200,0.025,0.235
4.202,0.020,0.230
4.204,0.035,0.220
4.206,0.110,0.210
4.208,0.085,0.200
4.210,0.080,0.195
4.212,0.090,0.195
4.214,0.080,0.190
4.216,-0.025,0.190
4.218,-0.050,0.190
4.220,-0.065,0.190
4.222,-0.065,0.185
4.224,0.025,0.180
4.226,0.080,0.170
4.228,0.040,0.160
4.230,0.040,0.150
4.232,0.015,0.135
4.234,-0.075,0.125
4.236,-0.115,0.115
4.238,-0.155,0.105
4.240,-0.135,0.095
4.242,-0.100,0.090
4.244,-0.095,0.080
4.246,-0.080,0.070
4.248,-0.035,0.055
4.250,-0.015,0.045
4.252,-0.115,0.035
4.254,-0.140,0.030
4.256,-0.195,0.025
4.258,-0.220,0.015
4.260,-0.230,0.010
4.262,-0.220,0.010
4.264,-0.185,0.000
4.266,-0.080,-0.005
4.268,-0.105,-0.010
4.270,-0.140,-0.020
4.272,-0.155,-0.025
4.274,-0.230,-0.030
4.276,-0.245,-0.035
4.278,-0.280,-0.040
4.280,-0.270,-0.035
4.282,-0.250,-0.035
4.284,-0.185,-0.035
4.286,-0.155,-0.035
4.288,-0.110,-0.030
4.290,-0.150,-0.035
4.292,-0.170,-0.035
4.294,-0.250,-0.035
4.296,-0.220,-0.040
4.298,-0.275,-0.040
4.300,-0.280,-0.040
4.302,-0.230,-0.040
4.304,-0.170,-0.040
4.306,-0.140,-0.040
4.308,-0.150,-0.035
4.310,-0.170,-0.035
4.312,-0.200,-0.030
4.314,-0.215,-0.030
4.316,-0.265,-0.025
4.318,-0.230,-0.025
4.320,-0.235,-0.025
4.322,-0.225,-0.025
4.324,-0.175,-0.030
4.326,-0.155,-0.035
4.328,-0.135,-0.035
4.330,-0.195,-0.040
4.332,-0.200,-0.040
4.334,-0.195,-0.040
4.336,-0.255,-0.035
4.338,-0.260,-0.030
4.340,-0.195,-0.025
4.342,-0.185,-0.025
4.344,-0.160,-0.020
4.346,-0.185,-0.020
4.348,-0.160,-0.025
4.350,-0.150,-0.035
4.352,-0.205,-0.040
4.354,-0.235,-0.045
4.356,-0.235,-0.050
4.358,-0.300,-0.050
4.360,-0.265,-0.050
4.362,-0.205,-0.045
4.364,-0.195,-0.035
4.366,-0.130,-0.030
4.368,-0.145,-0.020
4.370,-0.150,-0.020
4.372,-0.175,-0.020
4.374,-0.190,-0.025
4.376,-0.245,-0.030
4.378,-0.320,-0.040
4.380,-0.270,-0.045
4.382,-0.220,-0.050
4.384,-0.125,-0.055
4.386,-0.180,-0.055
4.388,-0.145,-0.055
4.390,-0.165,-0.050
4.392,-0.195,-0.045
4.394,-0.245,-0.045
4.396,-0.245,-0.040
4.398,-0.250,-0.035
4.400,-0.290,-0.030
4.402,-0.200,-0.025
4.404,-0.135,-0.020
4.406,-0.135,-0.020
4.408,-0.090,-0.015
4.410,-0.130,-0.015
4.412,-0.185,-0.010
4.414,-0.280,-0.010
4.416,-0.245,-0.010
4.418,-0.255,-0.015
4.420,-0.245,-0.015
4.422,-0.220,-0.020
4.424,-0.190,-0.020
4.426,-0.165,-0.025
4.428,-0.085,-0.025
4.430,-0.130,-0.025
4.432,-0.145,-0.025
4.434,-0.255,-0.025
4.436,-0.310,-0.025
4.438,-0.255,-0.025
4.440,-0.190,-0.025
4.442,-0.205,-0.030
4.444,-0.190,-0.030
4.446,-0.180,-0.035
4.448,-0.160,-0.040
4.450,-0.170,-0.040
4.452,-0.225,-0.045
4.454,-0.240,-0.045
4.456,-0.230,-0.045
4.458,-0.280,-0.045
4.460,-0.235,-0.045
4.462,-0.190,-0.040
4.464,-0.170,-0.040
4.466,-0.145,-0.035
4.468,-0.170,-0.035
4.470,-0.170,-0.035
4.472,-0.200,-0.035
4.474,-0.280,-0.040
4.476,-0.300,-0.040
4.478,-0.275,-0.045
4.480,-0.255,-0.045
4.482,-0.190,-0.045
4.484,-0.110,-0.050
4.486,-0.145,-0.050
4.488,-0.170,-0.050
4.490,-0.200,-0.045
4.492,-0.225,-0.045
4.494,-0.265,-0.040
4.496,-0.265,-0.040
4.498,-0.260,-0.040
4.500,-0.250,-0.040
4.502,-0.230,-0.045
4.504,-0.180,-0.050
4.506,-0.150,-0.055
4.508,-0.140,-0.060
4.510,-0.165,-0.065
4.512,-0.250,-0.070
4.514,-0.305,-0.070
4.516,-0.325,-0.065
4.518,-0.285,-0.060
4.520,-0.235,-0.055
4.522,-0.160,-0.045
4.524,-0.150,-0.035
4.526,-0.165,-0.030
4.528,-0.110,-0.030
4.530,-0.125,-0.030
4.532,-0.230,-0.040
4.534,-0.310,-0.045
4.536,-0.300,-0.055
4.538,-0.325,-0.065
4.540,-0.270,-0.075
4.542,-0.190,-0.075
4.544,-0.130,-0.075
4.546,-0.155,-0.075
4.548,-0.160,-0.070
4.550,-0.225,-0.060
4.552,-0.250,-0.055
4.554,-0.280,-0.055
4.556,-0.280,-0.050
4.558,-0.275,-0.050
4.560,-0.255,-0.050
4.562,-0.200,-0.055
4.564,-0.155,-0.055
4.566,-0.160,-0.055
4.568,-0.175,-0.055
4.570,-0.165,-0.060
4.572,-0.270,-0.060
4.574,-0.280,-0.065
4.576,-0.270,-0.065
4.578,-0.295,-0.070
4.580,-0.245,-0.070
4.582,-0.205,-0.065
4.584,-0.170,-0.060
4.586,-0.140,-0.055
4.588,-0.160,-0.045
4.590,-0.180,-0.040
4.592,-0.250,-0.040
4.594,-0.285,-0.050
4.596,-0.315,-0.065
4.598,-0.280,-0.085
4.600,-0.160,-0.100
4.602,-0.215,-0.120
4.604,-0.290,-0.125
4.606,-0.345,-0.120
4.608,-0.300,-0.110
4.610,-0.230,-0.090
4.612,-0.240,-0.065
4.614,-0.190,-0.040
4.616,-0.160,-0.020
4.618,-0.105,-0.015
4.620,-0.125,-0.015
4.622,-0.190,-0.025
4.624,-0.265,-0.040
4.626,-0.255,-0.050
4.628,-0.275,-0.055
4.630,-0.260,-0.055
4.632,-0.180,-0.045
4.634,-0.155,-0.035
4.636,-0.155,-0.020
4.638,-0.090,-0.010
4.640,-0.120,-0.005
4.642,-0.130,-0.005
4.644,-0.260,-0.015
4.646,-0.275,-0.020
4.648,-0.260,-0.030
4.650,-0.215,-0.035
4.652,-0.180,-0.030
4.654,-0.125,-0.015
4.656,-0.120,0.000
4.658,-0.060,0.020
4.660,-0.115,0.040
4.662,-0.110,0.050
4.664,-0.150,0.055
4.666,-0.150,0.055
4.668,-0.185,0.045
4.670,-0.150,0.040
4.672,-0.130,0.035
4.674,-0.090,0.035
4.676,-0.040,0.040
4.678,-0.025,0.045
4.680,-0.085,0.055
4.682,-0.085,0.060
4.684,-0.135,0.065
4.686,-0.155,0.065
4.688,-0.200,0.060
4.690,-0.155,0.050
4.692,-0.125,0.040
4.694,-0.060,0.030
4.696,-0.100,0.025
4.698,-0.090,0.025
4.700,-0.050,0.025
4.702,-0.125,0.030
4.704,-0.145,0.035
4.706,-0.165,0.040
4.708,-0.195,0.040
4.710,-0.195,0.030
4.712,-0.175,0.020
4.714,-0.140,0.000
4.716,-0.140,-0.020
4.718,-0.150,-0.035
4.720,-0.140,-0.050
4.722,-0.220,-0.060
4.724,-0.260,-0.065
4.726,-0.355,-0.065
4.728,-0.270,-0.065
4.730,-0.265,-0.055
4.732,-0.245,-0.050
4.734,-0.175,-0.045
4.736,-0.150,-0.045
4.738,-0.145,-0.050
4.740,-0.220,-0.055
4.742,-0.180,-0.065
4.744,-0.275,-0.070
4.746,-0.325,-0.080
4.748,-0.340,-0.080
4.750,-0.275,-0.080
4.752,-0.275,-0.080
4.754,-0.165,-0.075
4.756,-0.165,-0.070
4.758,-0.150,-0.065
4.760,-0.195,-0.065
4.762,-0.210,-0.070
4.764,-0.270,-0.075
4.766,-0.295,-0.085
4.768,-0.335,-0.095
4.770,-0.315,-0.100
4.772,-0.260,-0.110
4.774,-0.195,-0.120
4.776,-0.185,-0.130
4.778,-0.270,-0.140
4.780,-0.315,-0.155
4.782,-0.375,-0.175
4.784,-0.450,-0.190
4.786,-0.455,-0.205
4.788,-0.435,-0.210
4.790,-0.390,-0.195
4.792,-0.325,-0.165
4.794,-0.270,-0.110
4.796,-0.130,-0.030
4.798,0.005,0.075
4.800,0.075,0.200
4.802,0.190,0.345
4.804,0.310,0.495
4.806,0.425,0.640
4.808,0.595,0.770
4.810,0.790,0.875
4.812,0.830,0.950
4.814,0.900,0.990
4.816,0.875,0.990
4.818,0.855,0.950
4.820,0.755,0.875
4.822,0.590,0.770
4.824,0.410,0.640
4.826,0.285,0.500
4.828,0.195,0.360
4.830,0.000,0.230
4.832,-0.130,0.110
4.834,-0.190,0.015
4.836,-0.205,-0.055
4.838,-0.230,-0.105
4.840,-0.215,-0.135
4.842,-0.290,-0.155
4.844,-0.390,-0.170
4.846,-0.460,-0.175
4.848,-0.425,-0.185
4.850,-0.400,-0.195
4.852,-0.380,-0.205
4.854,-0.310,-0.215
4.856,-0.270,-0.220
4.858,-0.255,-0.215
4.860,-0.335,-0.210
4.862,-0.380,-0.200
4.864,-0.380,-0.185
4.866,-0.380,-0.165
4.868,-0.355,-0.155
4.870,-0.340,-0.140
4.872,-0.265,-0.130
4.874,-0.210,-0.125
4.876,-0.190,-0.120
4.878,-0.255,-0.115
4.880,-0.250,-0.110
4.882,-0.285,-0.110
4.884,-0.275,-0.105
4.886,-0.315,-0.105
4.888,-0.255,-0.100
4.890,-0.310,-0.105
4.892,-0.270,-0.105
4.894,-0.220,-0.105
4.896,-0.170,-0.110
4.898,-0.200,-0.105
4.900,-0.200,-0.100
4.902,-0.270,-0.095
4.904,-0.370,-0.085
4.906,-0.310,-0.080
4.908,-0.305,-0.075
4.910,-0.270,-0.075
4.912,-0.180,-0.075
4.914,-0.205,-0.080
4.916,-0.180,-0.090
4.918,-0.180,-0.095
4.920,-0.200,-0.100
4.922,-0.285,-0.100
4.924,-0.310,-0.095
4.926,-0.295,-0.090
4.928,-0.315,-0.085
4.930,-0.255,-0.080
4.932,-0.195,-0.075
4.934,-0.180,-0.075
4.936,-0.130,-0.075
4.938,-0.185,-0.075
4.940,-0.215,-0.075
4.942,-0.275,-0.070
4.944,-0.270,-0.070
4.946,-0.305,-0.065
4.948,-0.250,-0.060
4.950,-0.230,-0.055
4.952,-0.175,-0.050
4.954,-0.160,-0.045
4.956,-0.140,-0.045
4.958,-0.175,-0.045
4.960,-0.195,-0.045
4.962,-0.240,-0.045
4.964,-0.240,-0.045
4.966,-0.255,-0.040
4.968,-0.245,-0.035
4.970,-0.215,-0.030
4.972,-0.145,-0.025
4.974,-0.115,-0.025
4.976,-0.080,-0.020
4.978,-0.145,-0.020
4.980,-0.150,-0.020
4.982,-0.235,-0.020
4.984,-0.230,-0.020
4.986,-0.225,-0.020
4.988,-0.195,-0.020
4.990,-0.165,-0.015
4.992,-0.150,-0.010
4.994,-0.110,-0.005
4.996,-0.085,0.000
4.998,-0.090,0.010
5.000,-0.130,0.020
5.002,-0.165,0.030
5.004,-0.130,0.040
5.006,-0.120,0.050
5.008,-0.105,0.060
5.010,-0.090,0.070
5.012,-0.065,0.080
5.014,-0.055,0.085
5.016,-0.015,0.090
5.018,0.015,0.090
5.020,-0.060,0.095
5.022,-0.125,0.100
5.024,-0.085,0.105
5.026,-0.065,0.115
5.028,-0.070,0.125
5.030,-0.060,0.135
5.032,0.030,0.140
5.034,0.040,0.150
5.036,0.060,0.155
5.038,0.030,0.160
5.040,-0.010,0.165
5.042,-0.045,0.170
5.044,-0.065,0.170
5.046,-0.025,0.175
5.048,-0.030,0.175
5.050,0.000,0.180
5.052,0.095,0.185
5.054,0.080,0.185
5.056,0.120,0.190
5.058,0.050,0.195
5.060,0.065,0.195
5.062,-0.030,0.200
5.064,0.000,0.205
5.066,0.015,0.205
5.068,0.045,0.205
5.070,0.075,0.210
5.072,0.115,0.205
5.074,0.090,0.205
5.076,0.065,0.200
5.078,0.055,0.190
5.080,-0.020,0.180
5.082,-0.060,0.170
5.084,-0.070,0.160
5.086,-0.070,0.150
5.088,-0.025,0.145
5.090,0.005,0.135
5.092,-0.005,0.130
5.094,0.030,0.120
5.096,0.040,0.115
5.098,-0.010,0.105
5.100,-0.105,0.095
5.102,-0.160,0.080
5.104,-0.140,0.065
5.106,-0.180,0.055
5.108,-0.140,0.040
5.110,-0.140,0.025
5.112,-0.100,0.010
5.114,-0.080,0.000
5.116,-0.090,-0.010
5.118,-0.165,-0.020
5.120,-0.180,-0.030
5.122,-0.300,-0.040
5.124,-0.280,-0.050
5.126,-0.295,-0.060
5.128,-0.215,-0.065
5.130,-0.160,-0.070
5.132,-0.175,-0.070
5.134,-0.135,-0.070
5.136,-0.225,-0.065
5.138,-0.165,-0.060
5.140,-0.190,-0.055
5.142,-0.265,-0.050
5.144,-0.330,-0.045
5.146,-0.255,-0.050
5.148,-0.240,-0.050
5.150,-0.205,-0.055
5.152,-0.190,-0.060
5.154,-0.165,-0.065
5.156,-0.185,-0.065
5.158,-0.140,-0.065
5.160,-0.225,-0.065
5.162,-0.295,-0.065
5.164,-0.305,-0.065
5.166,-0.285,-0.065
5.168,-0.275,-0.070
5.170,-0.190,-0.070
5.172,-0.145,-0.075
5.174,-0.165,-0.075
5.176,-0.135,-0.075
5.178,-0.195,-0.070
5.180,-0.250,-0.060
5.182,-0.290,-0.055
5.184,-0.315,-0.045
5.186,-0.235,-0.040
5.188,-0.200,-0.040
5.190,-0.180,-0.050
5.192,-0.200,-0.055
5.194,-0.150,-0.070
5.196,-0.205,-0.080
5.198,-0.225,-0.090
5.200,-0.330,-0.095
5.202,-0.250,-0.095
5.204,-0.300,-0.085
5.206,-0.265,-0.075
5.208,-0.270,-0.060
5.210,-0.185,-0.050
5.212,-0.175,-0.045
5.214,-0.165,-0.040
5.216,-0.180,-0.050
5.218,-0.220,-0.060
5.220,-0.215,-0.070
5.222,-0.320,-0.085
5.224,-0.325,-0.095
5.226,-0.305,-0.095
5.228,-0.260,-0.095
5.230,-0.200,-0.085
5.232,-0.130,-0.075
5.234,-0.135,-0.065
5.236,-0.160,-0.055
5.238,-0.195,-0.055
5.240,-0.275,-0.055
5.242,-0.330,-0.060
5.244,-0.295,-0.065
5.246,-0.295,-0.070
5.248,-0.240,-0.075
5.250,-0.175,-0.075
5.252,-0.135,-0.070
5.254,-0.150,-0.065
5.256,-0.200,-0.055
5.258,-0.230,-0.045
5.260,-0.250,-0.040
5.262,-0.235,-0.040
5.264,-0.250,-0.040
5.266,-0.265,-0.045
5.268,-0.220,-0.050
5.270,-0.170,-0.055
5.272,-0.150,-0.060
5.274,-0.135,-0.055
5.276,-0.190,-0.055
5.278,-0.195,-0.050
5.280,-0.230,-0.050
5.282,-0.320,-0.050
5.284,-0.330,-0.055
5.286,-0.255,-0.065
5.288,-0.180,-0.075
5.290,-0.195,-0.085
5.292,-0.225,-0.090
5.294,-0.200,-0.095
5.296,-0.210,-0.090
5.298,-0.225,-0.085
5.300,-0.300,-0.080
5.302,-0.255,-0.070
5.304,-0.285,-0.060
5.306,-0.300,-0.055
5.308,-0.250,-0.055
5.310,-0.185,-0.060
5.312,-0.155,-0.070
5.314,-0.170,-0.075
5.316,-0.240,-0.080
5.318,-0.240,-0.085
5.320,-0.300,-0.090
5.322,-0.325,-0.085
5.324,-0.320,-0.080
5.326,-0.250,-0.075
5.328,-0.205,-0.070
5.330,-0.155,-0.065
5.332,-0.170,-0.065
5.334,-0.190,-0.065
5.336,-0.230,-0.070
5.338,-0.255,-0.070
5.340,-0.315,-0.070
5.342,-0.275,-0.070
5.344,-0.310,-0.065
5.346,-0.250,-0.060
5.348,-0.175,-0.055
5.350,-0.160,-0.050
5.352,-0.125,-0.045
5.354,-0.115,-0.045
5.356,-0.205,-0.050
5.358,-0.245,-0.055
5.360,-0.305,-0.060
5.362,-0.310,-0.070
5.364,-0.325,-0.075
5.366,-0.315,-0.080
5.368,-0.275,-0.080
5.370,-0.180,-0.080
5.372,-0.135,-0.075
5.374,-0.155,-0.075
5.376,-0.215,-0.070
5.378,-0.270,-0.070
5.380,-0.330,-0.075
5.382,-0.315,-0.080
5.384,-0.335,-0.085
5.386,-0.325,-0.090
5.388,-0.250,-0.095
5.390,-0.185,-0.095
5.392,-0.180,-0.090
5.394,-0.180,-0.085
5.396,-0.225,-0.070
5.398,-0.215,-0.060
5.400,-0.285,-0.050
5.402,-0.345,-0.045
5.404,-0.275,-0.040
5.406,-0.275,-0.045
5.408,-0.230,-0.050
5.410,-0.215,-0.065
5.412,-0.185,-0.075
5.414,-0.200,-0.085
5.416,-0.265,-0.095
5.418,-0.290,-0.100
5.420,-0.305,-0.100
5.422,-0.295,-0.095
5.424,-0.335,-0.090
5.426,-0.275,-0.085
5.428,-0.275,-0.080
5.430,-0.185,-0.075
5.432,-0.170,-0.070
5.434,-0.195,-0.070
5.436,-0.205,-0.070
5.438,-0.275,-0.070
5.440,-0.360,-0.075
5.442,-0.295,-0.075
5.444,-0.305,-0.075
5.446,-0.305,-0.070
5.448,-0.225,-0.070
5.450,-0.210,-0.065
5.452,-0.195,-0.065
5.454,-0.180,-0.060
5.456,-0.210,-0.060
5.458,-0.275,-0.060
5.460,-0.325,-0.060
5.462,-0.280,-0.060
5.464,-0.315,-0.060
5.466,-0.320,-0.060
5.468,-0.220,-0.065
5.470,-0.190,-0.065
5.472,-0.145,-0.065
5.474,-0.190,-0.070
5.476,-0.240,-0.070
5.478,-0.285,-0.070
5.480,-0.310,-0.070
5.482,-0.310,-0.070
5.484,-0.270,-0.070
5.486,-0.255,-0.075
5.488,-0.235,-0.075
5.490,-0.255,-0.075
5.492,-0.225,-0.075
5.494,-0.230,-0.075
5.496,-0.245,-0.070
5.498,-0.280,-0.065
5.500,-0.280,-0.060
5.502,-0.285,-0.055
5.504,-0.265,-0.050
5.506,-0.250,-0.045
5.508,-0.260,-0.040
5.510,-0.170,-0.040
5.512,-0.145,-0.035
5.514,-0.185,-0.035
5.516,-0.215,-0.035
5.518,-0.270,-0.035
5.520,-0.265,-0.030
5.522,-0.325,-0.025
5.524,-0.215,-0.020
5.526,-0.215,-0.015
5.528,-0.190,-0.015
5.530,-0.165,-0.015
5.532,-0.125,-0.015
5.534,-0.180,-0.015
5.536,-0.170,-0.020
5.538,-0.235,-0.015
5.540,-0.230,-0.005
5.542,-0.235,0.010
5.544,-0.210,0.025
5.546,-0.200,0.045
5.548,-0.065,0.065
5.550,-0.050,0.080
5.552,-0.055,0.090
5.554,-0.055,0.095
5.556,-0.115,0.090
5.558,-0.175,0.085
5.560,-0.195,0.075
5.562,-0.190,0.065
5.564,-0.155,0.060
5.566,-0.140,0.055
5.568,-0.080,0.060
5.570,-0.040,0.065
5.572,-0.050,0.075
5.574,-0.110,0.075
5.576,-0.165,0.080
5.578,-0.210,0.075
5.580,-0.215,0.070
5.582,-0.210,0.060
5.584,-0.190,0.050
5.586,-0.180,0.035
5.588,-0.105,0.025
5.590,-0.085,0.015
5.592,-0.125,0.010
5.594,-0.155,0.000
5.596,-0.230,-0.005
5.598,-0.330,-0.015
5.600,-0.330,-0.025
5.602,-0.320,-0.035
5.604,-0.255,-0.045
5.606,-0.185,-0.050
5.608,-0.205,-0.055
5.610,-0.155,-0.055
5.612,-0.185,-0.055
5.614,-0.215,-0.050
5.616,-0.270,-0.045
5.618,-0.340,-0.040
5.620,-0.370,-0.040
5.622,-0.310,-0.040
5.624,-0.265,-0.040
5.626,-0.240,-0.045
5.628,-0.220,-0.055
5.630,-0.190,-0.055
5.632,-0.180,-0.060
5.634,-0.220,-0.060
5.636,-0.265,-0.060
5.638,-0.310,-0.060
5.640,-0.340,-0.055
5.642,-0.335,-0.055
5.644,-0.330,-0.055
5.646,-0.290,-0.055
5.648,-0.220,-0.060
5.650,-0.195,-0.060
5.652,-0.205,-0.070
5.654,-0.270,-0.075
5.656,-0.305,-0.085
5.658,-0.365,-0.100
5.660,-0.435,-0.120
5.662,-0.445,-0.140
5.664,-0.435,-0.160
5.666,-0.405,-0.175
5.668,-0.355,-0.185
5.670,-0.330,-0.185
5.672,-0.310,-0.165
5.674,-0.300,-0.130
5.676,-0.345,-0.070
5.678,-0.280,0.010
5.680,-0.140,0.115
5.682,-0.025,0.235
5.684,0.150,0.370
5.686,0.270,0.510
5.688,0.490,0.650
5.690,0.660,0.780
5.692,0.795,0.895
5.694,0.915,0.980
5.696,0.865,1.030
5.698,0.780,1.045
5.700,0.685,1.015
5.702,0.625,0.950
5.704,0.555,0.845
5.706,0.500,0.715
5.708,0.380,0.575
5.710,0.305,0.425
5.712,0.130,0.290
5.714,-0.020,0.170
5.716,-0.215,0.075
5.718,-0.340,0.005
5.720,-0.385,-0.045
5.722,-0.365,-0.075
5.724,-0.340,-0.090
5.726,-0.315,-0.105
5.728,-0.320,-0.115
5.730,-0.300,-0.130
5.732,-0.345,-0.150
5.734,-0.385,-0.165
5.736,-0.430,-0.180
5.738,-0.460,-0.185
5.740,-0.525,-0.185
5.742,-0.450,-0.175
5.744,-0.405,-0.160
5.746,-0.320,-0.145
5.748,-0.240,-0.125
5.750,-0.230,-0.105
5.752,-0.245,-0.095
5.754,-0.270,-0.085
5.756,-0.390,-0.075
5.758,-0.370,-0.075
5.760,-0.370,-0.075
5.762,-0.385,-0.075
5.764,-0.345,-0.075
5.766,-0.305,-0.080
5.768,-0.250,-0.080
5.770,-0.195,-0.085
5.772,-0.250,-0.085
5.774,-0.275,-0.080
5.776,-0.310,-0.080
5.778,-0.345,-0.070
5.780,-0.390,-0.065
5.782,-0.350,-0.055
5.784,-0.345,-0.045
5.786,-0.250,-0.040
5.788,-0.230,-0.040
5.790,-0.195,-0.045
5.792,-0.220,-0.050
5.794,-0.225,-0.060
5.796,-0.335,-0.065
5.798,-0.375,-0.070
5.800,-0.375,-0.065
5.802,-0.335,-0.060
5.804,-0.315,-0.050
5.806,-0.230,-0.035
5.808,-0.205,-0.025
5.810,-0.195,-0.020
5.812,-0.215,-0.020
5.814,-0.235,-0.025
5.816,-0.305,-0.030
5.818,-0.360,-0.040
5.820,-0.370,-0.050
5.822,-0.340,-0.050
5.824,-0.315,-0.050
5.826,-0.220,-0.040
5.828,-0.185,-0.030
5.830,-0.185,-0.020
5.832,-0.195,-0.010
5.834,-0.220,-0.005
5.836,-0.290,0.000
5.838,-0.310,-0.005
5.840,-0.315,-0.015
5.842,-0.290,-0.025
5.844,-0.250,-0.030
5.846,-0.265,-0.035
5.848,-0.195,-0.030
5.850,-0.190,-0.025
5.852,-0.245,-0.015
5.854,-0.215,0.000
5.856,-0.320,0.010
5.858,-0.290,0.020
5.860,-0.295,0.025
5.862,-0.285,0.030
5.864,-0.230,0.030
5.866,-0.150,0.030
5.868,-0.135,0.025
5.870,-0.170,0.025
5.872,-0.160,0.025
5.874,-0.200,0.030
5.876,-0.315,0.030
5.878,-0.290,0.035
5.880,-0.250,0.040
5.882,-0.240,0.050
5.884,-0.185,0.055
5.886,-0.130,0.065
5.888,-0.075,0.075
5.890,-0.070,0.090
5.892,-0.080,0.100
5.894,-0.110,0.115
5.896,-0.190,0.125
5.898,-0.210,0.135
5.900,-0.190,0.140
5.902,-0.130,0.145
5.904,-0.110,0.150
5.906,-0.055,0.150
5.908,0.005,0.160
5.910,0.000,0.165
5.912,-0.050,0.175
5.914,-0.105,0.190
5.916,-0.110,0.200
5.918,-0.110,0.215
5.920,-0.110,0.225
5.922,-0.020,0.230
5.924,0.020,0.235
5.926,0.000,0.235
5.928,0.015,0.230
5.930,0.015,0.225
5.932,0.015,0.220
5.934,-0.010,0.215
5.936,-0.080,0.220
5.938,-0.080,0.225
5.940,-0.075,0.230
5.942,-0.095,0.240
5.944,-0.015,0.245
5.946,0.055,0.250
5.948,0.055,0.255
5.950,0.030,0.255
5.952,-0.010,0.255
5.954,-0.020,0.250
5.956,-0.060,0.250
5.958,-0.100,0.245
5.960,-0.085,0.240
5.962,-0.055,0.235
5.964,-0.025,0.230
5.966,-0.045,0.220
5.968,-0.010,0.205
5.970,0.025,0.190
5.972,-0.060,0.170
5.974,-0.135,0.155
5.976,-0.210,0.135
5.978,-0.190,0.120
5.980,-0.260,0.110
5.982,-0.250,0.100
5.984,-0.170,0.090
5.986,-0.155,0.085
5.988,-0.075,0.080
5.990,-0.100,0.075
5.992,-0.190,0.070
5.994,-0.240,0.065
5.996,-0.280,0.060
5.998,-0.310,0.050
6.000,-0.315,0.040
6.002,-0.305,0.035
6.004,-0.270,0.025
6.006,-0.175,0.010
6.008,-0.200,0.000
6.010,-0.250,-0.005
6.012,-0.240,-0.015
6.014,-0.305,-0.020
6.016,-0.325,-0.025
6.018,-0.355,-0.025
6.020,-0.345,-0.025
6.022,-0.310,-0.030
6.024,-0.265,-0.030
6.026,-0.275,-0.030
6.028,-0.225,-0.035
6.030,-0.220,-0.035
6.032,-0.345,-0.040
6.034,-0.345,-0.040
6.036,-0.335,-0.035
6.038,-0.360,-0.035
6.040,-0.395,-0.030
6.042,-0.340,-0.020
6.044,-0.265,-0.015
6.046,-0.235,-0.010
6.048,-0.170,-0.010
6.050,-0.260,-0.010
6.052,-0.285,-0.010
6.054,-0.330,-0.015
6.056,-0.335,-0.020
6.058,-0.360,-0.025
6.060,-0.340,-0.030
6.062,-0.355,-0.035
6.064,-0.315,-0.040
6.066,-0.305,-0.045
6.068,-0.260,-0.050
6.070,-0.320,-0.050
6.072,-0.280,-0.055
6.074,-0.315,-0.055
6.076,-0.370,-0.050
6.078,-0.385,-0.045
6.080,-0.365,-0.035
6.082,-0.350,-0.030
6.084,-0.295,-0.020
6.086,-0.255,-0.015
6.088,-0.245,-0.015
6.090,-0.265,-0.015
6.092,-0.310,-0.025
6.094,-0.360,-0.035
6.096,-0.350,-0.045
6.098,-0.445,-0.060
6.100,-0.415,-0.065
6.102,-0.355,-0.070
6.104,-0.320,-0.070
6.106,-0.275,-0.065
6.108,-0.275,-0.055
6.110,-0.315,-0.045
6.112,-0.275,-0.040
6.114,-0.340,-0.035
6.116,-0.370,-0.035
6.118,-0.445,-0.035
6.120,-0.405,-0.045
6.122,-0.370,-0.050
6.124,-0.300,-0.055
6.126,-0.250,-0.060
6.128,-0.265,-0.060
6.130,-0.300,-0.060
6.132,-0.305,-0.055
6.134,-0.355,-0.050
6.136,-0.385,-0.045
6.138,-0.380,-0.035
6.140,-0.355,-0.035
6.142,-0.370,-0.030
6.144,-0.305,-0.030
6.146,-0.235,-0.025
6.148,-0.240,-0.025
6.150,-0.280,-0.030
6.152,-0.310,-0.030
6.154,-0.405,-0.035
6.156,-0.410,-0.045
6.158,-0.430,-0.050
6.160,-0.365,-0.060
6.162,-0.380,-0.065
6.164,-0.355,-0.070
6.166,-0.305,-0.070
6.168,-0.265,-0.065
6.170,-0.310,-0.060
6.172,-0.345,-0.055
6.174,-0.410,-0.050
6.176,-0.405,-0.040
6.178,-0.410,-0.035
6.180,-0.365,-0.035
6.182,-0.340,-0.035
6.184,-0.310,-0.035
6.186,-0.300,-0.040
6.188,-0.290,-0.045
6.190,-0.310,-0.050
6.192,-0.350,-0.050
6.194,-0.430,-0.055
6.196,-0.465,-0.055
6.198,-0.445,-0.060
6.200,-0.370,-0.060
6.202,-0.295,-0.060
6.204,-0.285,-0.060
6.206,-0.305,-0.055
6.208,-0.290,-0.050
6.210,-0.330,-0.050
6.212,-0.345,-0.045
6.214,-0.410,-0.040
6.216,-0.405,-0.040
6.218,-0.395,-0.040
6.220,-0.375,-0.040
6.222,-0.400,-0.045
6.224,-0.300,-0.055
6.226,-0.300,-0.060
6.228,-0.340,-0.070
6.230,-0.370,-0.075
6.232,-0.385,-0.085
6.234,-0.495,-0.085
6.236,-0.415,-0.090
6.238,-0.450,-0.085
6.240,-0.420,-0.085
6.242,-0.335,-0.080
6.244,-0.345,-0.075
6.246,-0.315,-0.070
6.248,-0.310,-0.065
6.250,-0.310,-0.060
6.252,-0.375,-0.055
6.254,-0.400,-0.050
6.256,-0.430,-0.050
6.258,-0.445,-0.050
6.260,-0.445,-0.060
6.262,-0.375,-0.065
6.264,-0.330,-0.075
6.266,-0.345,-0.090
6.268,-0.380,-0.095
6.270,-0.350,-0.100
6.272,-0.470,-0.100
6.274,-0.405,-0.095
6.276,-0.425,-0.085
6.278,-0.445,-0.075
6.280,-0.405,-0.065
6.282,-0.390,-0.060
6.284,-0.315,-0.055
6.286,-0.300,-0.060
6.288,-0.355,-0.065
6.290,-0.370,-0.080
6.292,-0.430,-0.090
6.294,-0.470,-0.100
6.296,-0.460,-0.105
6.298,-0.440,-0.105
6.300,-0.445,-0.095
6.302,-0.390,-0.085
6.304,-0.305,-0.075
6.306,-0.310,-0.065
6.308,-0.310,-0.055
6.310,-0.355,-0.050
6.312,-0.405,-0.050
6.314,-0.455,-0.055
6.316,-0.450,-0.060
6.318,-0.435,-0.070
6.320,-0.455,-0.080
6.322,-0.370,-0.090
6.324,-0.345,-0.095
6.326,-0.330,-0.095
6.328,-0.305,-0.095
6.330,-0.330,-0.090
6.332,-0.455,-0.085
6.334,-0.475,-0.080
6.336,-0.470,-0.075
6.338,-0.415,-0.070
6.340,-0.400,-0.070
6.342,-0.345,-0.065
6.344,-0.330,-0.065
6.346,-0.315,-0.065
6.348,-0.305,-0.065
6.350,-0.335,-0.065
6.352,-0.445,-0.065
6.354,-0.505,-0.065
6.356,-0.460,-0.065
6.358,-0.450,-0.070
6.360,-0.385,-0.070
6.362,-0.335,-0.075
6.364,-0.350,-0.075
6.366,-0.365,-0.080
6.368,-0.375,-0.080
6.370,-0.355,-0.080
6.372,-0.385,-0.080
6.374,-0.435,-0.080
6.376,-0.440,-0.080
6.378,-0.410,-0.075
6.380,-0.445,-0.070
6.382,-0.400,-0.070
6.384,-0.330,-0.065
6.386,-0.285,-0.055
6.388,-0.290,-0.050
6.390,-0.335,-0.040
6.392,-0.370,-0.035
6.394,-0.445,-0.025
6.396,-0.410,-0.020
6.398,-0.395,-0.015
6.400,-0.375,-0.015
6.402,-0.315,-0.015
6.404,-0.295,-0.015
6.406,-0.245,-0.015
6.408,-0.240,-0.010
6.410,-0.280,-0.005
6.412,-0.325,0.005
6.414,-0.350,0.020
6.416,-0.375,0.035
6.418,-0.295,0.050
6.420,-0.245,0.060
6.422,-0.195,0.065
6.424,-0.205,0.065
6.426,-0.210,0.065
6.428,-0.210,0.060
6.430,-0.240,0.050
6.432,-0.345,0.045
6.434,-0.335,0.040
6.436,-0.340,0.035
6.438,-0.330,0.035
6.440,-0.345,0.035
6.442,-0.280,0.030
6.444,-0.215,0.030
6.446,-0.225,0.020
6.448,-0.270,0.015
6.450,-0.295,0.010
6.452,-0.355,0.000
6.454,-0.365,-0.005
6.456,-0.395,-0.005
6.458,-0.375,-0.005
6.460,-0.370,-0.005
6.462,-0.300,-0.010
6.464,-0.275,-0.015
6.466,-0.280,-0.020
6.468,-0.340,-0.035
6.470,-0.415,-0.055
6.472,-0.450,-0.070
6.474,-0.440,-0.085
6.476,-0.495,-0.095
6.478,-0.460,-0.105
6.480,-0.410,-0.105
6.482,-0.355,-0.100
6.484,-0.315,-0.090
6.486,-0.330,-0.080
6.488,-0.385,-0.075
6.490,-0.395,-0.075
6.492,-0.440,-0.075
6.494,-0.440,-0.080
6.496,-0.505,-0.085
6.498,-0.475,-0.090
6.500,-0.430,-0.090
6.502,-0.385,-0.090
6.504,-0.300,-0.085
6.506,-0.310,-0.080
6.508,-0.360,-0.075
6.510,-0.390,-0.070
6.512,-0.470,-0.075
6.514,-0.500,-0.080
6.516,-0.510,-0.090
6.518,-0.470,-0.105
6.520,-0.460,-0.120
6.522,-0.415,-0.140
6.524,-0.410,-0.155
6.526,-0.410,-0.175
6.528,-0.465,-0.190
6.530,-0.585,-0.200
6.532,-0.585,-0.205
6.534,-0.605,-0.195
6.536,-0.565,-0.170
6.538,-0.490,-0.125
6.540,-0.380,-0.060
6.542,-0.220,0.030
6.544,-0.100,0.145
6.546,0.015,0.275
6.548,0.170,0.415
6.550,0.240,0.550
6.552,0.345,0.680
6.554,0.435,0.785
6.556,0.535,0.865
6.558,0.585,0.910
6.560,0.620,0.915
6.562,0.640,0.890
6.564,0.570,0.830
6.566,0.480,0.745
6.568,0.330,0.640
6.570,0.165,0.525
6.572,0.000,0.400
6.574,-0.120,0.280
6.576,-0.250,0.165
6.578,-0.320,0.070
6.580,-0.400,-0.010
6.582,-0.345,-0.075
6.584,-0.335,-0.115
6.586,-0.410,-0.140
6.588,-0.470,-0.155
6.590,-0.525,-0.160
6.592,-0.560,-0.160
6.594,-0.600,-0.160
6.596,-0.585,-0.165
6.598,-0.540,-0.165
6.600,-0.430,-0.165
6.602,-0.405,-0.165
6.604,-0.435,-0.165
6.606,-0.435,-0.160
6.608,-0.400,-0.145
6.610,-0.450,-0.135
6.612,-0.460,-0.115
6.614,-0.500,-0.105
6.616,-0.500,-0.090
6.618,-0.440,-0.085
6.620,-0.405,-0.080
6.622,-0.385,-0.085
6.624,-0.325,-0.090
6.626,-0.370,-0.095
6.628,-0.375,-0.105
6.630,-0.450,-0.110
6.632,-0.460,-0.110
6.634,-0.455,-0.110
6.636,-0.480,-0.105
6.638,-0.465,-0.100
6.640,-0.400,-0.095
6.642,-0.355,-0.090
6.644,-0.335,-0.085
6.646,-0.345,-0.085
6.648,-0.375,-0.085
6.650,-0.450,-0.090
6.652,-0.495,-0.095
6.654,-0.510,-0.105
6.656,-0.460,-0.110
6.658,-0.410,-0.110
6.660,-0.345,-0.110
6.662,-0.370,-0.105
6.664,-0.360,-0.100
6.666,-0.320,-0.090
6.668,-0.360,-0.080
6.670,-0.460,-0.070
6.672,-0.455,-0.065
6.674,-0.465,-0.060
6.676,-0.455,-0.065
6.678,-0.410,-0.070
6.680,-0.320,-0.075
6.682,-0.310,-0.075
6.684,-0.295,-0.080
6.686,-0.310,-0.075
6.688,-0.350,-0.070
6.690,-0.455,-0.060
6.692,-0.445,-0.045
6.694,-0.380,-0.035
6.696,-0.390,-0.020
6.698,-0.345,-0.015
6.700,-0.310,-0.010
6.702,-0.290,-0.010
6.704,-0.300,-0.015
6.706,-0.265,-0.020
6.708,-0.310,-0.020
6.710,-0.385,-0.025
6.712,-0.415,-0.030
6.714,-0.390,-0.030
6.716,-0.400,-0.030
6.718,-0.370,-0.030
6.720,-0.315,-0.030
6.722,-0.265,-0.025
6.724,-0.270,-0.020
6.726,-0.290,-0.010
6.728,-0.310,-0.005
6.730,-0.395,0.000
6.732,-0.335,0.010
6.734,-0.340,0.010
6.736,-0.420,0.015
6.738,-0.270,0.010
6.740,-0.210,0.005
6.742,-0.285,0.000
6.744,-0.265,-0.005
6.746,-0.270,-0.005
6.748,-0.260,-0.005
6.750,-0.300,0.005
6.752,-0.320,0.015
6.754,-0.345,0.030
6.756,-0.340,0.045
6.758,-0.295,0.060
6.760,-0.195,0.075
6.762,-0.145,0.085
6.764,-0.135,0.095
6.766,-0.170,0.100
6.768,-0.170,0.105
6.770,-0.245,0.110
6.772,-0.260,0.115
6.774,-0.250,0.120
6.776,-0.220,0.125
6.778,-0.180,0.135
6.780,-0.170,0.140
6.782,-0.095,0.150
6.784,-0.060,0.155
6.786,-0.115,0.160
6.788,-0.110,0.165
6.790,-0.195,0.165
6.792,-0.195,0.170
6.794,-0.185,0.180
6.796,-0.175,0.190
6.798,-0.115,0.195
6.800,-0.040,0.205
6.802,-0.030,0.215
6.804,-0.045,0.215
6.806,-0.045,0.215
6.808,-0.070,0.215
6.810,-0.155,0.205
6.812,-0.150,0.200
6.814,-0.195,0.190
6.816,-0.155,0.185
6.818,-0.135,0.180
6.820,-0.110,0.180
6.822,-0.050,0.180
6.824,-0.095,0.180
6.826,-0.120,0.175
6.828,-0.160,0.165
6.830,-0.230,0.145
6.832,-0.230,0.125
6.834,-0.235,0.100
6.836,-0.295,0.080
6.838,-0.240,0.060
6.840,-0.180,0.050
6.842,-0.220,0.045
6.844,-0.195,0.050
6.846,-0.180,0.055
6.848,-0.245,0.065
6.850,-0.305,0.065
6.852,-0.360,0.065
6.854,-0.310,0.055
6.856,-0.295,0.040
6.858,-0.320,0.015
6.860,-0.215,-0.005
6.862,-0.270,-0.030
6.864,-0.320,-0.045
6.866,-0.315,-0.055
6.868,-0.355,-0.060
6.870,-0.415,-0.055
6.872,-0.405,-0.050
6.874,-0.385,-0.040
6.876,-0.385,-0.035
6.878,-0.355,-0.030
6.880,-0.300,-0.035
6.882,-0.240,-0.035
6.884,-0.290,-0.045
6.886,-0.325,-0.050
6.888,-0.350,-0.060
6.890,-0.435,-0.060
6.892,-0.430,-0.065
6.894,-0.390,-0.065
6.896,-0.410,-0.060
6.898,-0.380,-0.060
6.900,-0.310,-0.055
6.902,-0.290,-0.055
6.904,-0.295,-0.050
6.906,-0.350,-0.050
6.908,-0.420,-0.050
6.910,-0.380,-0.050
6.912,-0.415,-0.050
6.914,-0.430,-0.050
6.916,-0.355,-0.050
6.918,-0.315,-0.050
6.920,-0.315,-0.055
6.922,-0.325,-0.055
6.924,-0.300,-0.060
6.926,-0.320,-0.060
6.928,-0.380,-0.060
6.930,-0.420,-0.055
6.932,-0.410,-0.050
6.934,-0.400,-0.045
6.936,-0.380,-0.040
6.938,-0.350,-0.035
6.940,-0.260,-0.035
6.942,-0.280,-0.040
6.944,-0.320,-0.045
6.946,-0.350,-0.055
6.948,-0.375,-0.065
6.950,-0.415,-0.075
6.952,-0.420,-0.080
6.954,-0.390,-0.085
6.956,-0.400,-0.085
6.958,-0.360,-0.080
6.960,-0.315,-0.075
6.962,-0.285,-0.065
6.964,-0.260,-0.060
6.966,-0.315,-0.055
6.968,-0.395,-0.050
6.970,-0.415,-0.050
6.972,-0.410,-0.055
6.974,-0.400,-0.060
6.976,-0.400,-0.060
6.978,-0.335,-0.065
6.980,-0.305,-0.070
6.982,-0.285,-0.070
6.984,-0.280,-0.065
6.986,-0.320,-0.060
6.988,-0.350,-0.055
6.990,-0.420,-0.050
6.992,-0.430,-0.045
6.994,-0.365,-0.045
6.996,-0.350,-0.045
6.998,-0.265,-0.045
7.000,-0.310,-0.050
7.002,-0.285,-0.055
7.004,-0.325,-0.055
7.006,-0.300,-0.060
7.008,-0.370,-0.060
7.010,-0.400,-0.055
7.012,-0.390,-0.050
7.014,-0.380,-0.045
7.016,-0.340,-0.040
7.018,-0.305,-0.035
7.020,-0.290,-0.030
7.022,-0.305,-0.030
7.024,-0.235,-0.030
7.026,-0.330,-0.035
7.028,-0.380,-0.040
7.030,-0.410,-0.045
7.032,-0.380,-0.045
7.034,-0.380,-0.050
7.036,-0.325,-0.050
7.038,-0.315,-0.050
7.040,-0.260,-0.050
7.042,-0.270,-0.050
7.044,-0.280,-0.050
7.046,-0.375,-0.055
7.048,-0.405,-0.060
7.050,-0.355,-0.060
7.052,-0.345,-0.065
7.054,-0.410,-0.065
7.056,-0.355,-0.065
7.058,-0.285,-0.060
7.060,-0.280,-0.060
7.062,-0.285,-0.055
7.064,-0.295,-0.050
7.066,-0.320,-0.050
7.068,-0.380,-0.055
7.070,-0.405,-0.055
7.072,-0.390,-0.060
7.074,-0.350,-0.065
7.076,-0.365,-0.070
7.078,-0.320,-0.070
7.080,-0.290,-0.070
7.082,-0.250,-0.065
7.084,-0.265,-0.060
7.086,-0.325,-0.055
7.088,-0.405,-0.050
7.090,-0.405,-0.050
7.092,-0.380,-0.045
7.094,-0.355,-0.045
7.096,-0.375,-0.045
7.098,-0.335,-0.045
7.100,-0.245,-0.045
7.102,-0.255,-0.045
7.104,-0.280,-0.045
7.106,-0.325,-0.045
7.108,-0.430,-0.050
7.110,-0.400,-0.050
7.112,-0.370,-0.055
7.114,-0.360,-0.060
7.116,-0.310,-0.065
7.118,-0.310,-0.070
7.120,-0.285,-0.075
7.122,-0.280,-0.075
7.124,-0.275,-0.075
7.126,-0.365,-0.070
7.128,-0.430,-0.065
7.130,-0.390,-0.065
7.132,-0.420,-0.060
7.134,-0.385,-0.060
7.136,-0.345,-0.065
7.138,-0.260,-0.070
7.140,-0.285,-0.070
7.142,-0.290,-0.075
7.144,-0.300,-0.075
7.146,-0.375,-0.075
7.148,-0.390,-0.070
7.150,-0.415,-0.065
7.152,-0.400,-0.060
7.154,-0.380,-0.055
7.156,-0.330,-0.055
7.158,-0.250,-0.050
7.160,-0.265,-0.050
7.162,-0.280,-0.050
7.164,-0.315,-0.055
7.166,-0.350,-0.055
7.168,-0.355,-0.060
7.170,-0.390,-0.060
7.172,-0.400,-0.060
7.174,-0.340,-0.065
7.176,-0.350,-0.065
7.178,-0.295,-0.065
7.180,-0.285,-0.065
7.182,-0.270,-0.070
7.184,-0.305,-0.070
7.186,-0.350,-0.065
7.188,-0.385,-0.065
7.190,-0.395,-0.060
7.192,-0.390,-0.060
7.194,-0.360,-0.055
7.196,-0.345,-0.055
7.198,-0.265,-0.055
7.200,-0.260,-0.055
7.202,-0.290,-0.055
7.204,-0.295,-0.055
7.206,-0.350,-0.060
7.208,-0.385,-0.060
7.210,-0.425,-0.060
7.212,-0.365,-0.060
7.214,-0.345,-0.060
7.216,-0.295,-0.060
7.218,-0.290,-0.055
7.220,-0.280,-0.050
7.222,-0.300,-0.050
7.224,-0.280,-0.045
7.226,-0.315,-0.040
7.228,-0.355,-0.035
7.230,-0.350,-0.035
7.232,-0.365,-0.035
7.234,-0.350,-0.035
7.236,-0.285,-0.035
7.238,-0.230,-0.035
7.240,-0.180,-0.035
7.242,-0.205,-0.035
7.244,-0.300,-0.035
7.246,-0.335,-0.035
7.248,-0.380,-0.030
7.250,-0.365,-0.025
7.252,-0.340,-0.020
7.254,-0.300,-0.015
7.256,-0.230,-0.015
7.258,-0.200,-0.010
7.260,-0.170,-0.005
7.262,-0.205,0.005
7.264,-0.230,0.010
7.266,-0.265,0.020
7.268,-0.265,0.030
7.270,-0.260,0.045
7.272,-0.215,0.055
7.274,-0.230,0.065
7.276,-0.155,0.075
7.278,-0.160,0.080
7.280,-0.065,0.080
7.282,-0.120,0.075
7.284,-0.155,0.070
7.286,-0.270,0.065
7.288,-0.280,0.055
7.290,-0.285,0.050
7.292,-0.265,0.045
7.294,-0.220,0.040
7.296,-0.160,0.040
7.298,-0.135,0.040
7.300,-0.155,0.045
7.302,-0.175,0.045
7.304,-0.180,0.045
7.306,-0.275,0.040
7.308,-0.320,0.040
7.310,-0.275,0.035
7.312,-0.255,0.030
7.314,-0.215,0.025
7.316,-0.225,0.015
7.318,-0.185,0.005
7.320,-0.190,-0.005
7.322,-0.205,-0.015
7.324,-0.285,-0.025
7.326,-0.325,-0.035
7.328,-0.355,-0.040
7.330,-0.360,-0.050
7.332,-0.380,-0.055
7.334,-0.320,-0.060
7.336,-0.285,-0.065
7.338,-0.255,-0.070
7.340,-0.260,-0.075
7.342,-0.310,-0.080
7.344,-0.325,-0.080
7.346,-0.350,-0.080
7.348,-0.360,-0.075
7.350,-0.375,-0.075
7.352,-0.360,-0.070
7.354,-0.335,-0.070
7.356,-0.305,-0.075
7.358,-0.240,-0.080
7.360,-0.285,-0.090
7.362,-0.295,-0.100
7.364,-0.320,-0.110
7.366,-0.435,-0.115
7.368,-0.415,-0.115
7.370,-0.410,-0.115
7.372,-0.380,-0.110
7.374,-0.310,-0.105
7.376,-0.295,-0.100
7.378,-0.320,-0.100
7.380,-0.290,-0.110
7.382,-0.365,-0.130
7.384,-0.450,-0.155
7.386,-0.495,-0.185
7.388,-0.590,-0.205
7.390,-0.515,-0.215
7.392,-0.490,-0.210
7.394,-0.420,-0.175
7.396,-0.285,-0.115
7.398,-0.200,-0.025
7.400,-0.085,0.085
7.402,-0.015,0.215
7.404,0.105,0.355
7.406,0.190,0.495
7.408,0.340,0.630
7.410,0.515,0.755
7.412,0.645,0.855
7.414,0.765,0.930
7.416,0.850,0.975
7.418,0.805,0.985
7.420,0.815,0.960
7.422,0.690,0.905
7.424,0.530,0.825
7.426,0.420,0.715
7.428,0.285,0.590
7.430,0.080,0.460
7.432,0.055,0.330
7.434,-0.040,0.210
7.436,-0.130,0.110
7.438,-0.185,0.025
7.440,-0.255,-0.035
7.442,-0.285,-0.080
7.444,-0.355,-0.105
7.446,-0.455,-0.125
7.448,-0.455,-0.135
7.450,-0.465,-0.145
7.452,-0.450,-0.155
7.454,-0.410,-0.165
7.456,-0.375,-0.170
7.458,-0.355,-0.170
7.460,-0.370,-0.165
7.462,-0.330,-0.160
7.464,-0.375,-0.145
7.466,-0.450,-0.130
7.468,-0.455,-0.115
7.470,-0.360,-0.100
7.472,-0.355,-0.095
7.474,-0.335,-0.095
7.476,-0.285,-0.100
7.478,-0.295,-0.105
7.480,-0.275,-0.110
7.482,-0.300,-0.110
7.484,-0.335,-0.110
7.486,-0.400,-0.100
7.488,-0.370,-0.090
7.490,-0.380,-0.080
7.492,-0.370,-0.070
7.494,-0.305,-0.065
7.496,-0.275,-0.060
7.498,-0.265,-0.065
7.500,-0.270,-0.070
7.502,-0.305,-0.080
7.504,-0.355,-0.090
7.506,-0.380,-0.100
7.508,-0.410,-0.105
7.510,-0.370,-0.105
7.512,-0.340,-0.100
7.514,-0.270,-0.095
7.516,-0.240,-0.085
7.518,-0.260,-0.075
7.520,-0.265,-0.065
7.522,-0.270,-0.055
7.524,-0.315,-0.050
7.526,-0.365,-0.050
7.528,-0.335,-0.050
7.530,-0.345,-0.050
7.532,-0.345,-0.055
7.534,-0.255,-0.055
7.536,-0.235,-0.060
7.538,-0.245,-0.065
7.540,-0.285,-0.070
7.542,-0.310,-0.070
7.544,-0.310,-0.070
7.546,-0.305,-0.070
7.548,-0.295,-0.070
7.550,-0.365,-0.065
7.552,-0.335,-0.060
7.554,-0.235,-0.050
7.556,-0.205,-0.040
7.558,-0.185,-0.035
7.560,-0.215,-0.030
7.562,-0.240,-0.025
7.564,-0.300,-0.025
7.566,-0.310,-0.025
7.568,-0.340,-0.030
7.570,-0.320,-0.035
7.572,-0.260,-0.035
7.574,-0.185,-0.035
7.576,-0.205,-0.035
7.578,-0.165,-0.025
7.580,-0.235,-0.020
7.582,-0.240,-0.010
7.584,-0.265,-0.005
7.586,-0.315,0.000
7.588,-0.320,0.005
7.590,-0.250,0.005
7.592,-0.215,0.005
7.594,-0.235,0.000
7.596,-0.170,0.005
7.598,-0.145,0.005
7.600,-0.135,0.010
7.602,-0.170,0.020
7.604,-0.220,0.030
7.606,-0.225,0.040
7.608,-0.250,0.045
7.610,-0.255,0.055
7.612,-0.195,0.060
7.614,-0.110,0.060
7.616,-0.130,0.065
7.618,-0.085,0.065
7.620,-0.110,0.070
7.622,-0.120,0.075
7.624,-0.150,0.085
7.626,-0.170,0.100
7.628,-0.140,0.115
7.630,-0.120,0.130
7.632,-0.120,0.145
7.634,-0.040,0.155
7.636,0.000,0.170
7.638,0.005,0.175
7.640,-0.005,0.180
7.642,-0.010,0.180
7.644,-0.070,0.185
7.646,-0.120,0.185
7.648,-0.105,0.185
7.650,-0.070,0.185
7.652,-0.020,0.190
7.654,0.040,0.195
7.656,0.025,0.205
7.658,0.020,0.210
7.660,0.045,0.220
7.662,-0.015,0.225
7.664,-0.080,0.230
7.666,-0.110,0.230
7.668,-0.045,0.230
7.670,-0.020,0.225
7.672,-0.005,0.220
7.674,0.005,0.210
7.676,0.050,0.200
7.678,0.030,0.190
7.680,0.025,0.185
7.682,-0.075,0.175
7.684,-0.140,0.165
7.686,-0.115,0.155
7.688,-0.155,0.145
7.690,-0.165,0.135
7.692,-0.135,0.125
7.694,-0.070,0.110
7.696,-0.045,0.100
7.698,-0.065,0.085
7.700,-0.125,0.075
7.702,-0.155,0.070
7.704,-0.250,0.060
7.706,-0.225,0.050
7.708,-0.230,0.045
7.710,-0.260,0.035
7.712,-0.190,0.025
7.714,-0.165,0.015
7.716,-0.180,0.005
7.718,-0.170,-0.005
7.720,-0.210,-0.010
7.722,-0.235,-0.010
7.724,-0.245,-0.010
7.726,-0.275,-0.005
7.728,-0.265,0.000
7.730,-0.275,0.005
7.732,-0.230,0.005
7.734,-0.165,0.000
7.736,-0.150,-0.005
7.738,-0.180,-0.015
7.740,-0.235,-0.025
7.742,-0.325,-0.035
7.744,-0.310,-0.040
7.746,-0.350,-0.045
7.748,-0.325,-0.050
7.750,-0.290,-0.045
7.752,-0.220,-0.045
7.754,-0.195,-0.040
7.756,-0.170,-0.035
7.758,-0.220,-0.035
7.760,-0.240,-0.035
7.762,-0.310,-0.035
7.764,-0.335,-0.040
7.766,-0.280,-0.040
7.768,-0.285,-0.040
7.770,-0.295,-0.040
7.772,-0.270,-0.040
7.774,-0.225,-0.040
7.776,-0.225,-0.040
7.778,-0.200,-0.040
7.780,-0.225,-0.040
7.782,-0.300,-0.045
7.784,-0.340,-0.055
7.786,-0.370,-0.060
7.788,-0.350,-0.060
7.790,-0.295,-0.065
7.792,-0.215,-0.060
7.794,-0.200,-0.055
7.796,-0.180,-0.050
7.798,-0.220,-0.045
7.800,-0.240,-0.040
7.802,-0.300,-0.035
7.804,-0.315,-0.035
7.806,-0.350,-0.040
7.808,-0.310,-0.045
7.810,-0.245,-0.050
7.812,-0.270,-0.055
7.814,-0.205,-0.060
7.816,-0.200,-0.060
7.818,-0.210,-0.055
7.820,-0.225,-0.050
7.822,-0.275,-0.045
7.824,-0.300,-0.035
7.826,-0.320,-0.030
7.828,-0.300,-0.025
7.830,-0.270,-0.025
7.832,-0.205,-0.030
7.834,-0.215,-0.035
7.836,-0.225,-0.045
7.838,-0.210,-0.050
7.840,-0.225,-0.055
7.842,-0.290,-0.055
7.844,-0.315,-0.055
7.846,-0.315,-0.050
7.848,-0.320,-0.040
7.850,-0.275,-0.035
7.852,-0.185,-0.025
7.854,-0.170,-0.015
7.856,-0.185,-0.010
7.858,-0.185,-0.010
7.860,-0.215,-0.010
7.862,-0.285,-0.015
7.864,-0.325,-0.020
7.866,-0.335,-0.025
7.868,-0.300,-0.030
7.870,-0.265,-0.030
7.872,-0.170,-0.030
7.874,-0.165,-0.030
7.876,-0.190,-0.025
7.878,-0.195,-0.020
7.880,-0.210,-0.020
7.882,-0.280,-0.015
7.884,-0.275,-0.015
7.886,-0.300,-0.015
7.888,-0.305,-0.020
7.890,-0.295,-0.020
7.892,-0.180,-0.025
7.894,-0.185,-0.030
7.896,-0.190,-0.030
7.898,-0.230,-0.035
7.900,-0.270,-0.035
7.902,-0.290,-0.035
7.904,-0.305,-0.035
7.906,-0.320,-0.035
7.908,-0.270,-0.030
7.910,-0.235,-0.025
7.912,-0.215,-0.020
7.914,-0.210,-0.020
7.916,-0.165,-0.015
7.918,-0.200,-0.015
7.920,-0.240,-0.010
7.922,-0.270,-0.015
7.924,-0.295,-0.015
7.926,-0.330,-0.020
7.928,-0.275,-0.030
7.930,-0.210,-0.035
7.932,-0.180,-0.040
7.934,-0.235,-0.045
7.936,-0.185,-0.050
7.938,-0.220,-0.055
7.940,-0.310,-0.060
7.942,-0.355,-0.060
7.944,-0.305,-0.060
7.946,-0.305,-0.055
7.948,-0.315,-0.055
7.950,-0.255,-0.050
7.952,-0.215,-0.045
7.954,-0.170,-0.040
7.956,-0.190,-0.040
7.958,-0.260,-0.040
7.960,-0.250,-0.045
7.962,-0.255,-0.050
7.964,-0.320,-0.055
7.966,-0.365,-0.060
7.968,-0.310,-0.065
7.970,-0.255,-0.065
7.972,-0.205,-0.070
7.974,-0.185,-0.065
7.976,-0.195,-0.065
7.978,-0.255,-0.060
7.980,-0.255,-0.055
7.982,-0.295,-0.050
7.984,-0.345,-0.045
7.986,-0.305,-0.045
7.988,-0.300,-0.045
7.990,-0.245,-0.045
7.992,-0.160,-0.045
7.994,-0.165,-0.045
7.996,-0.160,-0.045
7.998,-0.230,-0.045
8.000,-0.300,-0.045
8.002,-0.330,-0.045
8.004,-0.335,-0.045
8.006,-0.295,-0.045
8.008,-0.250,-0.045
8.010,-0.230,-0.045
8.012,-0.205,-0.045
8.014,-0.210,-0.040
8.016,-0.185,-0.045
8.018,-0.255,-0.045
8.020,-0.295,-0.050
8.022,-0.335,-0.055
8.024,-0.340,-0.060
8.026,-0.385,-0.065
8.028,-0.310,-0.070
8.030,-0.195,-0.070
8.032,-0.170,-0.070
8.034,-0.195,-0.065
8.036,-0.180,-0.055
8.038,-0.225,-0.050
8.040,-0.270,-0.045
8.042,-0.335,-0.040
8.044,-0.355,-0.040
8.046,-0.305,-0.045
8.048,-0.270,-0.050
8.050,-0.260,-0.055
8.052,-0.165,-0.060
8.054,-0.175,-0.060
8.056,-0.185,-0.060
8.058,-0.215,-0.060
8.060,-0.315,-0.060
8.062,-0.370,-0.055
8.064,-0.305,-0.050
8.066,-0.330,-0.050
8.068,-0.255,-0.055
8.070,-0.215,-0.060
8.072,-0.245,-0.065
8.074,-0.210,-0.070
8.076,-0.190,-0.075
8.078,-0.235,-0.075
8.080,-0.285,-0.075
8.082,-0.320,-0.070
8.084,-0.300,-0.065
8.086,-0.300,-0.055
8.088,-0.275,-0.045
8.090,-0.250,-0.040
8.092,-0.180,-0.035
8.094,-0.165,-0.030
8.096,-0.190,-0.025
8.098,-0.210,-0.025
8.100,-0.240,-0.025
8.102,-0.275,-0.020
8.104,-0.295,-0.020
8.106,-0.270,-0.020
8.108,-0.270,-0.020
8.110,-0.185,-0.020
8.112,-0.105,-0.020
8.114,-0.160,-0.015
8.116,-0.155,-0.015
8.118,-0.155,-0.015
8.120,-0.230,-0.010
8.122,-0.260,-0.005
8.124,-0.270,0.000
8.126,-0.235,0.005
8.128,-0.165,0.010
8.130,-0.125,0.015
8.132,-0.155,0.025
8.134,-0.105,0.030
8.136,-0.170,0.030
8.138,-0.130,0.035
8.140,-0.190,0.040
8.142,-0.200,0.045
8.144,-0.155,0.050
8.146,-0.115,0.055
8.148,-0.155,0.065
8.150,-0.100,0.070
8.152,-0.065,0.075
8.154,-0.035,0.080
8.156,-0.030,0.085
8.158,-0.105,0.085
8.160,-0.160,0.085
8.162,-0.180,0.085
8.164,-0.150,0.075
8.166,-0.145,0.070
8.168,-0.180,0.060
8.170,-0.130,0.055
8.172,-0.105,0.045
8.174,-0.065,0.040
8.176,-0.075,0.035
8.178,-0.150,0.035
8.180,-0.150,0.035
8.182,-0.220,0.030
8.184,-0.285,0.030
8.186,-0.230,0.025
8.188,-0.180,0.015
8.190,-0.160,0.005
8.192,-0.140,-0.010
8.194,-0.165,-0.025
8.196,-0.180,-0.040
8.198,-0.200,-0.050
8.200,-0.280,-0.060
8.202,-0.300,-0.065
8.204,-0.305,-0.070
8.206,-0.345,-0.070
8.208,-0.265,-0.070
8.210,-0.200,-0.065
8.212,-0.200,-0.065
8.214,-0.185,-0.065
8.216,-0.185,-0.065
8.218,-0.245,-0.065
8.220,-0.310,-0.065
8.222,-0.295,-0.060
8.224,-0.325,-0.060
8.226,-0.285,-0.055
8.228,-0.305,-0.055
8.230,-0.195,-0.060
8.232,-0.170,-0.060
8.234,-0.165,-0.065
8.236,-0.275,-0.075
8.238,-0.260,-0.080
8.240,-0.290,-0.090
8.242,-0.355,-0.095
8.244,-0.320,-0.100
8.246,-0.305,-0.105
8.248,-0.365,-0.110
8.250,-0.265,-0.115
8.252,-0.270,-0.125
8.254,-0.275,-0.140
8.256,-0.305,-0.155
8.258,-0.370,-0.170
8.260,-0.455,-0.185
8.262,-0.460,-0.190
8.264,-0.460,-0.185
8.266,-0.340,-0.160
8.268,-0.325,-0.110
8.270,-0.215,-0.040
8.272,-0.050,0.055
8.274,0.060,0.170
8.276,0.175,0.300
8.278,0.240,0.435
8.280,0.335,0.575
8.282,0.570,0.710
8.284,0.625,0.820
8.286,0.730,0.910
8.288,0.855,0.970
8.290,0.845,0.990
8.292,0.890,0.970
8.294,0.835,0.915
8.296,0.675,0.825
8.298,0.475,0.710
8.300,0.315,0.580
8.302,0.205,0.445
8.304,0.070,0.315
8.306,-0.085,0.195
8.308,-0.155,0.095
8.310,-0.155,0.020
8.312,-0.170,-0.040
8.314,-0.180,-0.080
8.316,-0.235,-0.110
8.318,-0.325,-0.130
8.320,-0.445,-0.145
8.322,-0.420,-0.155
8.324,-0.420,-0.165
8.326,-0.390,-0.170
8.328,-0.395,-0.180
8.330,-0.290,-0.180
8.332,-0.250,-0.180
8.334,-0.280,-0.175
8.336,-0.310,-0.165
8.338,-0.305,-0.150
8.340,-0.320,-0.135
8.342,-0.380,-0.120
8.344,-0.345,-0.105
8.346,-0.360,-0.100
8.348,-0.255,-0.095
8.350,-0.225,-0.095
8.352,-0.225,-0.100
8.354,-0.230,-0.105
8.356,-0.275,-0.115
8.358,-0.350,-0.120
8.360,-0.365,-0.125
8.362,-0.370,-0.125
8.364,-0.335,-0.125
8.366,-0.330,-0.120
8.368,-0.220,-0.110
8.370,-0.190,-0.105
8.372,-0.235,-0.100
8.374,-0.195,-0.090
8.376,-0.250,-0.090
8.378,-0.340,-0.085
8.380,-0.340,-0.090
8.382,-0.335,-0.090
8.384,-0.260,-0.090
8.386,-0.260,-0.095
8.388,-0.195,-0.095
8.390,-0.195,-0.090
8.392,-0.205,-0.085
8.394,-0.215,-0.080
8.396,-0.225,-0.070
8.398,-0.255,-0.065
8.400,-0.290,-0.060
8.402,-0.305,-0.060
8.404,-0.280,-0.060
8.406,-0.250,-0.065
8.408,-0.215,-0.070
8.410,-0.170,-0.070
8.412,-0.140,-0.075
8.414,-0.140,-0.070
8.416,-0.225,-0.065
8.418,-0.270,-0.055
8.420,-0.270,-0.045
8.422,-0.290,-0.035
8.424,-0.205,-0.030
8.426,-0.180,-0.025
8.428,-0.195,-0.030
8.430,-0.190,-0.035
8.432,-0.140,-0.045
8.434,-0.240,-0.055
8.436,-0.215,-0.065
8.438,-0.260,-0.070
8.440,-0.270,-0.075
8.442,-0.280,-0.070
8.444,-0.270,-0.060
8.446,-0.230,-0.050
8.448,-0.160,-0.040
8.450,-0.115,-0.030
8.452,-0.110,-0.015
8.454,-0.165,-0.010
8.456,-0.175,0.000
8.458,-0.220,0.005
8.460,-0.220,0.010
8.462,-0.215,0.015
8.464,-0.160,0.020
8.466,-0.135,0.025
8.468,-0.115,0.030
8.470,-0.130,0.035
8.472,-0.065,0.040
8.474,-0.030,0.045
8.476,-0.120,0.050
8.478,-0.165,0.055
8.480,-0.210,0.065
8.482,-0.155,0.070
8.484,-0.090,0.075
8.486,-0.100,0.085
8.488,0.010,0.090
8.490,-0.015,0.095
8.492,0.015,0.100
8.494,-0.040,0.105
8.496,-0.060,0.110
8.498,-0.075,0.120
8.500,-0.095,0.130
8.502,-0.100,0.140
8.504,-0.045,0.150
8.506,-0.015,0.160
8.508,0.015,0.165
8.510,0.030,0.170
8.512,0.090,0.175
8.514,0.055,0.175
8.516,0.045,0.175
8.518,-0.030,0.175
8.520,-0.035,0.180
8.522,-0.020,0.185
8.524,0.005,0.190
8.526,0.075,0.195
8.528,0.130,0.205
8.530,0.110,0.205
8.532,0.110,0.210
8.534,0.080,0.205
8.536,-0.035,0.205
8.538,-0.070,0.200
8.540,-0.080,0.195
8.542,-0.005,0.195
8.544,0.040,0.195
8.546,0.055,0.200
8.548,0.085,0.200
8.550,0.120,0.205
8.552,0.105,0.200
8.554,0.080,0.200
8.556,0.030,0.190
8.558,-0.065,0.175
8.560,-0.120,0.160
8.562,-0.125,0.145
8.564,-0.035,0.130
8.566,-0.020,0.120
8.568,0.030,0.110
8.570,0.045,0.105
8.572,0.015,0.100
8.574,-0.060,0.095
8.576,-0.100,0.095
8.578,-0.145,0.090
8.580,-0.180,0.080
8.582,-0.165,0.075
8.584,-0.135,0.065
8.586,-0.095,0.050
8.588,-0.070,0.040
8.590,-0.090,0.025
8.592,-0.100,0.015
8.594,-0.135,0.000
8.596,-0.185,-0.010
8.598,-0.220,-0.020
8.600,-0.215,-0.030
8.602,-0.235,-0.035
8.604,-0.270,-0.035
8.606,-0.160,-0.035
8.608,-0.120,-0.035
8.610,-0.075,-0.030
8.612,-0.095,-0.030
8.614,-0.150,-0.030
8.616,-0.245,-0.035
8.618,-0.285,-0.040
8.620,-0.285,-0.050
8.622,-0.255,-0.060
8.624,-0.210,-0.070
8.626,-0.230,-0.075
8.628,-0.185,-0.080
8.630,-0.165,-0.080
8.632,-0.135,-0.080
8.634,-0.175,-0.075
8.636,-0.200,-0.065
8.638,-0.270,-0.060
8.640,-0.320,-0.055
8.642,-0.275,-0.050
8.644,-0.265,-0.050
8.646,-0.180,-0.050
8.648,-0.135,-0.055
8.650,-0.110,-0.055
8.652,-0.185,-0.055
8.654,-0.145,-0.060
8.656,-0.230,-0.060
8.658,-0.250,-0.060
8.660,-0.255,-0.065
8.662,-0.285,-0.065
8.664,-0.245,-0.065
8.666,-0.170,-0.070
8.668,-0.170,-0.070
8.670,-0.120,-0.070
8.672,-0.120,-0.070
8.674,-0.160,-0.070
8.676,-0.235,-0.070
8.678,-0.270,-0.070
8.680,-0.280,-0.070
8.682,-0.280,-0.070
8.684,-0.245,-0.070
8.686,-0.180,-0.065
8.688,-0.140,-0.065
8.690,-0.110,-0.055
8.692,-0.130,-0.050
8.694,-0.105,-0.040
8.696,-0.230,-0.035
8.698,-0.310,-0.030
8.700,-0.255,-0.030
8.702,-0.240,-0.035
8.704,-0.200,-0.040
8.706,-0.150,-0.050
8.708,-0.195,-0.060
8.710,-0.125,-0.065
8.712,-0.125,-0.070
8.714,-0.170,-0.070
8.716,-0.265,-0.070
8.718,-0.235,-0.065
8.720,-0.270,-0.060
8.722,-0.300,-0.055
8.724,-0.225,-0.055
8.726,-0.210,-0.060
8.728,-0.120,-0.065
8.730,-0.125,-0.070
8.732,-0.155,-0.075
8.734,-0.200,-0.080
8.736,-0.255,-0.080
8.738,-0.255,-0.075
8.740,-0.250,-0.070
8.742,-0.225,-0.060
8.744,-0.200,-0.055
8.746,-0.140,-0.050
8.748,-0.150,-0.050
8.750,-0.145,-0.050
8.752,-0.110,-0.050
8.754,-0.160,-0.050
8.756,-0.225,-0.050
8.758,-0.240,-0.045
8.760,-0.260,-0.040
8.762,-0.220,-0.030
8.764,-0.180,-0.025
8.766,-0.135,-0.020
8.768,-0.105,-0.020
8.770,-0.115,-0.025
8.772,-0.145,-0.035
8.774,-0.160,-0.045
8.776,-0.230,-0.055
8.778,-0.265,-0.060
8.780,-0.250,-0.065
8.782,-0.215,-0.065
8.784,-0.190,-0.060
8.786,-0.115,-0.055
8.788,-0.120,-0.045
8.790,-0.145,-0.045
8.792,-0.200,-0.045
8.794,-0.190,-0.050
8.796,-0.235,-0.060
8.798,-0.205,-0.070
8.800,-0.295,-0.080
8.802,-0.230,-0.085
8.804,-0.195,-0.090
8.806,-0.170,-0.085
8.808,-0.145,-0.080
8.810,-0.100,-0.070
8.812,-0.180,-0.065
8.814,-0.190,-0.055
8.816,-0.230,-0.055
8.818,-0.235,-0.055
8.820,-0.260,-0.060
8.822,-0.265,-0.070
8.824,-0.230,-0.080
8.826,-0.165,-0.085
8.828,-0.155,-0.090
8.830,-0.135,-0.090
8.832,-0.145,-0.085
8.834,-0.200,-0.080
8.836,-0.255,-0.070
8.838,-0.245,-0.065
8.840,-0.245,-0.055
8.842,-0.225,-0.055
8.844,-0.210,-0.050
8.846,-0.130,-0.055
8.848,-0.105,-0.055
8.850,-0.115,-0.060
8.852,-0.180,-0.065
8.854,-0.230,-0.065
8.856,-0.260,-0.070
8.858,-0.265,-0.070
8.860,-0.260,-0.070
8.862,-0.215,-0.075
8.864,-0.180,-0.075
8.866,-0.145,-0.080
8.868,-0.140,-0.085
8.870,-0.150,-0.085
8.872,-0.150,-0.090
8.874,-0.230,-0.090
8.876,-0.250,-0.085
8.878,-0.260,-0.080
8.880,-0.275,-0.075
8.882,-0.200,-0.070
8.884,-0.165,-0.070
8.886,-0.165,-0.065
8.888,-0.145,-0.070
8.890,-0.150,-0.075
8.892,-0.180,-0.080
8.894,-0.205,-0.090
8.896,-0.300,-0.095
8.898,-0.260,-0.100
8.900,-0.230,-0.105
8.902,-0.245,-0.105
8.904,-0.180,-0.105
8.906,-0.185,-0.100
8.908,-0.185,-0.100
8.910,-0.140,-0.095
8.912,-0.195,-0.095
8.914,-0.225,-0.095
8.916,-0.260,-0.095
8.918,-0.290,-0.095
8.920,-0.285,-0.095
8.922,-0.260,-0.095
8.924,-0.170,-0.095
8.926,-0.110,-0.090
8.928,-0.090,-0.085
8.930,-0.150,-0.080
8.932,-0.180,-0.080
8.934,-0.230,-0.075
8.936,-0.230,-0.075
8.938,-0.285,-0.075
8.940,-0.245,-0.075
8.942,-0.220,-0.075
8.944,-0.165,-0.080
8.946,-0.125,-0.080
8.948,-0.155,-0.075
8.950,-0.135,-0.075
8.952,-0.140,-0.070
8.954,-0.190,-0.065
8.956,-0.275,-0.065
8.958,-0.210,-0.060
8.960,-0.230,-0.060
8.962,-0.190,-0.055
8.964,-0.175,-0.055
8.966,-0.155,-0.055
8.968,-0.090,-0.055
8.970,-0.110,-0.055
8.972,-0.120,-0.055
8.974,-0.160,-0.055
8.976,-0.235,-0.050
8.978,-0.260,-0.055
8.980,-0.205,-0.055
8.982,-0.155,-0.055
8.984,-0.170,-0.060
8.986,-0.090,-0.060
8.988,-0.095,-0.060
8.990,-0.115,-0.055
8.992,-0.125,-0.050
8.994,-0.190,-0.040
8.996,-0.175,-0.035
8.998,-0.215,-0.025
9.000,-0.220,-0.015
9.002,-0.175,-0.015
9.004,-0.070,-0.010
9.006,-0.050,-0.010
9.008,-0.025,-0.010
9.010,-0.010,-0.010
9.012,-0.065,-0.005
9.014,-0.165,0.000
9.016,-0.200,0.010
9.018,-0.185,0.020
9.020,-0.125,0.035
9.022,-0.085,0.045
9.024,0.020,0.055
9.026,0.045,0.060
9.028,0.035,0.065
9.030,-0.025,0.065
9.032,-0.040,0.060
9.034,-0.110,0.055
9.036,-0.130,0.055
9.038,-0.120,0.050
9.040,-0.080,0.050
9.042,-0.005,0.050
9.044,0.005,0.050
9.046,0.040,0.050
9.048,0.060,0.050
9.050,-0.045,0.045
9.052,-0.100,0.045
9.054,-0.115,0.045
9.056,-0.160,0.045
9.058,-0.145,0.045
9.060,-0.045,0.050
9.062,-0.005,0.050
9.064,-0.005,0.055
9.066,-0.005,0.050
9.068,-0.045,0.040
9.070,-0.050,0.030
9.072,-0.075,0.010
9.074,-0.165,-0.005
9.076,-0.250,-0.025
9.078,-0.200,-0.040
9.080,-0.165,-0.050
9.082,-0.140,-0.055
9.084,-0.090,-0.055
9.086,-0.075,-0.050
9.088,-0.120,-0.045
9.090,-0.150,-0.040
9.092,-0.140,-0.040
9.094,-0.205,-0.040
9.096,-0.230,-0.045
9.098,-0.230,-0.055
9.100,-0.210,-0.065
9.102,-0.185,-0.070
9.104,-0.125,-0.080
9.106,-0.135,-0.080
9.108,-0.125,-0.085
9.110,-0.110,-0.080
9.112,-0.170,-0.080
9.114,-0.240,-0.080
9.116,-0.235,-0.080
9.118,-0.240,-0.080
9.120,-0.200,-0.080
9.122,-0.190,-0.080
9.124,-0.130,-0.080
9.126,-0.120,-0.080
9.128,-0.100,-0.080
9.130,-0.140,-0.085
9.132,-0.175,-0.090
9.134,-0.265,-0.100
9.136,-0.310,-0.120
9.138,-0.340,-0.145
9.140,-0.345,-0.170
9.142,-0.300,-0.195
9.144,-0.285,-0.210
9.146,-0.235,-0.215
9.148,-0.205,-0.200
9.150,-0.190,-0.165
9.152,-0.170,-0.100
9.154,-0.185,-0.015
9.156,-0.065,0.095
9.158,0.030,0.220
9.160,0.200,0.355
9.162,0.390,0.490
9.164,0.610,0.620
9.166,0.765,0.745
9.168,0.885,0.845
9.170,0.985,0.925
9.172,0.945,0.975
9.174,0.820,0.990
9.176,0.820,0.970
9.178,0.760,0.910
9.180,0.675,0.820
9.182,0.570,0.700
9.184,0.475,0.560
9.186,0.390,0.410
9.188,0.230,0.265
9.190,0.015,0.135
9.192,-0.125,0.030
9.194,-0.210,-0.045
9.196,-0.250,-0.090
9.198,-0.265,-0.115
9.200,-0.265,-0.120
9.202,-0.215,-0.120
9.204,-0.180,-0.115
9.206,-0.160,-0.120
9.208,-0.180,-0.125
9.210,-0.225,-0.140
9.212,-0.270,-0.155
9.214,-0.355,-0.165
9.216,-0.365,-0.170
9.218,-0.290,-0.165
9.220,-0.230,-0.155
9.222,-0.195,-0.135
9.224,-0.110,-0.115
9.226,-0.120,-0.100
9.228,-0.170,-0.090
9.230,-0.190,-0.085
9.232,-0.220,-0.085
9.234,-0.210,-0.090
9.236,-0.230,-0.095
9.238,-0.225,-0.100
9.240,-0.240,-0.105
9.242,-0.185,-0.105
9.244,-0.135,-0.100
9.246,-0.145,-0.100
9.248,-0.145,-0.095
9.250,-0.170,-0.095
9.252,-0.180,-0.095
9.254,-0.195,-0.095
9.256,-0.230,-0.095
9.258,-0.290,-0.090
9.260,-0.230,-0.085
9.262,-0.130,-0.075
9.264,-0.110,-0.070
9.266,-0.085,-0.065
9.268,-0.095,-0.065
9.270,-0.130,-0.070
9.272,-0.220,-0.075
9.274,-0.220,-0.090
9.276,-0.290,-0.100
9.278,-0.245,-0.110
9.280,-0.260,-0.110
9.282,-0.175,-0.110
9.284,-0.085,-0.100
9.286,-0.100,-0.085
9.288,-0.080,-0.065
9.290,-0.090,-0.050
9.292,-0.175,-0.035
9.294,-0.175,-0.030
9.296,-0.205,-0.025
9.298,-0.205,-0.030
9.300,-0.155,-0.040
9.302,-0.110,-0.045
9.304,-0.095,-0.055
9.306,-0.065,-0.060
9.308,-0.135,-0.060
9.310,-0.090,-0.055
9.312,-0.150,-0.050
9.314,-0.210,-0.040
9.316,-0.205,-0.035
9.318,-0.135,-0.030
9.320,-0.160,-0.025
9.322,-0.090,-0.025
9.324,-0.055,-0.030
9.326,-0.035,-0.035
9.328,-0.035,-0.040
9.330,-0.140,-0.045
9.332,-0.160,-0.050
9.334,-0.170,-0.050
9.336,-0.170,-0.045
9.338,-0.210,-0.040
9.340,-0.155,-0.030
9.342,-0.050,-0.020
9.344,-0.040,-0.010
9.346,0.000,0.000
9.348,-0.030,0.010
9.350,-0.070,0.015
9.352,-0.160,0.020
9.354,-0.140,0.020
9.356,-0.150,0.020
9.358,-0.075,0.020
9.360,-0.075,0.020
9.362,0.005,0.025
9.364,-0.005,0.030
9.366,0.010,0.040
9.368,0.030,0.055
9.370,0.015,0.070
9.372,-0.045,0.085
9.374,-0.035,0.095
9.376,-0.065,0.105
9.378,-0.020,0.115
9.380,0.015,0.115
9.382,0.080,0.120
9.384,0.060,0.120
9.386,0.130,0.120
9.388,0.080,0.125
9.390,0.065,0.130
9.392,0.005,0.140
9.394,0.005,0.150
9.396,0.035,0.155
9.398,0.030,0.165
9.400,0.055,0.170
9.402,0.090,0.170
9.404,0.150,0.170
9.406,0.200,0.170
9.408,0.135,0.170
9.410,0.130,0.170
9.412,0.055,0.180
9.414,0.025,0.185
9.416,0.025,0.200
9.418,0.085,0.210
9.420,0.155,0.215
9.422,0.185,0.220
9.424,0.205,0.220
9.426,0.235,0.220
9.428,0.150,0.210
9.430,0.085,0.205
9.432,-0.005,0.195
9.434,0.030,0.190
9.436,0.025,0.180
9.438,0.065,0.175
9.440,0.110,0.165
9.442,0.170,0.160
9.444,0.135,0.150
9.446,0.105,0.140
9.448,0.065,0.130
9.450,-0.020,0.115
9.452,-0.030,0.105
9.454,-0.075,0.095
9.456,-0.065,0.090
9.458,-0.075,0.080
9.460,0.000,0.080
9.462,0.050,0.075
9.464,0.085,0.070
9.466,0.075,0.065
9.468,0.010,0.055
9.470,-0.100,0.045
9.472,-0.135,0.030
9.474,-0.130,0.015
9.476,-0.170,0.000
9.478,-0.135,-0.015
9.480,-0.070,-0.030
9.482,-0.055,-0.045
9.484,-0.085,-0.050
9.486,-0.090,-0.055
9.488,-0.105,-0.055
9.490,-0.165,-0.050
9.492,-0.160,-0.045
9.494,-0.170,-0.035
9.496,-0.165,-0.030
9.498,-0.150,-0.025
9.500,-0.125,-0.025
9.502,-0.085,-0.030
9.504,-0.025,-0.035
9.506,-0.070,-0.045
9.508,-0.100,-0.055
9.510,-0.180,-0.060
9.512,-0.215,-0.065
9.514,-0.235,-0.065
9.516,-0.205,-0.060
9.518,-0.140,-0.055
9.520,-0.070,-0.050
9.522,-0.065,-0.045
9.524,-0.065,-0.045
9.526,-0.075,-0.045
9.528,-0.095,-0.050
9.530,-0.175,-0.060
9.532,-0.205,-0.070
9.534,-0.250,-0.075
9.536,-0.205,-0.080
9.538,-0.155,-0.075
9.540,-0.130,-0.075
9.542,-0.110,-0.070
9.544,-0.080,-0.060
9.546,-0.075,-0.060
9.548,-0.115,-0.055
9.550,-0.150,-0.060
9.552,-0.175,-0.060
9.554,-0.225,-0.070
9.556,-0.205,-0.075
9.558,-0.175,-0.080
9.560,-0.100,-0.080
9.562,-0.065,-0.075
9.564,-0.055,-0.070
9.566,-0.110,-0.060
9.568,-0.135,-0.050
9.570,-0.140,-0.040
9.572,-0.185,-0.035
9.574,-0.145,-0.035
9.576,-0.175,-0.040
9.578,-0.215,-0.045
9.580,-0.100,-0.055
9.582,-0.090,-0.065
9.584,-0.095,-0.075
9.586,-0.110,-0.075
9.588,-0.120,-0.075
9.590,-0.170,-0.075
9.592,-0.200,-0.065
9.594,-0.175,-0.055
9.596,-0.170,-0.045
9.598,-0.185,-0.035
9.600,-0.065,-0.030
9.602,-0.085,-0.030
9.604,-0.045,-0.030
9.606,-0.090,-0.035
9.608,-0.110,-0.040
9.610,-0.150,-0.050
9.612,-0.180,-0.055
9.614,-0.220,-0.060
9.616,-0.185,-0.060
9.618,-0.185,-0.060
9.620,-0.100,-0.060
9.622,-0.090,-0.060
9.624,-0.065,-0.060
9.626,-0.070,-0.060
9.628,-0.130,-0.065
9.630,-0.165,-0.065
9.632,-0.195,-0.070
9.634,-0.190,-0.070
9.636,-0.195,-0.070
9.638,-0.175,-0.065
9.640,-0.085,-0.060
9.642,-0.060,-0.050
9.644,-0.055,-0.040
9.646,-0.090,-0.035
9.648,-0.120,-0.030
9.650,-0.160,-0.025
9.652,-0.205,-0.025
9.654,-0.155,-0.030
9.656,-0.140,-0.035
9.658,-0.100,-0.045
9.660,-0.110,-0.050
9.662,-0.085,-0.055
9.664,-0.055,-0.055
9.666,-0.075,-0.055
9.668,-0.140,-0.055
9.670,-0.195,-0.050
9.672,-0.235,-0.050
9.674,-0.175,-0.045
9.676,-0.185,-0.045
9.678,-0.140,-0.045
9.680,-0.060,-0.045
9.682,-0.070,-0.045
9.684,-0.075,-0.045
9.686,-0.105,-0.045
9.688,-0.135,-0.045
9.690,-0.185,-0.050
9.692,-0.210,-0.050
9.694,-0.190,-0.055
9.696,-0.180,-0.060
9.698,-0.175,-0.065
9.700,-0.100,-0.070
9.702,-0.085,-0.075
9.704,-0.120,-0.080
9.706,-0.140,-0.085
9.708,-0.105,-0.085
9.710,-0.220,-0.080
9.712,-0.240,-0.080
9.714,-0.200,-0.075
9.716,-0.225,-0.070
9.718,-0.110,-0.070
9.720,-0.070,-0.065
9.722,-0.085,-0.065
9.724,-0.075,-0.065
9.726,-0.100,-0.065
9.728,-0.160,-0.065
9.730,-0.245,-0.065
9.732,-0.230,-0.060
9.734,-0.175,-0.060
9.736,-0.140,-0.055
9.738,-0.135,-0.055
9.740,-0.090,-0.055
9.742,-0.090,-0.055
9.744,-0.065,-0.055
9.746,-0.120,-0.055
9.748,-0.150,-0.060
9.750,-0.205,-0.060
9.752,-0.180,-0.065
9.754,-0.215,-0.065
9.756,-0.200,-0.065
9.758,-0.160,-0.065
9.760,-0.065,-0.060
9.762,-0.065,-0.060
9.764,-0.110,-0.055
9.766,-0.145,-0.050
9.768,-0.125,-0.050
9.770,-0.190,-0.050
9.772,-0.215,-0.050
9.774,-0.180,-0.055
9.776,-0.185,-0.060
9.778,-0.150,-0.065
9.780,-0.145,-0.070
9.782,-0.120,-0.075
9.784,-0.065,-0.080
9.786,-0.070,-0.080
9.788,-0.150,-0.075
9.790,-0.230,-0.070
9.792,-0.230,-0.065
9.794,-0.190,-0.060
9.796,-0.205,-0.055
9.798,-0.155,-0.055
9.800,-0.050,-0.055
9.802,-0.040,-0.060
9.804,-0.075,-0.065
9.806,-0.170,-0.070
9.808,-0.185,-0.075
9.810,-0.220,-0.080
9.812,-0.205,-0.080
9.814,-0.225,-0.075
9.816,-0.170,-0.075
9.818,-0.100,-0.070
9.820,-0.060,-0.065
9.822,-0.075,-0.060
9.824,-0.095,-0.060
9.826,-0.105,-0.060
9.828,-0.200,-0.055
9.830,-0.180,-0.055
9.832,-0.220,-0.055
9.834,-0.175,-0.050
9.836,-0.170,-0.050
9.838,-0.130,-0.050
9.840,-0.100,-0.050
9.842,-0.080,-0.050
9.844,-0.070,-0.050
9.846,-0.090,-0.055
9.848,-0.160,-0.055
9.850,-0.195,-0.055
9.852,-0.170,-0.050
9.854,-0.220,-0.045
9.856,-0.120,-0.040
9.858,-0.120,-0.035
9.860,-0.050,-0.030
9.862,-0.055,-0.025
9.864,-0.100,-0.025
9.866,-0.145,-0.030
9.868,-0.125,-0.035
9.870,-0.160,-0.040
9.872,-0.160,-0.040
9.874,-0.190,-0.040
9.876,-0.140,-0.040
9.878,-0.080,-0.035
9.880,-0.055,-0.025
9.882,-0.025,-0.015
9.884,-0.030,-0.005
9.886,-0.080,0.000
9.888,-0.140,0.005
9.890,-0.130,0.010
9.892,-0.115,0.010
9.894,-0.075,0.010
9.896,-0.110,0.010
9.898,-0.050,0.015
9.900,0.005,0.025
9.902,0.070,0.035
9.904,0.025,0.045
9.906,-0.020,0.055
9.908,-0.080,0.070
9.910,-0.100,0.080
9.912,-0.115,0.090
9.914,0.000,0.095
9.916,0.030,0.100
9.918,0.035,0.105
9.920,0.035,0.105
9.922,0.100,0.105
9.924,0.120,0.100
9.926,0.025,0.095
9.928,-0.075,0.090
9.930,-0.060,0.080
9.932,-0.105,0.070
9.934,-0.115,0.055
9.936,-0.060,0.045
9.938,0.030,0.040
9.940,0.005,0.035
9.942,0.000,0.035
9.944,-0.015,0.035
9.946,-0.005,0.035
9.948,-0.065,0.035
9.950,-0.140,0.035
9.952,-0.180,0.025
9.954,-0.170,0.015
9.956,-0.140,0.000
9.958,-0.070,-0.015
9.960,-0.060,-0.030
9.962,-0.050,-0.040
9.964,-0.055,-0.050
9.966,-0.120,-0.055
9.968,-0.175,-0.055
9.970,-0.185,-0.050
9.972,-0.170,-0.050
9.974,-0.200,-0.045
9.976,-0.160,-0.040
9.978,-0.095,-0.040
9.980,-0.080,-0.040
9.982,-0.085,-0.045
9.984,-0.115,-0.045
9.986,-0.120,-0.045
9.988,-0.170,-0.045
9.990,-0.175,-0.045
9.992,-0.205,-0.040
9.994,-0.190,-0.035
9.996,-0.130,-0.035
9.998,-0.070,-0.035
