'Elapsed time','ECG I','ECG I filtered'
'seconds','mV','mV'
0.000,0.175,0.155
0.002,0.310,0.115
0.004,0.240,0.080
0.006,0.075,0.045
0.008,-0.145,0.020
0.010,0.025,-0.005
0.012,0.125,-0.025
0.014,-0.255,-0.040
0.016,-0.085,-0.050
0.018,0.055,-0.060
0.020,0.060,-0.070
0.022,-0.050,-0.075
0.024,-0.010,-0.080
0.026,-0.045,-0.085
0.028,-0.090,-0.080
0.030,-0.175,-0.070
0.032,-0.100,-0.050
0.034,-0.090,-0.030
0.036,-0.025,0.000
0.038,-0.025,0.025
0.040,0.140,0.045
0.042,0.365,0.050
0.044,0.280,0.045
0.046,0.030,0.025
0.048,-0.160,-0.005
0.050,-0.250,-0.040
0.052,-0.230,-0.075
0.054,-0.165,-0.105
0.056,0.000,-0.125
0.058,0.075,-0.130
0.060,0.015,-0.120
0.062,0.005,-0.100
0.064,0.020,-0.075
0.066,-0.100,-0.045
0.068,-0.125,-0.025
0.070,-0.165,-0.010
0.072,-0.055,0.000
0.074,0.040,0.000
0.076,0.105,-0.010
0.078,0.045,-0.025
0.080,-0.070,-0.040
0.082,0.070,-0.055
0.084,0.080,-0.060
0.086,-0.015,-0.060
0.088,-0.130,-0.050
0.090,-0.295,-0.030
0.092,-0.155,0.000
0.094,0.050,0.035
0.096,0.225,0.070
0.098,0.215,0.105
0.100,0.315,0.125
0.102,0.255,0.130
0.104,0.155,0.120
0.106,0.035,0.085
0.108,-0.080,0.030
0.110,-0.170,-0.040
0.112,-0.195,-0.120
0.114,-0.330,-0.210
0.116,-0.285,-0.290
0.118,-0.215,-0.365
0.120,-0.305,-0.430
0.122,-0.390,-0.485
0.124,-0.470,-0.520
0.126,-0.575,-0.545
0.128,-0.630,-0.555
0.130,-0.725,-0.555
0.132,-0.720,-0.535
0.134,-0.530,-0.505
0.136,-0.420,-0.455
0.138,-0.240,-0.400
0.140,-0.150,-0.335
0.142,-0.030,-0.265
0.144,-0.070,-0.205
0.146,-0.235,-0.150
0.148,-0.220,-0.115
0.150,-0.230,-0.090
0.152,-0.120,-0.085
0.154,-0.180,-0.085
0.156,-0.120,-0.090
0.158,0.010,-0.090
0.160,0.220,-0.080
0.162,0.220,-0.060
0.164,0.020,-0.030
0.166,-0.080,0.005
0.168,-0.355,0.040
0.170,0.035,0.065
0.172,0.045,0.075
0.174,0.050,0.070
0.176,0.165,0.045
0.178,0.165,0.015
0.180,0.120,-0.020
0.182,-0.055,-0.050
0.184,-0.070,-0.065
0.186,-0.105,-0.065
0.188,-0.065,-0.050
0.190,-0.100,-0.025
0.192,-0.020,0.005
0.194,-0.030,0.030
0.196,0.105,0.050
0.198,0.125,0.060
0.200,0.285,0.060
0.202,0.145,0.050
0.204,-0.010,0.035
0.206,-0.050,0.020
0.208,-0.050,0.010
0.210,-0.025,0.005
0.212,-0.050,0.010
0.214,0.010,0.020
0.216,0.100,0.030
0.218,0.125,0.040
0.220,0.165,0.045
0.222,0.175,0.050
0.224,0.055,0.050
0.226,0.010,0.050
0.228,0.080,0.050
0.230,-0.080,0.050
0.232,-0.160,0.055
0.234,0.000,0.060
0.236,0.260,0.070
0.238,0.210,0.075
0.240,0.260,0.085
0.242,0.160,0.090
0.244,0.130,0.095
0.246,-0.015,0.095
0.248,-0.045,0.095
0.250,-0.065,0.090
0.252,0.060,0.085
0.254,0.130,0.080
0.256,0.360,0.075
0.258,0.065,0.070
0.260,0.200,0.065
0.262,0.125,0.065
0.264,-0.010,0.060
0.266,-0.080,0.055
0.268,0.025,0.055
0.270,0.025,0.055
0.272,0.000,0.060
0.274,0.095,0.070
0.276,0.205,0.085
0.278,0.145,0.105
0.280,0.265,0.130
0.282,0.250,0.160
0.284,0.235,0.190
0.286,0.195,0.215
0.288,0.135,0.235
0.290,0.100,0.240
0.292,0.095,0.235
0.294,0.310,0.220
0.296,0.285,0.200
0.298,0.185,0.180
0.300,0.330,0.160
0.302,0.330,0.150
0.304,0.105,0.155
0.306,0.130,0.165
0.308,-0.030,0.185
0.310,0.135,0.210
0.312,0.195,0.230
0.314,0.330,0.250
0.316,0.340,0.260
0.318,0.325,0.265
0.320,0.415,0.265
0.322,0.315,0.265
0.324,0.230,0.265
0.326,0.235,0.270
0.328,0.210,0.280
0.330,0.090,0.290
0.332,0.185,0.295
0.334,0.415,0.290
0.336,0.515,0.275
0.338,0.495,0.250
0.340,0.225,0.215
0.342,0.125,0.180
0.344,0.045,0.145
0.346,-0.015,0.115
0.348,-0.055,0.100
0.350,-0.010,0.095
0.352,0.195,0.095
0.354,0.210,0.100
0.356,0.230,0.110
0.358,0.110,0.110
0.360,0.215,0.110
0.362,0.175,0.100
0.364,0.065,0.090
0.366,-0.075,0.080
0.368,-0.140,0.075
0.370,-0.030,0.070
0.372,0.175,0.075
0.374,0.165,0.080
0.376,0.205,0.090
0.378,0.170,0.090
0.380,0.120,0.080
0.382,0.050,0.065
0.384,-0.045,0.040
0.386,-0.050,0.010
0.388,-0.130,-0.020
0.390,-0.115,-0.045
0.392,-0.155,-0.060
0.394,0.010,-0.065
0.396,-0.030,-0.060
0.398,0.160,-0.045
0.400,0.120,-0.025
0.402,-0.025,-0.005
0.404,-0.075,0.010
0.406,-0.080,0.020
0.408,-0.100,0.015
0.410,-0.125,0.005
0.412,-0.085,-0.010
0.414,0.175,-0.030
0.416,0.135,-0.050
0.418,-0.040,-0.065
0.420,-0.040,-0.075
0.422,-0.090,-0.075
0.424,-0.155,-0.065
0.426,-0.095,-0.055
0.428,-0.145,-0.040
0.430,-0.025,-0.025
0.432,0.005,-0.015
0.434,-0.020,-0.010
0.436,-0.010,-0.010
0.438,0.030,-0.015
0.440,0.180,-0.015
0.442,0.030,-0.020
0.444,-0.095,-0.020
0.446,-0.065,-0.020
0.448,-0.170,-0.020
0.450,-0.030,-0.015
0.452,-0.090,-0.015
0.454,0.015,-0.015
0.456,0.045,-0.020
0.458,0.115,-0.030
0.460,0.050,-0.045
0.462,0.040,-0.055
0.464,-0.080,-0.060
0.466,-0.130,-0.060
0.468,-0.395,-0.060
0.470,-0.180,-0.050
0.472,-0.030,-0.040
0.474,0.160,-0.035
0.476,0.030,-0.040
0.478,0.190,-0.045
0.480,0.160,-0.060
0.482,-0.110,-0.080
0.484,-0.340,-0.100
0.486,-0.360,-0.120
0.488,-0.370,-0.125
0.490,-0.135,-0.120
0.492,0.070,-0.105
0.494,0.160,-0.080
0.496,-0.010,-0.045
0.498,0.080,-0.010
0.500,0.145,0.020
0.502,0.030,0.040
0.504,-0.080,0.050
0.506,-0.080,0.050
0.508,-0.120,0.035
0.510,-0.025,0.015
0.512,0.045,-0.005
0.514,0.090,-0.025
0.516,-0.045,-0.040
0.518,0.090,-0.045
0.520,0.080,-0.040
0.522,0.045,-0.030
0.524,-0.005,-0.015
0.526,-0.240,-0.005
0.528,-0.220,0.005
0.530,0.015,0.005
0.532,0.195,0.000
0.534,0.075,-0.015
0.536,-0.055,-0.035
0.538,0.040,-0.060
0.540,-0.035,-0.080
0.542,-0.045,-0.095
0.544,-0.160,-0.100
0.546,-0.260,-0.100
0.548,-0.285,-0.095
0.550,-0.175,-0.085
0.552,-0.015,-0.070
0.554,0.130,-0.060
0.556,0.015,-0.050
0.558,0.130,-0.045
0.560,0.050,-0.040
0.562,-0.095,-0.040
0.564,-0.125,-0.040
0.566,-0.210,-0.040
0.568,-0.230,-0.035
0.570,-0.100,-0.025
0.572,0.090,-0.020
0.574,0.085,-0.010
0.576,0.145,-0.005
0.578,0.075,0.000
0.580,0.110,-0.005
0.582,-0.005,-0.010
0.584,-0.235,-0.020
0.586,-0.200,-0.035
0.588,-0.110,-0.045
0.590,-0.150,-0.055
0.592,0.090,-0.055
0.594,0.040,-0.050
0.596,0.010,-0.040
0.598,0.150,-0.025
0.600,0.065,-0.010
0.602,-0.190,0.000
0.604,-0.175,0.005
0.606,0.065,0.000
0.608,-0.010,-0.010
0.610,-0.135,-0.025
0.612,-0.050,-0.040
0.614,-0.060,-0.055
0.616,0.015,-0.060
0.618,0.080,-0.065
0.620,0.035,-0.060
0.622,-0.010,-0.055
0.624,-0.010,-0.050
0.626,-0.160,-0.050
0.628,-0.270,-0.050
0.630,-0.155,-0.060
0.632,-0.085,-0.070
0.634,0.000,-0.080
0.636,-0.030,-0.085
0.638,0.085,-0.080
0.640,0.100,-0.070
0.642,-0.065,-0.050
0.644,-0.105,-0.025
0.646,-0.210,0.000
0.648,-0.105,0.015
0.650,0.125,0.025
0.652,-0.015,0.020
0.654,0.050,0.005
0.656,0.045,-0.020
0.658,0.040,-0.040
0.660,-0.030,-0.055
0.662,-0.110,-0.065
0.664,-0.155,-0.060
0.666,-0.170,-0.050
0.668,-0.040,-0.030
0.670,0.000,-0.015
0.672,0.050,-0.005
0.674,0.040,0.000
0.676,0.095,-0.005
0.678,-0.075,-0.025
0.680,0.080,-0.045
0.682,-0.075,-0.070
0.684,-0.110,-0.085
0.686,-0.110,-0.095
0.688,-0.340,-0.095
0.690,-0.195,-0.090
0.692,-0.030,-0.075
0.694,0.080,-0.060
0.696,0.175,-0.045
0.698,0.180,-0.030
0.700,-0.035,-0.015
0.702,-0.125,-0.005
0.704,-0.145,0.000
0.706,-0.115,0.010
0.708,-0.060,0.020
0.710,-0.005,0.030
0.712,0.140,0.040
0.714,0.185,0.050
0.716,0.230,0.050
0.718,0.195,0.050
0.720,-0.045,0.040
0.722,-0.180,0.030
0.724,-0.085,0.020
0.726,-0.045,0.005
0.728,-0.125,0.000
0.730,0.060,0.000
0.732,0.160,0.000
0.734,0.050,0.005
0.736,0.110,0.005
0.738,0.110,0.010
0.740,0.115,0.010
0.742,-0.150,0.005
0.744,-0.150,-0.005
0.746,-0.110,-0.015
0.748,0.015,-0.025
0.750,-0.130,-0.040
0.752,0.045,-0.050
0.754,0.040,-0.060
0.756,0.060,-0.070
0.758,0.035,-0.080
0.760,-0.145,-0.085
0.762,-0.225,-0.090
0.764,-0.200,-0.090
0.766,-0.125,-0.090
0.768,-0.030,-0.085
0.770,-0.190,-0.080
0.772,-0.075,-0.070
0.774,0.025,-0.060
0.776,0.245,-0.055
0.778,0.060,-0.050
0.780,-0.165,-0.040
0.782,-0.155,-0.035
0.784,-0.095,-0.030
0.786,-0.115,-0.025
0.788,-0.110,-0.015
0.790,-0.045,-0.005
0.792,0.025,0.000
0.794,0.050,0.005
0.796,0.135,0.000
0.798,0.070,-0.005
0.800,0.035,-0.020
0.802,-0.015,-0.035
0.804,-0.120,-0.050
0.806,-0.225,-0.055
0.808,-0.180,-0.050
0.810,-0.145,-0.035
0.812,0.120,-0.010
0.814,0.005,0.025
0.816,0.145,0.060
0.818,0.310,0.095
0.820,0.240,0.115
0.822,-0.025,0.125
0.824,0.090,0.120
0.826,0.015,0.100
0.828,-0.090,0.065
0.830,-0.070,0.020
0.832,0.010,-0.035
0.834,-0.025,-0.090
0.836,-0.010,-0.155
0.838,-0.130,-0.225
0.840,-0.330,-0.300
0.842,-0.365,-0.375
0.844,-0.520,-0.445
0.846,-0.665,-0.510
0.848,-0.735,-0.560
0.850,-0.660,-0.590
0.852,-0.595,-0.595
0.854,-0.495,-0.580
0.856,-0.495,-0.540
0.858,-0.315,-0.485
0.860,-0.390,-0.420
0.862,-0.450,-0.355
0.864,-0.285,-0.295
0.866,-0.275,-0.240
0.868,-0.340,-0.195
0.870,-0.240,-0.165
0.872,-0.130,-0.135
0.874,0.070,-0.110
0.876,0.150,-0.085
0.878,0.015,-0.060
0.880,-0.105,-0.035
0.882,-0.055,-0.010
0.884,-0.100,0.005
0.886,-0.130,0.015
0.888,-0.050,0.015
0.890,0.070,0.010
0.892,0.155,0.000
0.894,0.030,-0.015
0.896,0.065,-0.030
0.898,0.085,-0.040
0.900,-0.045,-0.045
0.902,-0.245,-0.045
0.904,-0.175,-0.045
0.906,-0.055,-0.040
0.908,-0.110,-0.040
0.910,-0.050,-0.035
0.912,-0.030,-0.035
0.914,0.000,-0.035
0.916,0.095,-0.030
0.918,0.115,-0.020
0.920,-0.020,-0.010
0.922,0.005,0.005
0.924,-0.110,0.025
0.926,-0.195,0.045
0.928,-0.010,0.060
0.930,0.115,0.070
0.932,0.245,0.075
0.934,0.180,0.075
0.936,0.195,0.070
0.938,0.100,0.065
0.940,-0.015,0.060
0.942,-0.030,0.055
0.944,-0.045,0.050
0.946,-0.060,0.055
0.948,0.065,0.060
0.950,0.095,0.065
0.952,0.030,0.075
0.954,0.125,0.080
0.956,0.265,0.085
0.958,0.230,0.090
0.960,0.105,0.085
0.962,-0.035,0.080
0.964,-0.035,0.075
0.966,0.000,0.065
0.968,-0.080,0.060
0.970,0.095,0.050
0.972,0.015,0.050
0.974,0.175,0.050
0.976,0.180,0.050
0.978,0.120,0.055
0.980,0.095,0.065
0.982,0.090,0.070
0.984,-0.125,0.075
0.986,-0.150,0.080
0.988,0.075,0.080
0.990,0.110,0.080
0.992,0.065,0.075
0.994,0.205,0.075
0.996,0.240,0.075
0.998,0.155,0.075
1.000,0.035,0.080
1.002,-0.010,0.090
1.004,-0.055,0.110
1.006,0.125,0.130
1.008,0.200,0.150
1.010,0.095,0.170
1.012,0.150,0.185
1.014,0.325,0.200
1.016,0.350,0.210
1.018,0.300,0.210
1.020,0.210,0.210
1.022,0.135,0.210
1.024,-0.030,0.210
1.026,0.050,0.210
1.028,0.185,0.225
1.030,0.395,0.240
1.032,0.305,0.265
1.034,0.410,0.285
1.036,0.400,0.310
1.038,0.460,0.325
1.040,0.380,0.325
1.042,0.195,0.320
1.044,0.080,0.300
1.046,0.230,0.270
1.048,0.200,0.235
1.050,0.110,0.200
1.052,0.130,0.170
1.054,0.260,0.145
1.056,0.390,0.130
1.058,0.205,0.125
1.060,0.155,0.130
1.062,-0.010,0.130
1.064,-0.100,0.135
1.066,0.040,0.140
1.068,0.095,0.140
1.070,0.245,0.140
1.072,0.175,0.140
1.074,0.275,0.140
1.076,0.225,0.145
1.078,0.210,0.150
1.080,0.205,0.150
1.082,0.100,0.150
1.084,-0.040,0.145
1.086,-0.065,0.130
1.088,0.070,0.105
1.090,0.030,0.085
1.092,0.095,0.065
1.094,0.240,0.050
1.096,0.220,0.045
1.098,0.110,0.045
1.100,0.005,0.055
1.102,-0.095,0.065
1.104,-0.145,0.075
1.106,0.010,0.080
1.108,0.130,0.070
1.110,0.170,0.060
1.112,0.135,0.040
1.114,0.050,0.025
1.116,0.170,0.010
1.118,-0.085,0.000
1.120,-0.080,0.000
1.122,-0.060,0.000
1.124,-0.130,-0.005
1.126,-0.170,-0.010
1.128,0.025,-0.025
1.130,0.215,-0.045
1.132,0.020,-0.065
1.134,-0.125,-0.085
1.136,-0.130,-0.095
1.138,-0.100,-0.090
1.140,-0.110,-0.075
1.142,-0.040,-0.045
1.144,-0.065,-0.015
1.146,0.015,0.010
1.148,0.040,0.025
1.150,0.005,0.020
1.152,0.030,0.005
1.154,0.035,-0.020
1.156,-0.045,-0.050
1.158,-0.170,-0.070
1.160,-0.210,-0.080
1.162,-0.020,-0.075
1.164,-0.115,-0.060
1.166,-0.040,-0.030
1.168,0.000,-0.005
1.170,0.035,0.015
1.172,0.030,0.020
1.174,0.105,0.015
1.176,0.085,-0.005
1.178,-0.035,-0.035
1.180,-0.165,-0.055
1.182,-0.135,-0.075
1.184,-0.245,-0.075
1.186,-0.290,-0.060
1.188,0.035,-0.040
1.190,0.205,-0.005
1.192,0.140,0.025
1.194,0.120,0.050
1.196,0.115,0.060
1.198,0.055,0.060
1.200,-0.005,0.045
1.202,-0.200,0.020
1.204,-0.295,-0.010
1.206,-0.095,-0.035
1.208,0.150,-0.055
1.210,0.090,-0.065
1.212,0.070,-0.065
1.214,-0.020,-0.060
1.216,-0.125,-0.040
1.218,-0.120,-0.020
1.220,-0.100,0.005
1.222,0.010,0.020
1.224,0.015,0.030
1.226,-0.080,0.030
1.228,-0.035,0.020
1.230,0.205,0.005
1.232,0.260,-0.015
1.234,-0.035,-0.035
1.236,-0.145,-0.050
1.238,-0.150,-0.055
1.240,-0.220,-0.055
1.242,-0.100,-0.040
1.244,0.010,-0.025
1.246,0.045,-0.010
1.248,0.025,0.000
1.250,-0.095,0.005
1.252,0.060,0.000
1.254,0.165,-0.010
1.256,0.010,-0.025
1.258,-0.020,-0.035
1.260,-0.125,-0.040
1.262,-0.210,-0.035
1.264,-0.035,-0.020
1.266,-0.145,0.000
1.268,-0.055,0.025
1.270,0.120,0.050
1.272,0.330,0.065
1.274,0.395,0.065
1.276,0.115,0.055
1.278,-0.115,0.030
1.280,-0.330,0.000
1.282,-0.070,-0.030
1.284,-0.130,-0.055
1.286,-0.190,-0.070
1.288,-0.075,-0.075
1.290,0.080,-0.065
1.292,0.080,-0.050
1.294,0.135,-0.025
1.296,0.070,-0.005
1.298,-0.045,0.015
1.300,-0.100,0.025
1.302,-0.145,0.025
1.304,-0.110,0.020
1.306,-0.030,0.005
1.308,0.025,-0.010
1.310,0.080,-0.030
1.312,0.095,-0.050
1.314,0.075,-0.065
1.316,-0.020,-0.075
1.318,-0.190,-0.075
1.320,-0.220,-0.075
1.322,-0.305,-0.070
1.324,-0.180,-0.065
1.326,0.030,-0.050
1.328,0.105,-0.040
1.330,0.040,-0.025
1.332,-0.025,-0.015
1.334,0.025,0.000
1.336,0.225,0.010
1.338,-0.025,0.025
1.340,-0.100,0.030
1.342,-0.120,0.035
1.344,-0.115,0.035
1.346,-0.075,0.030
1.348,0.185,0.020
1.350,0.140,0.000
1.352,0.015,-0.015
1.354,0.055,-0.035
1.356,0.035,-0.045
1.358,0.055,-0.045
1.360,-0.260,-0.035
1.362,-0.260,-0.020
1.364,-0.110,0.000
1.366,0.145,0.020
1.368,0.245,0.040
1.370,0.075,0.045
1.372,0.090,0.040
1.374,0.090,0.020
1.376,0.000,0.000
1.378,-0.020,-0.030
1.380,-0.020,-0.055
1.382,-0.155,-0.070
1.384,-0.325,-0.075
1.386,-0.245,-0.070
1.388,0.005,-0.055
1.390,0.105,-0.040
1.392,0.215,-0.030
1.394,0.230,-0.025
1.396,-0.030,-0.025
1.398,-0.135,-0.040
1.400,-0.195,-0.060
1.402,-0.285,-0.075
1.404,-0.255,-0.090
1.406,-0.140,-0.090
1.408,0.085,-0.080
1.410,0.085,-0.060
1.412,0.085,-0.035
1.414,0.110,-0.005
1.416,0.055,0.020
1.418,-0.075,0.040
1.420,-0.035,0.050
1.422,-0.115,0.050
1.424,-0.125,0.040
1.426,0.080,0.030
1.428,0.210,0.025
1.430,0.065,0.025
1.432,0.055,0.035
1.434,0.120,0.050
1.436,0.090,0.070
1.438,0.110,0.090
1.440,0.200,0.100
1.442,-0.040,0.100
1.444,-0.020,0.085
1.446,-0.045,0.055
1.448,0.010,0.020
1.450,-0.060,-0.020
1.452,0.040,-0.055
1.454,0.220,-0.080
1.456,0.000,-0.095
1.458,-0.215,-0.100
1.460,-0.265,-0.090
1.462,-0.265,-0.075
1.464,-0.095,-0.055
1.466,0.030,-0.040
1.468,0.110,-0.025
1.470,0.060,-0.025
1.472,0.040,-0.025
1.474,-0.070,-0.035
1.476,0.015,-0.045
1.478,-0.095,-0.055
1.480,-0.125,-0.060
1.482,-0.280,-0.060
1.484,-0.170,-0.060
1.486,0.045,-0.050
1.488,0.100,-0.040
1.490,0.020,-0.030
1.492,0.065,-0.020
1.494,0.080,-0.015
1.496,0.000,-0.015
1.498,-0.100,-0.015
1.500,-0.165,-0.020
1.502,-0.240,-0.030
1.504,-0.135,-0.035
1.506,0.040,-0.040
1.508,0.060,-0.045
1.510,0.080,-0.035
1.512,0.145,-0.020
1.514,0.025,0.000
1.516,-0.025,0.035
1.518,-0.035,0.070
1.520,-0.030,0.105
1.522,0.110,0.140
1.524,0.200,0.160
1.526,0.235,0.170
1.528,0.160,0.160
1.530,0.265,0.130
1.532,0.245,0.090
1.534,0.085,0.030
1.536,-0.125,-0.040
1.538,-0.280,-0.110
1.540,-0.370,-0.185
1.542,-0.360,-0.255
1.544,-0.335,-0.320
1.546,-0.320,-0.385
1.548,-0.340,-0.445
1.550,-0.500,-0.495
1.552,-0.515,-0.540
1.554,-0.520,-0.565
1.556,-0.595,-0.580
1.558,-0.655,-0.570
1.560,-0.700,-0.540
1.562,-0.660,-0.490
1.564,-0.545,-0.420
1.566,-0.160,-0.345
1.568,-0.120,-0.270
1.570,-0.070,-0.195
1.572,-0.100,-0.140
1.574,-0.055,-0.100
1.576,-0.025,-0.080
1.578,-0.075,-0.070
1.580,-0.250,-0.070
1.582,-0.235,-0.075
1.584,-0.145,-0.075
1.586,0.010,-0.070
1.588,0.090,-0.055
1.590,0.035,-0.030
1.592,0.105,-0.005
1.594,0.125,0.020
1.596,-0.015,0.035
1.598,0.060,0.045
1.600,-0.155,0.045
1.602,-0.105,0.035
1.604,-0.030,0.020
1.606,0.155,0.000
1.608,0.045,-0.020
1.610,0.035,-0.030
1.612,0.100,-0.035
1.614,-0.010,-0.035
1.616,-0.070,-0.025
1.618,-0.115,-0.015
1.620,-0.040,0.000
1.622,-0.075,0.020
1.624,-0.070,0.030
1.626,-0.025,0.045
1.628,0.195,0.050
1.630,0.240,0.055
1.632,0.195,0.060
1.634,0.130,0.060
1.636,-0.040,0.060
1.638,-0.075,0.060
1.640,-0.125,0.060
1.642,-0.080,0.060
1.644,0.145,0.060
1.646,0.195,0.060
1.648,0.150,0.055
1.650,0.090,0.055
1.652,0.120,0.055
1.654,0.160,0.060
1.656,-0.060,0.060
1.658,-0.115,0.065
1.660,-0.005,0.070
1.662,0.070,0.075
1.664,0.125,0.080
1.666,0.160,0.085
1.668,0.135,0.085
1.670,0.080,0.080
1.672,0.130,0.070
1.674,0.010,0.060
1.676,0.060,0.055
1.678,0.055,0.045
1.680,-0.050,0.045
1.682,0.035,0.045
1.684,0.020,0.055
1.686,0.095,0.070
1.688,0.140,0.085
1.690,0.215,0.100
1.692,0.160,0.115
1.694,0.185,0.130
1.696,0.105,0.140
1.698,0.055,0.150
1.700,0.040,0.160
1.702,0.100,0.165
1.704,0.125,0.175
1.706,0.215,0.185
1.708,0.285,0.195
1.710,0.390,0.200
1.712,0.330,0.200
1.714,0.270,0.200
1.716,0.180,0.190
1.718,0.020,0.185
1.720,-0.130,0.175
1.722,0.105,0.170
1.724,0.155,0.170
1.726,0.260,0.175
1.728,0.370,0.185
1.730,0.295,0.200
1.732,0.385,0.215
1.734,0.335,0.230
1.736,0.120,0.240
1.738,0.020,0.245
1.740,0.165,0.240
1.742,0.155,0.235
1.744,0.295,0.225
1.746,0.145,0.220
1.748,0.205,0.215
1.750,0.435,0.220
1.752,0.465,0.230
1.754,0.290,0.235
1.756,0.150,0.245
1.758,0.130,0.245
1.760,0.060,0.235
1.762,0.210,0.220
1.764,0.110,0.195
1.766,0.150,0.170
1.768,0.230,0.150
1.770,0.225,0.140
1.772,0.290,0.140
1.774,0.295,0.150
1.776,0.105,0.170
1.778,0.115,0.195
1.780,0.105,0.220
1.782,0.145,0.230
1.784,0.225,0.225
1.786,0.205,0.200
1.788,0.260,0.165
1.790,0.320,0.115
1.792,0.325,0.065
1.794,-0.065,0.020
1.796,-0.105,-0.010
1.798,-0.155,-0.020
1.800,-0.100,-0.015
1.802,-0.160,0.000
1.804,0.070,0.030
1.806,0.270,0.055
1.808,0.085,0.075
1.810,0.210,0.080
1.812,0.245,0.075
1.814,0.055,0.050
1.816,-0.015,0.020
1.818,-0.180,-0.015
1.820,-0.130,-0.045
1.822,-0.275,-0.070
1.824,-0.080,-0.080
1.826,0.040,-0.085
1.828,0.110,-0.075
1.830,0.085,-0.065
1.832,0.055,-0.050
1.834,-0.005,-0.035
1.836,-0.065,-0.025
1.838,-0.125,-0.020
1.840,-0.100,-0.020
1.842,-0.175,-0.020
1.844,0.005,-0.020
1.846,0.045,-0.015
1.848,0.125,-0.010
1.850,0.110,0.000
1.852,0.145,0.010
1.854,0.040,0.020
1.856,-0.035,0.025
1.858,-0.140,0.025
1.860,-0.185,0.010
1.862,-0.080,-0.010
1.864,0.075,-0.030
1.866,-0.020,-0.055
1.868,0.045,-0.070
1.870,0.115,-0.080
1.872,0.075,-0.075
1.874,-0.200,-0.060
1.876,-0.225,-0.035
1.878,-0.065,-0.005
1.880,0.050,0.015
1.882,-0.035,0.030
1.884,-0.025,0.035
1.886,0.125,0.025
1.888,0.245,0.005
1.890,0.175,-0.025
1.892,-0.100,-0.050
1.894,-0.155,-0.075
1.896,-0.140,-0.090
1.898,-0.130,-0.090
1.900,-0.195,-0.085
1.902,-0.185,-0.070
1.904,-0.050,-0.050
1.906,0.080,-0.035
1.908,0.175,-0.020
1.910,0.200,-0.010
1.912,0.065,-0.010
1.914,-0.040,-0.010
1.916,-0.130,-0.015
1.918,-0.195,-0.020
1.920,-0.085,-0.025
1.922,-0.105,-0.025
1.924,-0.070,-0.030
1.926,0.005,-0.025
1.928,0.275,-0.025
1.930,0.105,-0.025
1.932,0.025,-0.020
1.934,-0.095,-0.015
1.936,-0.105,-0.010
1.938,-0.165,-0.005
1.940,-0.055,0.000
1.942,-0.030,0.005
1.944,0.080,0.005
1.946,0.015,0.005
1.948,0.260,0.005
1.950,0.165,0.005
1.952,-0.005,0.005
1.954,-0.090,0.005
1.956,-0.105,0.005
1.958,-0.160,0.005
1.960,0.015,0.005
1.962,-0.005,0.000
1.964,-0.010,-0.010
1.966,0.075,-0.025
1.968,0.165,-0.050
1.970,0.025,-0.075
1.972,-0.020,-0.100
1.974,-0.180,-0.120
1.976,-0.225,-0.130
1.978,-0.315,-0.125
1.980,-0.210,-0.105
1.982,-0.095,-0.080
1.984,0.075,-0.045
1.986,0.235,-0.010
1.988,0.100,0.015
1.990,0.050,0.030
1.992,0.115,0.030
1.994,0.005,0.015
1.996,-0.060,-0.010
1.998,-0.185,-0.035
2.000,-0.150,-0.065
2.002,-0.100,-0.080
2.004,-0.105,-0.085
2.006,0.015,-0.075
2.008,0.160,-0.055
2.010,0.010,-0.030
2.012,0.030,0.000
2.014,0.175,0.020
2.016,-0.030,0.030
2.018,-0.095,0.030
2.020,-0.190,0.015
2.022,-0.085,-0.010
2.024,0.070,-0.035
2.026,0.055,-0.060
2.028,0.035,-0.075
2.030,0.000,-0.080
2.032,-0.020,-0.075
2.034,-0.060,-0.065
2.036,0.005,-0.055
2.038,-0.220,-0.050
2.040,-0.080,-0.045
2.042,-0.200,-0.050
2.044,-0.060,-0.060
2.046,0.110,-0.070
2.048,0.145,-0.075
2.050,0.000,-0.070
2.052,-0.050,-0.065
2.054,-0.080,-0.045
2.056,-0.020,-0.025
2.058,-0.065,-0.005
2.060,-0.155,0.010
2.062,-0.035,0.015
2.064,0.115,0.015
2.066,0.155,0.000
2.068,0.070,-0.015
2.070,0.035,-0.030
2.072,0.020,-0.045
2.074,-0.085,-0.050
2.076,-0.105,-0.050
2.078,-0.145,-0.040
2.080,-0.125,-0.025
2.082,-0.030,-0.010
2.084,0.110,0.005
2.086,0.185,0.015
2.088,0.200,0.020
2.090,0.090,0.025
2.092,0.025,0.030
2.094,0.055,0.030
2.096,0.010,0.035
2.098,-0.100,0.040
2.100,-0.165,0.045
2.102,0.085,0.040
2.104,0.175,0.035
2.106,0.155,0.020
2.108,0.160,-0.005
2.110,0.075,-0.030
2.112,-0.035,-0.060
2.114,-0.255,-0.090
2.116,-0.265,-0.115
2.118,-0.255,-0.125
2.120,-0.105,-0.130
2.122,-0.080,-0.130
2.124,0.025,-0.120
2.126,0.075,-0.110
2.128,-0.040,-0.095
2.130,0.010,-0.085
2.132,-0.015,-0.075
2.134,-0.090,-0.065
2.136,-0.215,-0.060
2.138,-0.185,-0.050
2.140,-0.070,-0.040
2.142,0.100,-0.030
2.144,0.075,-0.020
2.146,0.145,-0.015
2.148,0.075,-0.015
2.150,0.055,-0.015
2.152,0.015,-0.025
2.154,0.035,-0.040
2.156,-0.235,-0.050
2.158,-0.270,-0.060
2.160,-0.070,-0.070
2.162,0.030,-0.070
2.164,0.000,-0.060
2.166,0.060,-0.050
2.168,0.095,-0.035
2.170,0.215,-0.020
2.172,-0.030,-0.010
2.174,-0.025,-0.010
2.176,-0.110,-0.010
2.178,-0.205,-0.020
2.180,-0.145,-0.030
2.182,-0.025,-0.040
2.184,0.110,-0.040
2.186,0.165,-0.040
2.188,0.195,-0.030
2.190,0.065,-0.010
2.192,0.005,0.010
2.194,-0.055,0.030
2.196,0.000,0.045
2.198,-0.145,0.055
2.200,0.015,0.050
2.202,0.155,0.030
2.204,0.120,0.005
2.206,0.210,-0.035
2.208,0.120,-0.080
2.210,-0.150,-0.130
2.212,-0.265,-0.185
2.214,-0.290,-0.245
2.216,-0.530,-0.305
2.218,-0.415,-0.365
2.220,-0.350,-0.425
2.222,-0.380,-0.480
2.224,-0.530,-0.520
2.226,-0.470,-0.555
2.228,-0.480,-0.570
2.230,-0.440,-0.570
2.232,-0.505,-0.550
2.234,-0.610,-0.510
2.236,-0.645,-0.460
2.238,-0.380,-0.395
2.240,-0.425,-0.330
2.242,-0.210,-0.260
2.244,-0.075,-0.195
2.246,0.095,-0.140
2.248,0.120,-0.090
2.250,0.040,-0.050
2.252,0.040,-0.025
2.254,-0.120,-0.005
2.256,-0.230,0.000
2.258,-0.140,-0.005
2.260,-0.020,-0.015
2.262,0.075,-0.030
2.264,0.135,-0.045
2.266,0.195,-0.060
2.268,0.035,-0.065
2.270,-0.105,-0.070
2.272,-0.070,-0.065
2.274,-0.170,-0.055
2.276,-0.195,-0.045
2.278,-0.180,-0.035
2.280,0.000,-0.030
2.282,0.215,-0.025
2.284,0.090,-0.025
2.286,0.150,-0.025
2.288,0.205,-0.020
2.290,0.005,-0.015
2.292,-0.160,-0.005
2.294,-0.145,0.010
2.296,-0.100,0.025
2.298,0.100,0.035
2.300,0.055,0.040
2.302,0.150,0.040
2.304,0.145,0.030
2.306,0.200,0.020
2.308,0.055,0.010
2.310,0.105,0.005
2.312,-0.110,0.005
2.314,-0.085,0.010
2.316,0.005,0.025
2.318,-0.115,0.045
2.320,0.145,0.060
2.322,0.250,0.070
2.324,0.195,0.075
2.326,0.260,0.070
2.328,0.255,0.060
2.330,0.020,0.040
2.332,-0.195,0.020
2.334,-0.065,0.005
2.336,0.005,0.000
2.338,-0.015,-0.005
2.340,-0.035,0.005
2.342,0.080,0.025
2.344,0.185,0.050
2.346,0.295,0.075
2.348,0.315,0.095
2.350,0.110,0.110
2.352,0.045,0.120
2.354,0.135,0.115
2.356,-0.040,0.100
2.358,0.075,0.080
2.360,0.000,0.055
2.362,0.060,0.035
2.364,0.175,0.020
2.366,0.230,0.020
2.368,0.125,0.030
2.370,0.085,0.055
2.372,0.015,0.095
2.374,0.155,0.130
2.376,0.200,0.170
2.378,0.210,0.195
2.380,0.245,0.210
2.382,0.085,0.210
2.384,0.265,0.200
2.386,0.345,0.185
2.388,0.470,0.165
2.390,0.265,0.150
2.392,0.075,0.140
2.394,0.020,0.140
2.396,0.075,0.150
2.398,0.155,0.165
2.400,0.155,0.175
2.402,0.195,0.190
2.404,0.325,0.200
2.406,0.435,0.205
2.408,0.320,0.205
2.410,0.310,0.205
2.412,0.170,0.210
2.414,0.080,0.215
2.416,0.165,0.225
2.418,0.215,0.240
2.420,0.290,0.255
2.422,0.365,0.270
2.424,0.400,0.280
2.426,0.345,0.285
2.428,0.405,0.280
2.430,0.355,0.270
2.432,0.225,0.255
2.434,0.220,0.240
2.436,0.245,0.225
2.438,0.140,0.205
2.440,0.075,0.190
2.442,0.205,0.180
2.444,0.360,0.170
2.446,0.390,0.160
2.448,0.315,0.145
2.450,0.110,0.135
2.452,0.015,0.120
2.454,0.030,0.105
2.456,0.060,0.095
2.458,-0.005,0.085
2.460,0.140,0.075
2.462,0.160,0.075
2.464,0.300,0.075
2.466,0.235,0.080
2.468,0.140,0.090
2.470,0.185,0.090
2.472,-0.025,0.090
2.474,-0.060,0.080
2.476,0.075,0.065
2.478,0.050,0.040
2.480,0.020,0.010
2.482,0.110,-0.020
2.484,0.120,-0.045
2.486,0.125,-0.060
2.488,-0.025,-0.060
2.490,-0.025,-0.050
2.492,-0.190,-0.030
2.494,-0.115,0.000
2.496,0.100,0.025
2.498,0.065,0.045
2.500,0.145,0.055
2.502,0.185,0.055
2.504,0.170,0.040
2.506,0.130,0.020
2.508,0.020,-0.005
2.510,0.000,-0.020
2.512,-0.065,-0.035
2.514,-0.205,-0.035
2.516,-0.130,-0.030
2.518,-0.060,-0.020
2.520,0.255,-0.015
2.522,0.275,-0.015
2.524,0.280,-0.030
2.526,-0.165,-0.050
2.528,-0.245,-0.075
2.530,-0.075,-0.105
2.532,-0.035,-0.130
2.534,-0.155,-0.145
2.536,-0.295,-0.145
2.538,-0.230,-0.130
2.540,0.040,-0.105
2.542,0.080,-0.075
2.544,0.245,-0.045
2.546,0.100,-0.015
2.548,0.045,0.000
2.550,-0.025,0.010
2.552,-0.005,0.010
2.554,-0.085,0.005
2.556,-0.060,-0.005
2.558,0.000,-0.010
2.560,0.040,-0.015
2.562,0.100,-0.020
2.564,0.270,-0.020
2.566,0.195,-0.015
2.568,-0.005,-0.015
2.570,-0.160,-0.020
2.572,-0.145,-0.025
2.574,-0.075,-0.030
2.576,-0.025,-0.035
2.578,0.010,-0.035
2.580,0.030,-0.030
2.582,0.165,-0.020
2.584,0.165,-0.005
2.586,0.035,0.015
2.588,0.005,0.035
2.590,0.180,0.050
2.592,0.085,0.055
2.594,-0.105,0.055
2.596,0.035,0.040
2.598,0.095,0.015
2.600,0.030,-0.015
2.602,0.135,-0.045
2.604,0.145,-0.075
2.606,-0.020,-0.100
2.608,-0.065,-0.115
2.610,-0.155,-0.120
2.612,-0.160,-0.115
2.614,-0.240,-0.100
2.616,-0.135,-0.085
2.618,0.000,-0.065
2.620,0.155,-0.050
2.622,0.170,-0.035
2.624,0.085,-0.020
2.626,0.090,-0.015
2.628,0.040,-0.005
2.630,-0.040,0.000
2.632,0.015,0.005
2.634,-0.090,0.010
2.636,-0.065,0.015
2.638,0.080,0.015
2.640,0.175,0.015
2.642,0.140,0.015
2.644,0.180,0.010
2.646,0.125,0.005
2.648,0.115,0.005
2.650,0.080,0.000
2.652,-0.055,0.005
2.654,-0.165,0.010
2.656,-0.130,0.015
2.658,-0.115,0.020
2.660,0.250,0.025
2.662,0.520,0.020
2.664,0.210,0.015
2.666,0.010,0.000
2.668,-0.030,-0.015
2.670,-0.095,-0.035
2.672,-0.075,-0.045
2.674,-0.165,-0.055
2.676,-0.035,-0.050
2.678,0.075,-0.045
2.680,0.140,-0.030
2.682,0.085,-0.010
2.684,0.080,0.005
2.686,0.095,0.020
2.688,0.125,0.025
2.690,0.055,0.020
2.692,-0.015,0.010
2.694,-0.095,-0.010
2.696,-0.020,-0.025
2.698,-0.095,-0.040
2.700,0.080,-0.050
2.702,0.150,-0.055
2.704,0.070,-0.045
2.706,0.125,-0.035
2.708,0.095,-0.015
2.710,0.005,0.005
2.712,-0.075,0.025
2.714,-0.045,0.045
2.716,0.050,0.055
2.718,0.150,0.065
2.720,0.155,0.065
2.722,0.235,0.060
2.724,0.220,0.050
2.726,0.285,0.040
2.728,0.100,0.030
2.730,-0.035,0.015
2.732,-0.205,0.005
2.734,-0.115,-0.005
2.736,-0.085,-0.015
2.738,0.070,-0.020
2.740,0.170,-0.020
2.742,0.210,-0.015
2.744,0.245,-0.010
2.746,0.075,0.000
2.748,-0.020,0.010
2.750,-0.115,0.020
2.752,-0.035,0.025
2.754,0.080,0.025
2.756,0.050,0.020
2.758,0.085,0.010
2.760,0.165,-0.005
2.762,0.085,-0.025
2.764,0.145,-0.045
2.766,0.045,-0.060
2.768,-0.115,-0.075
2.770,-0.225,-0.090
2.772,0.015,-0.095
2.774,-0.170,-0.095
2.776,-0.255,-0.095
2.778,-0.020,-0.090
2.780,0.165,-0.080
2.782,0.180,-0.070
2.784,0.185,-0.055
2.786,-0.035,-0.040
2.788,-0.030,-0.025
2.790,-0.070,-0.015
2.792,-0.030,-0.005
2.794,0.055,0.000
2.796,0.030,0.000
2.798,0.065,-0.010
2.800,0.015,-0.020
2.802,0.120,-0.030
2.804,0.180,-0.035
2.806,0.095,-0.040
2.808,-0.010,-0.035
2.810,-0.095,-0.020
2.812,-0.175,0.000
2.814,-0.055,0.025
2.816,0.180,0.055
2.818,0.285,0.080
2.820,0.215,0.100
2.822,0.300,0.110
2.824,0.285,0.110
2.826,0.175,0.095
2.828,0.125,0.065
2.830,0.005,0.020
2.832,-0.025,-0.035
2.834,-0.245,-0.105
2.836,-0.055,-0.180
2.838,-0.190,-0.260
2.840,-0.290,-0.335
2.842,-0.325,-0.405
2.844,-0.365,-0.465
2.846,-0.380,-0.505
2.848,-0.235,-0.530
2.850,-0.560,-0.535
2.852,-0.760,-0.525
2.854,-0.670,-0.500
2.856,-0.450,-0.460
2.858,-0.270,-0.420
2.860,-0.130,-0.375
2.862,-0.150,-0.335
2.864,-0.150,-0.300
2.866,-0.055,-0.270
2.868,-0.155,-0.245
2.870,-0.195,-0.220
2.872,-0.410,-0.195
2.874,-0.385,-0.170
2.876,-0.130,-0.140
2.878,0.110,-0.105
2.880,0.190,-0.070
2.882,0.180,-0.035
2.884,0.185,-0.005
2.886,0.190,0.010
2.888,-0.070,0.020
2.890,-0.055,0.020
2.892,-0.035,0.010
2.894,0.045,-0.005
2.896,0.015,-0.020
2.898,0.055,-0.035
2.900,0.040,-0.040
2.902,0.165,-0.040
2.904,0.080,-0.030
2.906,0.095,-0.015
2.908,0.070,0.005
2.910,0.025,0.025
2.912,0.025,0.040
2.914,0.075,0.055
2.916,0.170,0.060
2.918,0.105,0.055
2.920,0.155,0.045
2.922,0.290,0.035
2.924,0.215,0.020
2.926,0.010,0.010
2.928,-0.040,0.005
2.930,-0.015,0.010
2.932,-0.045,0.015
2.934,0.055,0.030
2.936,0.195,0.050
2.938,0.325,0.065
2.940,0.190,0.080
2.942,0.125,0.090
2.944,0.230,0.090
2.946,0.125,0.080
2.948,0.045,0.070
2.950,0.065,0.050
2.952,0.000,0.035
2.954,0.080,0.025
2.956,0.130,0.025
2.958,0.085,0.030
2.960,0.150,0.040
2.962,0.200,0.055
2.964,0.220,0.075
2.966,0.255,0.090
2.968,0.185,0.100
2.970,0.075,0.110
2.972,0.060,0.110
2.974,0.035,0.110
2.976,-0.045,0.110
2.978,0.190,0.110
2.980,0.460,0.115
2.982,0.435,0.120
2.984,0.260,0.125
2.986,0.165,0.130
2.988,0.035,0.135
2.990,0.095,0.135
2.992,0.145,0.130
2.994,0.140,0.125
2.996,0.125,0.125
2.998,0.180,0.125
3.000,0.340,0.130
3.002,0.330,0.145
3.004,0.355,0.165
3.006,0.265,0.185
3.008,0.250,0.200
3.010,0.155,0.215
3.012,0.180,0.225
3.014,0.110,0.230
3.016,0.360,0.230
3.018,0.350,0.235
3.020,0.475,0.235
3.022,0.530,0.245
3.024,0.365,0.255
3.026,0.235,0.270
3.028,0.320,0.280
3.030,0.245,0.290
3.032,0.170,0.285
3.034,0.345,0.280
3.036,0.335,0.260
3.038,0.350,0.240
3.040,0.365,0.215
3.042,0.410,0.200
3.044,0.355,0.190
3.046,0.235,0.195
3.048,0.165,0.210
3.050,0.180,0.235
3.052,0.280,0.255
3.054,0.290,0.275
3.056,0.395,0.280
3.058,0.430,0.275
3.060,0.515,0.255
3.062,0.405,0.225
3.064,0.185,0.190
3.066,0.185,0.160
3.068,0.210,0.130
3.070,0.095,0.115
3.072,0.030,0.110
3.074,0.090,0.115
3.076,0.250,0.130
3.078,0.385,0.140
3.080,0.350,0.155
3.082,0.295,0.160
3.084,0.295,0.165
3.086,0.210,0.160
3.088,0.125,0.155
3.090,0.025,0.145
3.092,0.120,0.130
3.094,0.140,0.120
3.096,0.200,0.105
3.098,0.305,0.090
3.100,0.270,0.075
3.102,0.250,0.055
3.104,0.115,0.035
3.106,-0.015,0.015
3.108,-0.025,-0.005
3.110,-0.030,-0.020
3.112,0.015,-0.030
3.114,-0.020,-0.030
3.116,0.030,-0.030
3.118,0.195,-0.020
3.120,0.145,-0.005
3.122,0.180,0.010
3.124,0.185,0.020
3.126,0.170,0.025
3.128,0.030,0.020
3.130,-0.075,0.010
3.132,-0.215,-0.005
3.134,0.020,-0.030
3.136,0.150,-0.050
3.138,0.130,-0.070
3.140,0.140,-0.085
3.142,0.035,-0.085
3.144,0.040,-0.085
3.146,0.010,-0.075
3.148,-0.165,-0.060
3.150,-0.240,-0.050
3.152,-0.015,-0.040
3.154,0.190,-0.035
3.156,0.145,-0.040
3.158,0.075,-0.045
3.160,0.065,-0.050
3.162,0.085,-0.050
3.164,0.110,-0.050
3.166,-0.030,-0.045
3.168,-0.160,-0.030
3.170,0.010,-0.015
3.172,0.080,0.000
3.174,0.025,0.010
3.176,0.260,0.015
3.178,0.150,0.015
3.180,0.185,0.010
3.182,0.120,0.000
3.184,0.055,-0.015
3.186,0.010,-0.025
3.188,-0.050,-0.030
3.190,-0.120,-0.030
3.192,0.020,-0.030
3.194,0.055,-0.025
3.196,0.100,-0.020
3.198,0.100,-0.020
3.200,0.150,-0.025
3.202,0.185,-0.035
3.204,0.090,-0.045
3.206,-0.055,-0.055
3.208,-0.120,-0.070
3.210,-0.115,-0.075
3.212,-0.115,-0.080
3.214,-0.025,-0.080
3.216,0.015,-0.080
3.218,0.230,-0.075
3.220,0.130,-0.070
3.222,0.020,-0.065
3.224,0.055,-0.060
3.226,-0.045,-0.060
3.228,-0.110,-0.060
3.230,-0.120,-0.060
3.232,-0.010,-0.060
3.234,0.015,-0.055
3.236,0.140,-0.045
3.238,0.130,-0.030
3.240,0.145,-0.015
3.242,0.125,0.005
3.244,0.240,0.020
3.246,0.175,0.030
3.248,0.030,0.035
3.250,-0.140,0.035
3.252,-0.050,0.030
3.254,0.165,0.015
3.256,0.160,0.005
3.258,0.140,-0.010
3.260,0.215,-0.020
3.262,0.165,-0.025
3.264,0.040,-0.030
3.266,-0.070,-0.025
3.268,-0.070,-0.020
3.270,-0.090,-0.015
3.272,0.055,-0.005
3.274,0.170,0.000
3.276,0.155,0.005
3.278,0.095,0.010
3.280,0.215,0.010
3.282,0.265,0.010
3.284,0.110,0.005
3.286,0.000,0.000
3.288,-0.080,-0.005
3.290,-0.095,-0.015
3.292,-0.080,-0.025
3.294,0.075,-0.045
3.296,0.110,-0.060
3.298,0.260,-0.075
3.300,0.155,-0.090
3.302,-0.045,-0.100
3.304,-0.135,-0.105
3.306,-0.100,-0.100
3.308,-0.020,-0.090
3.310,-0.090,-0.080
3.312,-0.025,-0.065
3.314,0.090,-0.050
3.316,0.070,-0.035
3.318,0.175,-0.025
3.320,0.115,-0.020
3.322,0.145,-0.015
3.324,0.180,-0.010
3.326,0.115,-0.005
3.328,0.005,0.000
3.330,-0.270,0.005
3.332,0.020,0.010
3.334,0.180,0.015
3.336,0.275,0.020
3.338,0.175,0.025
3.340,0.265,0.020
3.342,0.220,0.020
3.344,0.005,0.010
3.346,0.045,0.005
3.348,0.015,0.000
3.350,-0.140,-0.005
3.352,-0.045,-0.005
3.354,0.150,0.000
3.356,0.300,0.010
3.358,0.280,0.025
3.360,0.245,0.040
3.362,0.130,0.050
3.364,0.040,0.060
3.366,0.130,0.060
3.368,0.005,0.050
3.370,-0.050,0.035
3.372,0.045,0.015
3.374,0.205,-0.010
3.376,0.215,-0.030
3.378,0.140,-0.045
3.380,0.065,-0.050
3.382,0.085,-0.050
3.384,0.015,-0.040
3.386,-0.115,-0.030
3.388,-0.135,-0.015
3.390,0.185,-0.005
3.392,0.070,0.000
3.394,0.135,-0.005
3.396,0.215,-0.015
3.398,0.155,-0.030
3.400,-0.025,-0.045
3.402,0.035,-0.060
3.404,0.025,-0.075
3.406,-0.020,-0.080
3.408,-0.100,-0.080
3.410,-0.110,-0.080
3.412,-0.025,-0.080
3.414,0.085,-0.080
3.416,0.080,-0.085
3.418,-0.010,-0.090
3.420,0.110,-0.100
3.422,0.150,-0.110
3.424,-0.105,-0.110
3.426,-0.115,-0.105
3.428,-0.115,-0.090
3.430,0.060,-0.065
3.432,-0.045,-0.035
3.434,-0.035,0.000
3.436,0.190,0.030
3.438,0.410,0.055
3.440,0.315,0.070
3.442,0.135,0.070
3.444,0.140,0.065
3.446,0.050,0.050
3.448,-0.090,0.035
3.450,0.040,0.025
3.452,0.130,0.025
3.454,0.225,0.025
3.456,0.190,0.040
3.458,0.225,0.050
3.460,0.270,0.055
3.462,0.260,0.050
3.464,0.205,0.025
3.466,-0.060,-0.015
3.468,-0.185,-0.070
3.470,-0.135,-0.145
3.472,-0.215,-0.220
3.474,-0.165,-0.295
3.476,-0.175,-0.360
3.478,-0.205,-0.415
3.480,-0.315,-0.450
3.482,-0.445,-0.475
3.484,-0.480,-0.485
3.486,-0.420,-0.485
3.488,-0.475,-0.480
3.490,-0.455,-0.470
3.492,-0.325,-0.455
3.494,-0.275,-0.435
3.496,-0.260,-0.400
3.498,-0.215,-0.355
3.500,-0.305,-0.295
3.502,-0.090,-0.220
3.504,0.040,-0.145
3.506,0.010,-0.070
3.508,-0.085,-0.010
3.510,0.025,0.030
3.512,0.230,0.040
3.514,0.280,0.025
3.516,0.130,-0.005
3.518,0.065,-0.050
3.520,-0.070,-0.095
3.522,-0.075,-0.130
3.524,0.030,-0.145
3.526,-0.075,-0.140
3.528,-0.230,-0.115
3.530,-0.105,-0.080
3.532,0.090,-0.040
3.534,0.250,0.000
3.536,0.230,0.025
3.538,0.170,0.040
3.540,0.220,0.045
3.542,0.185,0.035
3.544,0.050,0.030
3.546,-0.025,0.020
3.548,-0.065,0.020
3.550,0.090,0.025
3.552,0.120,0.030
3.554,0.120,0.030
3.556,0.250,0.030
3.558,0.240,0.020
3.560,0.290,0.000
3.562,0.155,-0.015
3.564,-0.170,-0.035
3.566,-0.165,-0.040
3.568,-0.070,-0.035
3.570,0.075,-0.010
3.572,0.200,0.020
3.574,0.315,0.060
3.576,0.230,0.095
3.578,0.390,0.125
3.580,0.390,0.140
3.582,0.285,0.140
3.584,-0.055,0.125
3.586,0.020,0.105
3.588,0.040,0.075
3.590,0.155,0.050
3.592,0.225,0.035
3.594,0.195,0.025
3.596,0.195,0.030
3.598,0.200,0.035
3.600,0.175,0.045
3.602,0.165,0.055
3.604,0.170,0.060
3.606,0.095,0.060
3.608,-0.070,0.055
3.610,0.120,0.055
3.612,0.110,0.050
3.614,0.210,0.050
3.616,0.295,0.055
3.618,0.315,0.060
3.620,0.350,0.065
3.622,0.085,0.070
3.624,-0.010,0.075
3.626,0.055,0.075
3.628,0.140,0.070
3.630,0.060,0.070
3.632,0.190,0.070
3.634,0.325,0.080
3.636,0.275,0.100
3.638,0.290,0.125
3.640,0.310,0.155
3.642,0.290,0.190
3.644,0.315,0.225
3.646,0.325,0.250
3.648,0.245,0.265
3.650,0.270,0.265
3.652,0.415,0.255
3.654,0.380,0.230
3.656,0.395,0.205
3.658,0.320,0.180
3.660,0.335,0.160
3.662,0.125,0.150
3.664,0.210,0.150
3.666,0.200,0.160
3.668,0.280,0.175
3.670,0.240,0.190
3.672,0.245,0.205
3.674,0.395,0.215
3.676,0.445,0.220
3.678,0.455,0.215
3.680,0.295,0.210
3.682,0.270,0.205
3.684,0.195,0.205
3.686,0.275,0.200
3.688,0.275,0.200
3.690,0.255,0.195
3.692,0.185,0.190
3.694,0.375,0.185
3.696,0.380,0.175
3.698,0.395,0.165
3.700,0.265,0.155
3.702,0.250,0.140
3.704,0.135,0.130
3.706,0.060,0.120
3.708,0.010,0.110
3.710,0.270,0.100
3.712,0.275,0.090
3.714,0.170,0.080
3.716,0.260,0.070
3.718,0.320,0.065
3.720,0.170,0.070
3.722,0.150,0.080
3.724,0.090,0.100
3.726,0.005,0.120
3.728,0.225,0.140
3.730,0.385,0.155
3.732,0.275,0.150
3.734,0.180,0.135
3.736,0.355,0.105
3.738,0.255,0.065
3.740,0.125,0.020
3.742,0.000,-0.015
3.744,-0.050,-0.045
3.746,-0.020,-0.060
3.748,-0.105,-0.060
3.750,0.020,-0.050
3.752,0.080,-0.040
3.754,0.180,-0.030
3.756,0.230,-0.030
3.758,0.305,-0.040
3.760,0.145,-0.055
3.762,-0.115,-0.075
3.764,-0.220,-0.095
3.766,-0.205,-0.110
3.768,-0.185,-0.120
3.770,0.050,-0.120
3.772,0.180,-0.110
3.774,0.120,-0.095
3.776,0.045,-0.080
3.778,0.140,-0.060
3.780,0.185,-0.050
3.782,0.035,-0.045
3.784,-0.170,-0.040
3.786,-0.155,-0.040
3.788,-0.010,-0.045
3.790,0.065,-0.045
3.792,0.150,-0.055
3.794,0.180,-0.060
3.796,0.220,-0.065
3.798,0.100,-0.070
3.800,-0.010,-0.070
3.802,-0.100,-0.065
3.804,-0.115,-0.055
3.806,-0.050,-0.035
3.808,-0.065,-0.015
3.810,0.125,0.005
3.812,0.385,0.020
3.814,0.240,0.035
3.816,0.320,0.035
3.818,0.150,0.030
3.820,0.085,0.015
3.822,-0.005,-0.005
3.824,-0.005,-0.030
3.826,-0.100,-0.050
3.828,-0.220,-0.070
3.830,0.125,-0.075
3.832,0.105,-0.075
3.834,0.145,-0.070
3.836,0.230,-0.060
3.838,0.095,-0.050
3.840,0.005,-0.045
3.842,-0.075,-0.040
3.844,-0.020,-0.040
3.846,0.040,-0.045
3.848,-0.030,-0.055
3.850,0.035,-0.065
3.852,-0.045,-0.075
3.854,0.135,-0.080
3.856,0.260,-0.080
3.858,0.100,-0.075
3.860,-0.010,-0.070
3.862,-0.085,-0.060
3.864,-0.070,-0.050
3.866,-0.070,-0.040
3.868,-0.115,-0.030
3.870,0.105,-0.020
3.872,0.255,-0.010
3.874,0.300,0.000
3.876,0.315,0.010
3.878,0.140,0.020
3.880,-0.030,0.025
3.882,0.105,0.030
3.884,-0.040,0.025
3.886,-0.065,0.020
3.888,-0.015,0.005
3.890,0.160,-0.015
3.892,0.360,-0.035
3.894,0.160,-0.055
3.896,0.095,-0.070
3.898,-0.110,-0.080
3.900,-0.005,-0.085
3.902,0.005,-0.085
3.904,-0.035,-0.075
3.906,-0.090,-0.060
3.908,0.005,-0.045
3.910,0.140,-0.030
3.912,0.115,-0.020
3.914,0.220,-0.020
3.916,0.235,-0.025
3.918,0.080,-0.035
3.920,0.095,-0.055
3.922,0.040,-0.075
3.924,-0.210,-0.090
3.926,-0.210,-0.100
3.928,-0.100,-0.105
3.930,-0.005,-0.095
3.932,0.210,-0.075
3.934,0.275,-0.050
3.936,0.295,-0.020
3.938,0.170,0.010
3.940,0.030,0.030
3.942,-0.050,0.045
3.944,0.110,0.045
3.946,-0.055,0.030
3.948,-0.035,0.005
3.950,0.210,-0.025
3.952,0.280,-0.055
3.954,0.045,-0.075
3.956,0.105,-0.080
3.958,0.070,-0.075
3.960,0.015,-0.060
3.962,0.005,-0.035
3.964,0.065,-0.010
3.966,-0.005,0.010
3.968,0.000,0.020
3.970,0.095,0.020
3.972,0.280,0.010
3.974,0.275,-0.005
3.976,0.130,-0.015
3.978,0.070,-0.025
3.980,-0.030,-0.025
3.982,-0.035,-0.015
3.984,0.045,0.000
3.986,0.190,0.015
3.988,0.130,0.030
3.990,0.060,0.035
3.992,0.085,0.025
3.994,0.225,0.005
3.996,0.210,-0.020
3.998,0.170,-0.050
4.000,-0.040,-0.080
4.002,-0.030,-0.100
4.004,-0.110,-0.105
4.006,-0.225,-0.100
4.008,-0.055,-0.085
4.010,0.120,-0.060
4.012,0.120,-0.035
4.014,0.155,-0.015
4.016,0.285,0.000
4.018,0.260,0.005
4.020,0.070,0.005
4.022,-0.060,-0.005
4.024,-0.115,-0.020
4.026,-0.020,-0.035
4.028,-0.005,-0.045
4.030,0.160,-0.050
4.032,0.150,-0.055
4.034,0.095,-0.050
4.036,0.025,-0.045
4.038,0.155,-0.040
4.040,0.085,-0.035
4.042,0.045,-0.030
4.044,-0.075,-0.025
4.046,0.050,-0.025
4.048,-0.020,-0.020
4.050,0.110,-0.020
4.052,0.135,-0.015
4.054,0.095,-0.015
4.056,0.250,-0.010
4.058,0.200,-0.015
4.060,0.055,-0.020
4.062,-0.005,-0.035
4.064,-0.110,-0.050
4.066,-0.065,-0.065
4.068,0.000,-0.080
4.070,0.135,-0.085
4.072,0.040,-0.085
4.074,0.055,-0.075
4.076,0.170,-0.050
4.078,0.200,-0.020
4.080,0.180,0.015
4.082,0.160,0.045
4.084,-0.005,0.075
4.086,0.040,0.085
4.088,0.060,0.080
4.090,0.075,0.055
4.092,0.310,0.015
4.094,0.395,-0.040
4.096,0.145,-0.105
4.098,-0.140,-0.170
4.100,-0.250,-0.230
4.102,-0.230,-0.290
4.104,-0.410,-0.335
4.106,-0.425,-0.380
4.108,-0.400,-0.420
4.110,-0.340,-0.450
4.112,-0.280,-0.480
4.114,-0.320,-0.505
4.116,-0.360,-0.515
4.118,-0.390,-0.515
4.120,-0.410,-0.500
4.122,-0.345,-0.465
4.124,-0.415,-0.410
4.126,-0.315,-0.350
4.128,-0.320,-0.280
4.130,-0.230,-0.210
4.132,0.045,-0.155
4.134,0.320,-0.110
4.136,0.175,-0.075
4.138,0.075,-0.055
4.140,0.050,-0.045
4.142,-0.065,-0.035
4.144,-0.130,-0.025
4.146,0.000,-0.010
4.148,0.040,0.005
4.150,0.285,0.020
4.152,0.215,0.030
4.154,0.160,0.035
4.156,0.265,0.025
4.158,0.315,0.005
4.160,0.135,-0.025
4.162,-0.210,-0.050
4.164,-0.250,-0.070
4.166,-0.110,-0.085
4.168,0.035,-0.080
4.170,0.140,-0.065
4.172,0.165,-0.040
4.174,0.185,-0.010
4.176,0.235,0.020
4.178,0.280,0.040
4.180,0.090,0.055
4.182,0.090,0.055
4.184,0.030,0.050
4.186,-0.100,0.040
4.188,0.075,0.025
4.190,0.115,0.015
4.192,0.280,0.015
4.194,0.355,0.015
4.196,0.290,0.020
4.198,0.155,0.025
4.200,-0.075,0.030
4.202,0.020,0.035
4.204,-0.025,0.040
4.206,0.085,0.040
4.208,0.150,0.040
4.210,0.215,0.045
4.212,0.120,0.055
4.214,0.325,0.070
4.216,0.350,0.090
4.218,0.235,0.105
4.220,0.250,0.120
4.222,0.145,0.130
4.224,0.055,0.130
4.226,0.065,0.115
4.228,0.100,0.095
4.230,0.380,0.075
4.232,0.290,0.050
4.234,0.195,0.030
4.236,0.015,0.025
4.238,0.150,0.030
4.240,0.245,0.045
4.242,0.140,0.065
4.244,0.100,0.090
4.246,0.085,0.115
4.248,0.190,0.130
4.250,0.250,0.135
4.252,0.205,0.135
4.254,0.450,0.125
4.256,0.375,0.115
4.258,0.150,0.105
4.260,0.165,0.100
4.262,0.100,0.100
4.264,0.115,0.110
4.266,0.200,0.130
4.268,0.215,0.145
4.270,0.250,0.160
4.272,0.275,0.170
4.274,0.430,0.170
4.276,0.390,0.165
4.278,0.330,0.160
4.280,0.105,0.150
4.282,0.120,0.145
4.284,0.150,0.150
4.286,0.265,0.155
4.288,0.340,0.175
4.290,0.350,0.195
4.292,0.335,0.220
4.294,0.455,0.245
4.296,0.415,0.270
4.298,0.400,0.290
4.300,0.355,0.300
4.302,0.305,0.300
4.304,0.285,0.295
4.306,0.365,0.285
4.308,0.355,0.270
4.310,0.360,0.255
4.312,0.365,0.240
4.314,0.490,0.220
4.316,0.480,0.210
4.318,0.390,0.200
4.320,0.145,0.190
4.322,0.030,0.185
4.324,0.060,0.185
4.326,0.365,0.180
4.328,0.320,0.170
4.330,0.410,0.160
4.332,0.460,0.145
4.334,0.270,0.135
4.336,0.135,0.120
4.338,0.225,0.105
4.340,0.240,0.095
4.342,0.030,0.085
4.344,0.060,0.080
4.346,0.120,0.070
4.348,0.085,0.065
4.350,0.285,0.060
4.352,0.490,0.055
4.354,0.305,0.050
4.356,0.140,0.045
4.358,-0.045,0.045
4.360,-0.090,0.045
4.362,0.125,0.050
4.364,0.150,0.055
4.366,0.140,0.060
4.368,0.185,0.055
4.370,0.230,0.050
4.372,0.150,0.035
4.374,0.245,0.020
4.376,0.230,0.000
4.378,-0.025,-0.020
4.380,0.020,-0.030
4.382,-0.005,-0.035
4.384,0.010,-0.035
4.386,-0.040,-0.030
4.388,0.025,-0.020
4.390,0.225,-0.010
4.392,0.300,-0.010
4.394,0.205,-0.015
4.396,0.200,-0.025
4.398,-0.030,-0.035
4.400,-0.020,-0.050
4.402,-0.160,-0.065
4.404,-0.125,-0.070
4.406,0.110,-0.070
4.408,0.085,-0.065
4.410,0.105,-0.055
4.412,0.175,-0.040
4.414,0.180,-0.030
4.416,0.090,-0.025
4.418,0.125,-0.020
4.420,-0.035,-0.020
4.422,-0.135,-0.025
4.424,0.090,-0.030
4.426,0.160,-0.035
4.428,0.025,-0.035
4.430,-0.045,-0.035
4.432,0.215,-0.035
4.434,0.185,-0.030
4.436,0.200,-0.025
4.438,0.025,-0.020
4.440,0.070,-0.020
4.442,-0.035,-0.015
4.444,-0.015,-0.015
4.446,0.040,-0.010
4.448,0.155,-0.005
4.450,0.200,0.000
4.452,0.190,0.005
4.454,0.150,0.010
4.456,0.140,0.010
4.458,0.090,0.005
4.460,0.155,-0.005
4.462,-0.005,-0.010
4.464,-0.025,-0.020
4.466,-0.040,-0.025
4.468,0.085,-0.025
4.470,0.145,-0.025
4.472,0.285,-0.020
4.474,0.140,-0.015
4.476,0.045,-0.015
4.478,0.160,-0.010
4.480,0.020,-0.015
4.482,0.115,-0.020
4.484,-0.075,-0.030
4.486,-0.140,-0.040
4.488,0.040,-0.055
4.490,0.120,-0.065
4.492,0.260,-0.075
4.494,0.175,-0.080
4.496,0.115,-0.080
4.498,-0.040,-0.075
4.500,-0.105,-0.070
4.502,-0.125,-0.065
4.504,-0.090,-0.055
4.506,-0.055,-0.050
4.508,0.210,-0.040
4.510,0.345,-0.030
4.512,0.220,-0.020
4.514,0.190,-0.010
4.516,0.070,0.000
4.518,-0.005,0.015
4.520,-0.020,0.020
4.522,0.095,0.030
4.524,0.115,0.030
4.526,0.110,0.030
4.528,0.125,0.020
4.530,0.250,0.015
4.532,0.225,0.005
4.534,0.150,-0.005
4.536,0.020,-0.010
4.538,0.085,-0.015
4.540,-0.055,-0.015
4.542,-0.050,-0.010
4.544,0.125,-0.010
4.546,0.280,-0.015
4.548,0.065,-0.020
4.550,0.065,-0.025
4.552,0.155,-0.035
4.554,0.150,-0.050
4.556,0.165,-0.055
4.558,-0.075,-0.060
4.560,-0.075,-0.055
4.562,0.015,-0.045
4.564,0.005,-0.035
4.566,0.030,-0.020
4.568,0.160,0.000
4.570,0.205,0.010
4.572,0.290,0.020
4.574,0.255,0.020
4.576,0.225,0.020
4.578,0.030,0.015
4.580,-0.190,0.005
4.582,-0.045,-0.005
4.584,0.135,-0.010
4.586,0.180,-0.020
4.588,0.145,-0.025
4.590,0.065,-0.030
4.592,0.135,-0.035
4.594,0.220,-0.035
4.596,0.060,-0.035
4.598,0.035,-0.030
4.600,0.010,-0.025
4.602,-0.055,-0.015
4.604,0.055,-0.005
4.606,0.155,0.010
4.608,0.255,0.015
4.610,0.265,0.025
4.612,0.125,0.025
4.614,0.165,0.025
4.616,0.090,0.025
4.618,0.060,0.025
4.620,0.140,0.020
4.622,0.090,0.020
4.624,0.020,0.025
4.626,0.110,0.025
4.628,0.215,0.030
4.630,0.295,0.030
4.632,0.230,0.030
4.634,0.115,0.025
4.636,0.040,0.020
4.638,0.130,0.015
4.640,0.025,0.010
4.642,0.040,0.010
4.644,0.040,0.010
4.646,0.130,0.010
4.648,0.200,0.015
4.650,0.215,0.015
4.652,0.215,0.010
4.654,0.285,0.000
4.656,0.060,-0.015
4.658,-0.030,-0.035
4.660,-0.150,-0.050
4.662,0.005,-0.065
4.664,-0.075,-0.070
4.666,0.025,-0.070
4.668,0.030,-0.060
4.670,0.250,-0.050
4.672,0.300,-0.040
4.674,0.180,-0.030
4.676,0.010,-0.025
4.678,-0.010,-0.030
4.680,0.010,-0.035
4.682,-0.170,-0.045
4.684,0.015,-0.055
4.686,0.060,-0.060
4.688,0.085,-0.055
4.690,0.180,-0.050
4.692,0.295,-0.035
4.694,0.140,-0.025
4.696,0.110,-0.015
4.698,0.010,-0.010
4.700,-0.105,-0.015
4.702,-0.065,-0.020
4.704,0.035,-0.025
4.706,0.165,-0.030
4.708,0.165,-0.030
4.710,0.250,-0.015
4.712,0.225,0.005
4.714,0.180,0.030
4.716,0.075,0.065
4.718,0.130,0.100
4.720,0.155,0.130
4.722,0.250,0.150
4.724,0.200,0.155
4.726,0.220,0.145
4.728,0.225,0.115
4.730,0.510,0.065
4.732,0.295,0.000
4.734,-0.115,-0.080
4.736,-0.230,-0.170
4.738,-0.120,-0.270
4.740,-0.365,-0.365
4.742,-0.445,-0.455
4.744,-0.415,-0.530
4.746,-0.615,-0.590
4.748,-0.610,-0.625
4.750,-0.345,-0.630
4.752,-0.395,-0.610
4.754,-0.315,-0.565
4.756,-0.475,-0.505
4.758,-0.450,-0.430
4.760,-0.385,-0.355
4.762,-0.240,-0.280
4.764,-0.045,-0.220
4.766,0.040,-0.170
4.768,0.100,-0.135
4.770,0.130,-0.105
4.772,0.105,-0.085
4.774,0.140,-0.070
4.776,0.025,-0.055
4.778,-0.070,-0.040
4.780,-0.055,-0.030
4.782,-0.085,-0.015
4.784,0.025,-0.010
4.786,0.190,-0.010
4.788,0.265,-0.015
4.790,0.270,-0.015
4.792,0.200,-0.015
4.794,0.070,-0.010
4.796,0.130,0.005
4.798,-0.040,0.030
4.800,-0.220,0.065
4.802,-0.025,0.095
4.804,0.445,0.125
4.806,0.575,0.145
4.808,0.350,0.150
4.810,0.470,0.135
4.812,0.380,0.105
4.814,0.080,0.065
4.816,-0.140,0.020
4.818,-0.135,-0.025
4.820,-0.040,-0.055
4.822,-0.030,-0.075
4.824,0.005,-0.080
4.826,0.190,-0.070
4.828,0.230,-0.050
4.830,0.230,-0.030
4.832,0.220,-0.005
4.834,0.150,0.015
4.836,0.005,0.030
4.838,-0.010,0.035
4.840,0.010,0.035
4.842,0.095,0.035
4.844,0.115,0.030
4.846,0.245,0.030
4.848,0.305,0.030
4.850,0.290,0.035
4.852,0.305,0.045
4.854,0.120,0.055
4.856,-0.020,0.070
4.858,-0.020,0.080
4.860,0.095,0.090
4.862,0.170,0.095
4.864,0.235,0.095
4.866,0.280,0.090
4.868,0.340,0.085
4.870,0.375,0.085
4.872,0.365,0.085
4.874,0.205,0.085
4.876,-0.045,0.095
4.878,-0.040,0.110
4.880,0.175,0.125
4.882,0.280,0.135
4.884,0.180,0.145
4.886,0.380,0.145
4.888,0.550,0.140
4.890,0.550,0.130
4.892,0.175,0.120
4.894,0.120,0.110
4.896,0.060,0.105
4.898,-0.035,0.110
4.900,0.160,0.120
4.902,0.275,0.135
4.904,0.395,0.155
4.906,0.415,0.175
4.908,0.380,0.190
4.910,0.420,0.195
4.912,0.275,0.195
4.914,0.295,0.185
4.916,0.170,0.175
4.918,0.180,0.165
4.920,0.215,0.155
4.922,0.160,0.155
4.924,0.255,0.155
4.926,0.480,0.170
4.928,0.420,0.185
4.930,0.420,0.205
4.932,0.395,0.220
4.934,0.230,0.235
4.936,0.310,0.245
4.938,0.310,0.250
4.940,0.260,0.250
4.942,0.275,0.250
4.944,0.325,0.250
4.946,0.375,0.255
4.948,0.515,0.255
4.950,0.440,0.260
4.952,0.565,0.260
4.954,0.395,0.260
4.956,0.200,0.245
4.958,0.200,0.230
4.960,0.210,0.200
4.962,0.205,0.170
4.964,0.330,0.135
4.966,0.275,0.110
4.968,0.320,0.090
4.970,0.305,0.080
4.972,0.310,0.085
4.974,0.120,0.095
4.976,0.025,0.110
4.978,0.095,0.125
4.980,0.150,0.130
4.982,0.385,0.125
4.984,0.280,0.110
4.986,0.225,0.080
4.988,0.255,0.055
4.990,0.275,0.025
4.992,0.130,0.005
4.994,0.055,-0.005
4.996,0.010,-0.005
4.998,-0.055,0.005
5.000,0.070,0.015
5.002,0.165,0.030
5.004,0.210,0.045
5.006,0.225,0.045
5.008,0.270,0.045
5.010,0.215,0.035
5.012,0.120,0.020
5.014,0.080,0.005
5.016,0.075,-0.005
5.018,0.010,-0.010
5.020,-0.020,-0.010
5.022,0.030,-0.010
5.024,0.075,-0.010
5.026,0.120,-0.015
5.028,0.265,-0.020
5.030,0.235,-0.025
5.032,0.075,-0.030
5.034,0.040,-0.035
5.036,0.000,-0.030
5.038,-0.050,-0.015
5.040,-0.045,0.000
5.042,0.055,0.025
5.044,0.225,0.040
5.046,0.455,0.050
5.048,0.235,0.050
5.050,0.215,0.035
5.052,0.130,0.005
5.054,0.045,-0.030
5.056,-0.135,-0.070
5.058,-0.220,-0.105
5.060,-0.180,-0.130
5.062,0.030,-0.135
5.064,0.210,-0.125
5.066,0.055,-0.100
5.068,0.195,-0.070
5.070,0.140,-0.035
5.072,0.035,-0.010
5.074,0.065,0.005
5.076,0.130,0.010
5.078,-0.020,0.000
5.080,-0.030,-0.020
5.082,-0.030,-0.035
5.084,0.130,-0.050
5.086,0.085,-0.055
5.088,0.310,-0.050
5.090,0.205,-0.035
5.092,0.110,-0.020
5.094,-0.010,-0.005
5.096,-0.015,0.000
5.098,-0.130,0.000
5.100,0.025,-0.015
5.102,0.185,-0.030
5.104,0.160,-0.050
5.106,0.140,-0.065
5.108,0.195,-0.075
5.110,0.140,-0.070
5.112,0.045,-0.060
5.114,-0.100,-0.045
5.116,-0.055,-0.025
5.118,0.015,-0.010
5.120,0.185,0.000
5.122,0.205,-0.005
5.124,0.070,-0.015
5.126,0.070,-0.030
5.128,0.150,-0.050
5.130,0.175,-0.060
5.132,0.025,-0.070
5.134,0.040,-0.070
5.136,-0.015,-0.060
5.138,-0.145,-0.050
5.140,-0.010,-0.035
5.142,0.115,-0.020
5.144,0.170,-0.010
5.146,0.195,-0.005
5.148,0.240,0.000
5.150,0.195,0.005
5.152,0.150,0.005
5.154,0.065,0.010
5.156,-0.035,0.015
5.158,-0.075,0.020
5.160,0.035,0.025
5.162,0.225,0.030
5.164,0.330,0.030
5.166,0.295,0.025
5.168,0.155,0.010
5.170,0.140,-0.005
5.172,0.085,-0.025
5.174,-0.025,-0.045
5.176,-0.015,-0.065
5.178,-0.050,-0.085
5.180,0.030,-0.095
5.182,-0.120,-0.095
5.184,-0.070,-0.085
5.186,0.215,-0.070
5.188,0.180,-0.050
5.190,0.180,-0.025
5.192,0.235,0.000
5.194,0.105,0.020
5.196,0.020,0.030
5.198,-0.045,0.040
5.200,-0.005,0.035
5.202,0.065,0.025
5.204,0.210,0.015
5.206,0.335,0.000
5.208,0.285,-0.020
5.210,0.160,-0.035
5.212,0.055,-0.045
5.214,0.025,-0.060
5.216,-0.195,-0.065
5.218,-0.190,-0.070
5.220,-0.075,-0.070
5.222,0.125,-0.065
5.224,0.185,-0.050
5.226,0.330,-0.030
5.228,0.265,-0.005
5.230,0.240,0.020
5.232,0.070,0.045
5.234,0.005,0.065
5.236,-0.100,0.070
5.238,0.095,0.060
5.240,0.155,0.035
5.242,0.280,0.005
5.244,0.245,-0.030
5.246,0.095,-0.065
5.248,0.100,-0.085
5.250,0.025,-0.095
5.252,-0.015,-0.090
5.254,-0.130,-0.070
5.256,-0.160,-0.045
5.258,0.125,-0.020
5.260,0.155,0.000
5.262,0.165,0.015
5.264,0.195,0.020
5.266,0.200,0.020
5.268,0.165,0.015
5.270,0.145,0.010
5.272,0.040,0.010
5.274,0.090,0.015
5.276,0.010,0.025
5.278,0.120,0.035
5.280,0.150,0.045
5.282,0.180,0.050
5.284,0.185,0.050
5.286,0.265,0.040
5.288,0.170,0.020
5.290,0.205,0.000
5.292,0.070,-0.020
5.294,-0.110,-0.035
5.296,-0.025,-0.050
5.298,0.095,-0.055
5.300,0.050,-0.055
5.302,0.005,-0.050
5.304,0.070,-0.045
5.306,0.230,-0.035
5.308,0.175,-0.025
5.310,0.125,-0.020
5.312,0.035,-0.015
5.314,0.030,-0.010
5.316,-0.025,-0.010
5.318,0.115,-0.015
5.320,0.025,-0.020
5.322,0.025,-0.030
5.324,0.120,-0.040
5.326,0.210,-0.050
5.328,0.195,-0.055
5.330,0.140,-0.060
5.332,0.010,-0.060
5.334,0.010,-0.055
5.336,-0.170,-0.050
5.338,-0.085,-0.040
5.340,0.145,-0.035
5.342,0.095,-0.030
5.344,0.245,-0.030
5.346,0.275,-0.035
5.348,0.075,-0.045
5.350,-0.060,-0.055
5.352,0.020,-0.065
5.354,0.025,-0.070
5.356,-0.095,-0.070
5.358,0.000,-0.065
5.360,0.070,-0.050
5.362,0.115,-0.035
5.364,0.180,-0.010
5.366,0.165,0.015
5.368,0.205,0.045
5.370,0.365,0.065
5.372,0.145,0.085
5.374,0.130,0.095
5.376,-0.010,0.095
5.378,0.145,0.085
5.380,0.205,0.065
5.382,0.225,0.035
5.384,0.165,-0.005
5.386,0.225,-0.060
5.388,-0.015,-0.120
5.390,-0.205,-0.190
5.392,-0.180,-0.265
5.394,-0.070,-0.340
5.396,-0.350,-0.415
5.398,-0.585,-0.485
5.400,-0.550,-0.540
5.402,-0.460,-0.575
5.404,-0.470,-0.595
5.406,-0.360,-0.590
5.408,-0.345,-0.565
5.410,-0.400,-0.515
5.412,-0.395,-0.455
5.414,-0.270,-0.385
5.416,-0.365,-0.315
5.418,-0.125,-0.245
5.420,-0.040,-0.185
5.422,-0.075,-0.140
5.424,-0.050,-0.105
5.426,0.205,-0.085
5.428,0.180,-0.070
5.430,0.040,-0.060
5.432,0.010,-0.055
5.434,0.010,-0.045
5.436,-0.010,-0.040
5.438,0.015,-0.030
5.440,0.105,-0.020
5.442,0.140,-0.015
5.444,0.205,-0.010
5.446,0.110,-0.010
5.448,0.175,-0.005
5.450,0.090,0.000
5.452,0.070,0.010
5.454,0.155,0.020
5.456,0.085,0.035
5.458,0.105,0.055
5.460,0.080,0.070
5.462,0.255,0.080
5.464,0.255,0.090
5.466,0.350,0.085
5.468,0.260,0.080
5.470,0.180,0.065
5.472,0.055,0.050
5.474,-0.015,0.035
5.476,0.000,0.020
5.478,0.150,0.010
5.480,0.205,0.005
5.482,0.155,0.000
5.484,0.075,-0.005
5.486,0.165,-0.010
5.488,0.185,-0.015
5.490,0.060,-0.020
5.492,0.075,-0.025
5.494,0.010,-0.030
5.496,0.020,-0.025
5.498,0.045,-0.015
5.500,0.130,0.005
5.502,0.075,0.030
5.504,0.135,0.055
5.506,0.315,0.080
5.508,0.440,0.100
5.510,0.300,0.115
5.512,0.305,0.125
5.514,0.065,0.120
5.516,-0.025,0.115
5.518,0.050,0.100
5.520,0.245,0.080
5.522,0.265,0.065
5.524,0.275,0.050
5.526,0.310,0.040
5.528,0.100,0.035
5.530,0.150,0.040
5.532,0.175,0.050
5.534,0.170,0.065
5.536,-0.015,0.085
5.538,0.135,0.100
5.540,0.265,0.115
5.542,0.255,0.120
5.544,0.300,0.125
5.546,0.445,0.120
5.548,0.250,0.115
5.550,0.240,0.115
5.552,0.220,0.115
5.554,0.200,0.125
5.556,0.100,0.140
5.558,0.080,0.155
5.560,0.225,0.175
5.562,0.390,0.185
5.564,0.490,0.195
5.566,0.465,0.190
5.568,0.405,0.180
5.570,0.230,0.165
5.572,0.165,0.155
5.574,-0.020,0.145
5.576,0.080,0.145
5.578,0.215,0.155
5.580,0.380,0.180
5.582,0.500,0.205
5.584,0.520,0.230
5.586,0.445,0.255
5.588,0.375,0.275
5.590,0.365,0.285
5.592,0.295,0.290
5.594,0.195,0.285
5.596,0.335,0.280
5.598,0.240,0.265
5.600,0.310,0.255
5.602,0.560,0.240
5.604,0.580,0.225
5.606,0.435,0.210
5.608,0.370,0.195
5.610,0.035,0.180
5.612,0.115,0.170
5.614,0.175,0.165
5.616,0.125,0.165
5.618,0.225,0.165
5.620,0.495,0.170
5.622,0.465,0.175
5.624,0.535,0.175
5.626,0.270,0.170
5.628,0.160,0.160
5.630,0.110,0.145
5.632,0.110,0.125
5.634,0.145,0.105
5.636,0.280,0.090
5.638,0.135,0.070
5.640,0.225,0.060
5.642,0.305,0.050
5.644,0.280,0.045
5.646,0.170,0.040
5.648,0.120,0.035
5.650,0.015,0.030
5.652,0.045,0.025
5.654,-0.050,0.020
5.656,0.100,0.010
5.658,0.175,0.005
5.660,0.025,-0.005
5.662,0.290,-0.010
5.664,0.285,-0.010
5.666,0.245,-0.010
5.668,0.130,-0.005
5.670,-0.055,0.000
5.672,-0.165,0.005
5.674,-0.130,0.010
5.676,0.185,0.015
5.678,0.160,0.010
5.680,0.235,0.000
5.682,0.250,-0.010
5.684,0.275,-0.030
5.686,0.060,-0.050
5.688,-0.160,-0.065
5.690,-0.010,-0.080
5.692,-0.135,-0.090
5.694,-0.095,-0.090
5.696,-0.030,-0.085
5.698,0.065,-0.075
5.700,0.220,-0.060
5.702,0.135,-0.050
5.704,0.145,-0.045
5.706,0.190,-0.045
5.708,0.180,-0.045
5.710,-0.025,-0.055
5.712,-0.240,-0.060
5.714,-0.240,-0.065
5.716,-0.060,-0.065
5.718,0.150,-0.055
5.720,0.225,-0.040
5.722,0.260,-0.025
5.724,0.285,-0.010
5.726,0.130,0.005
5.728,-0.065,0.005
5.730,0.055,0.005
5.732,-0.010,-0.010
5.734,-0.070,-0.025
5.736,-0.025,-0.040
5.738,0.025,-0.050
5.740,0.110,-0.055
5.742,0.205,-0.050
5.744,0.195,-0.040
5.746,0.140,-0.025
5.748,0.070,-0.010
5.750,0.180,-0.005
5.752,0.055,0.000
5.754,-0.150,-0.010
5.756,-0.120,-0.020
5.758,0.025,-0.040
5.760,0.155,-0.055
5.762,0.245,-0.065
5.764,0.175,-0.070
5.766,0.265,-0.065
5.768,0.000,-0.055
5.770,-0.175,-0.040
5.772,0.010,-0.030
5.774,-0.080,-0.025
5.776,-0.060,-0.025
5.778,0.080,-0.035
5.780,0.090,-0.050
5.782,0.145,-0.065
5.784,0.230,-0.075
5.786,0.220,-0.080
5.788,0.045,-0.075
5.790,-0.095,-0.065
5.792,-0.170,-0.050
5.794,-0.095,-0.040
5.796,0.050,-0.030
5.798,0.075,-0.030
5.800,0.090,-0.035
5.802,0.220,-0.045
5.804,0.195,-0.060
5.806,0.205,-0.070
5.808,0.040,-0.070
5.810,-0.115,-0.060
5.812,-0.090,-0.040
5.814,-0.120,-0.015
5.816,-0.070,0.010
5.818,0.065,0.030
5.820,0.415,0.045
5.822,0.580,0.045
5.824,0.270,0.030
5.826,0.150,0.005
5.828,0.055,-0.025
5.830,-0.215,-0.050
5.832,-0.255,-0.070
5.834,-0.080,-0.085
5.836,0.035,-0.085
5.838,0.040,-0.075
5.840,0.255,-0.055
5.842,0.235,-0.040
5.844,0.175,-0.020
5.846,0.195,-0.010
5.848,0.035,-0.005
5.850,-0.205,-0.005
5.852,-0.055,-0.010
5.854,0.075,-0.020
5.856,0.035,-0.025
5.858,0.090,-0.030
5.860,0.145,-0.035
5.862,0.230,-0.040
5.864,0.200,-0.040
5.866,0.075,-0.045
5.868,-0.100,-0.050
5.870,-0.010,-0.055
5.872,-0.065,-0.060
5.874,-0.150,-0.070
5.876,-0.095,-0.075
5.878,0.100,-0.075
5.880,0.170,-0.065
5.882,0.130,-0.055
5.884,0.215,-0.035
5.886,0.120,-0.015
5.888,0.080,0.010
5.890,0.040,0.025
5.892,0.115,0.035
5.894,0.085,0.040
5.896,-0.030,0.030
5.898,0.045,0.015
5.900,0.140,-0.005
5.902,0.230,-0.025
5.904,0.225,-0.050
5.906,0.275,-0.065
5.908,0.000,-0.070
5.910,-0.250,-0.070
5.912,-0.165,-0.065
5.914,-0.015,-0.055
5.916,0.120,-0.045
5.918,0.040,-0.040
5.920,0.075,-0.035
5.922,0.105,-0.040
5.924,0.280,-0.050
5.926,0.245,-0.060
5.928,-0.065,-0.065
5.930,-0.105,-0.070
5.932,-0.125,-0.065
5.934,-0.055,-0.055
5.936,0.040,-0.035
5.938,0.170,-0.010
5.940,0.265,0.010
5.942,0.280,0.030
5.944,0.235,0.040
5.946,0.120,0.040
5.948,0.020,0.035
5.950,0.065,0.025
5.952,0.055,0.020
5.954,0.045,0.010
5.956,0.025,0.015
5.958,-0.065,0.020
5.960,0.150,0.035
5.962,0.395,0.045
5.964,0.445,0.055
5.966,0.315,0.055
5.968,0.060,0.040
5.970,-0.045,0.020
5.972,-0.170,-0.005
5.974,-0.135,-0.030
5.976,0.015,-0.050
5.978,0.195,-0.065
5.980,0.165,-0.065
5.982,0.070,-0.060
5.984,0.200,-0.045
5.986,0.170,-0.035
5.988,0.085,-0.025
5.990,-0.010,-0.030
5.992,0.000,-0.040
5.994,-0.135,-0.065
5.996,-0.095,-0.090
5.998,-0.045,-0.115
6.000,-0.100,-0.130
6.002,0.120,-0.130
6.004,0.180,-0.125
6.006,0.120,-0.105
6.008,0.070,-0.075
6.010,-0.085,-0.050
6.012,-0.130,-0.030
6.014,-0.025,-0.015
6.016,0.055,-0.010
6.018,0.105,-0.015
6.020,0.220,-0.025
6.022,0.210,-0.040
6.024,0.115,-0.050
6.026,0.060,-0.055
6.028,-0.090,-0.055
6.030,-0.070,-0.050
6.032,0.025,-0.040
6.034,0.055,-0.025
6.036,0.130,-0.010
6.038,0.050,0.010
6.040,0.005,0.025
6.042,0.235,0.040
6.044,0.440,0.060
6.046,0.275,0.075
6.048,0.100,0.090
6.050,0.060,0.105
6.052,-0.010,0.110
6.054,0.170,0.110
6.056,0.290,0.095
6.058,0.280,0.060
6.060,0.105,0.015
6.062,0.145,-0.050
6.064,0.115,-0.130
6.066,-0.170,-0.215
6.068,-0.290,-0.310
6.070,-0.405,-0.395
6.072,-0.580,-0.470
6.074,-0.490,-0.530
6.076,-0.535,-0.570
6.078,-0.455,-0.585
6.080,-0.390,-0.575
6.082,-0.365,-0.550
6.084,-0.270,-0.505
6.086,-0.400,-0.450
6.088,-0.310,-0.390
6.090,-0.245,-0.330
6.092,-0.255,-0.270
6.094,-0.285,-0.220
6.096,-0.090,-0.175
6.098,-0.040,-0.140
6.100,0.075,-0.110
6.102,0.185,-0.090
6.104,0.120,-0.075
6.106,0.075,-0.065
6.108,0.020,-0.055
6.110,0.025,-0.055
6.112,-0.045,-0.055
6.114,-0.170,-0.055
6.116,-0.070,-0.055
6.118,0.100,-0.050
6.120,0.185,-0.035
6.122,0.200,-0.015
6.124,0.275,0.010
6.126,0.160,0.040
6.128,0.140,0.070
6.130,0.025,0.095
6.132,0.175,0.110
6.134,0.040,0.115
6.136,0.120,0.105
6.138,0.205,0.090
6.140,0.365,0.065
6.142,0.280,0.040
6.144,0.180,0.020
6.146,0.125,0.005
6.148,0.080,0.000
6.150,-0.060,0.000
6.152,-0.065,0.010
6.154,-0.040,0.020
6.156,0.155,0.030
6.158,0.300,0.045
6.160,0.385,0.055
6.162,0.215,0.060
6.164,0.235,0.060
6.166,0.190,0.060
6.168,0.005,0.060
6.170,-0.025,0.060
6.172,0.095,0.060
6.174,0.160,0.060
6.176,0.135,0.060
6.178,0.285,0.060
6.180,0.285,0.060
6.182,0.175,0.060
6.184,0.130,0.060
6.186,0.145,0.065
6.188,0.200,0.075
6.190,0.100,0.090
6.192,0.085,0.105
6.194,0.120,0.125
6.196,0.320,0.145
6.198,0.295,0.160
6.200,0.290,0.175
6.202,0.305,0.185
6.204,0.445,0.185
6.206,0.275,0.185
6.208,0.190,0.185
6.210,0.270,0.180
6.212,0.150,0.180
6.214,0.165,0.180
6.216,0.285,0.190
6.218,0.210,0.200
6.220,0.305,0.215
6.222,0.505,0.230
6.224,0.600,0.235
6.226,0.405,0.235
6.228,0.270,0.225
6.230,0.155,0.205
6.232,0.020,0.180
6.234,0.055,0.155
6.236,0.295,0.130
6.238,0.180,0.110
6.240,0.345,0.105
6.242,0.420,0.115
6.244,0.340,0.130
6.246,0.260,0.160
6.248,0.235,0.190
6.250,0.215,0.220
6.252,0.175,0.240
6.254,0.275,0.255
6.256,0.340,0.260
6.258,0.320,0.255
6.260,0.585,0.250
6.262,0.445,0.240
6.264,0.265,0.230
6.266,0.395,0.220
6.268,0.230,0.215
6.270,0.160,0.210
6.272,0.245,0.210
6.274,0.250,0.205
6.276,0.235,0.205
6.278,0.330,0.200
6.280,0.395,0.200
6.282,0.405,0.195
6.284,0.315,0.195
6.286,0.220,0.195
6.288,0.190,0.190
6.290,0.130,0.185
6.292,0.250,0.180
6.294,0.310,0.170
6.296,0.210,0.165
6.298,0.210,0.165
6.300,0.545,0.165
6.302,0.375,0.170
6.304,0.105,0.180
6.306,0.200,0.185
6.308,0.235,0.190
6.310,0.205,0.185
6.312,0.200,0.165
6.314,0.355,0.140
6.316,0.205,0.105
6.318,0.110,0.065
6.320,0.190,0.030
6.322,0.200,0.005
6.324,0.080,-0.010
6.326,-0.095,-0.015
6.328,0.075,-0.015
6.330,0.040,-0.010
6.332,0.120,-0.010
6.334,0.060,-0.015
6.336,0.000,-0.025
6.338,0.075,-0.045
6.340,0.150,-0.070
6.342,0.060,-0.090
6.344,0.040,-0.100
6.346,-0.090,-0.100
6.348,-0.110,-0.085
6.350,-0.030,-0.065
6.352,0.000,-0.040
6.354,0.090,-0.015
6.356,0.235,0.000
6.358,0.145,0.005
6.360,0.125,0.000
6.362,0.090,-0.010
6.364,0.070,-0.020
6.366,-0.075,-0.030
6.368,0.075,-0.025
6.370,-0.035,-0.015
6.372,-0.075,0.000
6.374,0.125,0.020
6.376,0.210,0.035
6.378,0.275,0.040
6.380,0.340,0.035
6.382,0.260,0.020
6.384,-0.085,0.000
6.386,-0.055,-0.025
6.388,-0.080,-0.045
6.390,-0.050,-0.055
6.392,-0.030,-0.055
6.394,0.090,-0.045
6.396,0.195,-0.030
6.398,0.260,-0.015
6.400,0.130,-0.005
6.402,-0.015,-0.005
6.404,0.045,-0.015
6.406,0.080,-0.035
6.408,0.100,-0.065
6.410,-0.140,-0.095
6.412,-0.170,-0.120
6.414,-0.180,-0.135
6.416,-0.165,-0.140
6.418,0.145,-0.130
6.420,0.185,-0.110
6.422,0.135,-0.085
6.424,0.005,-0.060
6.426,-0.030,-0.035
6.428,-0.090,-0.020
6.430,-0.105,-0.015
6.432,-0.080,-0.020
6.434,0.110,-0.030
6.436,0.155,-0.045
6.438,0.155,-0.055
6.440,0.175,-0.055
6.442,0.055,-0.050
6.444,0.030,-0.035
6.446,-0.140,-0.020
6.448,0.045,0.000
6.450,0.090,0.015
6.452,0.040,0.025
6.454,0.075,0.025
6.456,0.215,0.015
6.458,0.265,0.005
6.460,0.115,-0.010
6.462,0.010,-0.025
6.464,0.075,-0.030
6.466,0.015,-0.035
6.468,-0.200,-0.030
6.470,0.050,-0.025
6.472,0.100,-0.020
6.474,0.095,-0.015
6.476,0.035,-0.020
6.478,0.150,-0.030
6.480,0.195,-0.040
6.482,0.085,-0.050
6.484,-0.030,-0.050
6.486,-0.015,-0.050
6.488,-0.075,-0.040
6.490,-0.030,-0.025
6.492,0.040,-0.010
6.494,0.040,0.000
6.496,0.160,0.005
6.498,0.285,0.000
6.500,0.290,-0.020
6.502,0.015,-0.040
6.504,-0.080,-0.060
6.506,-0.145,-0.075
6.508,-0.125,-0.085
6.510,-0.040,-0.075
6.512,0.045,-0.060
6.514,0.095,-0.030
6.516,0.020,-0.005
6.518,0.345,0.020
6.520,0.215,0.035
6.522,0.145,0.040
6.524,-0.005,0.030
6.526,0.015,0.015
6.528,-0.065,-0.010
6.530,-0.020,-0.030
6.532,-0.015,-0.050
6.534,0.055,-0.060
6.536,0.215,-0.060
6.538,0.145,-0.055
6.540,0.105,-0.050
6.542,0.145,-0.040
6.544,-0.080,-0.030
6.546,-0.115,-0.025
6.548,0.005,-0.025
6.550,-0.010,-0.030
6.552,-0.005,-0.035
6.554,0.095,-0.035
6.556,0.160,-0.035
6.558,0.165,-0.030
6.560,0.120,-0.020
6.562,0.135,-0.010
6.564,0.000,0.000
6.566,-0.025,0.015
6.568,-0.085,0.025
6.570,0.055,0.030
6.572,0.220,0.030
6.574,0.160,0.030
6.576,0.175,0.020
6.578,0.190,0.010
6.580,0.120,0.000
6.582,0.010,-0.015
6.584,0.100,-0.030
6.586,-0.010,-0.045
6.588,-0.200,-0.050
6.590,-0.215,-0.055
6.592,0.065,-0.055
6.594,0.180,-0.050
6.596,0.120,-0.045
6.598,0.190,-0.035
6.600,0.205,-0.030
6.602,0.105,-0.025
6.604,-0.075,-0.025
6.606,-0.075,-0.030
6.608,-0.155,-0.035
6.610,-0.080,-0.040
6.612,-0.025,-0.045
6.614,0.175,-0.050
6.616,0.220,-0.045
6.618,0.215,-0.035
6.620,0.125,-0.025
6.622,-0.070,-0.010
6.624,-0.080,0.000
6.626,0.030,0.010
6.628,-0.005,0.015
6.630,0.035,0.015
6.632,0.085,0.010
6.634,0.090,0.005
6.636,0.250,0.000
6.638,0.255,0.000
6.640,0.105,0.005
6.642,0.120,0.010
6.644,-0.045,0.025
6.646,-0.020,0.040
6.648,0.085,0.050
6.650,0.080,0.055
6.652,0.170,0.050
6.654,0.235,0.040
6.656,0.050,0.020
6.658,0.210,-0.005
6.660,0.180,-0.035
6.662,0.045,-0.055
6.664,-0.115,-0.070
6.666,-0.140,-0.080
6.668,-0.235,-0.075
6.670,0.075,-0.060
6.672,0.100,-0.040
6.674,0.070,-0.020
6.676,0.055,0.000
6.678,0.230,0.010
6.680,0.180,0.015
6.682,0.155,0.005
6.684,0.005,-0.005
6.686,-0.080,-0.025
6.688,-0.105,-0.040
6.690,-0.060,-0.055
6.692,0.015,-0.060
6.694,0.070,-0.055
6.696,0.105,-0.050
6.698,0.195,-0.035
6.700,0.145,-0.025
6.702,0.035,-0.020
6.704,-0.150,-0.020
6.706,-0.010,-0.030
6.708,0.035,-0.045
6.710,-0.100,-0.065
6.712,-0.070,-0.080
6.714,0.160,-0.090
6.716,0.090,-0.090
6.718,0.015,-0.080
6.720,-0.035,-0.065
6.722,0.055,-0.040
6.724,0.160,-0.015
6.726,-0.055,0.005
6.728,-0.045,0.020
6.730,0.155,0.030
6.732,0.055,0.035
6.734,0.175,0.040
6.736,0.210,0.040
6.738,0.340,0.045
6.740,0.175,0.050
6.742,0.115,0.050
6.744,0.065,0.045
6.746,-0.040,0.025
6.748,-0.080,-0.005
6.750,-0.050,-0.060
6.752,-0.030,-0.130
6.754,0.035,-0.215
6.756,-0.115,-0.305
6.758,-0.325,-0.395
6.760,-0.385,-0.465
6.762,-0.460,-0.520
6.764,-0.685,-0.555
6.766,-0.590,-0.560
6.768,-0.645,-0.550
6.770,-0.430,-0.520
6.772,-0.350,-0.480
6.774,-0.245,-0.435
6.776,-0.140,-0.385
6.778,-0.125,-0.335
6.780,-0.135,-0.290
6.782,-0.215,-0.240
6.784,-0.195,-0.195
6.786,-0.215,-0.155
6.788,-0.100,-0.120
6.790,-0.060,-0.090
6.792,0.065,-0.075
6.794,0.120,-0.065
6.796,0.190,-0.065
6.798,0.195,-0.065
6.800,-0.125,-0.070
6.802,-0.005,-0.065
6.804,-0.040,-0.060
6.806,-0.140,-0.045
6.808,-0.045,-0.025
6.810,0.120,0.000
6.812,0.170,0.015
6.814,0.120,0.025
6.816,0.140,0.030
6.818,0.115,0.020
6.820,0.255,0.005
6.822,0.025,-0.015
6.824,-0.150,-0.030
6.826,-0.080,-0.045
6.828,-0.055,-0.050
6.830,0.065,-0.045
6.832,0.120,-0.035
6.834,0.055,-0.020
6.836,0.135,-0.005
6.838,0.215,0.010
6.840,0.265,0.020
6.842,0.005,0.025
6.844,-0.110,0.025
6.846,-0.065,0.030
6.848,0.150,0.030
6.850,0.150,0.040
6.852,0.080,0.050
6.854,0.155,0.060
6.856,0.245,0.075
6.858,0.365,0.085
6.860,0.230,0.090
6.862,0.085,0.090
6.864,0.055,0.075
6.866,-0.030,0.060
6.868,0.045,0.035
6.870,0.075,0.010
6.872,0.020,-0.015
6.874,0.095,-0.030
6.876,0.180,-0.035
6.878,0.120,-0.035
6.880,0.130,-0.020
6.882,0.105,0.005
6.884,0.050,0.030
6.886,0.005,0.060
6.888,-0.115,0.090
6.890,0.145,0.115
6.892,0.300,0.130
6.894,0.360,0.140
6.896,0.320,0.140
6.898,0.260,0.140
6.900,0.275,0.135
6.902,0.235,0.125
6.904,0.060,0.120
6.906,-0.100,0.110
6.908,0.060,0.105
6.910,0.300,0.100
6.912,0.285,0.100
6.914,0.150,0.105
6.916,0.235,0.110
6.918,0.295,0.125
6.920,0.350,0.140
6.922,0.220,0.155
6.924,0.130,0.175
6.926,0.030,0.185
6.928,0.125,0.185
6.930,0.185,0.180
6.932,0.390,0.165
6.934,0.355,0.150
6.936,0.445,0.130
6.938,0.280,0.125
6.940,0.120,0.125
6.942,0.045,0.140
6.944,0.085,0.165
6.946,0.150,0.195
6.948,0.315,0.230
6.950,0.380,0.255
6.952,0.440,0.265
6.954,0.395,0.270
6.956,0.490,0.260
6.958,0.440,0.245
6.960,0.245,0.225
6.962,-0.025,0.215
6.964,0.165,0.210
6.966,0.215,0.215
6.968,0.335,0.220
6.970,0.385,0.220
6.972,0.350,0.220
6.974,0.340,0.205
6.976,0.265,0.185
6.978,0.275,0.155
6.980,0.250,0.130
6.982,0.080,0.110
6.984,0.000,0.100
6.986,0.010,0.100
6.988,0.190,0.115
6.990,0.325,0.135
6.992,0.295,0.150
6.994,0.245,0.155
6.996,0.320,0.150
6.998,0.300,0.130
7.000,0.185,0.100
7.002,0.090,0.075
7.004,-0.045,0.050
7.006,-0.130,0.040
7.008,0.020,0.045
7.010,0.135,0.060
7.012,0.260,0.080
7.014,0.275,0.095
7.016,0.475,0.105
7.018,0.415,0.090
7.020,-0.015,0.065
7.022,-0.185,0.030
7.024,-0.110,-0.015
7.026,-0.140,-0.055
7.028,-0.110,-0.080
7.030,-0.060,-0.095
7.032,0.145,-0.090
7.034,0.105,-0.075
7.036,0.230,-0.055
7.038,0.130,-0.040
7.040,-0.030,-0.025
7.042,-0.135,-0.025
7.044,-0.125,-0.035
7.046,-0.090,-0.045
7.048,-0.100,-0.060
7.050,-0.025,-0.075
7.052,0.165,-0.075
7.054,0.145,-0.070
7.056,0.170,-0.060
7.058,0.045,-0.045
7.060,0.025,-0.030
7.062,0.010,-0.020
7.064,-0.185,-0.015
7.066,-0.080,-0.020
7.068,0.005,-0.035
7.070,-0.005,-0.050
7.072,0.220,-0.065
7.074,0.125,-0.075
7.076,0.105,-0.080
7.078,0.060,-0.075
7.080,-0.100,-0.060
7.082,-0.100,-0.045
7.084,-0.050,-0.025
7.086,-0.055,-0.005
7.088,-0.105,0.010
7.090,0.155,0.020
7.092,0.345,0.025
7.094,0.350,0.025
7.096,0.075,0.025
7.098,-0.020,0.020
7.100,0.055,0.010
7.102,-0.055,0.005
7.104,-0.055,0.000
7.106,0.000,-0.010
7.108,0.040,-0.015
7.110,0.130,-0.025
7.112,0.050,-0.035
7.114,0.205,-0.050
7.116,0.200,-0.060
7.118,-0.030,-0.070
7.120,-0.200,-0.080
7.122,-0.160,-0.085
7.124,-0.205,-0.085
7.126,-0.035,-0.085
7.128,0.000,-0.075
7.130,0.080,-0.070
7.132,0.080,-0.065
7.134,0.010,-0.055
7.136,0.115,-0.045
7.138,0.035,-0.035
7.140,-0.055,-0.020
7.142,0.005,-0.010
7.144,0.035,0.005
7.146,-0.050,0.015
7.148,0.005,0.020
7.150,0.130,0.025
7.152,0.235,0.020
7.154,0.315,0.005
7.156,0.100,-0.010
7.158,-0.005,-0.025
7.160,-0.090,-0.040
7.162,-0.125,-0.050
7.164,-0.130,-0.050
7.166,-0.065,-0.040
7.168,0.095,-0.020
7.170,0.155,0.005
7.172,0.140,0.030
7.174,0.195,0.050
7.176,0.285,0.065
7.178,0.215,0.070
7.180,0.130,0.065
7.182,-0.070,0.055
7.184,-0.115,0.035
7.186,-0.010,0.015
7.188,0.030,0.000
7.190,0.045,-0.015
7.192,0.185,-0.020
7.194,0.210,-0.020
7.196,0.135,-0.020
7.198,0.030,-0.010
7.200,0.050,-0.005
7.202,-0.065,0.005
7.204,-0.095,0.010
7.206,-0.015,0.015
7.208,0.075,0.015
7.210,0.035,0.010
7.212,0.080,0.005
7.214,0.215,-0.005
7.216,0.210,-0.015
7.218,0.140,-0.030
7.220,-0.060,-0.040
7.222,0.040,-0.050
7.224,-0.210,-0.055
7.226,-0.205,-0.055
7.228,-0.050,-0.045
7.230,-0.050,-0.030
7.232,-0.050,-0.015
7.234,0.285,0.005
7.236,0.595,0.020
7.238,0.235,0.030
7.240,-0.060,0.030
7.242,-0.145,0.025
7.244,-0.205,0.015
7.246,-0.080,0.000
7.248,0.045,-0.015
7.250,0.165,-0.025
7.252,0.240,-0.030
7.254,0.145,-0.030
7.256,0.045,-0.025
7.258,0.075,-0.020
7.260,0.020,-0.020
7.262,-0.060,-0.025
7.264,-0.145,-0.030
7.266,-0.215,-0.040
7.268,-0.015,-0.050
7.270,0.155,-0.055
7.272,0.020,-0.055
7.274,0.290,-0.050
7.276,0.110,-0.040
7.278,0.040,-0.025
7.280,-0.025,-0.010
7.282,-0.040,0.000
7.284,-0.140,0.005
7.286,0.020,0.005
7.288,0.110,0.000
7.290,0.135,-0.010
7.292,0.080,-0.015
7.294,0.080,-0.020
7.296,0.025,-0.015
7.298,0.105,-0.005
7.300,0.110,0.010
7.302,-0.005,0.025
7.304,-0.065,0.040
7.306,-0.010,0.045
7.308,0.155,0.045
7.310,0.155,0.040
7.312,0.090,0.030
7.314,0.210,0.015
7.316,0.250,0.010
7.318,0.010,0.005
7.320,-0.005,0.015
7.322,0.040,0.025
7.324,-0.025,0.045
7.326,-0.010,0.065
7.328,0.035,0.085
7.330,0.255,0.090
7.332,0.245,0.090
7.334,0.380,0.075
7.336,0.120,0.055
7.338,-0.020,0.030
7.340,0.070,0.005
7.342,0.010,-0.015
7.344,-0.110,-0.025
7.346,-0.215,-0.030
7.348,0.030,-0.020
7.350,0.120,-0.005
7.352,0.170,0.015
7.354,0.155,0.030
7.356,0.215,0.040
7.358,0.290,0.040
7.360,0.035,0.035
7.362,-0.150,0.020
7.364,-0.060,0.000
7.366,-0.125,-0.020
7.368,-0.040,-0.035
7.370,0.090,-0.045
7.372,0.190,-0.045
7.374,0.185,-0.035
7.376,0.145,-0.020
7.378,0.095,0.005
7.380,-0.020,0.025
7.382,-0.175,0.040
7.384,-0.160,0.040
7.386,-0.025,0.035
7.388,0.355,0.015
7.390,0.285,-0.010
7.392,0.160,-0.040
7.394,-0.035,-0.070
7.396,-0.225,-0.095
7.398,-0.080,-0.105
7.400,-0.170,-0.110
7.402,-0.130,-0.105
7.404,-0.040,-0.095
7.406,-0.005,-0.080
7.408,-0.025,-0.070
7.410,-0.010,-0.060
7.412,0.075,-0.055
7.414,0.130,-0.055
7.416,0.010,-0.060
7.418,-0.010,-0.060
7.420,-0.105,-0.065
7.422,-0.065,-0.060
7.424,-0.120,-0.045
7.426,-0.025,-0.025
7.428,0.125,0.005
7.430,0.095,0.045
7.432,0.170,0.090
7.434,0.390,0.140
7.436,0.315,0.180
7.438,0.220,0.210
7.440,0.270,0.220
7.442,0.145,0.210
7.444,0.095,0.170
7.446,0.080,0.100
7.448,0.070,0.015
7.450,-0.025,-0.090
7.452,-0.080,-0.195
7.454,-0.030,-0.300
7.456,-0.285,-0.390
7.458,-0.500,-0.460
7.460,-0.480,-0.505
7.462,-0.720,-0.525
7.464,-0.745,-0.525
7.466,-0.520,-0.510
7.468,-0.210,-0.480
7.470,-0.320,-0.440
7.472,-0.290,-0.400
7.474,-0.235,-0.355
7.476,-0.250,-0.315
7.478,-0.150,-0.280
7.480,-0.210,-0.250
7.482,-0.285,-0.225
7.484,-0.295,-0.205
7.486,-0.195,-0.195
7.488,-0.100,-0.185
7.490,-0.010,-0.175
7.492,0.100,-0.160
7.494,-0.055,-0.135
7.496,-0.055,-0.110
7.498,-0.050,-0.080
7.500,-0.020,-0.055
7.502,-0.110,-0.030
7.504,-0.075,-0.015
7.506,-0.020,-0.010
7.508,0.140,-0.010
7.510,0.240,-0.020
7.512,0.120,-0.030
7.514,0.065,-0.035
7.516,-0.125,-0.030
7.518,-0.065,-0.015
7.520,0.035,0.005
7.522,0.095,0.030
7.524,0.005,0.050
7.526,0.040,0.065
7.528,0.195,0.070
7.530,0.180,0.060
7.532,0.180,0.045
7.534,0.075,0.025
7.536,0.085,0.010
7.538,0.050,0.005
7.540,0.000,0.005
7.542,-0.045,0.015
7.544,0.015,0.030
7.546,0.075,0.045
7.548,0.095,0.055
7.550,0.230,0.060
7.552,0.290,0.055
7.554,0.115,0.050
7.556,0.090,0.040
7.558,0.030,0.030
7.560,0.035,0.030
7.562,-0.010,0.030
7.564,-0.095,0.035
7.566,-0.070,0.040
7.568,0.120,0.045
7.570,0.280,0.050
7.572,0.275,0.040
7.574,0.285,0.035
7.576,0.130,0.020
7.578,-0.180,0.010
7.580,-0.120,0.000
7.582,-0.125,-0.005
7.584,0.010,0.000
7.586,0.155,0.005
7.588,0.100,0.020
7.590,0.210,0.035
7.592,0.160,0.050
7.594,0.220,0.065
7.596,0.140,0.080
7.598,0.060,0.100
7.600,0.035,0.115
7.602,-0.010,0.135
7.604,0.005,0.150
7.606,0.180,0.160
7.608,0.470,0.165
7.610,0.400,0.165
7.612,0.330,0.165
7.614,0.220,0.160
7.616,0.095,0.155
7.618,0.095,0.155
7.620,0.010,0.165
7.622,0.145,0.170
7.624,0.135,0.185
7.626,0.285,0.195
7.628,0.420,0.205
7.630,0.395,0.205
7.632,0.360,0.205
7.634,0.275,0.200
7.636,0.115,0.195
7.638,0.165,0.190
7.640,0.035,0.195
7.642,0.085,0.200
7.644,0.205,0.215
7.646,0.375,0.235
7.648,0.525,0.250
7.650,0.550,0.255
7.652,0.320,0.255
7.654,0.375,0.245
7.656,0.055,0.225
7.658,0.140,0.205
7.660,0.110,0.180
7.662,-0.020,0.160
7.664,0.185,0.150
7.666,0.275,0.150
7.668,0.290,0.155
7.670,0.375,0.165
7.672,0.340,0.180
7.674,0.275,0.195
7.676,0.210,0.205
7.678,0.080,0.205
7.680,0.070,0.205
7.682,0.155,0.195
7.684,0.335,0.185
7.686,0.335,0.175
7.688,0.220,0.160
7.690,0.185,0.150
7.692,0.250,0.140
7.694,0.245,0.125
7.696,0.200,0.115
7.698,0.055,0.105
7.700,0.010,0.100
7.702,-0.010,0.095
7.704,0.000,0.090
7.706,0.115,0.095
7.708,0.300,0.095
7.710,0.320,0.100
7.712,0.270,0.100
7.714,0.105,0.095
7.716,-0.030,0.085
7.718,0.070,0.065
7.720,0.040,0.040
7.722,-0.075,0.010
7.724,-0.150,-0.025
7.726,-0.030,-0.055
7.728,0.120,-0.080
7.730,0.205,-0.095
7.732,-0.070,-0.105
7.734,0.015,-0.105
7.736,-0.005,-0.100
7.738,-0.170,-0.085
7.740,-0.270,-0.070
7.742,-0.250,-0.055
7.744,0.065,-0.040
7.746,0.085,-0.030
7.748,0.000,-0.025
7.750,0.180,-0.025
7.752,0.270,-0.025
7.754,0.140,-0.030
7.756,-0.175,-0.030
7.758,-0.180,-0.035
7.760,-0.170,-0.040
7.762,-0.035,-0.045
7.764,0.005,-0.050
7.766,0.045,-0.050
7.768,0.015,-0.055
7.770,0.045,-0.060
7.772,0.075,-0.065
7.774,0.050,-0.065
7.776,-0.040,-0.065
7.778,-0.085,-0.060
7.780,-0.100,-0.050
7.782,-0.120,-0.040
7.784,-0.055,-0.025
7.786,0.080,-0.010
7.788,0.105,0.005
7.790,0.210,0.015
7.792,0.075,0.020
7.794,0.060,0.015
7.796,0.015,0.000
7.798,0.185,-0.020
7.800,0.030,-0.045
7.802,-0.385,-0.075
7.804,-0.205,-0.100
7.806,-0.045,-0.125
7.808,-0.100,-0.140
7.810,0.015,-0.140
7.812,0.135,-0.130
7.814,-0.005,-0.105
7.816,-0.145,-0.075
7.818,-0.060,-0.045
7.820,-0.080,-0.015
7.822,-0.060,0.010
7.824,0.045,0.020
7.826,0.130,0.020
7.828,0.150,0.010
7.830,0.070,-0.005
7.832,0.025,-0.025
7.834,0.180,-0.045
7.836,-0.125,-0.060
7.838,-0.210,-0.060
7.840,-0.150,-0.060
7.842,-0.065,-0.050
7.844,-0.050,-0.035
7.846,0.075,-0.020
7.848,0.085,-0.010
7.850,0.200,-0.005
7.852,0.305,-0.010
7.854,-0.050,-0.015
7.856,-0.135,-0.030
7.858,-0.150,-0.040
7.860,-0.155,-0.050
7.862,-0.075,-0.055
7.864,0.055,-0.050
7.866,0.060,-0.040
7.868,0.070,-0.030
7.870,0.150,-0.020
7.872,0.060,-0.015
7.874,0.000,-0.015
7.876,0.005,-0.020
7.878,-0.055,-0.030
7.880,-0.245,-0.045
7.882,-0.135,-0.065
7.884,0.060,-0.075
7.886,0.080,-0.080
7.888,-0.015,-0.075
7.890,-0.080,-0.065
7.892,0.050,-0.050
7.894,0.115,-0.030
7.896,0.040,-0.010
7.898,-0.130,0.000
7.900,-0.130,0.010
7.902,-0.090,0.010
7.904,-0.040,0.005
7.906,0.125,0.000
7.908,0.190,-0.015
7.910,0.245,-0.025
7.912,0.045,-0.040
7.914,-0.005,-0.050
7.916,-0.055,-0.060
7.918,-0.195,-0.065
7.920,-0.215,-0.070
7.922,-0.160,-0.075
7.924,-0.015,-0.070
7.926,0.085,-0.065
7.928,0.175,-0.055
7.930,0.140,-0.040
7.932,0.085,-0.025
7.934,0.035,-0.005
7.936,-0.105,0.010
7.938,-0.210,0.020
7.940,0.010,0.030
7.942,-0.040,0.025
7.944,0.140,0.020
7.946,0.170,0.005
7.948,0.105,-0.015
7.950,0.045,-0.030
7.952,0.020,-0.050
7.954,-0.070,-0.060
7.956,-0.070,-0.070
7.958,-0.200,-0.070
7.960,-0.090,-0.070
7.962,-0.110,-0.070
7.964,-0.090,-0.065
7.966,0.030,-0.055
7.968,0.095,-0.045
7.970,0.145,-0.035
7.972,0.120,-0.015
7.974,0.035,0.000
7.976,0.050,0.020
7.978,-0.085,0.035
7.980,-0.035,0.050
7.982,-0.045,0.060
7.984,-0.015,0.065
7.986,0.195,0.065
7.988,0.240,0.065
7.990,0.215,0.055
7.992,0.165,0.050
7.994,0.055,0.045
7.996,-0.020,0.045
7.998,-0.135,0.040
8.000,0.015,0.040
8.002,0.075,0.040
8.004,0.065,0.035
8.006,0.080,0.030
8.008,0.115,0.015
8.010,0.125,0.005
8.012,0.090,-0.010
8.014,-0.020,-0.020
8.016,-0.055,-0.030
8.018,-0.120,-0.035
8.020,-0.110,-0.035
8.022,-0.060,-0.035
8.024,0.035,-0.030
8.026,0.075,-0.025
8.028,0.100,-0.020
8.030,0.055,-0.015
8.032,0.080,-0.015
8.034,0.065,-0.015
8.036,-0.105,-0.025
8.038,-0.165,-0.030
8.040,-0.175,-0.040
8.042,-0.040,-0.045
8.044,0.130,-0.050
8.046,-0.010,-0.050
8.048,0.005,-0.045
8.050,0.085,-0.035
8.052,0.005,-0.025
8.054,0.100,-0.015
8.056,0.045,-0.005
8.058,-0.120,0.000
8.060,-0.200,0.000
8.062,-0.015,-0.010
8.064,0.015,-0.020
8.066,0.040,-0.030
8.068,0.110,-0.035
8.070,0.150,-0.040
8.072,0.075,-0.040
8.074,-0.045,-0.030
8.076,-0.100,-0.020
8.078,-0.195,-0.015
8.080,-0.080,-0.010
8.082,0.030,-0.015
8.084,0.065,-0.025
8.086,0.050,-0.045
8.088,0.095,-0.065
8.090,-0.015,-0.080
8.092,-0.060,-0.085
8.094,-0.085,-0.075
8.096,-0.070,-0.050
8.098,-0.010,-0.005
8.100,-0.030,0.045
8.102,0.090,0.100
8.104,0.170,0.145
8.106,0.240,0.175
8.108,0.435,0.180
8.110,0.335,0.160
8.112,0.230,0.105
8.114,-0.030,0.025
8.116,-0.165,-0.070
8.118,-0.315,-0.170
8.120,-0.395,-0.275
8.122,-0.380,-0.365
8.124,-0.480,-0.440
8.126,-0.415,-0.495
8.128,-0.375,-0.530
8.130,-0.545,-0.545
8.132,-0.420,-0.540
8.134,-0.510,-0.525
8.136,-0.570,-0.500
8.138,-0.455,-0.465
8.140,-0.490,-0.420
8.142,-0.510,-0.375
8.144,-0.375,-0.330
8.146,-0.235,-0.280
8.148,0.080,-0.235
8.150,0.000,-0.195
8.152,-0.055,-0.160
8.154,-0.205,-0.130
8.156,-0.205,-0.110
8.158,-0.200,-0.095
8.160,-0.190,-0.085
8.162,-0.110,-0.075
8.164,0.085,-0.070
8.166,0.040,-0.060
8.168,0.110,-0.045
8.170,0.130,-0.035
8.172,0.065,-0.020
8.174,0.010,-0.005
8.176,-0.130,0.005
8.178,-0.235,0.015
8.180,-0.055,0.020
8.182,0.040,0.025
8.184,0.305,0.025
8.186,0.080,0.020
8.188,0.165,0.015
8.190,0.145,0.005
8.192,0.030,0.000
8.194,-0.030,-0.010
8.196,-0.070,-0.020
8.198,-0.050,-0.030
8.200,-0.275,-0.035
8.202,-0.075,-0.040
8.204,0.135,-0.035
8.206,0.130,-0.020
8.208,0.115,-0.005
8.210,0.130,0.015
8.212,0.060,0.040
8.214,0.100,0.055
8.216,0.010,0.065
8.218,-0.060,0.070
8.220,-0.095,0.070
8.222,0.010,0.060
8.224,0.210,0.055
8.226,0.240,0.050
8.228,0.170,0.050
8.230,0.135,0.055
8.232,0.145,0.065
8.234,-0.090,0.080
8.236,-0.035,0.090
8.238,0.085,0.100
8.240,0.130,0.095
8.242,0.180,0.085
8.244,0.155,0.065
8.246,0.030,0.045
8.248,0.080,0.030
8.250,0.150,0.025
8.252,0.075,0.035
8.254,0.040,0.055
8.256,-0.045,0.085
8.258,0.105,0.120
8.260,0.125,0.155
8.262,0.150,0.180
8.264,0.245,0.190
8.266,0.300,0.185
8.268,0.305,0.170
8.270,0.255,0.150
8.272,0.150,0.130
8.274,-0.055,0.115
8.276,0.050,0.105
8.278,0.010,0.110
8.280,0.035,0.120
8.282,0.210,0.140
8.284,0.315,0.155
8.286,0.245,0.170
8.288,0.335,0.180
8.290,0.350,0.185
8.292,0.125,0.185
8.294,0.120,0.185
8.296,0.140,0.190
8.298,0.150,0.200
8.300,0.130,0.215
8.302,0.355,0.230
8.304,0.305,0.250
8.306,0.295,0.260
8.308,0.395,0.270
8.310,0.360,0.270
8.312,0.315,0.260
8.314,0.205,0.250
8.316,0.140,0.240
8.318,0.150,0.230
8.320,0.215,0.225
8.322,0.230,0.230
8.324,0.325,0.235
8.326,0.325,0.250
8.328,0.400,0.265
8.330,0.465,0.280
8.332,0.285,0.285
8.334,0.170,0.290
8.336,0.205,0.280
8.338,0.245,0.270
8.340,0.250,0.255
8.342,0.215,0.235
8.344,0.275,0.220
8.346,0.290,0.210
8.348,0.365,0.200
8.350,0.320,0.190
8.352,0.195,0.185
8.354,0.080,0.185
8.356,-0.065,0.175
8.358,0.150,0.170
8.360,0.205,0.160
8.362,0.210,0.145
8.364,0.165,0.130
8.366,0.235,0.120
8.368,0.165,0.110
8.370,0.300,0.100
8.372,0.235,0.095
8.374,-0.060,0.090
8.376,-0.090,0.085
8.378,-0.085,0.075
8.380,0.060,0.065
8.382,0.135,0.050
8.384,0.180,0.030
8.386,0.250,0.010
8.388,0.140,-0.005
8.390,0.000,-0.015
8.392,-0.130,-0.020
8.394,-0.150,-0.020
8.396,-0.260,-0.015
8.398,0.010,-0.010
8.400,0.055,-0.005
8.402,0.010,-0.005
8.404,0.175,-0.005
8.406,0.260,-0.005
8.408,0.160,-0.010
8.410,-0.110,-0.010
8.412,-0.155,-0.005
8.414,-0.030,0.000
8.416,-0.135,0.005
8.418,-0.135,0.005
8.420,0.090,0.005
8.422,0.320,0.000
8.424,0.115,-0.010
8.426,-0.040,-0.030
8.428,-0.005,-0.050
8.430,-0.075,-0.070
8.432,-0.110,-0.085
8.434,-0.115,-0.090
8.436,-0.115,-0.090
8.438,-0.125,-0.085
8.440,-0.090,-0.070
8.442,-0.075,-0.055
8.444,0.045,-0.040
8.446,0.060,-0.030
8.448,0.080,-0.020
8.450,0.155,-0.020
8.452,0.030,-0.020
8.454,-0.140,-0.020
8.456,-0.200,-0.020
8.458,-0.160,-0.020
8.460,-0.045,-0.020
8.462,0.160,-0.015
8.464,0.250,-0.015
8.466,0.145,-0.010
8.468,-0.025,-0.005
8.470,-0.010,-0.005
8.472,-0.010,-0.010
8.474,-0.030,-0.015
8.476,-0.090,-0.025
8.478,-0.150,-0.035
8.480,-0.025,-0.045
8.482,0.050,-0.055
8.484,0.000,-0.060
8.486,0.085,-0.060
8.488,0.090,-0.050
8.490,-0.005,-0.035
8.492,-0.080,-0.015
8.494,-0.030,0.010
8.496,0.050,0.030
8.498,0.085,0.045
8.500,0.010,0.050
8.502,-0.015,0.045
8.504,0.035,0.030
8.506,0.220,0.005
8.508,0.215,-0.025
8.510,0.020,-0.050
8.512,-0.060,-0.070
8.514,-0.385,-0.085
8.516,-0.260,-0.085
8.518,-0.085,-0.075
8.520,-0.005,-0.055
8.522,0.035,-0.030
8.524,0.175,-0.010
8.526,0.265,0.010
8.528,0.195,0.020
8.530,-0.020,0.020
8.532,-0.150,0.015
8.534,-0.130,0.000
8.536,-0.145,-0.015
8.538,-0.090,-0.030
8.540,-0.010,-0.045
8.542,0.100,-0.055
8.544,0.125,-0.055
8.546,0.090,-0.050
8.548,0.100,-0.040
8.550,-0.005,-0.020
8.552,-0.205,-0.005
8.554,-0.215,0.010
8.556,-0.050,0.020
8.558,0.100,0.020
8.560,0.175,0.015
8.562,0.075,0.000
8.564,0.220,-0.020
8.566,0.000,-0.040
8.568,0.005,-0.060
8.570,-0.155,-0.075
8.572,-0.200,-0.080
8.574,-0.110,-0.080
8.576,-0.065,-0.070
8.578,-0.055,-0.055
8.580,-0.100,-0.040
8.582,0.120,-0.030
8.584,0.050,-0.025
8.586,0.140,-0.025
8.588,0.135,-0.025
8.590,-0.075,-0.035
8.592,-0.095,-0.040
8.594,-0.115,-0.045
8.596,-0.135,-0.045
8.598,-0.040,-0.040
8.600,-0.035,-0.030
8.602,-0.005,-0.025
8.604,0.180,-0.015
8.606,0.175,-0.010
8.608,0.060,-0.010
8.610,-0.035,-0.015
8.612,-0.090,-0.020
8.614,-0.085,-0.030
8.616,-0.170,-0.040
8.618,0.000,-0.040
8.620,0.060,-0.045
8.622,0.000,-0.040
8.624,0.060,-0.035
8.626,0.210,-0.025
8.628,0.005,-0.015
8.630,-0.015,-0.010
8.632,-0.090,-0.005
8.634,-0.085,0.000
8.636,-0.010,0.005
8.638,0.040,0.005
8.640,0.080,0.000
8.642,-0.010,-0.005
8.644,0.050,-0.010
8.646,0.030,-0.015
8.648,0.145,-0.025
8.650,-0.055,-0.035
8.652,-0.050,-0.045
8.654,0.010,-0.055
8.656,-0.130,-0.065
8.658,-0.090,-0.070
8.660,-0.175,-0.070
8.662,-0.090,-0.070
8.664,0.100,-0.060
8.666,0.225,-0.050
8.668,0.095,-0.040
8.670,-0.095,-0.025
8.672,-0.025,-0.005
8.674,-0.110,0.015
8.676,-0.055,0.035
8.678,-0.030,0.055
8.680,0.105,0.070
8.682,0.290,0.085
8.684,0.310,0.090
8.686,0.130,0.085
8.688,0.175,0.070
8.690,0.075,0.045
8.692,-0.080,0.015
8.694,-0.215,-0.020
8.696,-0.170,-0.050
8.698,-0.090,-0.070
8.700,0.110,-0.085
8.702,0.025,-0.085
8.704,0.200,-0.075
8.706,0.005,-0.055
8.708,-0.020,-0.035
8.710,-0.105,-0.015
8.712,-0.170,0.000
8.714,-0.030,0.005
8.716,0.085,0.000
8.718,0.120,-0.010
8.720,0.025,-0.030
8.722,-0.020,-0.050
8.724,-0.090,-0.075
8.726,0.005,-0.090
8.728,-0.055,-0.105
8.730,-0.120,-0.110
8.732,-0.070,-0.110
8.734,-0.270,-0.110
8.736,-0.190,-0.100
8.738,0.005,-0.090
8.740,0.040,-0.080
8.742,-0.010,-0.065
8.744,0.090,-0.050
8.746,0.105,-0.040
8.748,-0.070,-0.025
8.750,-0.015,-0.020
8.752,-0.065,-0.015
8.754,-0.035,-0.010
8.756,-0.140,-0.015
8.758,0.040,-0.020
8.760,0.105,-0.025
8.762,0.030,-0.025
8.764,0.140,-0.020
8.766,0.280,-0.005
8.768,-0.015,0.020
8.770,-0.180,0.050
8.772,-0.020,0.080
8.774,0.105,0.110
8.776,0.135,0.135
8.778,0.160,0.140
8.780,0.230,0.130
8.782,0.305,0.100
8.784,0.340,0.055
8.786,0.215,-0.010
8.788,-0.135,-0.080
8.790,-0.405,-0.160
8.792,-0.530,-0.240
8.794,-0.385,-0.320
8.796,-0.190,-0.395
8.798,-0.400,-0.460
8.800,-0.405,-0.510
8.802,-0.490,-0.555
8.804,-0.485,-0.585
8.806,-0.565,-0.600
8.808,-0.580,-0.595
8.810,-0.615,-0.580
8.812,-0.620,-0.545
8.814,-0.560,-0.495
8.816,-0.405,-0.435
8.818,-0.270,-0.370
8.820,-0.215,-0.295
8.822,-0.195,-0.230
8.824,0.045,-0.165
8.826,0.125,-0.110
8.828,-0.105,-0.065
8.830,-0.035,-0.035
8.832,-0.150,-0.010
8.834,-0.135,0.000
8.836,0.045,0.005
8.838,0.050,0.005
8.840,0.090,0.000
8.842,0.245,0.000
8.844,0.135,0.000
8.846,0.085,0.005
8.848,-0.050,0.010
8.850,-0.040,0.015
8.852,-0.075,0.020
8.854,-0.075,0.025
8.856,-0.005,0.025
8.858,0.070,0.020
8.860,0.190,0.015
8.862,0.300,0.000
8.864,0.115,-0.010
8.866,0.000,-0.020
8.868,-0.100,-0.030
8.870,-0.180,-0.030
8.872,-0.215,-0.025
8.874,0.015,-0.015
8.876,0.120,-0.005
8.878,0.070,0.000
8.880,0.110,0.000
8.882,0.190,0.000
8.884,0.105,-0.005
8.886,0.025,-0.010
8.888,-0.050,-0.015
8.890,-0.010,-0.010
8.892,-0.120,0.005
8.894,-0.025,0.025
8.896,0.140,0.045
8.898,0.135,0.070
8.900,0.155,0.090
8.902,0.155,0.100
8.904,0.245,0.095
8.906,0.310,0.075
8.908,-0.020,0.055
8.910,-0.020,0.025
8.912,-0.100,0.005
8.914,-0.050,-0.005
8.916,0.040,0.000
8.918,0.140,0.020
8.920,0.075,0.045
8.922,0.180,0.080
8.924,0.310,0.110
8.926,0.250,0.135
8.928,0.155,0.140
8.930,0.145,0.135
8.932,0.050,0.115
8.934,0.055,0.090
8.936,-0.050,0.065
8.938,-0.005,0.045
8.940,0.065,0.035
8.942,0.250,0.040
8.944,0.315,0.050
8.946,0.275,0.070
8.948,0.030,0.085
8.950,0.065,0.100
8.952,0.060,0.110
8.954,0.035,0.110
8.956,0.075,0.105
8.958,0.200,0.095
8.960,0.110,0.085
8.962,0.260,0.085
8.964,0.170,0.085
8.966,0.185,0.095
8.968,0.205,0.115
8.970,0.200,0.140
8.972,0.165,0.165
8.974,0.035,0.195
8.976,0.175,0.220
8.978,0.350,0.245
8.980,0.320,0.265
8.982,0.435,0.280
8.984,0.435,0.285
8.986,0.360,0.285
8.988,0.260,0.280
8.990,0.315,0.265
8.992,0.160,0.250
8.994,0.190,0.230
8.996,0.235,0.210
8.998,0.150,0.195
9.000,0.245,0.185
9.002,0.395,0.185
9.004,0.395,0.195
9.006,0.255,0.205
9.008,0.260,0.220
9.010,0.245,0.225
9.012,0.130,0.225
9.014,0.255,0.220
9.016,0.160,0.205
9.018,0.125,0.180
9.020,0.175,0.150
9.022,0.435,0.125
9.024,0.195,0.100
9.026,0.145,0.085
9.028,0.050,0.075
9.030,-0.030,0.075
9.032,-0.025,0.080
9.034,0.075,0.085
9.036,0.185,0.090
9.038,0.265,0.090
9.040,0.220,0.085
9.042,0.245,0.075
9.044,0.115,0.060
9.046,0.030,0.050
9.048,-0.030,0.040
9.050,0.035,0.035
9.052,-0.020,0.030
9.054,0.020,0.035
9.056,0.070,0.040
9.058,0.275,0.050
9.060,0.150,0.055
9.062,0.180,0.060
9.064,0.155,0.055
9.066,0.105,0.040
9.068,0.010,0.020
9.070,-0.065,-0.010
9.072,-0.135,-0.045
9.074,-0.125,-0.080
9.076,-0.090,-0.115
9.078,-0.065,-0.135
9.080,0.025,-0.145
9.082,-0.115,-0.145
9.084,-0.105,-0.130
9.086,0.020,-0.105
9.088,0.020,-0.075
9.090,0.095,-0.045
9.092,-0.065,-0.025
9.094,-0.135,-0.010
9.096,-0.045,-0.010
9.098,0.025,-0.020
9.100,0.090,-0.035
9.102,0.165,-0.055
9.104,0.080,-0.075
9.106,-0.105,-0.090
9.108,-0.205,-0.095
9.110,-0.040,-0.100
9.112,-0.125,-0.095
9.114,-0.105,-0.095
9.116,-0.045,-0.085
9.118,0.030,-0.080
9.120,-0.025,-0.075
9.122,-0.020,-0.060
9.124,-0.030,-0.045
9.126,0.075,-0.030
9.128,0.205,-0.005
9.130,0.060,0.010
9.132,-0.135,0.025
9.134,-0.100,0.030
9.136,0.000,0.025
9.138,0.170,0.010
9.140,0.345,-0.015
9.142,0.210,-0.045
9.144,-0.045,-0.070
9.146,-0.260,-0.090
9.148,-0.190,-0.105
9.150,-0.115,-0.105
9.152,-0.090,-0.100
9.154,0.020,-0.090
9.156,-0.025,-0.080
9.158,-0.020,-0.070
9.160,0.090,-0.070
9.162,0.150,-0.065
9.164,0.070,-0.065
9.166,-0.160,-0.060
9.168,-0.255,-0.055
9.170,-0.010,-0.035
9.172,0.025,-0.015
9.174,-0.030,0.005
9.176,0.150,0.025
9.178,0.210,0.035
9.180,0.225,0.035
9.182,0.105,0.025
9.184,0.010,0.010
9.186,-0.040,-0.010
9.188,-0.115,-0.030
9.190,-0.020,-0.045
9.192,-0.045,-0.050
9.194,-0.050,-0.045
9.196,0.020,-0.030
9.198,0.130,-0.015
9.200,0.240,0.005
9.202,0.175,0.015
9.204,0.125,0.025
9.206,-0.070,0.020
9.208,-0.060,0.015
9.210,0.040,0.000
9.212,0.030,-0.010
9.214,-0.025,-0.025
9.216,0.035,-0.035
9.218,-0.060,-0.040
9.220,0.155,-0.040
9.222,0.110,-0.040
9.224,0.145,-0.045
9.226,-0.055,-0.045
9.228,-0.025,-0.045
9.230,-0.205,-0.050
9.232,-0.135,-0.055
9.234,0.040,-0.055
9.236,0.115,-0.050
9.238,0.015,-0.045
9.240,0.135,-0.035
9.242,0.155,-0.025
9.244,0.135,-0.015
9.246,-0.005,-0.005
9.248,-0.080,0.005
9.250,-0.005,0.005
9.252,-0.105,0.010
9.254,-0.080,0.005
9.256,0.115,0.005
9.258,0.235,0.005
9.260,0.255,0.005
9.262,0.120,0.005
9.264,0.090,0.005
9.266,0.020,0.000
9.268,-0.025,0.000
9.270,-0.160,-0.005
9.272,0.005,-0.010
9.274,0.025,-0.015
9.276,0.040,-0.020
9.278,0.185,-0.025
9.280,0.095,-0.025
9.282,0.130,-0.020
9.284,-0.030,-0.015
9.286,0.020,-0.010
9.288,0.050,-0.005
9.290,-0.025,-0.005
9.292,-0.070,-0.010
9.294,0.005,-0.020
9.296,0.085,-0.030
9.298,0.190,-0.035
9.300,0.050,-0.035
9.302,-0.010,-0.030
9.304,0.020,-0.015
9.306,0.165,0.000
9.308,0.075,0.020
9.310,-0.125,0.035
9.312,0.050,0.045
9.314,0.095,0.045
9.316,0.075,0.040
9.318,0.110,0.025
9.320,0.165,0.010
9.322,0.130,0.000
9.324,0.115,-0.005
9.326,0.015,-0.005
9.328,0.015,0.000
9.330,-0.030,0.015
9.332,-0.015,0.025
9.334,0.040,0.030
9.336,0.190,0.030
9.338,0.115,0.025
9.340,0.275,0.015
9.342,0.065,0.000
9.344,0.090,-0.010
9.346,0.020,-0.010
9.348,-0.080,-0.005
9.350,-0.125,0.010
9.352,0.010,0.025
9.354,0.125,0.045
9.356,0.150,0.055
9.358,0.135,0.060
9.360,0.355,0.050
9.362,0.255,0.035
9.364,0.060,0.015
9.366,-0.150,-0.005
9.368,-0.130,-0.020
9.370,-0.045,-0.020
9.372,0.020,-0.015
9.374,0.175,-0.005
9.376,0.110,0.015
9.378,0.085,0.030
9.380,0.270,0.040
9.382,0.165,0.040
9.384,0.055,0.030
9.386,0.010,0.010
9.388,-0.045,-0.015
9.390,-0.060,-0.040
9.392,-0.170,-0.060
9.394,-0.095,-0.075
9.396,0.125,-0.075
9.398,0.050,-0.065
9.400,0.205,-0.050
9.402,0.235,-0.025
9.404,0.045,0.000
9.406,-0.060,0.020
9.408,-0.050,0.035
9.410,-0.100,0.040
9.412,0.075,0.035
9.414,0.035,0.025
9.416,0.100,0.005
9.418,0.295,-0.015
9.420,0.205,-0.035
9.422,0.085,-0.050
9.424,-0.130,-0.065
9.426,-0.135,-0.065
9.428,-0.110,-0.065
9.430,-0.155,-0.055
9.432,0.020,-0.045
9.434,0.060,-0.030
9.436,0.050,-0.010
9.438,0.200,0.010
9.440,0.195,0.030
9.442,0.265,0.050
9.444,0.065,0.075
9.446,0.140,0.095
9.448,0.055,0.110
9.450,0.020,0.110
9.452,0.020,0.100
9.454,0.155,0.070
9.456,0.135,0.020
9.458,0.165,-0.050
9.460,0.210,-0.130
9.462,-0.065,-0.220
9.464,-0.405,-0.300
9.466,-0.400,-0.375
9.468,-0.435,-0.430
9.470,-0.625,-0.465
9.472,-0.455,-0.480
9.474,-0.400,-0.475
9.476,-0.370,-0.460
9.478,-0.375,-0.435
9.480,-0.235,-0.415
9.482,-0.140,-0.395
9.484,-0.220,-0.375
9.486,-0.400,-0.355
9.488,-0.480,-0.330
9.490,-0.375,-0.300
9.492,-0.300,-0.260
9.494,-0.135,-0.215
9.496,-0.070,-0.165
9.498,0.160,-0.115
9.500,0.270,-0.075
9.502,0.100,-0.045
9.504,-0.030,-0.025
9.506,-0.095,-0.020
9.508,-0.035,-0.030
9.510,-0.120,-0.040
9.512,-0.090,-0.055
9.514,-0.055,-0.070
9.516,-0.050,-0.075
9.518,0.225,-0.075
9.520,0.255,-0.065
9.522,0.100,-0.050
9.524,-0.090,-0.035
9.526,-0.050,-0.015
9.528,-0.105,0.000
9.530,-0.120,0.015
9.532,0.070,0.025
9.534,0.305,0.035
9.536,0.175,0.045
9.538,0.165,0.050
9.540,0.070,0.055
9.542,0.225,0.060
9.544,0.260,0.060
9.546,0.065,0.060
9.548,-0.080,0.055
9.550,0.020,0.050
9.552,0.010,0.045
9.554,0.130,0.040
9.556,0.185,0.035
9.558,0.195,0.035
9.560,0.205,0.040
9.562,0.150,0.040
9.564,0.105,0.045
9.566,0.135,0.050
9.568,-0.040,0.050
9.570,0.040,0.055
9.572,0.015,0.050
9.574,0.120,0.050
9.576,0.220,0.050
9.578,0.280,0.050
9.580,0.260,0.055
9.582,0.145,0.055
9.584,0.025,0.060
9.586,0.075,0.065
9.588,-0.020,0.065
9.590,0.055,0.065
9.592,0.005,0.060
9.594,0.175,0.050
9.596,0.300,0.040
9.598,0.280,0.030
9.600,0.220,0.030
9.602,0.010,0.030
9.604,-0.095,0.040
9.606,0.005,0.055
9.608,0.075,0.075
9.610,0.135,0.090
9.612,0.195,0.105
9.614,0.290,0.110
9.616,0.245,0.115
9.618,0.300,0.110
9.620,0.255,0.110
9.622,0.185,0.110
9.624,0.120,0.110
9.626,0.110,0.120
9.628,0.060,0.135
9.630,0.115,0.155
9.632,0.215,0.170
9.634,0.420,0.185
9.636,0.400,0.195
9.638,0.375,0.205
9.640,0.360,0.205
9.642,0.370,0.205
9.644,0.165,0.205
9.646,-0.005,0.200
9.648,0.055,0.200
9.650,0.165,0.200
9.652,0.435,0.200
9.654,0.640,0.195
9.656,0.345,0.190
9.658,0.250,0.180
9.660,0.255,0.175
9.662,0.210,0.170
9.664,0.100,0.165
9.666,0.060,0.170
9.668,0.060,0.180
9.670,0.310,0.195
9.672,0.340,0.210
9.674,0.375,0.230
9.676,0.430,0.240
9.678,0.405,0.250
9.680,0.420,0.245
9.682,0.270,0.235
9.684,0.220,0.220
9.686,0.195,0.200
9.688,0.100,0.180
9.690,0.075,0.160
9.692,0.275,0.145
9.694,0.370,0.140
9.696,0.310,0.135
9.698,0.345,0.135
9.700,0.220,0.140
9.702,0.110,0.145
9.704,0.185,0.145
9.706,0.150,0.140
9.708,0.005,0.130
9.710,0.205,0.110
9.712,0.260,0.090
9.714,0.155,0.065
9.716,0.070,0.045
9.718,0.265,0.025
9.720,0.200,0.010
9.722,-0.045,0.005
9.724,-0.095,0.000
9.726,0.110,0.000
9.728,0.045,0.000
9.730,0.005,0.000
9.732,-0.070,-0.005
9.734,0.060,-0.015
9.736,0.235,-0.025
9.738,0.230,-0.040
9.740,0.000,-0.050
9.742,0.035,-0.060
9.744,-0.045,-0.060
9.746,-0.225,-0.060
9.748,-0.115,-0.050
9.750,0.050,-0.035
9.752,0.050,-0.020
9.754,0.135,-0.010
9.756,0.270,0.000
9.758,0.285,0.005
9.760,0.065,0.005
9.762,0.060,-0.005
9.764,0.000,-0.015
9.766,-0.035,-0.025
9.768,-0.105,-0.040
9.770,-0.150,-0.055
9.772,0.055,-0.070
9.774,0.095,-0.080
9.776,0.105,-0.095
9.778,-0.020,-0.100
9.780,0.040,-0.105
9.782,-0.030,-0.105
9.784,-0.110,-0.100
9.786,-0.120,-0.090
9.788,-0.205,-0.075
9.790,-0.075,-0.055
9.792,0.130,-0.035
9.794,0.215,-0.020
9.796,0.275,-0.015
9.798,0.155,-0.015
9.800,0.080,-0.025
9.802,0.025,-0.045
9.804,-0.155,-0.065
9.806,-0.280,-0.085
9.808,-0.155,-0.100
9.810,-0.005,-0.105
9.812,0.105,-0.100
9.814,0.145,-0.085
9.816,0.100,-0.065
9.818,0.080,-0.040
9.820,0.115,-0.020
9.822,0.085,-0.005
9.824,-0.085,0.000
9.826,-0.060,-0.005
9.828,0.005,-0.015
9.830,0.010,-0.035
9.832,0.125,-0.045
9.834,0.135,-0.055
9.836,0.015,-0.060
9.838,0.060,-0.055
9.840,0.125,-0.045
9.842,0.035,-0.035
9.844,-0.090,-0.025
9.846,-0.065,-0.020
9.848,-0.065,-0.025
9.850,0.040,-0.035
9.852,0.140,-0.055
9.854,0.150,-0.075
9.856,-0.060,-0.095
9.858,0.080,-0.100
9.860,0.020,-0.100
9.862,-0.110,-0.085
9.864,-0.065,-0.060
9.866,0.000,-0.035
9.868,-0.010,-0.005
9.870,-0.005,0.020
9.872,0.130,0.030
9.874,0.250,0.030
9.876,0.320,0.020
9.878,0.165,0.000
9.880,0.010,-0.020
9.882,0.005,-0.045
9.884,-0.135,-0.065
9.886,-0.165,-0.075
9.888,-0.010,-0.075
9.890,-0.010,-0.065
9.892,0.010,-0.045
9.894,0.110,-0.020
9.896,0.255,0.000
9.898,0.190,0.020
9.900,0.120,0.025
9.902,0.185,0.025
9.904,0.025,0.010
9.906,-0.145,-0.015
9.908,-0.100,-0.045
9.910,-0.075,-0.070
9.912,-0.035,-0.090
9.914,0.075,-0.100
9.916,0.150,-0.100
9.918,0.195,-0.085
9.920,0.000,-0.065
9.922,0.040,-0.040
9.924,-0.050,-0.015
9.926,-0.165,-0.005
9.928,0.035,0.000
9.930,0.100,-0.005
9.932,-0.040,-0.025
9.934,0.150,-0.045
9.936,0.200,-0.060
9.938,0.130,-0.075
9.940,0.060,-0.080
9.942,-0.020,-0.070
9.944,-0.125,-0.060
9.946,-0.190,-0.040
9.948,-0.085,-0.025
9.950,0.080,-0.015
9.952,0.135,-0.010
9.954,0.125,-0.015
9.956,0.300,-0.020
9.958,0.195,-0.030
9.960,-0.015,-0.035
9.962,-0.120,-0.030
9.964,-0.115,-0.015
9.966,-0.035,0.005
9.968,0.135,0.030
9.970,0.170,0.055
9.972,0.225,0.080
9.974,0.245,0.090
9.976,0.210,0.090
9.978,0.095,0.080
9.980,0.265,0.060
9.982,0.035,0.035
9.984,0.070,0.005
9.986,-0.050,-0.015
9.988,0.010,-0.030
9.990,-0.075,-0.035
9.992,0.085,-0.035
9.994,0.190,-0.020
9.996,0.130,0.000
9.998,0.195,0.020
