'Elapsed time','ECG I','ECG I filtered'
'seconds','mV','mV'
0.000,0.060,-0.070
0.002,0.075,-0.065
0.004,0.065,-0.060
0.006,0.135,-0.060
0.008,0.055,-0.060
0.010,0.060,-0.065
0.012,0.065,-0.065
0.014,0.060,-0.065
0.016,0.020,-0.065
0.018,0.065,-0.065
0.020,0.085,-0.065
0.022,0.085,-0.060
0.024,0.045,-0.060
0.026,0.095,-0.060
0.028,0.065,-0.065
0.030,0.040,-0.070
0.032,0.045,-0.075
0.034,0.030,-0.085
0.036,0.025,-0.085
0.038,0.015,-0.085
0.040,0.050,-0.080
0.042,0.050,-0.075
0.044,0.055,-0.070
0.046,0.055,-0.060
0.048,0.100,-0.055
0.050,0.075,-0.055
0.052,0.065,-0.060
0.054,0.080,-0.065
0.056,0.045,-0.075
0.058,0.015,-0.085
0.060,0.005,-0.090
0.062,0.030,-0.090
0.064,0.080,-0.090
0.066,0.100,-0.085
0.068,0.105,-0.075
0.070,0.060,-0.070
0.072,0.005,-0.070
0.074,0.060,-0.070
0.076,0.035,-0.070
0.078,0.055,-0.080
0.080,0.035,-0.085
0.082,0.030,-0.090
0.084,0.020,-0.090
0.086,0.080,-0.090
0.088,0.090,-0.080
0.090,0.080,-0.075
0.092,0.070,-0.070
0.094,0.105,-0.065
0.096,0.075,-0.060
0.098,0.090,-0.065
0.100,0.035,-0.075
0.102,-0.010,-0.080
0.104,0.025,-0.090
0.106,0.055,-0.100
0.108,0.040,-0.100
0.110,0.095,-0.095
0.112,0.120,-0.085
0.114,0.090,-0.070
0.116,0.055,-0.050
0.118,0.055,-0.035
0.120,0.100,-0.020
0.122,0.105,-0.015
0.124,0.115,-0.010
0.126,0.125,-0.015
0.128,0.115,-0.020
0.130,0.085,-0.035
0.132,0.110,-0.045
0.134,0.085,-0.060
0.136,0.070,-0.065
0.138,0.050,-0.070
0.140,0.040,-0.070
0.142,0.030,-0.070
0.144,0.095,-0.060
0.146,0.090,-0.050
0.148,0.130,-0.040
0.150,0.090,-0.030
0.152,0.155,-0.020
0.154,0.140,-0.015
0.156,0.090,-0.015
0.158,0.135,-0.015
0.160,0.145,-0.015
0.162,0.085,-0.020
0.164,0.115,-0.025
0.166,0.130,-0.025
0.168,0.085,-0.025
0.170,0.150,-0.025
0.172,0.120,-0.020
0.174,0.095,-0.015
0.176,0.150,-0.015
0.178,0.105,-0.010
0.180,0.110,-0.015
0.182,0.105,-0.020
0.184,0.045,-0.025
0.186,0.110,-0.035
0.188,0.160,-0.040
0.190,0.140,-0.040
0.192,0.135,-0.035
0.194,0.125,-0.025
0.196,0.130,-0.010
0.198,0.100,0.005
0.200,0.165,0.025
0.202,0.200,0.040
0.204,0.190,0.045
0.206,0.195,0.050
0.208,0.180,0.050
0.210,0.195,0.045
0.212,0.195,0.040
0.214,0.195,0.030
0.216,0.200,0.025
0.218,0.160,0.020
0.220,0.115,0.015
0.222,0.145,0.010
0.224,0.160,0.005
0.226,0.170,0.000
0.228,0.170,-0.005
0.230,0.160,-0.010
0.232,0.095,-0.010
0.234,0.095,-0.015
0.236,0.120,-0.015
0.238,0.140,-0.015
0.240,0.150,-0.015
0.242,0.135,-0.015
0.244,0.145,-0.015
0.246,0.175,-0.015
0.248,0.095,-0.015
0.250,0.125,-0.015
0.252,0.145,-0.015
0.254,0.165,-0.010
0.256,0.150,-0.005
0.258,0.185,0.000
0.260,0.145,0.005
0.262,0.110,0.010
0.264,0.085,0.005
0.266,0.140,-0.005
0.268,0.150,-0.015
0.270,0.120,-0.035
0.272,0.065,-0.050
0.274,0.090,-0.065
0.276,0.095,-0.075
0.278,0.055,-0.080
0.280,0.060,-0.075
0.282,0.070,-0.065
0.284,0.110,-0.055
0.286,0.155,-0.045
0.288,0.160,-0.035
0.290,0.120,-0.030
0.292,0.130,-0.030
0.294,0.095,-0.030
0.296,0.090,-0.030
0.298,0.135,-0.025
0.300,0.155,-0.015
0.302,0.125,0.000
0.304,0.175,0.015
0.306,0.225,0.035
0.308,0.210,0.050
0.310,0.210,0.075
0.312,0.225,0.095
0.314,0.280,0.130
0.316,0.390,0.175
0.318,0.400,0.235
0.320,0.480,0.315
0.322,0.545,0.410
0.324,0.635,0.515
0.326,0.760,0.620
0.328,0.885,0.710
0.330,1.025,0.770
0.332,1.100,0.795
0.334,0.975,0.780
0.336,0.875,0.720
0.338,0.710,0.630
0.340,0.610,0.510
0.342,0.480,0.390
0.344,0.365,0.275
0.346,0.260,0.175
0.348,0.220,0.105
0.350,0.220,0.065
0.352,0.245,0.050
0.354,0.205,0.055
0.356,0.245,0.065
0.358,0.245,0.080
0.360,0.240,0.090
0.362,0.190,0.090
0.364,0.210,0.080
0.366,0.195,0.065
0.368,0.200,0.050
0.370,0.180,0.030
0.372,0.230,0.015
0.374,0.160,0.010
0.376,0.155,0.005
0.378,0.160,0.000
0.380,0.105,0.000
0.382,0.110,0.000
0.384,0.165,-0.005
0.386,0.160,-0.010
0.388,0.140,-0.020
0.390,0.115,-0.035
0.392,0.075,-0.050
0.394,0.040,-0.060
0.396,0.055,-0.070
0.398,0.055,-0.075
0.400,0.075,-0.075
0.402,0.090,-0.075
0.404,0.150,-0.070
0.406,0.110,-0.060
0.408,0.075,-0.055
0.410,0.090,-0.050
0.412,0.080,-0.045
0.414,0.080,-0.045
0.416,0.080,-0.045
0.418,0.110,-0.050
0.420,0.100,-0.050
0.422,0.085,-0.055
0.424,0.130,-0.055
0.426,0.075,-0.055
0.428,0.110,-0.060
0.430,0.100,-0.055
0.432,0.095,-0.055
0.434,0.065,-0.055
0.436,0.085,-0.050
0.438,0.110,-0.050
0.440,0.110,-0.045
0.442,0.110,-0.045
0.444,0.140,-0.040
0.446,0.095,-0.035
0.448,0.125,-0.030
0.450,0.130,-0.030
0.452,0.125,-0.025
0.454,0.100,-0.020
0.456,0.120,-0.020
0.458,0.125,-0.015
0.460,0.125,-0.015
0.462,0.145,-0.010
0.464,0.135,-0.010
0.466,0.155,-0.005
0.468,0.145,0.000
0.470,0.135,0.000
0.472,0.175,0.005
0.474,0.155,0.005
0.476,0.120,0.000
0.478,0.105,0.000
0.480,0.105,-0.005
0.482,0.125,-0.010
0.484,0.170,-0.020
0.486,0.155,-0.025
0.488,0.140,-0.025
0.490,0.115,-0.030
0.492,0.115,-0.025
0.494,0.075,-0.020
0.496,0.120,-0.010
0.498,0.140,0.000
0.500,0.210,0.015
0.502,0.215,0.030
0.504,0.225,0.045
0.506,0.255,0.060
0.508,0.215,0.065
0.510,0.175,0.075
0.512,0.235,0.075
0.514,0.175,0.075
0.516,0.165,0.070
0.518,0.160,0.070
0.520,0.230,0.065
0.522,0.250,0.065
0.524,0.225,0.065
0.526,0.235,0.070
0.528,0.255,0.080
0.530,0.305,0.090
0.532,0.230,0.100
0.534,0.270,0.110
0.536,0.255,0.115
0.538,0.210,0.125
0.540,0.250,0.125
0.542,0.295,0.130
0.544,0.310,0.140
0.546,0.350,0.145
0.548,0.340,0.155
0.550,0.325,0.165
0.552,0.290,0.180
0.554,0.315,0.190
0.556,0.335,0.200
0.558,0.335,0.205
0.560,0.395,0.205
0.562,0.365,0.205
0.564,0.315,0.195
0.566,0.335,0.190
0.568,0.345,0.185
0.570,0.395,0.180
0.572,0.320,0.180
0.574,0.365,0.185
0.576,0.365,0.190
0.578,0.280,0.195
0.580,0.265,0.200
0.582,0.355,0.205
0.584,0.375,0.200
0.586,0.370,0.195
0.588,0.375,0.185
0.590,0.295,0.175
0.592,0.300,0.160
0.594,0.305,0.145
0.596,0.320,0.135
0.598,0.250,0.125
0.600,0.205,0.115
0.602,0.215,0.105
0.604,0.295,0.095
0.606,0.290,0.090
0.608,0.195,0.080
0.610,0.195,0.070
0.612,0.175,0.060
0.614,0.205,0.050
0.616,0.215,0.045
0.618,0.205,0.040
0.620,0.160,0.035
0.622,0.175,0.035
0.624,0.165,0.030
0.626,0.160,0.025
0.628,0.155,0.015
0.630,0.170,0.010
0.632,0.145,0.000
0.634,0.125,-0.010
0.636,0.125,-0.015
0.638,0.130,-0.025
0.640,0.095,-0.025
0.642,0.130,-0.025
0.644,0.170,-0.020
0.646,0.130,-0.020
0.648,0.150,-0.020
0.650,0.115,-0.020
0.652,0.100,-0.020
0.654,0.055,-0.030
0.656,0.040,-0.035
0.658,0.050,-0.045
0.660,0.040,-0.055
0.662,0.145,-0.060
0.664,0.125,-0.060
0.666,0.095,-0.060
0.668,0.090,-0.055
0.670,0.120,-0.050
0.672,0.115,-0.045
0.674,0.125,-0.045
0.676,0.090,-0.045
0.678,0.060,-0.050
0.680,0.055,-0.055
0.682,0.085,-0.065
0.684,0.060,-0.070
0.686,0.070,-0.070
0.688,0.095,-0.070
0.690,0.100,-0.060
0.692,0.060,-0.050
0.694,0.070,-0.040
0.696,0.135,-0.035
0.698,0.105,-0.030
0.700,0.100,-0.030
0.702,0.165,-0.030
0.704,0.090,-0.040
0.706,0.015,-0.045
0.708,0.085,-0.055
0.710,0.110,-0.055
0.712,0.100,-0.060
0.714,0.105,-0.055
0.716,0.135,-0.050
0.718,0.140,-0.045
0.720,0.090,-0.045
0.722,0.055,-0.045
0.724,0.015,-0.050
0.726,0.055,-0.060
0.728,0.055,-0.075
0.730,0.085,-0.090
0.732,0.050,-0.100
0.734,0.015,-0.105
0.736,0.050,-0.105
0.738,0.055,-0.100
0.740,0.070,-0.095
0.742,0.085,-0.085
0.744,0.125,-0.070
0.746,0.120,-0.055
0.748,0.020,-0.045
0.750,0.075,-0.035
0.752,0.125,-0.025
0.754,0.140,-0.020
0.756,0.145,-0.015
0.758,0.115,-0.015
0.760,0.140,-0.015
0.762,0.150,-0.015
0.764,0.085,-0.020
0.766,0.135,-0.025
0.768,0.095,-0.030
0.770,0.100,-0.030
0.772,0.085,-0.030
0.774,0.105,-0.030
0.776,0.150,-0.025
0.778,0.100,-0.020
0.780,0.160,-0.010
0.782,0.130,-0.005
0.784,0.140,-0.005
0.786,0.125,-0.005
0.788,0.120,-0.010
0.790,0.115,-0.015
0.792,0.090,-0.025
0.794,0.055,-0.030
0.796,0.090,-0.035
0.798,0.100,-0.035
0.800,0.100,-0.030
0.802,0.115,-0.025
0.804,0.150,-0.015
0.806,0.190,-0.010
0.808,0.145,-0.010
0.810,0.100,-0.010
0.812,0.090,-0.015
0.814,0.125,-0.025
0.816,0.095,-0.035
0.818,0.030,-0.040
0.820,0.045,-0.050
0.822,0.125,-0.050
0.824,0.120,-0.050
0.826,0.085,-0.050
0.828,0.100,-0.050
0.830,0.145,-0.045
0.832,0.050,-0.045
0.834,0.070,-0.045
0.836,0.050,-0.050
0.838,0.075,-0.050
0.840,0.035,-0.055
0.842,0.105,-0.055
0.844,0.105,-0.060
0.846,0.105,-0.060
0.848,0.090,-0.055
0.850,0.045,-0.050
0.852,0.045,-0.045
0.854,0.095,-0.040
0.856,0.120,-0.035
0.858,0.110,-0.030
0.860,0.090,-0.025
0.862,0.135,-0.025
0.864,0.100,-0.025
0.866,0.120,-0.030
0.868,0.075,-0.035
0.870,0.055,-0.040
0.872,0.045,-0.040
0.874,0.080,-0.045
0.876,0.065,-0.040
0.878,0.090,-0.035
0.880,0.145,-0.025
0.882,0.210,-0.010
0.884,0.140,0.005
0.886,0.150,0.020
0.888,0.175,0.035
0.890,0.170,0.045
0.892,0.195,0.050
0.894,0.175,0.050
0.896,0.140,0.045
0.898,0.115,0.035
0.900,0.120,0.025
0.902,0.130,0.015
0.904,0.155,0.000
0.906,0.135,-0.010
0.908,0.175,-0.015
0.910,0.125,-0.020
0.912,0.120,-0.025
0.914,0.105,-0.025
0.916,0.035,-0.025
0.918,0.085,-0.025
0.920,0.070,-0.020
0.922,0.050,-0.020
0.924,0.140,-0.020
0.926,0.150,-0.025
0.928,0.105,-0.025
0.930,0.080,-0.030
0.932,0.055,-0.040
0.934,0.010,-0.050
0.936,0.045,-0.055
0.938,0.025,-0.065
0.940,0.085,-0.070
0.942,0.065,-0.075
0.944,0.085,-0.075
0.946,0.050,-0.070
0.948,0.080,-0.060
0.950,0.090,-0.050
0.952,0.065,-0.040
0.954,0.080,-0.035
0.956,0.070,-0.030
0.958,0.045,-0.030
0.960,0.110,-0.035
0.962,0.065,-0.045
0.964,0.020,-0.060
0.966,0.085,-0.075
0.968,0.090,-0.090
0.970,-0.015,-0.100
0.972,0.000,-0.105
0.974,0.000,-0.105
0.976,0.060,-0.095
0.978,0.015,-0.075
0.980,0.050,-0.060
0.982,0.120,-0.040
0.984,0.120,-0.020
0.986,0.095,-0.010
0.988,0.140,-0.005
0.990,0.095,0.000
0.992,0.075,0.000
0.994,0.080,0.005
0.996,0.120,0.020
0.998,0.135,0.050
1.000,0.265,0.100
1.002,0.340,0.170
1.004,0.425,0.255
1.006,0.500,0.360
1.008,0.565,0.470
1.010,0.690,0.575
1.012,0.750,0.660
1.014,0.875,0.725
1.016,1.000,0.750
1.018,0.940,0.740
1.020,0.815,0.690
1.022,0.660,0.610
1.024,0.610,0.510
1.026,0.505,0.395
1.028,0.365,0.280
1.030,0.160,0.175
1.032,0.140,0.090
1.034,0.150,0.025
1.036,0.075,-0.015
1.038,0.075,-0.030
1.040,0.090,-0.035
1.042,0.095,-0.025
1.044,0.155,-0.010
1.046,0.110,0.000
1.048,0.135,0.005
1.050,0.100,0.005
1.052,0.090,-0.005
1.054,0.105,-0.020
1.056,0.090,-0.035
1.058,0.020,-0.055
1.060,0.000,-0.075
1.062,0.040,-0.090
1.064,0.010,-0.100
1.066,-0.010,-0.105
1.068,-0.040,-0.105
1.070,-0.065,-0.105
1.072,0.005,-0.095
1.074,0.080,-0.090
1.076,0.055,-0.080
1.078,0.040,-0.075
1.080,0.015,-0.075
1.082,-0.040,-0.075
1.084,0.055,-0.075
1.086,0.010,-0.080
1.088,-0.005,-0.080
1.090,0.000,-0.080
1.092,-0.020,-0.075
1.094,0.065,-0.070
1.096,0.090,-0.065
1.098,0.085,-0.055
1.100,0.080,-0.050
1.102,-0.010,-0.045
1.104,0.040,-0.045
1.106,0.070,-0.045
1.108,0.095,-0.050
1.110,0.075,-0.060
1.112,0.000,-0.070
1.114,-0.005,-0.075
1.116,0.015,-0.080
1.118,0.010,-0.080
1.120,0.045,-0.080
1.122,0.025,-0.075
1.124,0.035,-0.070
1.126,0.030,-0.065
1.128,0.070,-0.060
1.130,0.045,-0.055
1.132,0.030,-0.055
1.134,0.030,-0.060
1.136,0.020,-0.065
1.138,0.030,-0.070
1.140,0.045,-0.075
1.142,0.035,-0.075
1.144,0.060,-0.075
1.146,0.040,-0.070
1.148,0.055,-0.060
1.150,0.005,-0.055
1.152,0.035,-0.045
1.154,0.060,-0.040
1.156,0.085,-0.035
1.158,0.135,-0.030
1.160,0.100,-0.030
1.162,0.060,-0.030
1.164,0.070,-0.030
1.166,0.070,-0.030
1.168,0.025,-0.035
1.170,0.040,-0.035
1.172,0.105,-0.040
1.174,0.045,-0.045
1.176,0.045,-0.045
1.178,0.050,-0.045
1.180,0.080,-0.040
1.182,0.070,-0.035
1.184,0.045,-0.025
1.186,0.080,-0.015
1.188,0.095,-0.005
1.190,0.140,0.010
1.192,0.070,0.020
1.194,0.140,0.030
1.196,0.140,0.035
1.198,0.160,0.040
1.200,0.165,0.040
1.202,0.160,0.035
1.204,0.160,0.035
1.206,0.110,0.035
1.208,0.115,0.035
1.210,0.135,0.040
1.212,0.145,0.045
1.214,0.150,0.055
1.216,0.150,0.070
1.218,0.195,0.080
1.220,0.245,0.090
1.222,0.205,0.105
1.224,0.200,0.115
1.226,0.250,0.120
1.228,0.190,0.130
1.230,0.195,0.135
1.232,0.250,0.145
1.234,0.240,0.150
1.236,0.225,0.150
1.238,0.250,0.155
1.240,0.250,0.155
1.242,0.235,0.150
1.244,0.245,0.150
1.246,0.225,0.145
1.248,0.185,0.140
1.250,0.185,0.140
1.252,0.255,0.135
1.254,0.215,0.135
1.256,0.165,0.140
1.258,0.260,0.145
1.260,0.290,0.150
1.262,0.265,0.155
1.264,0.265,0.160
1.266,0.260,0.165
1.268,0.245,0.170
1.270,0.225,0.170
1.272,0.240,0.170
1.274,0.230,0.170
1.276,0.200,0.165
1.278,0.255,0.155
1.280,0.260,0.145
1.282,0.215,0.130
1.284,0.235,0.115
1.286,0.185,0.100
1.288,0.125,0.085
1.290,0.140,0.070
1.292,0.115,0.055
1.294,0.120,0.045
1.296,0.140,0.040
1.298,0.175,0.035
1.300,0.105,0.030
1.302,0.100,0.025
1.304,0.110,0.025
1.306,0.130,0.025
1.308,0.090,0.025
1.310,0.095,0.020
1.312,0.120,0.020
1.314,0.075,0.015
1.316,0.025,0.010
1.318,0.120,0.000
1.320,0.125,-0.005
1.322,0.030,-0.015
1.324,0.040,-0.025
1.326,0.020,-0.035
1.328,0.000,-0.040
1.330,0.045,-0.050
1.332,0.020,-0.050
1.334,0.050,-0.055
1.336,0.010,-0.055
1.338,0.035,-0.050
1.340,0.020,-0.050
1.342,0.035,-0.045
1.344,0.075,-0.040
1.346,0.040,-0.040
1.348,0.030,-0.040
1.350,0.060,-0.040
1.352,0.035,-0.040
1.354,-0.015,-0.045
1.356,0.005,-0.045
1.358,0.045,-0.050
1.360,0.045,-0.055
1.362,0.005,-0.060
1.364,0.025,-0.065
1.366,0.030,-0.070
1.368,-0.025,-0.075
1.370,0.005,-0.080
1.372,-0.020,-0.085
1.374,0.000,-0.085
1.376,-0.055,-0.085
1.378,-0.030,-0.080
1.380,0.050,-0.070
1.382,0.010,-0.055
1.384,0.055,-0.045
1.386,0.040,-0.035
1.388,0.020,-0.030
1.390,0.050,-0.030
1.392,0.015,-0.035
1.394,-0.020,-0.050
1.396,-0.040,-0.065
1.398,-0.040,-0.080
1.400,-0.050,-0.095
1.402,-0.030,-0.105
1.404,0.025,-0.110
1.406,-0.020,-0.105
1.408,-0.020,-0.100
1.410,-0.040,-0.090
1.412,0.005,-0.075
1.414,0.005,-0.065
1.416,-0.005,-0.060
1.418,0.010,-0.055
1.420,-0.010,-0.060
1.422,-0.015,-0.065
1.424,-0.020,-0.070
1.426,-0.035,-0.080
1.428,-0.055,-0.085
1.430,-0.015,-0.085
1.432,-0.010,-0.085
1.434,-0.030,-0.085
1.436,-0.020,-0.080
1.438,0.010,-0.075
1.440,0.045,-0.075
1.442,0.020,-0.075
1.444,-0.030,-0.080
1.446,-0.060,-0.090
1.448,-0.120,-0.095
1.450,-0.075,-0.105
1.452,-0.040,-0.115
1.454,-0.050,-0.115
1.456,-0.050,-0.115
1.458,-0.025,-0.115
1.460,0.015,-0.105
1.462,0.000,-0.095
1.464,-0.015,-0.085
1.466,-0.065,-0.075
1.468,-0.050,-0.070
1.470,0.025,-0.065
1.472,-0.030,-0.065
1.474,-0.075,-0.070
1.476,0.030,-0.080
1.478,0.025,-0.090
1.480,-0.060,-0.095
1.482,-0.045,-0.100
1.484,-0.025,-0.100
1.486,-0.060,-0.095
1.488,-0.045,-0.090
1.490,0.015,-0.080
1.492,-0.015,-0.070
1.494,-0.030,-0.060
1.496,0.005,-0.055
1.498,0.005,-0.050
1.500,-0.035,-0.055
1.502,-0.045,-0.065
1.504,0.045,-0.075
1.506,-0.035,-0.090
1.508,-0.120,-0.100
1.510,-0.045,-0.110
1.512,-0.055,-0.110
1.514,-0.025,-0.110
1.516,-0.045,-0.105
1.518,-0.070,-0.100
1.520,-0.090,-0.090
1.522,-0.040,-0.080
1.524,-0.035,-0.075
1.526,-0.035,-0.070
1.528,0.005,-0.070
1.530,-0.005,-0.070
1.532,-0.015,-0.075
1.534,-0.050,-0.075
1.536,-0.030,-0.075
1.538,-0.020,-0.075
1.540,-0.025,-0.070
1.542,-0.035,-0.065
1.544,0.005,-0.060
1.546,-0.005,-0.055
1.548,-0.010,-0.055
1.550,-0.040,-0.060
1.552,-0.015,-0.065
1.554,-0.035,-0.070
1.556,-0.075,-0.080
1.558,-0.020,-0.090
1.560,0.000,-0.095
1.562,-0.050,-0.100
1.564,-0.030,-0.100
1.566,-0.050,-0.095
1.568,-0.035,-0.090
1.570,-0.040,-0.080
1.572,-0.030,-0.065
1.574,-0.020,-0.055
1.576,-0.005,-0.040
1.578,0.035,-0.030
1.580,0.095,-0.020
1.582,0.075,-0.015
1.584,0.065,-0.015
1.586,-0.025,-0.015
1.588,0.010,-0.020
1.590,0.005,-0.025
1.592,-0.030,-0.035
1.594,-0.050,-0.040
1.596,-0.050,-0.050
1.598,-0.050,-0.055
1.600,0.060,-0.060
1.602,0.010,-0.060
1.604,0.015,-0.060
1.606,-0.010,-0.060
1.608,-0.035,-0.060
1.610,-0.045,-0.060
1.612,-0.060,-0.065
1.614,-0.050,-0.070
1.616,-0.025,-0.075
1.618,-0.010,-0.080
1.620,-0.050,-0.085
1.622,-0.040,-0.090
1.624,-0.045,-0.095
1.626,-0.040,-0.100
1.628,-0.045,-0.100
1.630,-0.035,-0.105
1.632,-0.095,-0.110
1.634,-0.095,-0.115
1.636,-0.070,-0.120
1.638,-0.085,-0.125
1.640,-0.080,-0.130
1.642,-0.045,-0.130
1.644,-0.095,-0.130
1.646,-0.105,-0.125
1.648,-0.065,-0.120
1.650,-0.085,-0.110
1.652,-0.070,-0.100
1.654,-0.040,-0.090
1.656,-0.005,-0.085
1.658,-0.065,-0.085
1.660,-0.025,-0.090
1.662,0.000,-0.095
1.664,-0.105,-0.100
1.666,-0.110,-0.110
1.668,-0.065,-0.110
1.670,-0.040,-0.110
1.672,-0.015,-0.100
1.674,-0.100,-0.085
1.676,0.000,-0.075
1.678,0.010,-0.060
1.680,-0.025,-0.050
1.682,-0.065,-0.040
1.684,-0.045,-0.035
1.686,0.005,-0.020
1.688,0.005,0.000
1.690,0.110,0.040
1.692,0.160,0.100
1.694,0.220,0.185
1.696,0.380,0.290
1.698,0.455,0.410
1.700,0.535,0.530
1.702,0.650,0.645
1.704,0.755,0.735
1.706,0.950,0.785
1.708,0.965,0.790
1.710,0.850,0.755
1.712,0.690,0.680
1.714,0.535,0.575
1.716,0.455,0.455
1.718,0.305,0.340
1.720,0.180,0.235
1.722,0.125,0.155
1.724,0.085,0.095
1.726,0.080,0.060
1.728,0.080,0.045
1.730,0.055,0.040
1.732,0.090,0.040
1.734,0.055,0.035
1.736,0.080,0.025
1.738,0.025,0.005
1.740,-0.025,-0.020
1.742,-0.065,-0.045
1.744,-0.095,-0.070
1.746,-0.085,-0.090
1.748,-0.030,-0.105
1.750,-0.090,-0.110
1.752,-0.070,-0.110
1.754,-0.065,-0.105
1.756,-0.040,-0.095
1.758,-0.035,-0.085
1.760,-0.030,-0.080
1.762,-0.045,-0.075
1.764,-0.095,-0.070
1.766,-0.070,-0.075
1.768,-0.065,-0.080
1.770,-0.095,-0.085
1.772,-0.070,-0.095
1.774,-0.060,-0.105
1.776,-0.090,-0.115
1.778,-0.115,-0.120
1.780,-0.170,-0.125
1.782,-0.120,-0.125
1.784,-0.100,-0.120
1.786,-0.090,-0.115
1.788,-0.090,-0.105
1.790,-0.055,-0.095
1.792,-0.045,-0.080
1.794,-0.050,-0.070
1.796,-0.020,-0.060
1.798,-0.030,-0.055
1.800,-0.035,-0.050
1.802,-0.050,-0.055
1.804,-0.100,-0.065
1.806,-0.100,-0.075
1.808,-0.100,-0.090
1.810,-0.120,-0.100
1.812,-0.115,-0.110
1.814,-0.085,-0.110
1.816,-0.035,-0.105
1.818,-0.065,-0.100
1.820,-0.080,-0.085
1.822,-0.040,-0.070
1.824,-0.070,-0.055
1.826,-0.035,-0.040
1.828,-0.050,-0.035
1.830,-0.050,-0.035
1.832,-0.070,-0.040
1.834,-0.030,-0.045
1.836,-0.015,-0.055
1.838,0.000,-0.065
1.840,-0.060,-0.070
1.842,-0.035,-0.075
1.844,-0.055,-0.075
1.846,-0.055,-0.075
1.848,-0.065,-0.075
1.850,-0.050,-0.070
1.852,-0.015,-0.065
1.854,-0.075,-0.065
1.856,-0.050,-0.060
1.858,-0.045,-0.060
1.860,-0.055,-0.055
1.862,-0.005,-0.050
1.864,-0.050,-0.045
1.866,-0.020,-0.040
1.868,-0.045,-0.030
1.870,-0.040,-0.020
1.872,-0.030,-0.010
1.874,0.020,-0.005
1.876,0.060,0.000
1.878,0.035,0.005
1.880,0.030,0.005
1.882,0.065,0.000
1.884,-0.015,-0.005
1.886,-0.010,-0.010
1.888,-0.065,-0.010
1.890,-0.035,-0.010
1.892,-0.015,-0.010
1.894,-0.010,-0.005
1.896,0.070,0.005
1.898,0.070,0.020
1.900,0.040,0.035
1.902,0.045,0.055
1.904,0.065,0.070
1.906,0.060,0.085
1.908,0.085,0.095
1.910,0.085,0.100
1.912,0.130,0.100
1.914,0.125,0.100
1.916,0.130,0.100
1.918,0.095,0.095
1.920,0.090,0.095
1.922,0.130,0.100
1.924,0.105,0.110
1.926,0.060,0.120
1.928,0.130,0.135
1.930,0.155,0.150
1.932,0.170,0.160
1.934,0.185,0.175
1.936,0.210,0.180
1.938,0.215,0.185
1.940,0.200,0.185
1.942,0.195,0.180
1.944,0.130,0.180
1.946,0.135,0.180
1.948,0.175,0.175
1.950,0.165,0.175
1.952,0.165,0.175
1.954,0.190,0.170
1.956,0.180,0.165
1.958,0.190,0.160
1.960,0.185,0.155
1.962,0.185,0.145
1.964,0.095,0.130
1.966,0.110,0.120
1.968,0.115,0.110
1.970,0.055,0.105
1.972,0.075,0.100
1.974,0.150,0.100
1.976,0.115,0.095
1.978,0.115,0.095
1.980,0.090,0.095
1.982,0.090,0.090
1.984,0.050,0.080
1.986,0.040,0.070
1.988,0.050,0.060
1.990,0.060,0.045
1.992,0.030,0.030
1.994,-0.010,0.020
1.996,-0.025,0.010
1.998,-0.025,0.005
2.000,-0.025,0.000
2.002,-0.025,0.000
2.004,-0.025,0.000
2.006,0.010,-0.005
2.008,-0.005,-0.005
2.010,0.000,-0.010
2.012,-0.030,-0.015
2.014,-0.010,-0.020
2.016,-0.060,-0.025
2.018,-0.025,-0.030
2.020,-0.015,-0.030
2.022,-0.050,-0.030
2.024,-0.090,-0.030
2.026,-0.035,-0.030
2.028,-0.030,-0.030
2.030,-0.080,-0.030
2.032,-0.020,-0.035
2.034,-0.030,-0.040
2.036,-0.090,-0.050
2.038,-0.120,-0.055
2.040,-0.080,-0.060
2.042,-0.040,-0.060
2.044,-0.010,-0.060
2.046,-0.035,-0.050
2.048,-0.060,-0.040
2.050,-0.115,-0.030
2.052,-0.070,-0.025
2.054,-0.025,-0.020
2.056,-0.035,-0.015
2.058,-0.025,-0.020
2.060,-0.010,-0.025
2.062,-0.015,-0.035
2.064,-0.065,-0.040
2.066,-0.070,-0.045
2.068,-0.120,-0.050
2.070,-0.085,-0.050
2.072,-0.030,-0.045
2.074,-0.025,-0.040
2.076,-0.050,-0.035
2.078,-0.065,-0.030
2.080,-0.030,-0.030
2.082,-0.080,-0.030
2.084,-0.070,-0.035
2.086,-0.055,-0.040
2.088,-0.055,-0.045
2.090,-0.070,-0.050
2.092,-0.075,-0.055
2.094,-0.065,-0.055
2.096,-0.055,-0.060
2.098,-0.025,-0.060
2.100,-0.050,-0.060
2.102,-0.055,-0.060
2.104,-0.050,-0.060
2.106,-0.105,-0.055
2.108,-0.105,-0.055
2.110,-0.085,-0.055
2.112,-0.075,-0.055
2.114,-0.065,-0.055
2.116,-0.015,-0.055
2.118,-0.045,-0.060
2.120,-0.050,-0.060
2.122,-0.100,-0.055
2.124,-0.090,-0.055
2.126,-0.125,-0.045
2.128,-0.050,-0.040
2.130,-0.070,-0.030
2.132,-0.070,-0.025
2.134,-0.010,-0.025
2.136,-0.010,-0.030
2.138,-0.045,-0.035
2.140,-0.085,-0.050
2.142,-0.125,-0.070
2.144,-0.165,-0.085
2.146,-0.145,-0.100
2.148,-0.155,-0.110
2.150,-0.130,-0.115
2.152,-0.070,-0.110
2.154,-0.045,-0.100
2.156,-0.045,-0.090
2.158,-0.095,-0.080
2.160,-0.080,-0.070
2.162,-0.105,-0.060
2.164,-0.120,-0.055
2.166,-0.060,-0.055
2.168,-0.085,-0.055
2.170,-0.085,-0.055
2.172,-0.030,-0.055
2.174,-0.090,-0.050
2.176,-0.100,-0.045
2.178,-0.115,-0.040
2.180,-0.045,-0.040
2.182,-0.010,-0.035
2.184,-0.045,-0.040
2.186,0.000,-0.045
2.188,-0.135,-0.055
2.190,-0.090,-0.065
2.192,-0.110,-0.075
2.194,-0.140,-0.090
2.196,-0.095,-0.095
2.198,-0.150,-0.100
2.200,-0.100,-0.100
2.202,-0.150,-0.100
2.204,-0.110,-0.095
2.206,-0.065,-0.095
2.208,-0.095,-0.090
2.210,-0.095,-0.090
2.212,-0.100,-0.095
2.214,-0.150,-0.100
2.216,-0.135,-0.105
2.218,-0.115,-0.105
2.220,-0.095,-0.110
2.222,-0.130,-0.105
2.224,-0.120,-0.105
2.226,-0.105,-0.100
2.228,-0.115,-0.090
2.230,-0.155,-0.085
2.232,-0.095,-0.080
2.234,-0.110,-0.075
2.236,-0.090,-0.070
2.238,-0.065,-0.070
2.240,-0.055,-0.065
2.242,-0.115,-0.065
2.244,-0.095,-0.070
2.246,-0.090,-0.070
2.248,-0.045,-0.070
2.250,-0.100,-0.070
2.252,-0.085,-0.070
2.254,-0.060,-0.070
2.256,-0.115,-0.075
2.258,-0.105,-0.070
2.260,-0.080,-0.070
2.262,-0.085,-0.065
2.264,-0.065,-0.055
2.266,-0.085,-0.045
2.268,-0.110,-0.035
2.270,-0.035,-0.025
2.272,-0.015,-0.020
2.274,-0.015,-0.015
2.276,-0.025,-0.020
2.278,-0.090,-0.030
2.280,-0.080,-0.035
2.282,-0.095,-0.045
2.284,-0.080,-0.055
2.286,-0.060,-0.055
2.288,-0.060,-0.055
2.290,-0.055,-0.045
2.292,-0.005,-0.040
2.294,-0.050,-0.035
2.296,-0.100,-0.030
2.298,-0.030,-0.030
2.300,-0.100,-0.040
2.302,-0.140,-0.050
2.304,-0.110,-0.065
2.306,-0.095,-0.075
2.308,-0.105,-0.085
2.310,-0.115,-0.090
2.312,-0.075,-0.090
2.314,-0.100,-0.085
2.316,-0.115,-0.075
2.318,-0.080,-0.070
2.320,-0.095,-0.060
2.322,-0.105,-0.055
2.324,-0.105,-0.055
2.326,-0.095,-0.055
2.328,-0.085,-0.060
2.330,-0.080,-0.065
2.332,-0.100,-0.075
2.334,-0.100,-0.080
2.336,-0.120,-0.090
2.338,-0.120,-0.095
2.340,-0.115,-0.095
2.342,-0.125,-0.100
2.344,-0.125,-0.095
2.346,-0.155,-0.095
2.348,-0.110,-0.095
2.350,-0.110,-0.090
2.352,-0.115,-0.090
2.354,-0.100,-0.085
2.356,-0.105,-0.090
2.358,-0.115,-0.090
2.360,-0.185,-0.090
2.362,-0.170,-0.090
2.364,-0.075,-0.090
2.366,-0.065,-0.085
2.368,-0.080,-0.080
2.370,-0.070,-0.065
2.372,-0.065,-0.050
2.374,-0.075,-0.035
2.376,-0.055,-0.020
2.378,-0.040,-0.005
2.380,-0.040,0.010
2.382,-0.020,0.030
2.384,0.060,0.060
2.386,0.175,0.105
2.388,0.200,0.170
2.390,0.225,0.260
2.392,0.320,0.370
2.394,0.470,0.490
2.396,0.570,0.615
2.398,0.700,0.725
2.400,0.895,0.810
2.402,0.965,0.855
2.404,0.920,0.855
2.406,0.800,0.805
2.408,0.650,0.710
2.410,0.535,0.585
2.412,0.380,0.445
2.414,0.185,0.305
2.416,0.155,0.185
2.418,0.020,0.085
2.420,-0.050,0.020
2.422,-0.030,-0.015
2.424,0.005,-0.020
2.426,-0.020,-0.015
2.428,-0.045,0.000
2.430,0.010,0.010
2.432,0.010,0.010
2.434,-0.045,0.000
2.436,-0.075,-0.020
2.438,-0.110,-0.045
2.440,-0.070,-0.070
2.442,-0.150,-0.095
2.444,-0.135,-0.110
2.446,-0.135,-0.120
2.448,-0.125,-0.120
2.450,-0.105,-0.110
2.452,-0.110,-0.100
2.454,-0.145,-0.090
2.456,-0.135,-0.080
2.458,-0.055,-0.070
2.460,-0.075,-0.070
2.462,-0.065,-0.065
2.464,-0.095,-0.070
2.466,-0.085,-0.070
2.468,-0.130,-0.070
2.470,-0.030,-0.075
2.472,-0.095,-0.075
2.474,-0.090,-0.080
2.476,-0.130,-0.085
2.478,-0.150,-0.090
2.480,-0.125,-0.100
2.482,-0.120,-0.105
2.484,-0.095,-0.105
2.486,-0.160,-0.105
2.488,-0.135,-0.105
2.490,-0.035,-0.100
2.492,-0.040,-0.090
2.494,-0.100,-0.085
2.496,-0.100,-0.080
2.498,-0.110,-0.080
2.500,-0.095,-0.080
2.502,-0.110,-0.080
2.504,-0.100,-0.080
2.506,-0.085,-0.080
2.508,-0.060,-0.075
2.510,-0.055,-0.070
2.512,-0.030,-0.060
2.514,-0.080,-0.050
2.516,-0.065,-0.040
2.518,-0.035,-0.030
2.520,-0.100,-0.030
2.522,-0.030,-0.030
2.524,-0.045,-0.035
2.526,-0.045,-0.040
2.528,-0.080,-0.045
2.530,-0.060,-0.055
2.532,-0.095,-0.060
2.534,-0.095,-0.060
2.536,-0.040,-0.060
2.538,-0.010,-0.055
2.540,-0.060,-0.050
2.542,-0.005,-0.040
2.544,-0.075,-0.035
2.546,-0.070,-0.030
2.548,-0.055,-0.025
2.550,-0.055,-0.025
2.552,-0.030,-0.025
2.554,0.005,-0.030
2.556,0.005,-0.030
2.558,-0.055,-0.030
2.560,-0.085,-0.035
2.562,-0.065,-0.035
2.564,-0.055,-0.030
2.566,-0.035,-0.025
2.568,0.000,-0.020
2.570,0.035,-0.010
2.572,0.025,-0.005
2.574,0.035,0.005
2.576,0.015,0.010
2.578,0.000,0.015
2.580,-0.020,0.025
2.582,-0.005,0.030
2.584,-0.015,0.035
2.586,-0.015,0.040
2.588,0.065,0.050
2.590,0.065,0.060
2.592,0.045,0.070
2.594,0.100,0.080
2.596,0.145,0.090
2.598,0.100,0.095
2.600,0.060,0.100
2.602,0.060,0.105
2.604,0.085,0.105
2.606,0.085,0.105
2.608,0.075,0.105
2.610,0.120,0.110
2.612,0.150,0.120
2.614,0.185,0.135
2.616,0.190,0.150
2.618,0.175,0.165
2.620,0.150,0.180
2.622,0.200,0.190
2.624,0.165,0.200
2.626,0.150,0.200
2.628,0.165,0.195
2.630,0.225,0.185
2.632,0.175,0.180
2.634,0.205,0.175
2.636,0.170,0.175
2.638,0.200,0.185
2.640,0.230,0.195
2.642,0.220,0.210
2.644,0.255,0.225
2.646,0.205,0.235
2.648,0.210,0.240
2.650,0.205,0.235
2.652,0.195,0.225
2.654,0.205,0.210
2.656,0.190,0.195
2.658,0.165,0.175
2.660,0.140,0.160
2.662,0.115,0.150
2.664,0.105,0.140
2.666,0.095,0.140
2.668,0.155,0.140
2.670,0.145,0.140
2.672,0.130,0.140
2.674,0.130,0.130
2.676,0.140,0.125
2.678,0.125,0.110
2.680,0.060,0.095
2.682,0.050,0.080
2.684,0.055,0.065
2.686,0.030,0.055
2.688,0.040,0.050
2.690,0.030,0.050
2.692,0.035,0.055
2.694,0.080,0.055
2.696,0.080,0.060
2.698,0.055,0.060
2.700,0.030,0.055
2.702,0.015,0.045
2.704,0.005,0.030
2.706,0.015,0.020
2.708,-0.005,0.005
2.710,0.020,-0.005
2.712,-0.010,-0.015
2.714,0.030,-0.020
2.716,0.000,-0.025
2.718,-0.050,-0.025
2.720,-0.025,-0.025
2.722,-0.040,-0.025
2.724,-0.100,-0.030
2.726,-0.065,-0.035
2.728,-0.005,-0.040
2.730,0.000,-0.040
2.732,0.025,-0.045
2.734,-0.005,-0.045
2.736,0.010,-0.040
2.738,-0.070,-0.040
2.740,-0.080,-0.030
2.742,-0.045,-0.025
2.744,0.000,-0.020
2.746,0.000,-0.010
2.748,0.050,-0.005
2.750,0.010,-0.005
2.752,0.040,0.000
2.754,0.000,0.000
2.756,0.025,0.000
2.758,0.030,-0.005
2.760,0.005,-0.005
2.762,-0.065,-0.015
2.764,-0.055,-0.025
2.766,-0.040,-0.035
2.768,0.010,-0.045
2.770,-0.040,-0.055
2.772,-0.015,-0.065
2.774,-0.060,-0.065
2.776,-0.035,-0.065
2.778,-0.075,-0.055
2.780,-0.045,-0.045
2.782,-0.005,-0.035
2.784,0.015,-0.030
2.786,-0.015,-0.020
2.788,-0.025,-0.020
2.790,-0.005,-0.025
2.792,0.000,-0.030
2.794,-0.035,-0.035
2.796,-0.030,-0.045
2.798,-0.070,-0.050
2.800,-0.035,-0.055
2.802,-0.015,-0.055
2.804,-0.010,-0.055
2.806,-0.050,-0.050
2.808,-0.030,-0.045
2.810,-0.030,-0.040
2.812,-0.020,-0.035
2.814,-0.025,-0.035
2.816,0.000,-0.035
2.818,-0.035,-0.035
2.820,-0.050,-0.035
2.822,0.000,-0.040
2.824,-0.025,-0.045
2.826,0.000,-0.050
2.828,-0.055,-0.055
2.830,-0.070,-0.060
2.832,-0.050,-0.065
2.834,-0.070,-0.065
2.836,-0.020,-0.060
2.838,-0.005,-0.060
2.840,-0.030,-0.055
2.842,-0.020,-0.050
2.844,0.025,-0.045
2.846,-0.025,-0.040
2.848,-0.015,-0.035
2.850,-0.010,-0.035
2.852,-0.025,-0.035
2.854,0.000,-0.030
2.856,0.000,-0.030
2.858,-0.025,-0.030
2.860,-0.025,-0.030
2.862,-0.005,-0.030
2.864,0.000,-0.030
2.866,-0.005,-0.035
2.868,-0.015,-0.040
2.870,-0.025,-0.040
2.872,-0.015,-0.045
2.874,-0.025,-0.050
2.876,-0.010,-0.050
2.878,0.000,-0.045
2.880,0.010,-0.045
2.882,-0.010,-0.035
2.884,-0.025,-0.030
2.886,-0.005,-0.020
2.888,0.030,-0.015
2.890,0.060,-0.015
2.892,0.025,-0.015
2.894,-0.040,-0.020
2.896,-0.010,-0.030
2.898,-0.010,-0.040
2.900,-0.030,-0.050
2.902,-0.070,-0.055
2.904,-0.060,-0.060
2.906,-0.010,-0.055
2.908,0.060,-0.045
2.910,0.015,-0.035
2.912,0.010,-0.020
2.914,0.000,-0.010
2.916,0.035,0.000
2.918,0.005,0.005
2.920,0.050,0.005
2.922,0.035,0.000
2.924,0.070,-0.005
2.926,0.015,-0.015
2.928,-0.025,-0.025
2.930,-0.040,-0.030
2.932,-0.045,-0.035
2.934,-0.025,-0.035
2.936,0.045,-0.035
2.938,0.020,-0.035
2.940,0.020,-0.035
2.942,0.015,-0.030
2.944,-0.010,-0.030
2.946,-0.005,-0.025
2.948,0.025,-0.025
2.950,0.005,-0.020
2.952,-0.010,-0.020
2.954,0.040,-0.015
2.956,0.020,-0.010
2.958,-0.005,-0.010
2.960,0.065,-0.010
2.962,-0.005,-0.015
2.964,0.015,-0.020
2.966,0.025,-0.025
2.968,0.045,-0.035
2.970,-0.025,-0.040
2.972,0.015,-0.045
2.974,0.010,-0.045
2.976,-0.015,-0.040
2.978,-0.020,-0.030
2.980,0.030,-0.015
2.982,0.060,0.000
2.984,0.060,0.020
2.986,0.125,0.035
2.988,0.140,0.050
2.990,0.150,0.060
2.992,0.105,0.065
2.994,0.060,0.065
2.996,0.030,0.060
2.998,0.060,0.045
3.000,0.065,0.030
3.002,0.080,0.010
3.004,0.040,-0.010
3.006,-0.010,-0.025
3.008,0.005,-0.040
3.010,0.015,-0.050
3.012,0.000,-0.055
3.014,0.010,-0.055
3.016,0.015,-0.055
3.018,0.010,-0.050
3.020,-0.015,-0.045
3.022,-0.015,-0.040
3.024,0.020,-0.035
3.026,0.055,-0.035
3.028,-0.005,-0.040
3.030,0.015,-0.040
3.032,0.050,-0.035
3.034,0.065,-0.035
3.036,0.025,-0.030
3.038,0.020,-0.020
3.040,0.005,-0.015
3.042,-0.025,-0.015
3.044,-0.030,-0.015
3.046,0.055,-0.025
3.048,0.010,-0.030
3.050,-0.010,-0.045
3.052,0.000,-0.050
3.054,0.040,-0.060
3.056,0.005,-0.060
3.058,-0.010,-0.055
3.060,0.005,-0.045
3.062,0.045,-0.035
3.064,0.035,-0.025
3.066,0.030,-0.020
3.068,0.005,-0.020
3.070,-0.005,-0.030
3.072,0.015,-0.040
3.074,-0.035,-0.045
3.076,0.020,-0.050
3.078,0.085,-0.050
3.080,0.040,-0.040
3.082,0.015,-0.020
3.084,0.025,0.005
3.086,0.080,0.030
3.088,0.070,0.060
3.090,0.065,0.085
3.092,0.160,0.110
3.094,0.265,0.140
3.096,0.285,0.180
3.098,0.305,0.235
3.100,0.400,0.305
3.102,0.465,0.395
3.104,0.505,0.495
3.106,0.560,0.595
3.108,0.760,0.685
3.110,0.965,0.750
3.112,0.985,0.775
3.114,0.880,0.755
3.116,0.730,0.695
3.118,0.590,0.600
3.120,0.535,0.480
3.122,0.365,0.355
3.124,0.185,0.230
3.126,0.120,0.130
3.128,0.085,0.055
3.130,0.070,0.010
3.132,0.045,-0.015
3.134,0.070,-0.020
3.136,0.070,-0.015
3.138,0.040,-0.005
3.140,-0.030,0.000
3.142,0.050,-0.005
3.144,0.060,-0.015
3.146,0.085,-0.025
3.148,0.025,-0.040
3.150,0.020,-0.050
3.152,-0.005,-0.055
3.154,-0.005,-0.060
3.156,0.025,-0.065
3.158,-0.020,-0.065
3.160,-0.055,-0.070
3.162,-0.050,-0.075
3.164,-0.045,-0.085
3.166,-0.055,-0.090
3.168,-0.030,-0.095
3.170,-0.050,-0.100
3.172,0.015,-0.100
3.174,0.000,-0.095
3.176,-0.040,-0.085
3.178,-0.020,-0.080
3.180,-0.030,-0.070
3.182,-0.020,-0.065
3.184,0.005,-0.065
3.186,0.030,-0.065
3.188,0.015,-0.065
3.190,0.030,-0.065
3.192,0.045,-0.065
3.194,0.015,-0.065
3.196,0.010,-0.060
3.198,0.000,-0.055
3.200,-0.015,-0.050
3.202,-0.040,-0.050
3.204,-0.035,-0.050
3.206,-0.025,-0.055
3.208,0.045,-0.065
3.210,0.000,-0.075
3.212,0.005,-0.085
3.214,0.005,-0.090
3.216,-0.085,-0.090
3.218,-0.040,-0.085
3.220,0.015,-0.075
3.222,-0.035,-0.065
3.224,-0.030,-0.055
3.226,0.050,-0.045
3.228,0.050,-0.035
3.230,0.030,-0.035
3.232,0.080,-0.040
3.234,0.035,-0.050
3.236,-0.040,-0.065
3.238,-0.075,-0.075
3.240,-0.095,-0.085
3.242,-0.030,-0.085
3.244,0.015,-0.085
3.246,0.025,-0.080
3.248,0.030,-0.075
3.250,0.045,-0.065
3.252,0.005,-0.060
3.254,-0.045,-0.050
3.256,0.000,-0.045
3.258,0.025,-0.040
3.260,0.020,-0.035
3.262,0.030,-0.035
3.264,0.055,-0.030
3.266,0.070,-0.030
3.268,0.060,-0.030
3.270,0.090,-0.030
3.272,0.090,-0.030
3.274,0.020,-0.035
3.276,0.035,-0.040
3.278,-0.040,-0.045
3.280,-0.050,-0.050
3.282,-0.010,-0.050
3.284,0.065,-0.045
3.286,0.055,-0.040
3.288,0.070,-0.025
3.290,0.095,-0.015
3.292,0.105,0.000
3.294,0.070,0.010
3.296,0.065,0.020
3.298,0.100,0.025
3.300,0.140,0.030
3.302,0.070,0.030
3.304,0.115,0.030
3.306,0.130,0.030
3.308,0.145,0.035
3.310,0.105,0.040
3.312,0.165,0.045
3.314,0.110,0.055
3.316,0.120,0.070
3.318,0.170,0.080
3.320,0.125,0.090
3.322,0.160,0.100
3.324,0.170,0.110
3.326,0.180,0.120
3.328,0.255,0.130
3.330,0.225,0.135
3.332,0.215,0.145
3.334,0.240,0.150
3.336,0.225,0.160
3.338,0.255,0.170
3.340,0.240,0.175
3.342,0.200,0.180
3.344,0.260,0.180
3.346,0.230,0.175
3.348,0.225,0.170
3.350,0.235,0.160
3.352,0.265,0.150
3.354,0.220,0.140
3.356,0.265,0.135
3.358,0.260,0.130
3.360,0.155,0.125
3.362,0.165,0.125
3.364,0.185,0.130
3.366,0.215,0.130
3.368,0.230,0.130
3.370,0.235,0.130
3.372,0.240,0.125
3.374,0.200,0.125
3.376,0.150,0.120
3.378,0.170,0.115
3.380,0.170,0.105
3.382,0.170,0.100
3.384,0.145,0.090
3.386,0.145,0.075
3.388,0.135,0.065
3.390,0.075,0.045
3.392,0.090,0.025
3.394,0.070,0.005
3.396,0.070,-0.015
3.398,0.085,-0.035
3.400,-0.040,-0.045
3.402,0.000,-0.050
3.404,0.075,-0.050
3.406,0.085,-0.045
3.408,0.060,-0.035
3.410,0.000,-0.030
3.412,-0.030,-0.025
3.414,0.005,-0.030
3.416,0.090,-0.040
3.418,0.045,-0.055
3.420,-0.010,-0.075
3.422,-0.065,-0.090
3.424,-0.030,-0.105
3.426,-0.015,-0.110
3.428,0.015,-0.110
3.430,-0.030,-0.095
3.432,0.010,-0.080
3.434,-0.010,-0.065
3.436,0.010,-0.050
3.438,0.000,-0.040
3.440,-0.005,-0.040
3.442,0.005,-0.050
3.444,-0.005,-0.060
3.446,-0.035,-0.075
3.448,0.060,-0.085
3.450,-0.040,-0.095
3.452,-0.005,-0.095
3.454,-0.015,-0.095
3.456,0.000,-0.090
3.458,-0.035,-0.085
3.460,-0.075,-0.080
3.462,-0.010,-0.085
3.464,0.030,-0.090
3.466,-0.040,-0.100
3.468,-0.015,-0.110
3.470,-0.010,-0.120
3.472,-0.075,-0.120
3.474,-0.070,-0.115
3.476,-0.020,-0.105
3.478,-0.050,-0.090
3.480,-0.015,-0.080
3.482,0.040,-0.070
3.484,0.015,-0.070
3.486,0.010,-0.075
3.488,0.015,-0.085
3.490,-0.030,-0.100
3.492,-0.125,-0.120
3.494,-0.075,-0.130
3.496,-0.075,-0.135
3.498,-0.055,-0.135
3.500,-0.065,-0.125
3.502,-0.025,-0.115
3.504,0.005,-0.105
3.506,-0.025,-0.100
3.508,-0.005,-0.100
3.510,0.020,-0.105
3.512,-0.075,-0.120
3.514,-0.075,-0.130
3.516,-0.070,-0.145
3.518,-0.065,-0.150
3.520,-0.105,-0.150
3.522,-0.070,-0.140
3.524,-0.030,-0.130
3.526,-0.010,-0.110
3.528,-0.020,-0.095
3.530,0.005,-0.085
3.532,0.015,-0.075
3.534,0.025,-0.075
3.536,-0.015,-0.075
3.538,-0.010,-0.080
3.540,-0.055,-0.085
3.542,-0.030,-0.090
3.544,-0.035,-0.090
3.546,-0.070,-0.085
3.548,0.020,-0.080
3.550,0.025,-0.075
3.552,-0.015,-0.075
3.554,-0.025,-0.075
3.556,-0.025,-0.080
3.558,-0.035,-0.085
3.560,-0.065,-0.090
3.562,-0.025,-0.090
3.564,0.010,-0.090
3.566,-0.010,-0.080
3.568,0.045,-0.070
3.570,0.010,-0.060
3.572,0.040,-0.050
3.574,0.040,-0.040
3.576,-0.005,-0.040
3.578,-0.010,-0.040
3.580,-0.050,-0.050
3.582,0.015,-0.060
3.584,0.075,-0.070
3.586,-0.015,-0.080
3.588,-0.050,-0.090
3.590,-0.020,-0.095
3.592,0.015,-0.095
3.594,-0.030,-0.090
3.596,-0.055,-0.085
3.598,-0.045,-0.080
3.600,-0.005,-0.080
3.602,0.020,-0.080
3.604,-0.025,-0.080
3.606,-0.020,-0.085
3.608,-0.015,-0.090
3.610,-0.015,-0.095
3.612,-0.005,-0.095
3.614,-0.025,-0.090
3.616,0.000,-0.085
3.618,0.000,-0.080
3.620,-0.040,-0.070
3.622,-0.010,-0.060
3.624,0.015,-0.055
3.626,0.010,-0.050
3.628,0.045,-0.050
3.630,0.015,-0.055
3.632,-0.010,-0.065
3.634,0.005,-0.075
3.636,-0.035,-0.085
3.638,-0.085,-0.090
3.640,-0.055,-0.095
3.642,-0.065,-0.090
3.644,-0.005,-0.085
3.646,0.000,-0.075
3.648,-0.025,-0.065
3.650,0.050,-0.060
3.652,0.070,-0.050
3.654,0.000,-0.050
3.656,0.020,-0.050
3.658,-0.050,-0.055
3.660,-0.060,-0.065
3.662,-0.020,-0.070
3.664,-0.010,-0.075
3.666,-0.030,-0.075
3.668,-0.010,-0.075
3.670,0.050,-0.070
3.672,0.015,-0.060
3.674,-0.010,-0.055
3.676,0.025,-0.050
3.678,-0.035,-0.050
3.680,-0.030,-0.055
3.682,0.015,-0.060
3.684,0.000,-0.065
3.686,0.015,-0.070
3.688,0.005,-0.070
3.690,0.020,-0.070
3.692,-0.020,-0.065
3.694,-0.045,-0.055
3.696,-0.010,-0.050
3.698,0.000,-0.040
3.700,0.045,-0.025
3.702,0.085,-0.015
3.704,0.125,-0.005
3.706,0.135,0.010
3.708,0.095,0.020
3.710,0.085,0.030
3.712,0.030,0.035
3.714,0.065,0.035
3.716,0.075,0.030
3.718,0.025,0.020
3.720,0.075,0.005
3.722,0.110,-0.010
3.724,0.085,-0.030
3.726,-0.030,-0.040
3.728,-0.025,-0.050
3.730,0.000,-0.055
3.732,-0.020,-0.055
3.734,0.015,-0.050
3.736,-0.010,-0.045
3.738,-0.010,-0.045
3.740,-0.030,-0.050
3.742,0.000,-0.055
3.744,-0.010,-0.065
3.746,0.015,-0.075
3.748,-0.025,-0.085
3.750,-0.025,-0.090
3.752,-0.020,-0.090
3.754,-0.035,-0.085
3.756,0.025,-0.075
3.758,-0.015,-0.060
3.760,-0.025,-0.050
3.762,-0.010,-0.040
3.764,-0.005,-0.040
3.766,-0.025,-0.045
3.768,-0.045,-0.055
3.770,-0.010,-0.065
3.772,0.060,-0.080
3.774,0.010,-0.090
3.776,-0.045,-0.095
3.778,-0.100,-0.095
3.780,-0.095,-0.090
3.782,-0.025,-0.080
3.784,0.000,-0.070
3.786,-0.010,-0.060
3.788,0.025,-0.055
3.790,0.025,-0.050
3.792,0.005,-0.050
3.794,-0.040,-0.055
3.796,-0.025,-0.060
3.798,-0.055,-0.060
3.800,-0.035,-0.060
3.802,0.015,-0.055
3.804,0.045,-0.050
3.806,0.060,-0.045
3.808,0.010,-0.035
3.810,-0.010,-0.025
3.812,0.025,-0.015
3.814,0.030,0.005
3.816,0.110,0.040
3.818,0.185,0.090
3.820,0.225,0.160
3.822,0.305,0.255
3.824,0.415,0.370
3.826,0.515,0.490
3.828,0.650,0.610
3.830,0.790,0.715
3.832,0.930,0.790
3.834,1.030,0.820
3.836,0.940,0.810
3.838,0.775,0.750
3.840,0.595,0.655
3.842,0.535,0.535
3.844,0.435,0.405
3.846,0.275,0.280
3.848,0.165,0.175
3.850,0.090,0.095
3.852,0.050,0.045
3.854,0.120,0.025
3.856,0.130,0.020
3.858,0.065,0.025
3.860,0.090,0.030
3.862,0.055,0.035
3.864,0.060,0.030
3.866,0.020,0.010
3.868,-0.020,-0.010
3.870,0.020,-0.035
3.872,-0.005,-0.055
3.874,-0.025,-0.070
3.876,-0.040,-0.085
3.878,-0.085,-0.090
3.880,-0.030,-0.090
3.882,-0.075,-0.090
3.884,-0.075,-0.090
3.886,-0.080,-0.090
3.888,-0.050,-0.090
3.890,-0.055,-0.090
3.892,-0.070,-0.090
3.894,-0.020,-0.090
3.896,-0.025,-0.090
3.898,-0.060,-0.080
3.900,-0.045,-0.075
3.902,-0.010,-0.065
3.904,-0.030,-0.060
3.906,-0.015,-0.060
3.908,-0.015,-0.060
3.910,-0.040,-0.065
3.912,-0.060,-0.075
3.914,-0.065,-0.085
3.916,-0.035,-0.095
3.918,-0.075,-0.105
3.920,-0.040,-0.105
3.922,-0.025,-0.105
3.924,-0.065,-0.095
3.926,-0.090,-0.085
3.928,-0.050,-0.075
3.930,-0.025,-0.070
3.932,0.015,-0.060
3.934,0.045,-0.060
3.936,-0.065,-0.060
3.938,-0.020,-0.060
3.940,-0.025,-0.065
3.942,0.005,-0.070
3.944,-0.065,-0.070
3.946,-0.100,-0.065
3.948,-0.015,-0.065
3.950,-0.005,-0.060
3.952,-0.030,-0.060
3.954,-0.025,-0.060
3.956,-0.035,-0.060
3.958,-0.065,-0.060
3.960,-0.020,-0.065
3.962,-0.035,-0.065
3.964,-0.030,-0.060
3.966,-0.010,-0.060
3.968,0.035,-0.050
3.970,0.020,-0.045
3.972,-0.005,-0.040
3.974,-0.070,-0.035
3.976,-0.050,-0.035
3.978,-0.010,-0.035
3.980,0.045,-0.040
3.982,0.020,-0.045
3.984,-0.030,-0.050
3.986,-0.005,-0.045
3.988,-0.030,-0.040
3.990,0.005,-0.030
3.992,0.025,-0.015
3.994,0.050,-0.005
3.996,0.040,0.010
3.998,0.020,0.020
4.000,0.070,0.025
4.002,0.040,0.020
4.004,0.060,0.020
4.006,0.045,0.015
4.008,0.030,0.010
4.010,-0.020,0.005
4.012,0.040,0.010
4.014,0.065,0.015
4.016,0.075,0.025
4.018,0.025,0.035
4.020,0.080,0.040
4.022,0.110,0.050
4.024,0.080,0.055
4.026,0.130,0.060
4.028,0.075,0.065
4.030,0.085,0.070
4.032,0.125,0.075
4.034,0.145,0.085
4.036,0.070,0.100
4.038,0.155,0.110
4.040,0.195,0.120
4.042,0.210,0.130
4.044,0.220,0.135
4.046,0.155,0.140
4.048,0.125,0.135
4.050,0.115,0.135
4.052,0.185,0.135
4.054,0.145,0.140
4.056,0.125,0.150
4.058,0.175,0.160
4.060,0.260,0.175
4.062,0.250,0.190
4.064,0.270,0.205
4.066,0.295,0.215
4.068,0.235,0.225
4.070,0.235,0.225
4.072,0.205,0.220
4.074,0.230,0.215
4.076,0.210,0.210
4.078,0.195,0.205
4.080,0.260,0.200
4.082,0.215,0.200
4.084,0.215,0.200
4.086,0.260,0.205
4.088,0.225,0.200
4.090,0.250,0.200
4.092,0.250,0.195
4.094,0.165,0.180
4.096,0.150,0.170
4.098,0.165,0.155
4.100,0.225,0.140
4.102,0.150,0.130
4.104,0.120,0.120
4.106,0.135,0.110
4.108,0.110,0.105
4.110,0.075,0.105
4.112,0.170,0.100
4.114,0.110,0.095
4.116,0.135,0.090
4.118,0.090,0.080
4.120,0.050,0.070
4.122,0.095,0.060
4.124,0.080,0.050
4.126,0.035,0.040
4.128,0.085,0.030
4.130,0.020,0.025
4.132,0.040,0.025
4.134,0.060,0.020
4.136,0.045,0.020
4.138,0.070,0.015
4.140,0.070,0.010
4.142,0.025,0.005
4.144,-0.020,-0.005
4.146,-0.015,-0.015
4.148,-0.010,-0.020
4.150,-0.005,-0.030
4.152,0.010,-0.030
4.154,-0.025,-0.030
4.156,-0.015,-0.025
4.158,0.050,-0.015
4.160,0.040,-0.005
4.162,0.035,0.005
4.164,0.010,0.010
4.166,0.050,0.015
4.168,0.025,0.010
4.170,-0.035,0.000
4.172,-0.030,-0.010
4.174,-0.005,-0.025
4.176,-0.045,-0.040
4.178,0.010,-0.050
4.180,-0.015,-0.055
4.182,0.015,-0.055
4.184,-0.020,-0.050
4.186,-0.015,-0.045
4.188,-0.070,-0.040
4.190,-0.075,-0.035
4.192,0.000,-0.035
4.194,-0.025,-0.040
4.196,-0.025,-0.045
4.198,0.000,-0.050
4.200,-0.035,-0.050
4.202,-0.025,-0.055
4.204,-0.005,-0.050
4.206,0.010,-0.045
4.208,0.000,-0.035
4.210,-0.010,-0.030
4.212,-0.025,-0.020
4.214,-0.025,-0.015
4.216,-0.070,-0.015
4.218,0.005,-0.015
4.220,0.020,-0.020
4.222,0.010,-0.030
4.224,0.010,-0.040
4.226,0.050,-0.045
4.228,-0.065,-0.050
4.230,-0.065,-0.055
4.232,-0.035,-0.055
4.234,-0.045,-0.050
4.236,-0.050,-0.045
4.238,0.015,-0.040
4.240,0.040,-0.035
4.242,-0.025,-0.035
4.244,-0.050,-0.040
4.246,-0.005,-0.045
4.248,-0.050,-0.055
4.250,-0.060,-0.065
4.252,-0.055,-0.075
4.254,-0.040,-0.085
4.256,-0.070,-0.095
4.258,-0.060,-0.095
4.260,-0.055,-0.095
4.262,-0.050,-0.085
4.264,-0.030,-0.075
4.266,0.000,-0.060
4.268,-0.040,-0.050
4.270,-0.065,-0.035
4.272,-0.065,-0.030
4.274,-0.005,-0.030
4.276,0.015,-0.030
4.278,-0.025,-0.035
4.280,-0.055,-0.045
4.282,0.000,-0.050
4.284,-0.035,-0.055
4.286,-0.050,-0.055
4.288,-0.055,-0.055
4.290,-0.035,-0.050
4.292,-0.030,-0.045
4.294,-0.075,-0.040
4.296,0.025,-0.035
4.298,0.035,-0.030
4.300,0.015,-0.030
4.302,-0.040,-0.035
4.304,-0.095,-0.045
4.306,-0.045,-0.050
4.308,-0.045,-0.055
4.310,-0.005,-0.060
4.312,-0.075,-0.060
4.314,-0.065,-0.055
4.316,-0.010,-0.050
4.318,-0.005,-0.040
4.320,0.015,-0.035
4.322,-0.020,-0.025
4.324,-0.055,-0.025
4.326,-0.015,-0.025
4.328,0.020,-0.025
4.330,0.005,-0.030
4.332,-0.030,-0.035
4.334,-0.050,-0.040
4.336,-0.035,-0.040
4.338,-0.010,-0.040
4.340,-0.015,-0.035
4.342,0.025,-0.030
4.344,-0.015,-0.025
4.346,0.020,-0.025
4.348,-0.010,-0.030
4.350,-0.040,-0.035
4.352,-0.030,-0.045
4.354,-0.065,-0.055
4.356,-0.100,-0.065
4.358,-0.055,-0.075
4.360,-0.055,-0.085
4.362,-0.040,-0.090
4.364,-0.055,-0.095
4.366,-0.080,-0.090
4.368,-0.075,-0.085
4.370,-0.045,-0.080
4.372,-0.065,-0.075
4.374,-0.060,-0.065
4.376,-0.040,-0.065
4.378,-0.025,-0.060
4.380,-0.065,-0.060
4.382,-0.045,-0.065
4.384,0.010,-0.065
4.386,0.020,-0.070
4.388,-0.075,-0.070
4.390,-0.065,-0.070
4.392,-0.055,-0.070
4.394,-0.040,-0.065
4.396,-0.005,-0.060
4.398,-0.020,-0.055
4.400,-0.025,-0.050
4.402,-0.050,-0.045
4.404,0.005,-0.040
4.406,-0.005,-0.040
4.408,-0.065,-0.040
4.410,-0.060,-0.045
4.412,-0.040,-0.050
4.414,-0.060,-0.055
4.416,-0.020,-0.060
4.418,-0.005,-0.065
4.420,0.010,-0.065
4.422,0.010,-0.065
4.424,-0.005,-0.065
4.426,-0.020,-0.060
4.428,-0.030,-0.060
4.430,-0.045,-0.060
4.432,-0.035,-0.060
4.434,-0.060,-0.060
4.436,-0.050,-0.060
4.438,-0.020,-0.060
4.440,-0.025,-0.060
4.442,-0.010,-0.055
4.444,0.015,-0.045
4.446,-0.005,-0.035
4.448,-0.045,-0.025
4.450,0.030,-0.015
4.452,-0.020,0.000
4.454,-0.025,0.010
4.456,0.040,0.020
4.458,0.070,0.030
4.460,0.055,0.035
4.462,0.035,0.040
4.464,0.120,0.045
4.466,0.085,0.040
4.468,0.100,0.040
4.470,0.040,0.035
4.472,0.045,0.030
4.474,0.025,0.025
4.476,0.040,0.020
4.478,0.025,0.015
4.480,0.045,0.010
4.482,0.045,0.005
4.484,0.025,0.000
4.486,0.005,-0.005
4.488,0.000,-0.010
4.490,0.010,-0.015
4.492,0.065,-0.020
4.494,0.025,-0.025
4.496,-0.025,-0.035
4.498,-0.025,-0.035
4.500,-0.025,-0.040
4.502,-0.005,-0.045
4.504,0.050,-0.045
4.506,-0.010,-0.050
4.508,0.005,-0.050
4.510,0.000,-0.045
4.512,-0.060,-0.045
4.514,-0.040,-0.040
4.516,-0.010,-0.035
4.518,0.055,-0.025
4.520,0.095,-0.020
4.522,0.020,-0.015
4.524,0.040,-0.015
4.526,-0.010,-0.015
4.528,-0.040,-0.025
4.530,-0.060,-0.035
4.532,-0.060,-0.050
4.534,-0.050,-0.065
4.536,0.005,-0.075
4.538,-0.025,-0.085
4.540,0.000,-0.085
4.542,-0.045,-0.080
4.544,-0.075,-0.070
4.546,-0.035,-0.060
4.548,-0.025,-0.050
4.550,0.005,-0.040
4.552,-0.005,-0.035
4.554,-0.030,-0.030
4.556,-0.010,-0.020
4.558,0.030,-0.015
4.560,0.040,-0.005
4.562,0.025,0.000
4.564,0.110,0.005
4.566,0.035,0.005
4.568,0.030,0.005
4.570,-0.035,-0.005
4.572,-0.015,-0.010
4.574,0.040,-0.005
4.576,0.110,0.015
4.578,0.125,0.060
4.580,0.200,0.135
4.582,0.285,0.240
4.584,0.405,0.365
4.586,0.490,0.500
4.588,0.630,0.635
4.590,0.750,0.740
4.592,0.920,0.810
4.594,1.070,0.830
4.596,1.050,0.790
4.598,0.905,0.710
4.600,0.470,0.590
4.602,0.345,0.450
4.604,0.200,0.315
4.606,0.100,0.195
4.608,0.085,0.100
4.610,0.100,0.045
4.612,0.155,0.020
4.614,0.105,0.015
4.616,0.125,0.025
4.618,0.120,0.035
4.620,0.090,0.035
4.622,0.015,0.030
4.624,-0.010,0.015
4.626,-0.035,-0.015
4.628,-0.060,-0.045
4.630,-0.050,-0.070
4.632,-0.030,-0.090
4.634,-0.055,-0.105
4.636,-0.045,-0.110
4.638,-0.050,-0.105
4.640,-0.030,-0.100
4.642,-0.080,-0.095
4.644,-0.090,-0.090
4.646,-0.030,-0.085
4.648,0.000,-0.085
4.650,0.040,-0.085
4.652,-0.070,-0.085
4.654,-0.085,-0.085
4.656,-0.015,-0.085
4.658,-0.035,-0.085
4.660,-0.010,-0.080
4.662,-0.050,-0.080
4.664,-0.045,-0.080
4.666,-0.060,-0.085
4.668,-0.055,-0.090
4.670,-0.065,-0.100
4.672,-0.045,-0.105
4.674,-0.035,-0.115
4.676,-0.015,-0.120
4.678,-0.055,-0.125
4.680,-0.065,-0.120
4.682,-0.060,-0.115
4.684,-0.090,-0.105
4.686,-0.035,-0.095
4.688,-0.020,-0.085
4.690,-0.035,-0.080
4.692,-0.045,-0.070
4.694,-0.045,-0.070
4.696,-0.015,-0.065
4.698,0.000,-0.070
4.700,0.015,-0.070
4.702,-0.010,-0.075
4.704,-0.030,-0.075
4.706,-0.015,-0.080
4.708,-0.055,-0.080
4.710,-0.080,-0.080
4.712,-0.015,-0.075
4.714,-0.020,-0.075
4.716,-0.005,-0.075
4.718,0.020,-0.070
4.720,0.015,-0.070
4.722,0.000,-0.065
4.724,-0.010,-0.065
4.726,0.000,-0.065
4.728,0.015,-0.065
4.730,-0.045,-0.065
4.732,-0.005,-0.065
4.734,0.010,-0.065
4.736,0.000,-0.065
4.738,0.005,-0.060
4.740,0.035,-0.055
4.742,0.030,-0.050
4.744,0.010,-0.040
4.746,0.015,-0.035
4.748,0.015,-0.030
4.750,0.020,-0.025
4.752,0.010,-0.025
4.754,-0.005,-0.030
4.756,0.060,-0.030
4.758,0.045,-0.030
4.760,0.020,-0.030
4.762,0.040,-0.020
4.764,0.080,-0.005
4.766,0.090,0.010
4.768,0.140,0.025
4.770,0.110,0.035
4.772,0.100,0.045
4.774,0.125,0.045
4.776,0.100,0.040
4.778,0.075,0.030
4.780,0.050,0.015
4.782,0.060,0.010
4.784,0.050,0.005
4.786,0.075,0.010
4.788,0.085,0.025
4.790,0.085,0.040
4.792,0.175,0.060
4.794,0.155,0.075
4.796,0.170,0.085
4.798,0.185,0.090
4.800,0.130,0.090
4.802,0.160,0.090
4.804,0.180,0.085
4.806,0.130,0.090
4.808,0.170,0.095
4.810,0.175,0.105
4.812,0.250,0.125
4.814,0.285,0.140
4.816,0.230,0.155
4.818,0.220,0.165
4.820,0.220,0.165
4.822,0.215,0.165
4.824,0.240,0.160
4.826,0.195,0.155
4.828,0.210,0.150
4.830,0.315,0.150
4.832,0.270,0.160
4.834,0.220,0.170
4.836,0.210,0.185
4.838,0.250,0.195
4.840,0.230,0.200
4.842,0.325,0.200
4.844,0.350,0.195
4.846,0.250,0.185
4.848,0.260,0.180
4.850,0.285,0.170
4.852,0.245,0.165
4.854,0.235,0.165
4.856,0.210,0.165
4.858,0.190,0.165
4.860,0.180,0.155
4.862,0.190,0.140
4.864,0.195,0.120
4.866,0.170,0.095
4.868,0.210,0.065
4.870,0.110,0.035
4.872,0.055,0.010
4.874,0.075,-0.005
4.876,0.080,-0.010
4.878,0.115,-0.005
4.880,0.090,0.005
4.882,0.045,0.015
4.884,0.085,0.025
4.886,0.090,0.030
4.888,0.075,0.025
4.890,0.135,0.015
4.892,0.085,0.005
4.894,0.065,-0.015
4.896,0.075,-0.025
4.898,0.060,-0.040
4.900,0.000,-0.045
4.902,0.030,-0.045
4.904,0.060,-0.045
4.906,-0.020,-0.040
4.908,-0.015,-0.040
4.910,0.080,-0.035
4.912,0.110,-0.040
4.914,0.095,-0.040
4.916,0.050,-0.045
4.918,0.030,-0.045
4.920,0.005,-0.045
4.922,-0.005,-0.045
4.924,-0.005,-0.045
4.926,0.035,-0.040
4.928,0.030,-0.035
4.930,0.140,-0.030
4.932,0.120,-0.030
4.934,0.015,-0.030
4.936,0.080,-0.030
4.938,0.070,-0.035
4.940,0.015,-0.040
4.942,0.000,-0.050
4.944,-0.030,-0.055
4.946,-0.025,-0.060
4.948,-0.020,-0.065
4.950,0.080,-0.070
4.952,0.065,-0.070
4.954,-0.020,-0.070
4.956,0.045,-0.070
4.958,0.090,-0.065
4.960,0.025,-0.060
4.962,0.020,-0.050
4.964,0.030,-0.045
4.966,0.055,-0.035
4.968,0.050,-0.030
4.970,0.050,-0.030
4.972,0.120,-0.030
4.974,0.035,-0.040
4.976,0.055,-0.050
4.978,0.020,-0.060
4.980,-0.010,-0.070
4.982,0.050,-0.080
4.984,-0.025,-0.090
4.986,-0.020,-0.090
4.988,-0.010,-0.090
4.990,0.035,-0.085
4.992,0.010,-0.080
4.994,0.035,-0.070
4.996,0.035,-0.065
4.998,0.075,-0.060
5.000,0.025,-0.060
5.002,0.025,-0.060
5.004,0.035,-0.065
5.006,0.020,-0.070
5.008,0.025,-0.080
5.010,0.045,-0.085
5.012,0.055,-0.090
5.014,-0.005,-0.095
5.016,0.040,-0.095
5.018,0.025,-0.095
5.020,-0.045,-0.095
5.022,-0.060,-0.095
5.024,-0.005,-0.095
5.026,-0.015,-0.090
5.028,0.020,-0.085
5.030,0.040,-0.080
5.032,0.050,-0.070
5.034,0.055,-0.065
5.036,0.060,-0.055
5.038,0.080,-0.050
5.040,0.055,-0.045
5.042,0.060,-0.040
5.044,0.080,-0.040
5.046,0.055,-0.040
5.048,0.060,-0.040
5.050,0.100,-0.040
5.052,0.030,-0.045
5.054,0.055,-0.050
5.056,0.080,-0.055
5.058,0.070,-0.055
5.060,0.045,-0.065
5.062,0.030,-0.070
5.064,0.030,-0.075
5.066,-0.010,-0.085
5.068,0.000,-0.090
5.070,0.035,-0.095
5.072,-0.015,-0.095
5.074,0.055,-0.090
5.076,0.075,-0.085
5.078,0.070,-0.075
5.080,0.075,-0.060
5.082,0.075,-0.050
5.084,0.035,-0.040
5.086,0.050,-0.035
5.088,0.060,-0.035
5.090,0.065,-0.040
5.092,0.085,-0.050
5.094,0.075,-0.060
5.096,0.030,-0.065
5.098,0.005,-0.070
5.100,0.020,-0.070
5.102,0.040,-0.065
5.104,0.075,-0.055
5.106,0.105,-0.045
5.108,0.150,-0.035
5.110,0.115,-0.030
5.112,0.050,-0.035
5.114,0.045,-0.040
5.116,0.060,-0.055
5.118,0.015,-0.070
5.120,-0.020,-0.085
5.122,0.000,-0.095
5.124,0.025,-0.105
5.126,0.010,-0.105
5.128,-0.020,-0.100
5.130,0.040,-0.090
5.132,0.025,-0.080
5.134,0.050,-0.070
5.136,0.105,-0.060
5.138,0.060,-0.055
5.140,0.005,-0.055
5.142,0.065,-0.055
5.144,0.040,-0.060
5.146,0.020,-0.065
5.148,0.045,-0.070
5.150,0.055,-0.070
5.152,0.025,-0.070
5.154,0.045,-0.070
5.156,0.095,-0.065
5.158,0.065,-0.060
5.160,0.030,-0.050
5.162,0.060,-0.050
5.164,0.105,-0.050
5.166,0.080,-0.050
5.168,0.045,-0.055
5.170,0.010,-0.065
5.172,0.025,-0.075
5.174,0.000,-0.080
5.176,0.065,-0.090
5.178,0.025,-0.095
5.180,0.025,-0.090
5.182,0.055,-0.085
5.184,0.055,-0.075
5.186,0.065,-0.060
5.188,0.105,-0.045
5.190,0.080,-0.030
5.192,0.105,-0.015
5.194,0.135,-0.005
5.196,0.165,0.000
5.198,0.110,0.000
5.200,0.115,-0.005
5.202,0.115,-0.010
5.204,0.120,-0.020
5.206,0.040,-0.030
5.208,0.095,-0.040
5.210,0.070,-0.040
5.212,0.060,-0.040
5.214,0.075,-0.035
5.216,0.125,-0.025
5.218,0.110,-0.015
5.220,0.145,-0.010
5.222,0.125,-0.010
5.224,0.095,-0.015
5.226,0.065,-0.025
5.228,0.075,-0.035
5.230,0.050,-0.050
5.232,0.015,-0.065
5.234,0.050,-0.080
5.236,0.060,-0.085
5.238,0.035,-0.090
5.240,0.000,-0.090
5.242,0.060,-0.080
5.244,0.065,-0.075
5.246,0.070,-0.065
5.248,0.110,-0.055
5.250,0.100,-0.045
5.252,0.100,-0.040
5.254,0.060,-0.040
5.256,0.085,-0.040
5.258,0.065,-0.040
5.260,0.045,-0.045
5.262,0.070,-0.055
5.264,0.045,-0.060
5.266,0.050,-0.070
5.268,0.050,-0.075
5.270,0.020,-0.080
5.272,0.045,-0.085
5.274,0.085,-0.085
5.276,0.090,-0.080
5.278,0.020,-0.075
5.280,0.010,-0.070
5.282,0.030,-0.060
5.284,0.095,-0.050
5.286,0.175,-0.045
5.288,0.175,-0.035
5.290,0.060,-0.030
5.292,0.090,-0.030
5.294,0.085,-0.030
5.296,0.050,-0.030
5.298,0.040,-0.030
5.300,0.115,-0.030
5.302,0.100,-0.025
5.304,0.135,-0.015
5.306,0.180,0.010
5.308,0.180,0.050
5.310,0.225,0.110
5.312,0.315,0.185
5.314,0.405,0.275
5.316,0.530,0.375
5.318,0.610,0.475
5.320,0.695,0.570
5.322,0.775,0.645
5.324,0.960,0.695
5.326,0.990,0.710
5.328,0.865,0.685
5.330,0.735,0.625
5.332,0.565,0.535
5.334,0.520,0.425
5.336,0.400,0.310
5.338,0.280,0.195
5.340,0.155,0.100
5.342,0.155,0.025
5.344,0.075,-0.030
5.346,0.085,-0.055
5.348,0.080,-0.070
5.350,0.075,-0.065
5.352,0.120,-0.060
5.354,0.130,-0.055
5.356,0.065,-0.050
5.358,0.055,-0.055
5.360,0.035,-0.060
5.362,0.050,-0.070
5.364,0.040,-0.075
5.366,0.045,-0.080
5.368,0.060,-0.085
5.370,0.075,-0.080
5.372,0.085,-0.080
5.374,0.065,-0.075
5.376,0.060,-0.075
5.378,0.040,-0.070
5.380,0.070,-0.070
5.382,0.025,-0.075
5.384,-0.005,-0.075
5.386,0.070,-0.075
5.388,0.065,-0.080
5.390,0.055,-0.075
5.392,0.090,-0.075
5.394,0.075,-0.075
5.396,0.035,-0.075
5.398,0.045,-0.075
5.400,0.080,-0.075
5.402,0.090,-0.075
5.404,0.040,-0.070
5.406,0.070,-0.070
5.408,0.095,-0.060
5.410,0.125,-0.055
5.412,0.150,-0.045
5.414,0.110,-0.040
5.416,0.025,-0.040
5.418,0.095,-0.040
5.420,0.075,-0.050
5.422,-0.005,-0.065
5.424,0.000,-0.080
5.426,0.095,-0.100
5.428,0.040,-0.110
5.430,-0.005,-0.120
5.432,0.015,-0.120
5.434,0.065,-0.110
5.436,0.090,-0.100
5.438,0.095,-0.080
5.440,0.090,-0.065
5.442,0.085,-0.055
5.444,0.055,-0.045
5.446,0.080,-0.040
5.448,0.080,-0.045
5.450,0.065,-0.045
5.452,0.090,-0.050
5.454,0.125,-0.055
5.456,0.090,-0.055
5.458,0.090,-0.050
5.460,0.055,-0.045
5.462,0.090,-0.035
5.464,0.075,-0.025
5.466,0.130,-0.020
5.468,0.150,-0.010
5.470,0.135,-0.010
5.472,0.140,-0.010
5.474,0.145,-0.010
5.476,0.145,-0.010
5.478,0.140,-0.015
5.480,0.110,-0.015
5.482,0.135,-0.020
5.484,0.105,-0.020
5.486,0.100,-0.020
5.488,0.115,-0.015
5.490,0.130,-0.015
5.492,0.150,-0.010
5.494,0.135,-0.010
5.496,0.125,-0.005
5.498,0.110,0.000
5.500,0.125,0.010
5.502,0.120,0.015
5.504,0.155,0.020
5.506,0.210,0.025
5.508,0.170,0.030
5.510,0.190,0.035
5.512,0.235,0.040
5.514,0.260,0.050
5.516,0.160,0.060
5.518,0.175,0.070
5.520,0.225,0.080
5.522,0.240,0.095
5.524,0.215,0.105
5.526,0.220,0.115
5.528,0.260,0.120
5.530,0.245,0.125
5.532,0.315,0.130
5.534,0.360,0.130
5.536,0.270,0.130
5.538,0.230,0.135
5.540,0.245,0.140
5.542,0.255,0.145
5.544,0.320,0.155
5.546,0.310,0.165
5.548,0.300,0.170
5.550,0.325,0.180
5.552,0.305,0.185
5.554,0.325,0.190
5.556,0.380,0.190
5.558,0.360,0.195
5.560,0.370,0.200
5.562,0.275,0.200
5.564,0.335,0.210
5.566,0.345,0.215
5.568,0.315,0.220
5.570,0.405,0.220
5.572,0.395,0.220
5.574,0.380,0.215
5.576,0.295,0.205
5.578,0.275,0.195
5.580,0.310,0.180
5.582,0.270,0.170
5.584,0.270,0.160
5.586,0.295,0.150
5.588,0.310,0.145
5.590,0.290,0.140
5.592,0.270,0.135
5.594,0.295,0.130
5.596,0.235,0.125
5.598,0.195,0.115
5.600,0.190,0.105
5.602,0.215,0.100
5.604,0.245,0.090
5.606,0.260,0.085
5.608,0.250,0.075
5.610,0.210,0.070
5.612,0.175,0.070
5.614,0.150,0.065
5.616,0.185,0.060
5.618,0.200,0.055
5.620,0.185,0.050
5.622,0.145,0.040
5.624,0.150,0.035
5.626,0.165,0.030
5.628,0.165,0.020
5.630,0.145,0.015
5.632,0.085,0.005
5.634,0.170,-0.005
5.636,0.145,-0.015
5.638,0.100,-0.025
5.640,0.020,-0.035
5.642,0.040,-0.040
5.644,0.120,-0.045
5.646,0.140,-0.045
5.648,0.100,-0.045
5.650,0.095,-0.040
5.652,0.130,-0.030
5.654,0.165,-0.025
5.656,0.090,-0.020
5.658,0.100,-0.020
5.660,0.110,-0.020
5.662,0.100,-0.030
5.664,0.105,-0.035
5.666,0.100,-0.045
5.668,0.115,-0.055
5.670,0.045,-0.060
5.672,0.055,-0.060
5.674,0.080,-0.060
5.676,0.115,-0.055
5.678,0.135,-0.050
5.680,0.135,-0.045
5.682,0.040,-0.040
5.684,0.075,-0.035
5.686,0.065,-0.040
5.688,0.040,-0.045
5.690,0.065,-0.050
5.692,0.110,-0.055
5.694,0.100,-0.060
5.696,0.110,-0.060
5.698,0.125,-0.060
5.700,0.025,-0.050
5.702,0.045,-0.040
5.704,0.115,-0.030
5.706,0.145,-0.025
5.708,0.125,-0.020
5.710,0.100,-0.020
5.712,0.095,-0.030
5.714,0.045,-0.040
5.716,0.030,-0.055
5.718,0.080,-0.065
5.720,0.045,-0.075
5.722,0.005,-0.080
5.724,0.085,-0.075
5.726,0.105,-0.070
5.728,0.115,-0.060
5.730,0.140,-0.050
5.732,0.120,-0.040
5.734,0.060,-0.035
5.736,0.025,-0.035
5.738,0.025,-0.040
5.740,0.055,-0.045
5.742,0.075,-0.055
5.744,0.090,-0.060
5.746,0.105,-0.060
5.748,0.140,-0.055
5.750,0.085,-0.050
5.752,0.050,-0.040
5.754,0.010,-0.030
5.756,0.090,-0.025
5.758,0.140,-0.020
5.760,0.115,-0.020
5.762,0.090,-0.020
5.764,0.100,-0.025
5.766,0.100,-0.030
5.768,0.085,-0.030
5.770,0.090,-0.035
5.772,0.135,-0.035
5.774,0.085,-0.035
5.776,0.105,-0.035
5.778,0.080,-0.035
5.780,0.095,-0.040
5.782,0.070,-0.045
5.784,0.105,-0.055
5.786,0.105,-0.065
5.788,0.070,-0.070
5.790,0.015,-0.080
5.792,0.020,-0.085
5.794,0.055,-0.085
5.796,0.070,-0.080
5.798,0.045,-0.070
5.800,0.035,-0.060
5.802,0.110,-0.050
5.804,0.120,-0.045
5.806,0.095,-0.035
5.808,0.080,-0.030
5.810,0.080,-0.030
5.812,0.130,-0.035
5.814,0.065,-0.035
5.816,0.085,-0.040
5.818,0.085,-0.045
5.820,0.075,-0.050
5.822,0.070,-0.055
5.824,0.085,-0.060
5.826,0.105,-0.065
5.828,0.055,-0.065
5.830,0.060,-0.065
5.832,0.080,-0.070
5.834,0.060,-0.065
5.836,0.070,-0.065
5.838,0.075,-0.060
5.840,0.040,-0.055
5.842,0.080,-0.055
5.844,0.095,-0.050
5.846,0.120,-0.050
5.848,0.115,-0.050
5.850,0.065,-0.050
5.852,0.065,-0.050
5.854,0.030,-0.055
5.856,0.070,-0.060
5.858,0.055,-0.065
5.860,-0.010,-0.070
5.862,0.055,-0.070
5.864,0.100,-0.075
5.866,0.095,-0.075
5.868,0.070,-0.075
5.870,0.065,-0.075
5.872,0.065,-0.070
5.874,-0.020,-0.070
5.876,0.080,-0.065
5.878,0.045,-0.055
5.880,0.065,-0.050
5.882,0.110,-0.045
5.884,0.115,-0.040
5.886,0.110,-0.035
5.888,0.065,-0.040
5.890,0.070,-0.040
5.892,0.055,-0.050
5.894,0.060,-0.055
5.896,0.085,-0.065
5.898,0.040,-0.070
5.900,0.025,-0.070
5.902,0.075,-0.070
5.904,0.100,-0.060
5.906,0.080,-0.050
5.908,0.120,-0.040
5.910,0.115,-0.025
5.912,0.070,-0.015
5.914,0.050,-0.005
5.916,0.115,0.000
5.918,0.170,0.005
5.920,0.140,0.005
5.922,0.160,0.005
5.924,0.145,0.005
5.926,0.160,0.005
5.928,0.080,0.005
5.930,0.130,0.010
5.932,0.155,0.010
5.934,0.130,0.010
5.936,0.105,0.010
5.938,0.110,0.005
5.940,0.120,-0.005
5.942,0.105,-0.015
5.944,0.130,-0.025
5.946,0.080,-0.035
5.948,0.080,-0.045
5.950,0.070,-0.055
5.952,0.060,-0.065
5.954,0.070,-0.070
5.956,0.050,-0.075
5.958,0.020,-0.075
5.960,0.005,-0.080
5.962,0.025,-0.080
5.964,0.075,-0.075
5.966,0.045,-0.075
5.968,0.060,-0.070
5.970,0.090,-0.070
5.972,0.080,-0.065
5.974,0.050,-0.060
5.976,0.075,-0.060
5.978,0.075,-0.055
5.980,0.005,-0.055
5.982,0.050,-0.055
5.984,0.065,-0.055
5.986,0.070,-0.055
5.988,0.055,-0.055
5.990,0.040,-0.060
5.992,0.060,-0.060
5.994,0.055,-0.065
5.996,0.065,-0.070
5.998,0.075,-0.075
6.000,0.040,-0.080
6.002,0.050,-0.080
6.004,0.050,-0.080
6.006,0.085,-0.075
6.008,0.055,-0.070
6.010,0.045,-0.060
6.012,0.090,-0.045
6.014,0.110,-0.030
6.016,0.090,-0.020
6.018,0.095,-0.010
6.020,0.105,0.005
6.022,0.150,0.020
6.024,0.230,0.040
6.026,0.235,0.080
6.028,0.290,0.135
6.030,0.330,0.210
6.032,0.385,0.300
6.034,0.560,0.410
6.036,0.565,0.520
6.038,0.695,0.625
6.040,0.920,0.710
6.042,1.040,0.765
6.044,1.060,0.780
6.046,0.905,0.750
6.048,0.760,0.685
6.050,0.650,0.585
6.052,0.560,0.470
6.054,0.410,0.350
6.056,0.255,0.240
6.058,0.180,0.145
6.060,0.120,0.075
6.062,0.205,0.035
6.064,0.230,0.015
6.066,0.155,0.015
6.068,0.160,0.020
6.070,0.160,0.025
6.072,0.140,0.030
6.074,0.120,0.020
6.076,0.040,0.005
6.078,0.035,-0.020
6.080,0.035,-0.045
6.082,0.020,-0.075
6.084,0.070,-0.095
6.086,0.020,-0.105
6.088,0.045,-0.110
6.090,0.075,-0.105
6.092,0.075,-0.095
6.094,0.055,-0.085
6.096,0.005,-0.070
6.098,0.005,-0.065
6.100,-0.040,-0.065
6.102,0.020,-0.075
6.104,0.090,-0.085
6.106,0.085,-0.100
6.108,0.015,-0.110
6.110,0.030,-0.120
6.112,-0.020,-0.120
6.114,-0.035,-0.110
6.116,0.015,-0.095
6.118,-0.005,-0.075
6.120,0.045,-0.060
6.122,0.110,-0.040
6.124,0.115,-0.030
6.126,0.105,-0.030
6.128,0.045,-0.035
6.130,0.075,-0.050
6.132,0.085,-0.065
6.134,0.015,-0.080
6.136,0.045,-0.095
6.138,-0.040,-0.100
6.140,-0.015,-0.105
6.142,0.045,-0.100
6.144,0.080,-0.090
6.146,0.050,-0.080
6.148,0.045,-0.070
6.150,0.070,-0.060
6.152,0.050,-0.055
6.154,0.090,-0.050
6.156,0.055,-0.045
6.158,-0.015,-0.045
6.160,0.060,-0.045
6.162,0.065,-0.050
6.164,0.055,-0.050
6.166,0.070,-0.055
6.168,0.090,-0.060
6.170,0.125,-0.060
6.172,0.070,-0.060
6.174,0.070,-0.055
6.176,0.035,-0.050
6.178,0.020,-0.045
6.180,0.070,-0.045
6.182,0.080,-0.040
6.184,0.080,-0.040
6.186,0.060,-0.040
6.188,0.065,-0.045
6.190,0.045,-0.045
6.192,0.070,-0.050
6.194,0.080,-0.050
6.196,0.070,-0.040
6.198,0.070,-0.030
6.200,0.095,-0.015
6.202,0.160,0.005
6.204,0.150,0.020
6.206,0.180,0.035
6.208,0.150,0.045
6.210,0.115,0.050
6.212,0.155,0.050
6.214,0.130,0.045
6.216,0.110,0.035
6.218,0.120,0.025
6.220,0.110,0.020
6.222,0.150,0.020
6.224,0.170,0.025
6.226,0.190,0.035
6.228,0.185,0.045
6.230,0.155,0.060
6.232,0.175,0.070
6.234,0.145,0.075
6.236,0.160,0.075
6.238,0.195,0.080
6.240,0.165,0.075
6.242,0.190,0.080
6.244,0.190,0.080
6.246,0.200,0.085
6.248,0.255,0.095
6.250,0.240,0.105
6.252,0.220,0.115
6.254,0.270,0.125
6.256,0.205,0.130
6.258,0.210,0.135
6.260,0.195,0.130
6.262,0.280,0.130
6.264,0.300,0.130
6.266,0.240,0.130
6.268,0.260,0.140
6.270,0.255,0.150
6.272,0.310,0.165
6.274,0.295,0.180
6.276,0.305,0.195
6.278,0.290,0.205
6.280,0.290,0.205
6.282,0.300,0.200
6.284,0.290,0.190
6.286,0.305,0.175
6.288,0.280,0.165
6.290,0.240,0.155
6.292,0.260,0.155
6.294,0.285,0.155
6.296,0.305,0.165
6.298,0.265,0.175
6.300,0.320,0.180
6.302,0.315,0.185
6.304,0.300,0.180
6.306,0.250,0.165
6.308,0.205,0.150
6.310,0.210,0.130
6.312,0.180,0.110
6.314,0.195,0.095
6.316,0.215,0.090
6.318,0.240,0.090
6.320,0.265,0.095
6.322,0.230,0.100
6.324,0.195,0.110
6.326,0.155,0.110
6.328,0.210,0.100
6.330,0.135,0.085
6.332,0.150,0.065
6.334,0.150,0.045
6.336,0.100,0.020
6.338,0.060,0.005
6.340,0.125,-0.005
6.342,0.160,-0.010
6.344,0.160,-0.005
6.346,0.135,0.005
6.348,0.125,0.015
6.350,0.120,0.020
6.352,0.150,0.025
6.354,0.075,0.020
6.356,0.085,0.015
6.358,0.065,0.000
6.360,0.080,-0.010
6.362,0.065,-0.025
6.364,0.080,-0.030
6.366,0.080,-0.035
6.368,0.115,-0.040
6.370,0.085,-0.035
6.372,0.090,-0.035
6.374,0.050,-0.030
6.376,0.040,-0.030
6.378,0.025,-0.030
6.380,0.070,-0.035
6.382,0.120,-0.035
6.384,0.105,-0.040
6.386,0.030,-0.040
6.388,0.080,-0.045
6.390,0.065,-0.050
6.392,0.055,-0.055
6.394,0.020,-0.055
6.396,0.020,-0.060
6.398,0.015,-0.065
6.400,0.060,-0.070
6.402,0.025,-0.070
6.404,0.060,-0.065
6.406,0.085,-0.060
6.408,0.085,-0.050
6.410,0.110,-0.040
6.412,0.100,-0.030
6.414,0.080,-0.020
6.416,0.075,-0.020
6.418,0.070,-0.020
6.420,0.060,-0.030
6.422,0.035,-0.040
6.424,0.025,-0.050
6.426,0.055,-0.060
6.428,0.020,-0.070
6.430,0.055,-0.070
6.432,0.045,-0.065
6.434,0.075,-0.055
6.436,0.085,-0.045
6.438,0.080,-0.030
6.440,0.125,-0.020
6.442,0.090,-0.020
6.444,0.040,-0.020
6.446,0.070,-0.030
6.448,0.080,-0.040
6.450,0.010,-0.055
6.452,0.030,-0.065
6.454,0.045,-0.070
6.456,0.075,-0.075
6.458,0.025,-0.065
6.460,0.065,-0.055
6.462,0.075,-0.045
6.464,0.070,-0.030
6.466,0.105,-0.020
6.468,0.100,-0.015
6.470,0.080,-0.015
6.472,0.050,-0.025
6.474,0.015,-0.035
6.476,-0.025,-0.045
6.478,0.060,-0.055
6.480,0.095,-0.060
6.482,0.080,-0.065
6.484,0.015,-0.065
6.486,0.070,-0.060
6.488,0.050,-0.055
6.490,0.060,-0.045
6.492,0.055,-0.040
6.494,0.030,-0.040
6.496,0.070,-0.040
6.498,0.090,-0.040
6.500,0.070,-0.045
6.502,0.045,-0.050
6.504,0.070,-0.060
6.506,0.000,-0.065
6.508,0.035,-0.070
6.510,0.060,-0.070
6.512,0.020,-0.070
6.514,0.050,-0.070
6.516,0.010,-0.070
6.518,0.040,-0.070
6.520,0.065,-0.065
6.522,0.040,-0.065
6.524,0.050,-0.060
6.526,0.090,-0.055
6.528,0.040,-0.050
6.530,0.000,-0.045
6.532,0.060,-0.045
6.534,0.105,-0.040
6.536,0.050,-0.040
6.538,0.020,-0.040
6.540,0.070,-0.040
6.542,0.075,-0.040
6.544,0.045,-0.045
6.546,0.060,-0.050
6.548,0.040,-0.055
6.550,0.055,-0.060
6.552,0.045,-0.065
6.554,-0.010,-0.070
6.556,-0.005,-0.075
6.558,0.040,-0.080
6.560,0.035,-0.080
6.562,0.020,-0.080
6.564,0.045,-0.075
6.566,0.055,-0.070
6.568,0.090,-0.065
6.570,0.015,-0.055
6.572,-0.005,-0.045
6.574,0.070,-0.040
6.576,0.050,-0.030
6.578,0.095,-0.030
6.580,0.075,-0.025
6.582,0.070,-0.030
6.584,0.060,-0.030
6.586,0.065,-0.035
6.588,0.075,-0.035
6.590,0.075,-0.040
6.592,0.045,-0.045
6.594,0.070,-0.045
6.596,0.040,-0.050
6.598,0.060,-0.050
6.600,0.015,-0.055
6.602,0.065,-0.055
6.604,0.045,-0.055
6.606,0.055,-0.060
6.608,0.055,-0.060
6.610,0.010,-0.060
6.612,0.035,-0.060
6.614,0.055,-0.060
6.616,0.055,-0.060
6.618,0.020,-0.060
6.620,0.065,-0.060
6.622,0.015,-0.055
6.624,0.040,-0.050
6.626,0.095,-0.045
6.628,0.080,-0.035
6.630,0.090,-0.025
6.632,0.120,-0.015
6.634,0.105,-0.005
6.636,0.085,0.005
6.638,0.130,0.010
6.640,0.100,0.010
6.642,0.140,0.010
6.644,0.100,0.010
6.646,0.120,0.005
6.648,0.090,0.000
6.650,0.065,-0.010
6.652,0.095,-0.015
6.654,0.100,-0.020
6.656,0.080,-0.025
6.658,0.100,-0.035
6.660,0.065,-0.040
6.662,0.040,-0.050
6.664,0.035,-0.055
6.666,0.055,-0.065
6.668,0.010,-0.070
6.670,0.035,-0.075
6.672,0.015,-0.075
6.674,0.040,-0.080
6.676,0.020,-0.080
6.678,0.060,-0.080
6.680,0.070,-0.075
6.682,0.010,-0.075
6.684,-0.015,-0.075
6.686,0.015,-0.070
6.688,0.005,-0.065
6.690,0.070,-0.060
6.692,0.070,-0.055
6.694,0.030,-0.055
6.696,0.015,-0.050
6.698,0.050,-0.055
6.700,0.080,-0.055
6.702,0.060,-0.065
6.704,0.010,-0.070
6.706,0.070,-0.080
6.708,-0.020,-0.085
6.710,-0.005,-0.085
6.712,0.035,-0.085
6.714,0.035,-0.085
6.716,-0.010,-0.080
6.718,0.075,-0.080
6.720,-0.045,-0.085
6.722,0.040,-0.090
6.724,0.010,-0.095
6.726,-0.035,-0.100
6.728,0.005,-0.105
6.730,0.025,-0.100
6.732,0.065,-0.095
6.734,0.075,-0.080
6.736,0.020,-0.060
6.738,0.060,-0.040
6.740,0.065,-0.015
6.742,0.105,0.015
6.744,0.175,0.050
6.746,0.260,0.100
6.748,0.265,0.160
6.750,0.355,0.240
6.752,0.435,0.335
6.754,0.505,0.445
6.756,0.630,0.560
6.758,0.810,0.670
6.760,0.955,0.760
6.762,1.070,0.820
6.764,1.065,0.830
6.766,0.930,0.800
6.768,0.800,0.720
6.770,0.665,0.605
6.772,0.510,0.470
6.774,0.360,0.330
6.776,0.250,0.200
6.778,0.140,0.095
6.780,0.125,0.020
6.782,0.060,-0.020
6.784,0.105,-0.030
6.786,0.120,-0.025
6.788,0.155,-0.010
6.790,0.155,0.005
6.792,0.105,0.015
6.794,0.040,0.010
6.796,0.070,-0.005
6.798,0.100,-0.030
6.800,0.080,-0.055
6.802,0.015,-0.080
6.804,-0.045,-0.095
6.806,-0.040,-0.105
6.808,0.010,-0.105
6.810,0.040,-0.095
6.812,0.055,-0.085
6.814,0.110,-0.075
6.816,0.070,-0.070
6.818,-0.020,-0.070
6.820,0.015,-0.075
6.822,0.020,-0.085
6.824,-0.010,-0.100
6.826,-0.055,-0.115
6.828,-0.040,-0.130
6.830,-0.045,-0.135
6.832,-0.020,-0.140
6.834,-0.035,-0.140
6.836,-0.015,-0.130
6.838,0.025,-0.120
6.840,0.050,-0.110
6.842,0.045,-0.100
6.844,0.035,-0.090
6.846,-0.015,-0.085
6.848,0.015,-0.085
6.850,0.025,-0.080
6.852,0.055,-0.085
6.854,0.015,-0.085
6.856,-0.020,-0.090
6.858,0.040,-0.095
6.860,0.045,-0.100
6.862,-0.005,-0.110
6.864,-0.005,-0.115
6.866,-0.030,-0.120
6.868,0.000,-0.125
6.870,0.010,-0.125
6.872,-0.050,-0.125
6.874,-0.010,-0.115
6.876,0.000,-0.105
6.878,0.080,-0.090
6.880,0.020,-0.080
6.882,0.000,-0.070
6.884,0.085,-0.065
6.886,0.090,-0.060
6.888,0.040,-0.065
6.890,-0.025,-0.070
6.892,-0.020,-0.080
6.894,-0.030,-0.090
6.896,0.020,-0.095
6.898,0.055,-0.095
6.900,0.025,-0.095
6.902,0.070,-0.090
6.904,0.050,-0.080
6.906,0.050,-0.070
6.908,0.040,-0.060
6.910,0.050,-0.055
6.912,0.080,-0.050
6.914,0.055,-0.045
6.916,0.065,-0.045
6.918,0.100,-0.040
6.920,0.080,-0.040
6.922,0.040,-0.035
6.924,0.120,-0.030
6.926,0.050,-0.020
6.928,0.065,-0.010
6.930,0.115,-0.005
6.932,0.130,0.005
6.934,0.145,0.010
6.936,0.145,0.010
6.938,0.125,0.010
6.940,0.120,0.010
6.942,0.075,0.005
6.944,0.105,0.000
6.946,0.075,-0.005
6.948,0.070,-0.005
6.950,0.110,-0.005
6.952,0.115,0.000
6.954,0.140,0.010
6.956,0.185,0.025
6.958,0.185,0.040
6.960,0.165,0.060
6.962,0.190,0.075
6.964,0.245,0.090
6.966,0.190,0.100
6.968,0.155,0.100
6.970,0.150,0.100
6.972,0.150,0.095
6.974,0.210,0.090
6.976,0.215,0.080
6.978,0.240,0.075
6.980,0.260,0.075
6.982,0.210,0.080
6.984,0.175,0.085
6.986,0.185,0.095
6.988,0.190,0.110
6.990,0.220,0.120
6.992,0.230,0.130
6.994,0.240,0.140
6.996,0.265,0.150
6.998,0.265,0.155
7.000,0.295,0.160
7.002,0.350,0.165
7.004,0.360,0.165
7.006,0.290,0.165
7.008,0.205,0.165
7.010,0.220,0.155
7.012,0.225,0.145
7.014,0.215,0.135
7.016,0.255,0.120
7.018,0.250,0.105
7.020,0.270,0.095
7.022,0.275,0.090
7.024,0.210,0.090
7.026,0.180,0.095
7.028,0.185,0.100
7.030,0.215,0.105
7.032,0.235,0.110
7.034,0.210,0.105
7.036,0.205,0.100
7.038,0.245,0.085
7.040,0.205,0.070
7.042,0.125,0.050
7.044,0.150,0.030
7.046,0.100,0.015
7.048,0.120,0.005
7.050,0.100,0.000
7.052,0.115,-0.005
7.054,0.150,-0.005
7.056,0.115,-0.005
7.058,0.080,-0.005
7.060,0.150,-0.010
7.062,0.080,-0.020
7.064,0.105,-0.025
7.066,0.025,-0.035
7.068,0.070,-0.040
7.070,0.065,-0.050
7.072,0.015,-0.050
7.074,0.105,-0.050
7.076,0.120,-0.055
7.078,0.060,-0.055
7.080,0.050,-0.055
7.082,0.060,-0.060
7.084,0.025,-0.065
7.086,0.035,-0.070
7.088,0.020,-0.080
7.090,0.000,-0.085
7.092,0.020,-0.085
7.094,0.025,-0.085
7.096,0.065,-0.085
7.098,0.090,-0.080
7.100,0.130,-0.075
7.102,0.030,-0.070
7.104,0.015,-0.070
7.106,0.045,-0.075
7.108,0.015,-0.080
7.110,0.035,-0.085
7.112,0.025,-0.090
7.114,0.040,-0.100
7.116,0.000,-0.100
7.118,0.015,-0.105
7.120,0.005,-0.105
7.122,0.035,-0.105
7.124,0.090,-0.100
7.126,0.000,-0.100
7.128,-0.025,-0.100
7.130,0.005,-0.105
7.132,-0.005,-0.105
7.134,0.010,-0.105
7.136,0.040,-0.105
7.138,0.000,-0.100
7.140,0.000,-0.095
7.142,0.085,-0.085
7.144,0.050,-0.075
7.146,0.080,-0.070
7.148,0.040,-0.065
7.150,0.005,-0.070
7.152,0.010,-0.080
7.154,0.020,-0.090
7.156,0.005,-0.105
7.158,-0.030,-0.120
7.160,0.010,-0.130
7.162,0.050,-0.135
7.164,-0.005,-0.135
7.166,-0.030,-0.125
7.168,-0.015,-0.120
7.170,0.025,-0.110
7.172,0.030,-0.100
7.174,0.020,-0.095
7.176,0.045,-0.095
7.178,0.030,-0.095
7.180,0.020,-0.095
7.182,0.020,-0.100
7.184,0.040,-0.105
7.186,0.020,-0.110
7.188,-0.005,-0.110
7.190,-0.080,-0.115
7.192,0.015,-0.120
7.194,0.040,-0.125
7.196,-0.005,-0.130
7.198,0.040,-0.130
7.200,-0.010,-0.130
7.202,-0.015,-0.125
7.204,0.045,-0.115
7.206,-0.005,-0.100
7.208,0.020,-0.085
7.210,0.100,-0.075
7.212,0.055,-0.070
7.214,0.060,-0.070
7.216,0.000,-0.075
7.218,0.015,-0.090
7.220,-0.010,-0.105
7.222,0.050,-0.120
7.224,0.010,-0.130
7.226,0.005,-0.135
7.228,0.015,-0.135
7.230,0.050,-0.130
7.232,-0.020,-0.120
7.234,0.010,-0.110
7.236,0.025,-0.100
7.238,0.010,-0.090
7.240,0.030,-0.080
7.242,0.100,-0.080
7.244,0.070,-0.075
7.246,0.065,-0.075
7.248,0.050,-0.080
7.250,0.070,-0.080
7.252,0.030,-0.080
7.254,0.015,-0.085
7.256,0.025,-0.085
7.258,0.010,-0.090
7.260,0.020,-0.100
7.262,0.055,-0.105
7.264,0.020,-0.105
7.266,0.060,-0.110
7.268,0.020,-0.105
7.270,0.025,-0.100
7.272,0.000,-0.095
7.274,0.075,-0.085
7.276,0.065,-0.080
7.278,0.010,-0.075
7.280,0.005,-0.070
7.282,0.080,-0.075
7.284,0.045,-0.075
7.286,0.075,-0.080
7.288,0.055,-0.085
7.290,0.065,-0.090
7.292,0.080,-0.090
7.294,0.075,-0.090
7.296,0.060,-0.090
7.298,0.070,-0.090
7.300,0.030,-0.095
7.302,0.025,-0.100
7.304,-0.030,-0.110
7.306,0.015,-0.120
7.308,-0.020,-0.130
7.310,0.005,-0.135
7.312,0.045,-0.135
7.314,0.035,-0.130
7.316,0.030,-0.120
7.318,0.075,-0.105
7.320,0.050,-0.090
7.322,0.040,-0.075
7.324,0.030,-0.065
7.326,0.045,-0.065
7.328,0.090,-0.065
7.330,0.075,-0.075
7.332,0.050,-0.085
7.334,0.080,-0.095
7.336,0.025,-0.105
7.338,0.030,-0.105
7.340,0.065,-0.100
7.342,0.075,-0.090
7.344,0.025,-0.070
7.346,0.070,-0.050
7.348,0.150,-0.030
7.350,0.120,-0.010
7.352,0.115,0.005
7.354,0.205,0.010
7.356,0.145,0.010
7.358,0.120,0.005
7.360,0.110,-0.005
7.362,0.120,-0.015
7.364,0.095,-0.025
7.366,0.125,-0.035
7.368,0.100,-0.040
7.370,0.090,-0.040
7.372,0.075,-0.040
7.374,0.130,-0.035
7.376,0.100,-0.030
7.378,0.120,-0.025
7.380,0.140,-0.025
7.382,0.105,-0.025
7.384,0.155,-0.025
7.386,0.145,-0.030
7.388,0.085,-0.040
7.390,0.065,-0.045
7.392,0.085,-0.055
7.394,0.105,-0.065
7.396,0.110,-0.070
7.398,0.050,-0.075
7.400,0.070,-0.080
7.402,0.080,-0.080
7.404,0.055,-0.075
7.406,0.070,-0.070
7.408,0.120,-0.065
7.410,0.115,-0.065
7.412,0.065,-0.060
7.414,0.075,-0.065
7.416,0.025,-0.070
7.418,0.080,-0.075
7.420,0.110,-0.080
7.422,0.070,-0.080
7.424,0.120,-0.080
7.426,0.070,-0.075
7.428,0.055,-0.070
7.430,0.100,-0.060
7.432,0.135,-0.050
7.434,0.120,-0.045
7.436,0.085,-0.040
7.438,0.070,-0.045
7.440,0.080,-0.050
7.442,0.080,-0.055
7.444,0.125,-0.055
7.446,0.095,-0.055
7.448,0.090,-0.050
7.450,0.135,-0.035
7.452,0.185,-0.025
7.454,0.185,-0.015
7.456,0.155,-0.010
7.458,0.085,-0.005
7.460,0.110,-0.005
7.462,0.125,0.000
7.464,0.155,0.015
7.466,0.290,0.045
7.468,0.320,0.095
7.470,0.350,0.170
7.472,0.430,0.270
7.474,0.525,0.385
7.476,0.640,0.505
7.478,0.780,0.620
7.480,0.905,0.710
7.482,1.025,0.765
7.484,1.055,0.780
7.486,0.950,0.755
7.488,0.850,0.690
7.490,0.715,0.595
7.492,0.595,0.480
7.494,0.545,0.360
7.496,0.375,0.250
7.498,0.185,0.155
7.500,0.170,0.080
7.502,0.155,0.030
7.504,0.170,0.000
7.506,0.185,-0.015
7.508,0.165,-0.020
7.510,0.105,-0.015
7.512,0.125,-0.015
7.514,0.155,-0.010
7.516,0.170,-0.015
7.518,0.165,-0.015
7.520,0.170,-0.020
7.522,0.195,-0.030
7.524,0.135,-0.035
7.526,0.080,-0.040
7.528,0.080,-0.045
7.530,0.070,-0.045
7.532,0.170,-0.050
7.534,0.140,-0.055
7.536,0.095,-0.060
7.538,0.070,-0.065
7.540,0.100,-0.070
7.542,0.050,-0.080
7.544,0.060,-0.085
7.546,0.125,-0.085
7.548,0.140,-0.085
7.550,0.080,-0.080
7.552,0.115,-0.070
7.554,0.140,-0.065
7.556,0.110,-0.055
7.558,0.065,-0.045
7.560,0.125,-0.040
7.562,0.115,-0.035
7.564,0.155,-0.035
7.566,0.135,-0.035
7.568,0.175,-0.035
7.570,0.130,-0.035
7.572,0.145,-0.030
7.574,0.200,-0.030
7.576,0.190,-0.025
7.578,0.125,-0.020
7.580,0.210,-0.015
7.582,0.110,-0.010
7.584,0.140,-0.010
7.586,0.135,-0.010
7.588,0.140,-0.015
7.590,0.130,-0.015
7.592,0.205,-0.015
7.594,0.185,-0.020
7.596,0.190,-0.020
7.598,0.205,-0.020
7.600,0.140,-0.025
7.602,0.140,-0.025
7.604,0.120,-0.030
7.606,0.145,-0.035
7.608,0.130,-0.040
7.610,0.135,-0.040
7.612,0.180,-0.040
7.614,0.130,-0.035
7.616,0.165,-0.025
7.618,0.185,-0.015
7.620,0.250,0.000
7.622,0.210,0.015
7.624,0.230,0.030
7.626,0.225,0.035
7.628,0.190,0.035
7.630,0.160,0.035
7.632,0.195,0.025
7.634,0.210,0.015
7.636,0.185,0.005
7.638,0.220,-0.005
7.640,0.145,-0.010
7.642,0.210,-0.010
7.644,0.190,-0.005
7.646,0.160,0.000
7.648,0.185,0.010
7.650,0.215,0.020
7.652,0.245,0.025
7.654,0.210,0.030
7.656,0.230,0.030
7.658,0.235,0.030
7.660,0.255,0.030
7.662,0.215,0.030
7.664,0.200,0.035
7.666,0.265,0.040
7.668,0.240,0.045
7.670,0.190,0.055
7.672,0.260,0.065
7.674,0.255,0.070
7.676,0.245,0.080
7.678,0.280,0.090
7.680,0.355,0.095
7.682,0.335,0.105
7.684,0.325,0.110
7.686,0.340,0.120
7.688,0.345,0.125
7.690,0.270,0.130
7.692,0.340,0.135
7.694,0.355,0.140
7.696,0.345,0.140
7.698,0.335,0.140
7.700,0.335,0.140
7.702,0.290,0.140
7.704,0.345,0.145
7.706,0.385,0.150
7.708,0.385,0.155
7.710,0.385,0.165
7.712,0.410,0.175
7.714,0.405,0.185
7.716,0.415,0.195
7.718,0.415,0.200
7.720,0.440,0.200
7.722,0.395,0.200
7.724,0.415,0.195
7.726,0.380,0.190
7.728,0.350,0.185
7.730,0.355,0.180
7.732,0.390,0.180
7.734,0.410,0.185
7.736,0.395,0.185
7.738,0.390,0.190
7.740,0.425,0.190
7.742,0.385,0.185
7.744,0.360,0.185
7.746,0.330,0.175
7.748,0.380,0.165
7.750,0.345,0.155
7.752,0.340,0.150
7.754,0.370,0.140
7.756,0.410,0.135
7.758,0.375,0.135
7.760,0.340,0.130
7.762,0.300,0.125
7.764,0.265,0.120
7.766,0.310,0.105
7.768,0.340,0.090
7.770,0.255,0.075
7.772,0.235,0.060
7.774,0.255,0.045
7.776,0.300,0.035
7.778,0.285,0.025
7.780,0.260,0.025
7.782,0.225,0.025
7.784,0.215,0.030
7.786,0.230,0.025
7.788,0.170,0.025
7.790,0.270,0.015
7.792,0.300,0.000
7.794,0.260,-0.015
7.796,0.180,-0.030
7.798,0.155,-0.040
7.800,0.175,-0.050
7.802,0.170,-0.050
7.804,0.190,-0.045
7.806,0.120,-0.040
7.808,0.205,-0.030
7.810,0.285,-0.020
7.812,0.255,-0.015
7.814,0.180,-0.015
7.816,0.175,-0.015
7.818,0.210,-0.015
7.820,0.225,-0.020
7.822,0.220,-0.020
7.824,0.225,-0.020
7.826,0.190,-0.015
7.828,0.170,-0.010
7.830,0.250,-0.005
7.832,0.240,0.000
7.834,0.195,0.000
7.836,0.185,-0.005
7.838,0.190,-0.015
7.840,0.205,-0.025
7.842,0.180,-0.040
7.844,0.180,-0.055
7.846,0.160,-0.065
7.848,0.165,-0.075
7.850,0.180,-0.075
7.852,0.185,-0.070
7.854,0.210,-0.060
7.856,0.160,-0.045
7.858,0.205,-0.035
7.860,0.245,-0.025
7.862,0.245,-0.015
7.864,0.220,-0.015
7.866,0.210,-0.015
7.868,0.150,-0.020
7.870,0.160,-0.025
7.872,0.250,-0.035
7.874,0.210,-0.040
7.876,0.220,-0.040
7.878,0.190,-0.035
7.880,0.170,-0.035
7.882,0.205,-0.025
7.884,0.200,-0.020
7.886,0.185,-0.010
7.888,0.230,-0.005
7.890,0.290,-0.005
7.892,0.255,-0.005
7.894,0.245,-0.005
7.896,0.220,-0.010
7.898,0.235,-0.015
7.900,0.200,-0.020
7.902,0.155,-0.025
7.904,0.220,-0.030
7.906,0.180,-0.030
7.908,0.230,-0.030
7.910,0.230,-0.025
7.912,0.275,-0.020
7.914,0.270,-0.015
7.916,0.210,-0.010
7.918,0.225,-0.005
7.920,0.245,0.000
7.922,0.235,0.000
7.924,0.225,0.005
7.926,0.240,0.005
7.928,0.250,0.005
7.930,0.265,0.010
7.932,0.245,0.010
7.934,0.230,0.015
7.936,0.275,0.020
7.938,0.310,0.025
7.940,0.295,0.025
7.942,0.290,0.025
7.944,0.255,0.025
7.946,0.210,0.020
7.948,0.240,0.010
7.950,0.240,0.000
7.952,0.245,-0.010
7.954,0.220,-0.015
7.956,0.265,-0.025
7.958,0.275,-0.030
7.960,0.225,-0.030
7.962,0.245,-0.030
7.964,0.265,-0.025
7.966,0.205,-0.025
7.968,0.215,-0.020
7.970,0.255,-0.015
7.972,0.230,-0.015
7.974,0.270,-0.015
7.976,0.240,-0.020
7.978,0.225,-0.020
7.980,0.220,-0.020
7.982,0.225,-0.020
7.984,0.250,-0.020
7.986,0.265,-0.015
7.988,0.305,-0.010
7.990,0.305,-0.005
7.992,0.245,-0.005
7.994,0.225,-0.005
7.996,0.275,-0.005
7.998,0.250,-0.010
8.000,0.215,-0.015
8.002,0.225,-0.020
8.004,0.220,-0.025
8.006,0.265,-0.030
8.008,0.255,-0.030
8.010,0.240,-0.025
8.012,0.245,-0.020
8.014,0.280,-0.015
8.016,0.340,-0.010
8.018,0.250,-0.005
8.020,0.205,-0.005
8.022,0.255,-0.010
8.024,0.255,-0.020
8.026,0.200,-0.030
8.028,0.180,-0.040
8.030,0.240,-0.055
8.032,0.225,-0.065
8.034,0.215,-0.070
8.036,0.215,-0.075
8.038,0.215,-0.070
8.040,0.230,-0.060
8.042,0.220,-0.050
8.044,0.250,-0.030
8.046,0.280,-0.015
8.048,0.285,0.000
8.050,0.265,0.010
8.052,0.315,0.015
8.054,0.345,0.020
8.056,0.305,0.020
8.058,0.245,0.015
8.060,0.305,0.010
8.062,0.295,0.010
8.064,0.215,0.010
8.066,0.280,0.010
8.068,0.325,0.015
8.070,0.310,0.020
8.072,0.300,0.020
8.074,0.355,0.020
8.076,0.375,0.015
8.078,0.235,0.005
8.080,0.220,-0.010
8.082,0.245,-0.025
8.084,0.240,-0.045
8.086,0.205,-0.060
8.088,0.140,-0.070
8.090,0.220,-0.080
8.092,0.265,-0.080
8.094,0.235,-0.075
8.096,0.230,-0.070
8.098,0.220,-0.065
8.100,0.215,-0.060
8.102,0.260,-0.055
8.104,0.225,-0.055
8.106,0.225,-0.060
8.108,0.250,-0.060
8.110,0.275,-0.065
8.112,0.230,-0.070
8.114,0.190,-0.070
8.116,0.215,-0.070
8.118,0.180,-0.070
8.120,0.245,-0.070
8.122,0.225,-0.070
8.124,0.200,-0.070
8.126,0.210,-0.075
8.128,0.230,-0.075
8.130,0.245,-0.080
8.132,0.225,-0.080
8.134,0.195,-0.080
8.136,0.170,-0.080
8.138,0.180,-0.075
8.140,0.240,-0.070
8.142,0.250,-0.065
8.144,0.220,-0.060
8.146,0.205,-0.050
8.148,0.260,-0.045
8.150,0.330,-0.040
8.152,0.300,-0.035
8.154,0.270,-0.025
8.156,0.290,-0.020
8.158,0.225,-0.010
8.160,0.270,0.005
8.162,0.265,0.025
8.164,0.340,0.055
8.166,0.415,0.095
8.168,0.540,0.150
8.170,0.610,0.215
8.172,0.650,0.300
8.174,0.695,0.385
8.176,0.785,0.480
8.178,0.815,0.560
8.180,0.935,0.630
8.182,1.050,0.670
8.184,1.025,0.680
8.186,0.980,0.660
8.188,0.930,0.600
8.190,0.805,0.515
8.192,0.785,0.415
8.194,0.590,0.305
8.196,0.405,0.195
8.198,0.285,0.105
8.200,0.325,0.035
8.202,0.350,-0.015
8.204,0.290,-0.045
8.206,0.265,-0.055
8.208,0.285,-0.050
8.210,0.260,-0.045
8.212,0.255,-0.040
8.214,0.265,-0.040
8.216,0.250,-0.040
8.218,0.235,-0.045
8.220,0.260,-0.050
8.222,0.270,-0.060
8.224,0.240,-0.060
8.226,0.270,-0.065
8.228,0.280,-0.060
8.230,0.265,-0.060
8.232,0.270,-0.060
8.234,0.245,-0.055
8.236,0.280,-0.060
8.238,0.230,-0.060
8.240,0.235,-0.065
8.242,0.225,-0.065
8.244,0.230,-0.065
8.246,0.260,-0.065
8.248,0.270,-0.065
8.250,0.285,-0.060
8.252,0.260,-0.055
8.254,0.275,-0.050
8.256,0.325,-0.045
8.258,0.280,-0.040
8.260,0.240,-0.040
8.262,0.265,-0.035
8.264,0.255,-0.030
8.266,0.290,-0.030
8.268,0.330,-0.020
8.270,0.335,-0.015
8.272,0.320,-0.010
8.274,0.295,-0.005
8.276,0.315,-0.005
8.278,0.330,-0.010
8.280,0.295,-0.015
8.282,0.340,-0.025
8.284,0.265,-0.035
8.286,0.220,-0.045
8.288,0.275,-0.050
8.290,0.305,-0.055
8.292,0.270,-0.050
8.294,0.320,-0.045
8.296,0.325,-0.035
8.298,0.295,-0.025
8.300,0.310,-0.015
8.302,0.365,-0.005
8.304,0.305,0.000
8.306,0.265,0.000
8.308,0.330,-0.005
8.310,0.305,-0.010
8.312,0.295,-0.015
8.314,0.310,-0.015
8.316,0.380,-0.015
8.318,0.335,-0.015
8.320,0.320,-0.010
8.322,0.290,0.000
8.324,0.275,0.005
8.326,0.360,0.010
8.328,0.330,0.010
8.330,0.340,0.010
8.332,0.365,0.005
8.334,0.340,0.005
8.336,0.315,0.000
8.338,0.305,0.000
8.340,0.335,0.005
8.342,0.345,0.010
8.344,0.345,0.015
8.346,0.330,0.020
8.348,0.390,0.025
8.350,0.375,0.030
8.352,0.345,0.025
8.354,0.350,0.020
8.356,0.330,0.015
8.358,0.350,0.010
8.360,0.365,0.005
8.362,0.345,0.010
8.364,0.345,0.015
8.366,0.415,0.030
8.368,0.415,0.045
8.370,0.415,0.065
8.372,0.445,0.080
8.374,0.425,0.095
8.376,0.430,0.105
8.378,0.460,0.110
8.380,0.455,0.110
8.382,0.435,0.110
8.384,0.360,0.105
8.386,0.435,0.105
8.388,0.500,0.105
8.390,0.460,0.110
8.392,0.470,0.120
8.394,0.510,0.130
8.396,0.515,0.145
8.398,0.540,0.155
8.400,0.535,0.160
8.402,0.480,0.165
8.404,0.485,0.165
8.406,0.480,0.165
8.408,0.480,0.160
8.410,0.515,0.155
8.412,0.560,0.150
8.414,0.490,0.150
8.416,0.450,0.155
8.418,0.530,0.160
8.420,0.525,0.165
8.422,0.500,0.175
8.424,0.500,0.175
8.426,0.555,0.180
8.428,0.560,0.180
8.430,0.480,0.175
8.432,0.460,0.170
8.434,0.505,0.170
8.436,0.510,0.165
8.438,0.495,0.165
8.440,0.545,0.165
8.442,0.490,0.165
8.444,0.480,0.160
8.446,0.520,0.150
8.448,0.490,0.140
8.450,0.460,0.120
8.452,0.400,0.095
8.454,0.405,0.070
8.456,0.385,0.045
8.458,0.375,0.025
8.460,0.305,0.010
8.462,0.335,0.000
8.464,0.345,-0.005
8.466,0.345,0.000
8.468,0.345,0.005
8.470,0.335,0.010
8.472,0.390,0.020
8.474,0.430,0.020
8.476,0.340,0.025
8.478,0.400,0.020
8.480,0.360,0.015
8.482,0.325,0.010
8.484,0.300,0.005
8.486,0.325,0.000
8.488,0.320,-0.005
8.490,0.340,-0.010
8.492,0.325,-0.015
8.494,0.320,-0.015
8.496,0.335,-0.020
8.498,0.365,-0.030
8.500,0.350,-0.035
8.502,0.260,-0.045
8.504,0.260,-0.055
8.506,0.305,-0.065
8.508,0.345,-0.070
8.510,0.250,-0.080
8.512,0.220,-0.085
8.514,0.255,-0.085
8.516,0.225,-0.090
8.518,0.280,-0.090
8.520,0.285,-0.095
8.522,0.290,-0.095
8.524,0.245,-0.095
8.526,0.235,-0.095
8.528,0.250,-0.095
8.530,0.275,-0.090
8.532,0.285,-0.085
8.534,0.275,-0.075
8.536,0.330,-0.070
8.538,0.305,-0.070
8.540,0.240,-0.070
8.542,0.220,-0.075
8.544,0.230,-0.080
8.546,0.255,-0.095
8.548,0.250,-0.105
8.550,0.240,-0.120
8.552,0.245,-0.125
8.554,0.250,-0.130
8.556,0.205,-0.125
8.558,0.225,-0.110
8.560,0.220,-0.095
8.562,0.305,-0.080
8.564,0.300,-0.065
8.566,0.335,-0.050
8.568,0.305,-0.045
8.570,0.290,-0.050
8.572,0.290,-0.060
8.574,0.230,-0.070
8.576,0.270,-0.085
8.578,0.285,-0.100
8.580,0.250,-0.110
8.582,0.250,-0.110
8.584,0.250,-0.110
8.586,0.275,-0.105
8.588,0.290,-0.095
8.590,0.305,-0.085
8.592,0.265,-0.080
8.594,0.265,-0.080
8.596,0.245,-0.080
8.598,0.225,-0.085
8.600,0.185,-0.095
8.602,0.230,-0.100
8.604,0.245,-0.105
8.606,0.305,-0.105
8.608,0.275,-0.100
8.610,0.295,-0.095
8.612,0.310,-0.090
8.614,0.250,-0.080
8.616,0.255,-0.075
8.618,0.290,-0.075
8.620,0.235,-0.075
8.622,0.220,-0.080
8.624,0.255,-0.085
8.626,0.300,-0.090
8.628,0.275,-0.095
8.630,0.300,-0.100
8.632,0.280,-0.100
8.634,0.260,-0.100
8.636,0.235,-0.095
8.638,0.255,-0.095
8.640,0.265,-0.095
8.642,0.240,-0.095
8.644,0.255,-0.100
8.646,0.290,-0.100
8.648,0.250,-0.105
8.650,0.255,-0.105
8.652,0.245,-0.105
8.654,0.235,-0.105
8.656,0.270,-0.100
8.658,0.290,-0.100
8.660,0.240,-0.095
8.662,0.230,-0.100
8.664,0.230,-0.100
8.666,0.225,-0.110
8.668,0.235,-0.115
8.670,0.265,-0.120
8.672,0.280,-0.120
8.674,0.250,-0.115
8.676,0.250,-0.110
8.678,0.265,-0.100
8.680,0.285,-0.090
8.682,0.220,-0.080
8.684,0.285,-0.075
8.686,0.250,-0.080
8.688,0.250,-0.085
8.690,0.270,-0.090
8.692,0.235,-0.100
8.694,0.215,-0.110
8.696,0.230,-0.115
8.698,0.275,-0.115
8.700,0.270,-0.110
8.702,0.265,-0.100
8.704,0.265,-0.090
8.706,0.290,-0.080
8.708,0.285,-0.070
8.710,0.230,-0.060
8.712,0.290,-0.060
8.714,0.270,-0.055
8.716,0.260,-0.060
8.718,0.295,-0.060
8.720,0.305,-0.065
8.722,0.270,-0.070
8.724,0.245,-0.070
8.726,0.290,-0.075
8.728,0.260,-0.080
8.730,0.215,-0.080
8.732,0.275,-0.085
8.734,0.295,-0.085
8.736,0.300,-0.085
8.738,0.220,-0.080
8.740,0.260,-0.075
8.742,0.245,-0.065
8.744,0.335,-0.055
8.746,0.295,-0.040
8.748,0.325,-0.030
8.750,0.330,-0.020
8.752,0.345,-0.015
8.754,0.340,-0.010
8.756,0.320,-0.005
8.758,0.310,-0.010
8.760,0.290,-0.010
8.762,0.270,-0.020
8.764,0.335,-0.025
8.766,0.345,-0.035
8.768,0.275,-0.045
8.770,0.285,-0.055
8.772,0.260,-0.065
8.774,0.260,-0.075
8.776,0.295,-0.080
8.778,0.310,-0.080
8.780,0.250,-0.085
8.782,0.195,-0.080
8.784,0.290,-0.080
8.786,0.275,-0.075
8.788,0.270,-0.075
8.790,0.250,-0.075
8.792,0.230,-0.080
8.794,0.230,-0.085
8.796,0.235,-0.095
8.798,0.215,-0.100
8.800,0.215,-0.105
8.802,0.235,-0.105
8.804,0.240,-0.105
8.806,0.265,-0.100
8.808,0.290,-0.095
8.810,0.260,-0.090
8.812,0.300,-0.080
8.814,0.235,-0.075
8.816,0.260,-0.070
8.818,0.245,-0.065
8.820,0.270,-0.070
8.822,0.255,-0.070
8.824,0.255,-0.080
8.826,0.245,-0.090
8.828,0.230,-0.100
8.830,0.205,-0.110
8.832,0.210,-0.120
8.834,0.190,-0.130
8.836,0.225,-0.130
8.838,0.215,-0.130
8.840,0.195,-0.120
8.842,0.240,-0.105
8.844,0.270,-0.090
8.846,0.300,-0.070
8.848,0.345,-0.055
8.850,0.260,-0.040
8.852,0.315,-0.030
8.854,0.290,-0.025
8.856,0.300,-0.010
8.858,0.330,0.015
8.860,0.435,0.050
8.862,0.460,0.110
8.864,0.530,0.190
8.866,0.695,0.290
8.868,0.715,0.405
8.870,0.865,0.520
8.872,0.980,0.630
8.874,1.075,0.710
8.876,1.245,0.760
8.878,1.160,0.765
8.880,1.015,0.725
8.882,0.930,0.650
8.884,0.865,0.550
8.886,0.780,0.440
8.888,0.660,0.325
8.890,0.480,0.230
8.892,0.435,0.150
8.894,0.390,0.100
8.896,0.370,0.070
8.898,0.405,0.055
8.900,0.395,0.050
8.902,0.375,0.040
8.904,0.340,0.030
8.906,0.350,0.010
8.908,0.305,-0.015
8.910,0.260,-0.045
8.912,0.215,-0.075
8.914,0.190,-0.100
8.916,0.215,-0.115
8.918,0.205,-0.120
8.920,0.225,-0.120
8.922,0.265,-0.110
8.924,0.260,-0.105
8.926,0.205,-0.095
8.928,0.245,-0.090
8.930,0.240,-0.085
8.932,0.220,-0.085
8.934,0.245,-0.085
8.936,0.255,-0.085
8.938,0.255,-0.085
8.940,0.220,-0.085
8.942,0.245,-0.090
8.944,0.230,-0.090
8.946,0.230,-0.095
8.948,0.270,-0.100
8.950,0.280,-0.100
8.952,0.205,-0.105
8.954,0.210,-0.105
8.956,0.235,-0.105
8.958,0.245,-0.100
8.960,0.180,-0.100
8.962,0.275,-0.095
8.964,0.270,-0.095
8.966,0.205,-0.100
8.968,0.165,-0.105
8.970,0.225,-0.110
8.972,0.195,-0.120
8.974,0.205,-0.120
8.976,0.225,-0.120
8.978,0.210,-0.115
8.980,0.210,-0.100
8.982,0.275,-0.090
8.984,0.260,-0.075
8.986,0.290,-0.065
8.988,0.235,-0.055
8.990,0.225,-0.055
8.992,0.230,-0.060
8.994,0.265,-0.070
8.996,0.270,-0.075
8.998,0.225,-0.085
9.000,0.240,-0.090
9.002,0.265,-0.090
9.004,0.270,-0.090
9.006,0.250,-0.085
9.008,0.230,-0.080
9.010,0.235,-0.080
9.012,0.215,-0.075
9.014,0.205,-0.080
9.016,0.230,-0.080
9.018,0.260,-0.085
9.020,0.230,-0.085
9.022,0.275,-0.080
9.024,0.250,-0.075
9.026,0.260,-0.070
9.028,0.215,-0.065
9.030,0.270,-0.055
9.032,0.280,-0.055
9.034,0.270,-0.050
9.036,0.230,-0.055
9.038,0.200,-0.055
9.040,0.230,-0.065
9.042,0.305,-0.070
9.044,0.260,-0.070
9.046,0.235,-0.075
9.048,0.240,-0.070
9.050,0.255,-0.060
9.052,0.295,-0.050
9.054,0.300,-0.040
9.056,0.305,-0.025
9.058,0.295,-0.015
9.060,0.260,-0.005
9.062,0.320,0.005
9.064,0.320,0.010
9.066,0.315,0.010
9.068,0.310,0.010
9.070,0.315,0.010
9.072,0.315,0.010
9.074,0.325,0.010
9.076,0.365,0.015
9.078,0.370,0.025
9.080,0.380,0.035
9.082,0.365,0.045
9.084,0.330,0.055
9.086,0.390,0.065
9.088,0.440,0.070
9.090,0.305,0.080
9.092,0.345,0.080
9.094,0.400,0.085
9.096,0.425,0.090
9.098,0.445,0.095
9.100,0.425,0.105
9.102,0.435,0.110
9.104,0.450,0.120
9.106,0.405,0.125
9.108,0.390,0.125
9.110,0.435,0.130
9.112,0.415,0.125
9.114,0.460,0.120
9.116,0.420,0.120
9.118,0.430,0.115
9.120,0.440,0.115
9.122,0.435,0.115
9.124,0.465,0.120
9.126,0.435,0.125
9.128,0.405,0.130
9.130,0.370,0.130
9.132,0.400,0.130
9.134,0.380,0.120
9.136,0.395,0.115
9.138,0.375,0.100
9.140,0.400,0.090
9.142,0.390,0.080
9.144,0.395,0.075
9.146,0.365,0.065
9.148,0.340,0.065
9.150,0.355,0.060
9.152,0.300,0.060
9.154,0.355,0.055
9.156,0.330,0.050
9.158,0.325,0.045
9.160,0.315,0.035
9.162,0.355,0.025
9.164,0.320,0.015
9.166,0.260,0.005
9.168,0.240,-0.005
9.170,0.300,-0.010
9.172,0.250,-0.020
9.174,0.285,-0.020
9.176,0.240,-0.025
9.178,0.245,-0.025
9.180,0.270,-0.025
9.182,0.320,-0.020
9.184,0.280,-0.020
9.186,0.300,-0.015
9.188,0.265,-0.015
9.190,0.250,-0.020
9.192,0.250,-0.025
9.194,0.280,-0.035
9.196,0.240,-0.045
9.198,0.230,-0.055
9.200,0.195,-0.060
9.202,0.225,-0.065
9.204,0.195,-0.070
9.206,0.220,-0.065
9.208,0.230,-0.060
9.210,0.230,-0.055
9.212,0.235,-0.045
9.214,0.255,-0.040
9.216,0.250,-0.035
9.218,0.220,-0.035
9.220,0.250,-0.040
9.222,0.255,-0.045
9.224,0.210,-0.050
9.226,0.225,-0.055
9.228,0.215,-0.060
9.230,0.260,-0.060
9.232,0.230,-0.060
9.234,0.225,-0.055
9.236,0.210,-0.050
9.238,0.205,-0.050
9.240,0.220,-0.050
9.242,0.230,-0.055
9.244,0.260,-0.055
9.246,0.230,-0.060
9.248,0.245,-0.060
9.250,0.180,-0.060
9.252,0.200,-0.060
9.254,0.225,-0.055
9.256,0.215,-0.045
9.258,0.260,-0.040
9.260,0.245,-0.035
9.262,0.240,-0.035
9.264,0.180,-0.040
9.266,0.175,-0.050
9.268,0.210,-0.055
9.270,0.215,-0.065
9.272,0.235,-0.070
9.274,0.185,-0.070
9.276,0.230,-0.065
9.278,0.215,-0.060
9.280,0.180,-0.050
9.282,0.240,-0.040
9.284,0.255,-0.035
9.286,0.235,-0.030
9.288,0.245,-0.030
9.290,0.220,-0.035
9.292,0.160,-0.045
9.294,0.250,-0.050
9.296,0.230,-0.055
9.298,0.220,-0.055
9.300,0.260,-0.055
9.302,0.170,-0.050
9.304,0.230,-0.040
9.306,0.250,-0.030
9.308,0.250,-0.025
9.310,0.215,-0.025
9.312,0.245,-0.025
9.314,0.225,-0.030
9.316,0.200,-0.040
9.318,0.175,-0.050
9.320,0.180,-0.060
9.322,0.205,-0.070
9.324,0.235,-0.075
9.326,0.225,-0.070
9.328,0.200,-0.070
9.330,0.195,-0.060
9.332,0.210,-0.055
9.334,0.220,-0.045
9.336,0.185,-0.040
9.338,0.200,-0.040
9.340,0.205,-0.040
9.342,0.230,-0.045
9.344,0.240,-0.050
9.346,0.205,-0.055
9.348,0.205,-0.060
9.350,0.150,-0.065
9.352,0.185,-0.065
9.354,0.205,-0.065
9.356,0.180,-0.060
9.358,0.195,-0.055
9.360,0.250,-0.050
9.362,0.260,-0.040
9.364,0.225,-0.030
9.366,0.235,-0.025
9.368,0.260,-0.020
9.370,0.205,-0.015
9.372,0.225,-0.015
9.374,0.245,-0.015
9.376,0.225,-0.020
9.378,0.210,-0.025
9.380,0.200,-0.035
9.382,0.175,-0.040
9.384,0.200,-0.045
9.386,0.230,-0.045
9.388,0.225,-0.045
9.390,0.205,-0.040
9.392,0.175,-0.035
9.394,0.155,-0.025
9.396,0.225,-0.020
9.398,0.215,-0.015
9.400,0.255,-0.015
9.402,0.280,-0.020
9.404,0.230,-0.025
9.406,0.185,-0.035
9.408,0.230,-0.040
9.410,0.235,-0.045
9.412,0.235,-0.050
9.414,0.145,-0.050
9.416,0.125,-0.045
9.418,0.155,-0.040
9.420,0.235,-0.035
9.422,0.240,-0.030
9.424,0.230,-0.025
9.426,0.240,-0.030
9.428,0.225,-0.030
9.430,0.160,-0.040
9.432,0.170,-0.045
9.434,0.225,-0.050
9.436,0.175,-0.050
9.438,0.145,-0.050
9.440,0.115,-0.050
9.442,0.225,-0.045
9.444,0.220,-0.040
9.446,0.230,-0.035
9.448,0.260,-0.030
9.450,0.200,-0.025
9.452,0.185,-0.025
9.454,0.190,-0.025
9.456,0.220,-0.025
9.458,0.220,-0.020
9.460,0.245,-0.015
9.462,0.265,-0.010
9.464,0.255,0.000
9.466,0.260,0.015
9.468,0.270,0.025
9.470,0.220,0.035
9.472,0.290,0.040
9.474,0.275,0.045
9.476,0.245,0.050
9.478,0.225,0.045
9.480,0.250,0.045
9.482,0.265,0.035
9.484,0.270,0.030
9.486,0.275,0.020
9.488,0.240,0.010
9.490,0.205,0.000
9.492,0.200,-0.010
9.494,0.160,-0.020
9.496,0.175,-0.025
9.498,0.230,-0.035
9.500,0.225,-0.040
9.502,0.230,-0.040
9.504,0.190,-0.040
9.506,0.185,-0.040
9.508,0.195,-0.035
9.510,0.140,-0.030
9.512,0.180,-0.025
9.514,0.255,-0.020
9.516,0.210,-0.015
9.518,0.180,-0.010
9.520,0.215,-0.010
9.522,0.215,-0.015
9.524,0.195,-0.020
9.526,0.175,-0.030
9.528,0.175,-0.040
9.530,0.130,-0.050
9.532,0.125,-0.065
9.534,0.160,-0.070
9.536,0.135,-0.075
9.538,0.140,-0.070
9.540,0.185,-0.065
9.542,0.190,-0.050
9.544,0.190,-0.040
9.546,0.240,-0.025
9.548,0.205,-0.020
9.550,0.165,-0.015
9.552,0.205,-0.015
9.554,0.170,-0.020
9.556,0.120,-0.030
9.558,0.155,-0.035
9.560,0.185,-0.045
9.562,0.175,-0.050
9.564,0.160,-0.050
9.566,0.230,-0.045
9.568,0.140,-0.040
9.570,0.145,-0.025
9.572,0.225,0.000
9.574,0.200,0.030
9.576,0.215,0.080
9.578,0.405,0.140
9.580,0.520,0.225
9.582,0.585,0.330
9.584,0.655,0.445
9.586,0.775,0.570
9.588,0.850,0.685
9.590,0.995,0.785
9.592,1.185,0.850
9.594,1.230,0.875
9.596,1.090,0.855
9.598,1.010,0.785
9.600,0.835,0.680
9.602,0.705,0.550
9.604,0.565,0.410
9.606,0.445,0.280
9.608,0.335,0.170
9.610,0.205,0.090
9.612,0.255,0.045
9.614,0.265,0.025
9.616,0.265,0.030
9.618,0.285,0.045
9.620,0.300,0.060
9.622,0.270,0.070
9.624,0.195,0.070
9.626,0.260,0.055
9.628,0.205,0.030
9.630,0.155,0.000
9.632,0.160,-0.030
9.634,0.110,-0.060
9.636,0.115,-0.080
9.638,0.140,-0.090
9.640,0.130,-0.100
9.642,0.055,-0.100
9.644,0.080,-0.095
9.646,0.140,-0.090
9.648,0.110,-0.085
9.650,0.125,-0.080
9.652,0.115,-0.075
9.654,0.130,-0.070
9.656,0.145,-0.065
9.658,0.145,-0.065
9.660,0.120,-0.065
9.662,0.095,-0.065
9.664,0.150,-0.070
9.666,0.100,-0.075
9.668,0.060,-0.080
9.670,0.115,-0.085
9.672,0.135,-0.090
9.674,0.115,-0.095
9.676,0.085,-0.095
9.678,0.090,-0.095
9.680,0.110,-0.090
9.682,0.150,-0.090
9.684,0.145,-0.085
9.686,0.105,-0.080
9.688,0.070,-0.075
9.690,0.110,-0.070
9.692,0.115,-0.070
9.694,0.130,-0.070
9.696,0.135,-0.070
9.698,0.130,-0.070
9.700,0.145,-0.070
9.702,0.145,-0.070
9.704,0.100,-0.070
9.706,0.120,-0.070
9.708,0.135,-0.065
9.710,0.085,-0.065
9.712,0.130,-0.065
9.714,0.130,-0.060
9.716,0.135,-0.050
9.718,0.180,-0.045
9.720,0.155,-0.040
9.722,0.145,-0.030
9.724,0.130,-0.030
9.726,0.195,-0.025
9.728,0.150,-0.025
9.730,0.150,-0.030
9.732,0.130,-0.035
9.734,0.110,-0.035
9.736,0.120,-0.040
9.738,0.180,-0.045
9.740,0.150,-0.045
9.742,0.165,-0.040
9.744,0.195,-0.035
9.746,0.135,-0.030
9.748,0.145,-0.025
9.750,0.155,-0.020
9.752,0.190,-0.015
9.754,0.140,-0.015
9.756,0.125,-0.010
9.758,0.185,-0.005
9.760,0.195,-0.005
9.762,0.170,0.000
9.764,0.215,0.005
9.766,0.235,0.005
9.768,0.180,0.010
9.770,0.200,0.010
9.772,0.200,0.010
9.774,0.140,0.010
9.776,0.125,0.010
9.778,0.190,0.010
9.780,0.210,0.010
9.782,0.185,0.010
9.784,0.210,0.020
9.786,0.245,0.030
9.788,0.240,0.045
9.790,0.225,0.055
9.792,0.245,0.070
9.794,0.220,0.080
9.796,0.250,0.085
9.798,0.285,0.085
9.800,0.245,0.085
9.802,0.230,0.080
9.804,0.250,0.080
9.806,0.270,0.080
9.808,0.285,0.085
9.810,0.315,0.100
9.812,0.325,0.115
9.814,0.290,0.135
9.816,0.315,0.150
9.818,0.320,0.165
9.820,0.295,0.170
9.822,0.345,0.165
9.824,0.345,0.165
9.826,0.300,0.160
9.828,0.320,0.155
9.830,0.345,0.160
9.832,0.360,0.165
9.834,0.320,0.180
9.836,0.400,0.195
9.838,0.410,0.210
9.840,0.370,0.220
9.842,0.415,0.225
9.844,0.360,0.220
9.846,0.290,0.210
9.848,0.315,0.200
9.850,0.345,0.185
9.852,0.355,0.175
9.854,0.350,0.170
9.856,0.335,0.165
9.858,0.295,0.165
9.860,0.320,0.165
9.862,0.335,0.160
9.864,0.325,0.155
9.866,0.250,0.140
9.868,0.255,0.125
9.870,0.275,0.105
9.872,0.250,0.090
9.874,0.190,0.075
9.876,0.250,0.065
9.878,0.195,0.055
9.880,0.210,0.050
9.882,0.195,0.045
9.884,0.205,0.035
9.886,0.200,0.030
9.888,0.125,0.020
9.890,0.135,0.005
9.892,0.160,-0.005
9.894,0.155,-0.015
9.896,0.150,-0.025
9.898,0.160,-0.030
9.900,0.155,-0.030
9.902,0.105,-0.030
9.904,0.110,-0.030
9.906,0.100,-0.035
9.908,0.100,-0.035
9.910,0.125,-0.040
9.912,0.095,-0.050
9.914,0.080,-0.050
9.916,0.105,-0.055
9.918,0.080,-0.050
9.920,0.095,-0.045
9.922,0.120,-0.040
9.924,0.190,-0.030
9.926,0.115,-0.020
9.928,0.150,-0.010
9.930,0.165,-0.005
9.932,0.140,0.000
9.934,0.090,-0.005
9.936,0.135,-0.005
9.938,0.105,-0.015
9.940,0.125,-0.020
9.942,0.125,-0.025
9.944,0.100,-0.035
9.946,0.110,-0.040
9.948,0.105,-0.040
9.950,0.085,-0.045
9.952,0.095,-0.040
9.954,0.100,-0.040
9.956,0.145,-0.030
9.958,0.160,-0.025
9.960,0.145,-0.015
9.962,0.065,-0.005
9.964,0.140,0.005
9.966,0.170,0.005
9.968,0.140,0.010
9.970,0.160,0.005
9.972,0.170,0.000
9.974,0.125,-0.010
9.976,0.150,-0.020
9.978,0.085,-0.025
9.980,0.045,-0.035
9.982,0.105,-0.035
9.984,0.070,-0.040
9.986,0.095,-0.040
9.988,0.130,-0.040
9.990,0.115,-0.040
9.992,0.085,-0.040
9.994,0.075,-0.045
9.996,0.075,-0.050
9.998,0.075,-0.050
