'Elapsed time','ECG I','ECG I filtered'
'seconds','mV','mV'
0.000,0.285,-0.015
0.002,0.270,-0.020
0.004,0.290,-0.025
0.006,0.255,-0.030
0.008,0.240,-0.035
0.010,0.205,-0.040
0.012,0.265,-0.045
0.014,0.255,-0.050
0.016,0.250,-0.055
0.018,0.260,-0.060
0.020,0.240,-0.065
0.022,0.220,-0.070
0.024,0.215,-0.070
0.026,0.205,-0.070
0.028,0.260,-0.065
0.030,0.275,-0.055
0.032,0.245,-0.050
0.034,0.225,-0.045
0.036,0.285,-0.040
0.038,0.260,-0.040
0.040,0.285,-0.045
0.042,0.275,-0.050
0.044,0.225,-0.055
0.046,0.175,-0.060
0.048,0.240,-0.065
0.050,0.220,-0.065
0.052,0.225,-0.070
0.054,0.255,-0.070
0.056,0.250,-0.070
0.058,0.240,-0.070
0.060,0.250,-0.075
0.062,0.255,-0.075
0.064,0.235,-0.075
0.066,0.200,-0.075
0.068,0.200,-0.075
0.070,0.235,-0.070
0.072,0.265,-0.065
0.074,0.275,-0.060
0.076,0.295,-0.055
0.078,0.270,-0.055
0.080,0.260,-0.055
0.082,0.270,-0.055
0.084,0.250,-0.055
0.086,0.175,-0.055
0.088,0.240,-0.055
0.090,0.275,-0.055
0.092,0.265,-0.050
0.094,0.265,-0.045
0.096,0.260,-0.045
0.098,0.295,-0.040
0.100,0.295,-0.040
0.102,0.260,-0.045
0.104,0.285,-0.050
0.106,0.230,-0.055
0.108,0.260,-0.060
0.110,0.235,-0.060
0.112,0.220,-0.065
0.114,0.265,-0.060
0.116,0.275,-0.055
0.118,0.250,-0.050
0.120,0.290,-0.045
0.122,0.330,-0.045
0.124,0.300,-0.040
0.126,0.235,-0.040
0.128,0.255,-0.045
0.130,0.255,-0.045
0.132,0.270,-0.050
0.134,0.305,-0.050
0.136,0.320,-0.055
0.138,0.290,-0.055
0.140,0.265,-0.050
0.142,0.235,-0.050
0.144,0.235,-0.050
0.146,0.240,-0.045
0.148,0.245,-0.045
0.150,0.280,-0.045
0.152,0.300,-0.040
0.154,0.300,-0.035
0.156,0.310,-0.030
0.158,0.330,-0.020
0.160,0.340,-0.005
0.162,0.355,0.005
0.164,0.350,0.020
0.166,0.360,0.030
0.168,0.415,0.040
0.170,0.355,0.045
0.172,0.315,0.040
0.174,0.330,0.035
0.176,0.345,0.030
0.178,0.355,0.020
0.180,0.370,0.015
0.182,0.385,0.010
0.184,0.355,0.015
0.186,0.345,0.025
0.188,0.350,0.035
0.190,0.395,0.050
0.192,0.375,0.065
0.194,0.405,0.070
0.196,0.390,0.070
0.198,0.370,0.060
0.200,0.340,0.045
0.202,0.375,0.030
0.204,0.300,0.005
0.206,0.300,-0.010
0.208,0.320,-0.025
0.210,0.325,-0.030
0.212,0.300,-0.030
0.214,0.335,-0.020
0.216,0.335,-0.015
0.218,0.320,-0.005
0.220,0.330,-0.005
0.222,0.285,-0.005
0.224,0.285,-0.020
0.226,0.245,-0.030
0.228,0.250,-0.050
0.230,0.255,-0.065
0.232,0.235,-0.075
0.234,0.260,-0.075
0.236,0.305,-0.070
0.238,0.305,-0.065
0.240,0.280,-0.050
0.242,0.290,-0.045
0.244,0.275,-0.035
0.246,0.265,-0.035
0.248,0.300,-0.040
0.250,0.280,-0.050
0.252,0.250,-0.060
0.254,0.265,-0.060
0.256,0.305,-0.060
0.258,0.305,-0.050
0.260,0.280,-0.040
0.262,0.340,-0.025
0.264,0.270,-0.010
0.266,0.335,-0.005
0.268,0.325,0.000
0.270,0.280,-0.005
0.272,0.280,-0.010
0.274,0.360,-0.005
0.276,0.395,0.015
0.278,0.400,0.050
0.280,0.420,0.105
0.282,0.520,0.180
0.284,0.595,0.260
0.286,0.700,0.335
0.288,0.790,0.390
0.290,0.820,0.420
0.292,0.785,0.405
0.294,0.735,0.355
0.296,0.615,0.265
0.298,0.435,0.155
0.300,0.295,0.030
0.302,0.190,-0.085
0.304,0.110,-0.180
0.306,0.030,-0.250
0.308,0.060,-0.285
0.310,0.110,-0.290
0.312,0.135,-0.270
0.314,0.135,-0.235
0.316,0.140,-0.200
0.318,0.190,-0.160
0.320,0.240,-0.130
0.322,0.250,-0.110
0.324,0.220,-0.100
0.326,0.240,-0.095
0.328,0.245,-0.090
0.330,0.240,-0.085
0.332,0.310,-0.075
0.334,0.285,-0.070
0.336,0.305,-0.060
0.338,0.355,-0.055
0.340,0.270,-0.050
0.342,0.285,-0.045
0.344,0.300,-0.045
0.346,0.315,-0.045
0.348,0.355,-0.045
0.350,0.290,-0.040
0.352,0.305,-0.035
0.354,0.355,-0.030
0.356,0.325,-0.025
0.358,0.300,-0.020
0.360,0.320,-0.015
0.362,0.315,-0.015
0.364,0.335,-0.020
0.366,0.310,-0.025
0.368,0.325,-0.030
0.370,0.350,-0.030
0.372,0.350,-0.030
0.374,0.340,-0.025
0.376,0.315,-0.020
0.378,0.310,-0.010
0.380,0.410,-0.005
0.382,0.315,0.000
0.384,0.305,0.000
0.386,0.350,0.000
0.388,0.350,-0.005
0.390,0.325,-0.010
0.392,0.335,-0.015
0.394,0.370,-0.020
0.396,0.355,-0.020
0.398,0.355,-0.020
0.400,0.350,-0.010
0.402,0.370,-0.005
0.404,0.370,0.005
0.406,0.385,0.015
0.408,0.370,0.025
0.410,0.380,0.035
0.412,0.415,0.045
0.414,0.405,0.050
0.416,0.435,0.055
0.418,0.460,0.055
0.420,0.410,0.055
0.422,0.355,0.050
0.424,0.320,0.040
0.426,0.405,0.035
0.428,0.435,0.030
0.430,0.350,0.025
0.432,0.415,0.025
0.434,0.425,0.025
0.436,0.400,0.035
0.438,0.380,0.040
0.440,0.390,0.050
0.442,0.405,0.060
0.444,0.405,0.065
0.446,0.450,0.070
0.448,0.415,0.075
0.450,0.425,0.080
0.452,0.465,0.085
0.454,0.485,0.090
0.456,0.495,0.095
0.458,0.495,0.105
0.460,0.480,0.110
0.462,0.445,0.120
0.464,0.470,0.125
0.466,0.495,0.130
0.468,0.510,0.135
0.470,0.505,0.135
0.472,0.460,0.135
0.474,0.490,0.135
0.476,0.540,0.135
0.478,0.530,0.140
0.480,0.505,0.145
0.482,0.505,0.150
0.484,0.520,0.160
0.486,0.530,0.165
0.488,0.525,0.175
0.490,0.510,0.180
0.492,0.570,0.185
0.494,0.570,0.185
0.496,0.550,0.190
0.498,0.540,0.190
0.500,0.585,0.190
0.502,0.530,0.195
0.504,0.575,0.195
0.506,0.620,0.200
0.508,0.590,0.205
0.510,0.540,0.210
0.512,0.540,0.210
0.514,0.585,0.215
0.516,0.605,0.215
0.518,0.630,0.215
0.520,0.625,0.215
0.522,0.615,0.215
0.524,0.565,0.215
0.526,0.560,0.215
0.528,0.545,0.220
0.530,0.530,0.220
0.532,0.585,0.220
0.534,0.605,0.220
0.536,0.595,0.215
0.538,0.570,0.205
0.540,0.575,0.190
0.542,0.520,0.175
0.544,0.515,0.160
0.546,0.525,0.150
0.548,0.545,0.140
0.550,0.490,0.130
0.552,0.540,0.130
0.554,0.535,0.125
0.556,0.510,0.125
0.558,0.505,0.125
0.560,0.455,0.115
0.562,0.440,0.105
0.564,0.410,0.090
0.566,0.440,0.075
0.568,0.430,0.055
0.570,0.400,0.040
0.572,0.405,0.025
0.574,0.420,0.015
0.576,0.425,0.015
0.578,0.400,0.015
0.580,0.400,0.020
0.582,0.385,0.020
0.584,0.375,0.025
0.586,0.375,0.020
0.588,0.350,0.015
0.590,0.375,0.000
0.592,0.375,-0.015
0.594,0.390,-0.030
0.596,0.350,-0.040
0.598,0.345,-0.045
0.600,0.360,-0.045
0.602,0.370,-0.040
0.604,0.335,-0.030
0.606,0.350,-0.015
0.608,0.375,0.000
0.610,0.340,0.010
0.612,0.410,0.015
0.614,0.410,0.015
0.616,0.395,0.010
0.618,0.415,0.005
0.620,0.390,-0.005
0.622,0.365,-0.010
0.624,0.300,-0.020
0.626,0.280,-0.020
0.628,0.340,-0.025
0.630,0.355,-0.025
0.632,0.370,-0.025
0.634,0.365,-0.025
0.636,0.375,-0.025
0.638,0.405,-0.020
0.640,0.395,-0.020
0.642,0.320,-0.015
0.644,0.365,-0.010
0.646,0.390,-0.005
0.648,0.355,-0.005
0.650,0.340,-0.005
0.652,0.395,-0.005
0.654,0.375,-0.015
0.656,0.365,-0.025
0.658,0.335,-0.035
0.660,0.325,-0.045
0.662,0.330,-0.050
0.664,0.340,-0.055
0.666,0.370,-0.055
0.668,0.350,-0.050
0.670,0.320,-0.050
0.672,0.315,-0.045
0.674,0.370,-0.045
0.676,0.370,-0.050
0.678,0.345,-0.055
0.680,0.300,-0.060
0.682,0.325,-0.065
0.684,0.340,-0.065
0.686,0.360,-0.060
0.688,0.300,-0.050
0.690,0.330,-0.035
0.692,0.415,-0.025
0.694,0.400,-0.010
0.696,0.420,-0.005
0.698,0.385,-0.005
0.700,0.400,-0.010
0.702,0.325,-0.015
0.704,0.340,-0.025
0.706,0.365,-0.035
0.708,0.395,-0.035
0.710,0.385,-0.035
0.712,0.410,-0.025
0.714,0.365,-0.015
0.716,0.380,-0.005
0.718,0.415,0.000
0.720,0.375,0.000
0.722,0.345,-0.005
0.724,0.375,-0.020
0.726,0.350,-0.035
0.728,0.310,-0.050
0.730,0.355,-0.065
0.732,0.355,-0.070
0.734,0.380,-0.065
0.736,0.375,-0.060
0.738,0.390,-0.050
0.740,0.375,-0.040
0.742,0.345,-0.030
0.744,0.340,-0.025
0.746,0.350,-0.030
0.748,0.375,-0.035
0.750,0.355,-0.040
0.752,0.380,-0.050
0.754,0.395,-0.055
0.756,0.395,-0.060
0.758,0.350,-0.060
0.760,0.285,-0.060
0.762,0.305,-0.055
0.764,0.340,-0.050
0.766,0.325,-0.045
0.768,0.355,-0.045
0.770,0.405,-0.045
0.772,0.390,-0.045
0.774,0.370,-0.040
0.776,0.330,-0.040
0.778,0.360,-0.040
0.780,0.370,-0.035
0.782,0.380,-0.030
0.784,0.360,-0.025
0.786,0.355,-0.025
0.788,0.350,-0.020
0.790,0.395,-0.020
0.792,0.380,-0.025
0.794,0.395,-0.025
0.796,0.405,-0.030
0.798,0.390,-0.035
0.800,0.390,-0.035
0.802,0.330,-0.035
0.804,0.345,-0.030
0.806,0.395,-0.025
0.808,0.385,-0.020
0.810,0.395,-0.015
0.812,0.375,-0.010
0.814,0.410,-0.005
0.816,0.380,0.000
0.818,0.450,0.000
0.820,0.465,0.005
0.822,0.410,0.015
0.824,0.405,0.020
0.826,0.425,0.035
0.828,0.450,0.045
0.830,0.525,0.060
0.832,0.530,0.070
0.834,0.505,0.080
0.836,0.480,0.085
0.838,0.475,0.085
0.840,0.445,0.080
0.842,0.455,0.075
0.844,0.450,0.065
0.846,0.445,0.050
0.848,0.460,0.040
0.850,0.435,0.030
0.852,0.410,0.015
0.854,0.415,0.010
0.856,0.440,0.000
0.858,0.400,-0.005
0.860,0.350,-0.010
0.862,0.410,-0.015
0.864,0.445,-0.020
0.866,0.375,-0.020
0.868,0.355,-0.025
0.870,0.375,-0.025
0.872,0.400,-0.030
0.874,0.385,-0.030
0.876,0.365,-0.035
0.878,0.350,-0.040
0.880,0.345,-0.045
0.882,0.350,-0.045
0.884,0.390,-0.045
0.886,0.380,-0.045
0.888,0.340,-0.040
0.890,0.390,-0.040
0.892,0.395,-0.035
0.894,0.390,-0.035
0.896,0.355,-0.035
0.898,0.400,-0.040
0.900,0.325,-0.045
0.902,0.350,-0.050
0.904,0.355,-0.055
0.906,0.380,-0.050
0.908,0.400,-0.045
0.910,0.415,-0.035
0.912,0.415,-0.025
0.914,0.430,-0.015
0.916,0.400,-0.010
0.918,0.390,-0.015
0.920,0.315,-0.030
0.922,0.300,-0.050
0.924,0.305,-0.065
0.926,0.325,-0.070
0.928,0.400,-0.060
0.930,0.460,-0.020
0.932,0.435,0.040
0.934,0.485,0.120
0.936,0.630,0.215
0.938,0.795,0.305
0.940,0.840,0.375
0.942,0.915,0.415
0.944,0.855,0.415
0.946,0.785,0.370
0.948,0.695,0.290
0.950,0.600,0.185
0.952,0.430,0.075
0.954,0.300,-0.030
0.956,0.270,-0.110
0.958,0.210,-0.160
0.960,0.260,-0.180
0.962,0.295,-0.170
0.964,0.320,-0.140
0.966,0.320,-0.105
0.968,0.310,-0.075
0.970,0.385,-0.055
0.972,0.370,-0.050
0.974,0.305,-0.055
0.976,0.305,-0.070
0.978,0.285,-0.090
0.980,0.295,-0.100
0.982,0.325,-0.105
0.984,0.355,-0.100
0.986,0.375,-0.085
0.988,0.400,-0.060
0.990,0.440,-0.035
0.992,0.390,-0.015
0.994,0.410,0.000
0.996,0.415,0.010
0.998,0.380,0.010
1.000,0.420,0.000
1.002,0.440,-0.015
1.004,0.395,-0.030
1.006,0.340,-0.045
1.008,0.350,-0.060
1.010,0.390,-0.065
1.012,0.385,-0.070
1.014,0.375,-0.070
1.016,0.375,-0.065
1.018,0.385,-0.055
1.020,0.345,-0.045
1.022,0.350,-0.040
1.024,0.420,-0.030
1.026,0.400,-0.020
1.028,0.425,-0.015
1.030,0.450,-0.010
1.032,0.410,-0.010
1.034,0.450,-0.005
1.036,0.420,-0.005
1.038,0.380,-0.005
1.040,0.395,-0.005
1.042,0.405,-0.005
1.044,0.420,-0.005
1.046,0.390,-0.010
1.048,0.435,-0.010
1.050,0.425,-0.010
1.052,0.435,-0.010
1.054,0.435,-0.010
1.056,0.455,-0.010
1.058,0.475,-0.005
1.060,0.415,0.000
1.062,0.415,0.005
1.064,0.415,0.015
1.066,0.405,0.020
1.068,0.455,0.025
1.070,0.455,0.025
1.072,0.455,0.020
1.074,0.455,0.020
1.076,0.460,0.015
1.078,0.400,0.010
1.080,0.415,0.010
1.082,0.420,0.015
1.084,0.490,0.025
1.086,0.440,0.030
1.088,0.475,0.045
1.090,0.530,0.055
1.092,0.540,0.060
1.094,0.480,0.065
1.096,0.500,0.070
1.098,0.470,0.070
1.100,0.490,0.070
1.102,0.465,0.070
1.104,0.490,0.070
1.106,0.510,0.075
1.108,0.565,0.085
1.110,0.565,0.090
1.112,0.525,0.095
1.114,0.510,0.095
1.116,0.485,0.095
1.118,0.515,0.095
1.120,0.540,0.095
1.122,0.505,0.090
1.124,0.490,0.090
1.126,0.500,0.095
1.128,0.590,0.100
1.130,0.570,0.110
1.132,0.565,0.120
1.134,0.575,0.125
1.136,0.560,0.135
1.138,0.550,0.145
1.140,0.585,0.150
1.142,0.565,0.155
1.144,0.590,0.165
1.146,0.580,0.165
1.148,0.620,0.170
1.150,0.680,0.175
1.152,0.610,0.175
1.154,0.595,0.175
1.156,0.585,0.175
1.158,0.590,0.170
1.160,0.565,0.165
1.162,0.570,0.160
1.164,0.580,0.160
1.166,0.605,0.160
1.168,0.650,0.165
1.170,0.660,0.170
1.172,0.630,0.180
1.174,0.610,0.190
1.176,0.640,0.200
1.178,0.610,0.205
1.180,0.635,0.200
1.182,0.590,0.195
1.184,0.565,0.185
1.186,0.585,0.170
1.188,0.600,0.160
1.190,0.595,0.155
1.192,0.595,0.150
1.194,0.585,0.150
1.196,0.605,0.150
1.198,0.555,0.150
1.200,0.540,0.150
1.202,0.530,0.140
1.204,0.575,0.130
1.206,0.530,0.115
1.208,0.510,0.095
1.210,0.480,0.075
1.212,0.505,0.055
1.214,0.485,0.045
1.216,0.485,0.035
1.218,0.455,0.030
1.220,0.430,0.030
1.222,0.440,0.030
1.224,0.425,0.025
1.226,0.445,0.020
1.228,0.460,0.010
1.230,0.410,0.000
1.232,0.410,-0.015
1.234,0.420,-0.025
1.236,0.360,-0.035
1.238,0.395,-0.040
1.240,0.390,-0.035
1.242,0.380,-0.030
1.244,0.400,-0.020
1.246,0.435,-0.015
1.248,0.420,-0.010
1.250,0.400,-0.005
1.252,0.450,-0.010
1.254,0.420,-0.015
1.256,0.365,-0.025
1.258,0.405,-0.030
1.260,0.375,-0.040
1.262,0.375,-0.045
1.264,0.370,-0.045
1.266,0.350,-0.045
1.268,0.415,-0.045
1.270,0.390,-0.045
1.272,0.400,-0.045
1.274,0.380,-0.045
1.276,0.385,-0.050
1.278,0.350,-0.055
1.280,0.370,-0.060
1.282,0.355,-0.065
1.284,0.355,-0.065
1.286,0.385,-0.070
1.288,0.395,-0.070
1.290,0.385,-0.070
1.292,0.380,-0.065
1.294,0.350,-0.065
1.296,0.320,-0.060
1.298,0.330,-0.060
1.300,0.375,-0.055
1.302,0.385,-0.050
1.304,0.345,-0.045
1.306,0.415,-0.045
1.308,0.410,-0.040
1.310,0.375,-0.040
1.312,0.400,-0.040
1.314,0.420,-0.045
1.316,0.355,-0.045
1.318,0.330,-0.050
1.320,0.365,-0.055
1.322,0.375,-0.060
1.324,0.365,-0.060
1.326,0.400,-0.065
1.328,0.380,-0.070
1.330,0.350,-0.070
1.332,0.325,-0.070
1.334,0.330,-0.070
1.336,0.310,-0.070
1.338,0.305,-0.070
1.340,0.365,-0.070
1.342,0.375,-0.070
1.344,0.360,-0.070
1.346,0.375,-0.070
1.348,0.405,-0.065
1.350,0.380,-0.060
1.352,0.365,-0.060
1.354,0.375,-0.055
1.356,0.360,-0.050
1.358,0.335,-0.050
1.360,0.355,-0.050
1.362,0.355,-0.050
1.364,0.335,-0.050
1.366,0.405,-0.055
1.368,0.405,-0.060
1.370,0.360,-0.070
1.372,0.295,-0.075
1.374,0.350,-0.080
1.376,0.350,-0.080
1.378,0.325,-0.080
1.380,0.375,-0.080
1.382,0.330,-0.075
1.384,0.310,-0.070
1.386,0.360,-0.065
1.388,0.390,-0.065
1.390,0.385,-0.060
1.392,0.360,-0.060
1.394,0.350,-0.060
1.396,0.290,-0.065
1.398,0.325,-0.070
1.400,0.355,-0.070
1.402,0.350,-0.075
1.404,0.360,-0.075
1.406,0.360,-0.075
1.408,0.350,-0.075
1.410,0.355,-0.070
1.412,0.410,-0.065
1.414,0.355,-0.060
1.416,0.360,-0.055
1.418,0.355,-0.055
1.420,0.335,-0.060
1.422,0.295,-0.065
1.424,0.295,-0.070
1.426,0.360,-0.080
1.428,0.390,-0.090
1.430,0.340,-0.100
1.432,0.295,-0.105
1.434,0.330,-0.110
1.436,0.295,-0.105
1.438,0.330,-0.095
1.440,0.325,-0.090
1.442,0.340,-0.080
1.444,0.370,-0.070
1.446,0.370,-0.070
1.448,0.350,-0.070
1.450,0.350,-0.075
1.452,0.305,-0.085
1.454,0.340,-0.095
1.456,0.280,-0.110
1.458,0.280,-0.115
1.460,0.330,-0.120
1.462,0.290,-0.120
1.464,0.325,-0.115
1.466,0.355,-0.110
1.468,0.320,-0.100
1.470,0.325,-0.090
1.472,0.285,-0.080
1.474,0.350,-0.075
1.476,0.340,-0.070
1.478,0.345,-0.065
1.480,0.350,-0.065
1.482,0.375,-0.065
1.484,0.350,-0.060
1.486,0.365,-0.060
1.488,0.360,-0.055
1.490,0.360,-0.055
1.492,0.405,-0.055
1.494,0.360,-0.050
1.496,0.325,-0.050
1.498,0.355,-0.045
1.500,0.360,-0.040
1.502,0.320,-0.035
1.504,0.380,-0.025
1.506,0.435,-0.015
1.508,0.425,-0.005
1.510,0.480,0.005
1.512,0.445,0.015
1.514,0.435,0.020
1.516,0.395,0.020
1.518,0.390,0.020
1.520,0.455,0.015
1.522,0.405,0.005
1.524,0.385,0.000
1.526,0.395,-0.010
1.528,0.395,-0.015
1.530,0.430,-0.020
1.532,0.400,-0.025
1.534,0.410,-0.030
1.536,0.340,-0.035
1.538,0.315,-0.040
1.540,0.340,-0.045
1.542,0.320,-0.050
1.544,0.380,-0.055
1.546,0.370,-0.060
1.548,0.345,-0.065
1.550,0.345,-0.070
1.552,0.325,-0.075
1.554,0.350,-0.080
1.556,0.305,-0.085
1.558,0.295,-0.095
1.560,0.315,-0.100
1.562,0.280,-0.105
1.564,0.285,-0.110
1.566,0.310,-0.110
1.568,0.320,-0.110
1.570,0.320,-0.110
1.572,0.300,-0.105
1.574,0.290,-0.100
1.576,0.245,-0.100
1.578,0.295,-0.100
1.580,0.340,-0.100
1.582,0.315,-0.100
1.584,0.270,-0.100
1.586,0.345,-0.095
1.588,0.330,-0.090
1.590,0.300,-0.085
1.592,0.310,-0.075
1.594,0.310,-0.070
1.596,0.305,-0.065
1.598,0.290,-0.070
1.600,0.295,-0.085
1.602,0.265,-0.100
1.604,0.275,-0.110
1.606,0.285,-0.115
1.608,0.310,-0.100
1.610,0.370,-0.060
1.612,0.415,0.000
1.614,0.480,0.085
1.616,0.590,0.175
1.618,0.680,0.270
1.620,0.790,0.350
1.622,0.835,0.400
1.624,0.880,0.410
1.626,0.850,0.380
1.628,0.705,0.315
1.630,0.650,0.220
1.632,0.490,0.115
1.634,0.275,0.010
1.636,0.170,-0.080
1.638,0.185,-0.150
1.640,0.210,-0.185
1.642,0.325,-0.195
1.644,0.285,-0.185
1.646,0.230,-0.165
1.648,0.200,-0.140
1.650,0.245,-0.115
1.652,0.265,-0.105
1.654,0.270,-0.100
1.656,0.270,-0.100
1.658,0.285,-0.100
1.660,0.285,-0.105
1.662,0.260,-0.100
1.664,0.330,-0.100
1.666,0.315,-0.090
1.668,0.295,-0.080
1.670,0.280,-0.075
1.672,0.340,-0.070
1.674,0.310,-0.070
1.676,0.305,-0.070
1.678,0.275,-0.070
1.680,0.300,-0.075
1.682,0.295,-0.075
1.684,0.350,-0.075
1.686,0.355,-0.070
1.688,0.355,-0.065
1.690,0.345,-0.065
1.692,0.335,-0.060
1.694,0.280,-0.060
1.696,0.260,-0.060
1.698,0.315,-0.060
1.700,0.335,-0.060
1.702,0.350,-0.060
1.704,0.365,-0.055
1.706,0.360,-0.050
1.708,0.340,-0.040
1.710,0.365,-0.035
1.712,0.365,-0.030
1.714,0.285,-0.030
1.716,0.345,-0.035
1.718,0.425,-0.035
1.720,0.350,-0.040
1.722,0.240,-0.050
1.724,0.365,-0.050
1.726,0.375,-0.055
1.728,0.375,-0.055
1.730,0.325,-0.050
1.732,0.350,-0.045
1.734,0.305,-0.045
1.736,0.330,-0.040
1.738,0.310,-0.035
1.740,0.340,-0.035
1.742,0.370,-0.030
1.744,0.410,-0.030
1.746,0.395,-0.025
1.748,0.355,-0.025
1.750,0.340,-0.020
1.752,0.365,-0.015
1.754,0.365,-0.010
1.756,0.350,-0.005
1.758,0.375,-0.005
1.760,0.370,0.000
1.762,0.385,0.000
1.764,0.440,0.000
1.766,0.385,0.005
1.768,0.395,0.005
1.770,0.395,0.010
1.772,0.400,0.015
1.774,0.405,0.020
1.776,0.385,0.025
1.778,0.435,0.035
1.780,0.395,0.040
1.782,0.395,0.040
1.784,0.430,0.045
1.786,0.425,0.050
1.788,0.425,0.050
1.790,0.435,0.055
1.792,0.455,0.060
1.794,0.415,0.065
1.796,0.465,0.075
1.798,0.500,0.085
1.800,0.435,0.090
1.802,0.435,0.100
1.804,0.515,0.105
1.806,0.505,0.110
1.808,0.515,0.110
1.810,0.455,0.110
1.812,0.440,0.115
1.814,0.450,0.115
1.816,0.505,0.120
1.818,0.505,0.125
1.820,0.495,0.135
1.822,0.515,0.140
1.824,0.560,0.150
1.826,0.525,0.155
1.828,0.520,0.160
1.830,0.565,0.165
1.832,0.570,0.170
1.834,0.525,0.170
1.836,0.525,0.170
1.838,0.550,0.175
1.840,0.520,0.175
1.842,0.510,0.175
1.844,0.555,0.175
1.846,0.515,0.175
1.848,0.550,0.180
1.850,0.570,0.180
1.852,0.565,0.185
1.854,0.545,0.185
1.856,0.515,0.190
1.858,0.545,0.190
1.860,0.530,0.195
1.862,0.555,0.195
1.864,0.545,0.190
1.866,0.510,0.185
1.868,0.560,0.185
1.870,0.560,0.180
1.872,0.565,0.175
1.874,0.520,0.170
1.876,0.500,0.165
1.878,0.550,0.160
1.880,0.475,0.155
1.882,0.425,0.150
1.884,0.480,0.135
1.886,0.495,0.120
1.888,0.470,0.105
1.890,0.470,0.085
1.892,0.385,0.065
1.894,0.395,0.050
1.896,0.420,0.040
1.898,0.370,0.035
1.900,0.370,0.035
1.902,0.390,0.040
1.904,0.445,0.045
1.906,0.430,0.045
1.908,0.400,0.045
1.910,0.390,0.040
1.912,0.380,0.030
1.914,0.300,0.015
1.916,0.270,-0.005
1.918,0.320,-0.025
1.920,0.290,-0.040
1.922,0.340,-0.055
1.924,0.370,-0.060
1.926,0.325,-0.060
1.928,0.305,-0.055
1.930,0.270,-0.050
1.932,0.285,-0.040
1.934,0.285,-0.035
1.936,0.285,-0.035
1.938,0.300,-0.035
1.940,0.300,-0.035
1.942,0.360,-0.040
1.944,0.360,-0.040
1.946,0.300,-0.040
1.948,0.245,-0.045
1.950,0.310,-0.040
1.952,0.245,-0.040
1.954,0.235,-0.040
1.956,0.320,-0.035
1.958,0.330,-0.035
1.960,0.315,-0.035
1.962,0.290,-0.035
1.964,0.345,-0.035
1.966,0.295,-0.035
1.968,0.320,-0.035
1.970,0.295,-0.030
1.972,0.275,-0.030
1.974,0.300,-0.030
1.976,0.285,-0.035
1.978,0.295,-0.035
1.980,0.260,-0.040
1.982,0.300,-0.045
1.984,0.300,-0.055
1.986,0.290,-0.060
1.988,0.250,-0.065
1.990,0.255,-0.070
1.992,0.270,-0.070
1.994,0.280,-0.070
1.996,0.280,-0.070
1.998,0.285,-0.065
2.000,0.255,-0.060
2.002,0.305,-0.050
2.004,0.300,-0.045
2.006,0.315,-0.035
2.008,0.290,-0.030
2.010,0.340,-0.025
2.012,0.310,-0.025
2.014,0.265,-0.030
2.016,0.310,-0.040
2.018,0.235,-0.050
2.020,0.250,-0.065
2.022,0.280,-0.080
2.024,0.275,-0.090
2.026,0.275,-0.095
2.028,0.265,-0.095
2.030,0.260,-0.085
2.032,0.240,-0.075
2.034,0.275,-0.065
2.036,0.300,-0.055
2.038,0.270,-0.045
2.040,0.285,-0.035
2.042,0.290,-0.030
2.044,0.275,-0.035
2.046,0.280,-0.035
2.048,0.305,-0.040
2.050,0.300,-0.045
2.052,0.270,-0.050
2.054,0.255,-0.050
2.056,0.255,-0.055
2.058,0.270,-0.055
2.060,0.295,-0.050
2.062,0.355,-0.045
2.064,0.260,-0.040
2.066,0.250,-0.035
2.068,0.295,-0.030
2.070,0.340,-0.025
2.072,0.305,-0.020
2.074,0.265,-0.015
2.076,0.255,-0.015
2.078,0.255,-0.020
2.080,0.260,-0.030
2.082,0.290,-0.040
2.084,0.310,-0.050
2.086,0.265,-0.055
2.088,0.275,-0.060
2.090,0.265,-0.065
2.092,0.260,-0.060
2.094,0.240,-0.055
2.096,0.255,-0.050
2.098,0.250,-0.040
2.100,0.275,-0.035
2.102,0.285,-0.030
2.104,0.310,-0.030
2.106,0.290,-0.035
2.108,0.270,-0.040
2.110,0.320,-0.050
2.112,0.240,-0.060
2.114,0.225,-0.065
2.116,0.255,-0.070
2.118,0.205,-0.070
2.120,0.230,-0.070
2.122,0.285,-0.065
2.124,0.290,-0.060
2.126,0.275,-0.050
2.128,0.265,-0.045
2.130,0.250,-0.040
2.132,0.235,-0.040
2.134,0.240,-0.035
2.136,0.265,-0.040
2.138,0.280,-0.040
2.140,0.290,-0.045
2.142,0.295,-0.050
2.144,0.240,-0.055
2.146,0.275,-0.055
2.148,0.280,-0.060
2.150,0.245,-0.060
2.152,0.240,-0.055
2.154,0.250,-0.050
2.156,0.250,-0.045
2.158,0.230,-0.045
2.160,0.260,-0.040
2.162,0.310,-0.035
2.164,0.285,-0.040
2.166,0.275,-0.040
2.168,0.265,-0.045
2.170,0.270,-0.050
2.172,0.240,-0.055
2.174,0.240,-0.060
2.176,0.275,-0.060
2.178,0.200,-0.060
2.180,0.195,-0.060
2.182,0.280,-0.060
2.184,0.280,-0.055
2.186,0.260,-0.055
2.188,0.265,-0.055
2.190,0.285,-0.060
2.192,0.215,-0.060
2.194,0.210,-0.055
2.196,0.250,-0.055
2.198,0.305,-0.050
2.200,0.285,-0.045
2.202,0.270,-0.040
2.204,0.270,-0.035
2.206,0.260,-0.035
2.208,0.240,-0.040
2.210,0.245,-0.045
2.212,0.225,-0.050
2.214,0.225,-0.060
2.216,0.200,-0.065
2.218,0.225,-0.065
2.220,0.245,-0.065
2.222,0.295,-0.065
2.224,0.280,-0.055
2.226,0.240,-0.050
2.228,0.255,-0.045
2.230,0.220,-0.040
2.232,0.250,-0.035
2.234,0.260,-0.030
2.236,0.240,-0.030
2.238,0.245,-0.030
2.240,0.300,-0.025
2.242,0.305,-0.025
2.244,0.265,-0.020
2.246,0.245,-0.015
2.248,0.290,-0.015
2.250,0.265,-0.010
2.252,0.235,-0.015
2.254,0.245,-0.015
2.256,0.260,-0.020
2.258,0.215,-0.025
2.260,0.280,-0.030
2.262,0.280,-0.035
2.264,0.295,-0.030
2.266,0.290,-0.025
2.268,0.290,-0.015
2.270,0.300,0.000
2.272,0.315,0.015
2.274,0.310,0.030
2.276,0.285,0.040
2.278,0.310,0.045
2.280,0.345,0.050
2.282,0.360,0.045
2.284,0.345,0.040
2.286,0.375,0.030
2.288,0.305,0.025
2.290,0.260,0.020
2.292,0.270,0.015
2.294,0.295,0.015
2.296,0.325,0.020
2.298,0.365,0.025
2.300,0.350,0.030
2.302,0.370,0.035
2.304,0.315,0.035
2.306,0.305,0.030
2.308,0.305,0.020
2.310,0.270,0.010
2.312,0.245,-0.005
2.314,0.215,-0.020
2.316,0.220,-0.035
2.318,0.245,-0.050
2.320,0.245,-0.055
2.322,0.225,-0.060
2.324,0.250,-0.060
2.326,0.245,-0.055
2.328,0.230,-0.050
2.330,0.205,-0.040
2.332,0.240,-0.035
2.334,0.240,-0.030
2.336,0.230,-0.025
2.338,0.260,-0.020
2.340,0.315,-0.020
2.342,0.290,-0.025
2.344,0.255,-0.030
2.346,0.245,-0.035
2.348,0.265,-0.045
2.350,0.175,-0.055
2.352,0.210,-0.065
2.354,0.225,-0.075
2.356,0.235,-0.080
2.358,0.210,-0.080
2.360,0.220,-0.080
2.362,0.230,-0.075
2.364,0.230,-0.070
2.366,0.210,-0.065
2.368,0.205,-0.065
2.370,0.215,-0.065
2.372,0.195,-0.065
2.374,0.240,-0.065
2.376,0.200,-0.055
2.378,0.180,-0.035
2.380,0.270,0.005
2.382,0.365,0.065
2.384,0.430,0.140
2.386,0.555,0.230
2.388,0.630,0.315
2.390,0.725,0.390
2.392,0.765,0.435
2.394,0.810,0.450
2.396,0.730,0.430
2.398,0.615,0.370
2.400,0.590,0.280
2.402,0.405,0.175
2.404,0.225,0.070
2.406,0.170,-0.025
2.408,0.140,-0.095
2.410,0.130,-0.140
2.412,0.190,-0.155
2.414,0.180,-0.145
2.416,0.145,-0.120
2.418,0.140,-0.095
2.420,0.205,-0.070
2.422,0.220,-0.050
2.424,0.205,-0.040
2.426,0.285,-0.040
2.428,0.270,-0.045
2.430,0.190,-0.050
2.432,0.235,-0.050
2.434,0.210,-0.045
2.436,0.230,-0.040
2.438,0.225,-0.030
2.440,0.260,-0.020
2.442,0.260,-0.015
2.444,0.250,-0.015
2.446,0.215,-0.020
2.448,0.275,-0.030
2.450,0.235,-0.040
2.452,0.230,-0.050
2.454,0.275,-0.050
2.456,0.200,-0.050
2.458,0.175,-0.040
2.460,0.260,-0.025
2.462,0.265,-0.015
2.464,0.250,0.000
2.466,0.320,0.005
2.468,0.325,0.005
2.470,0.255,0.000
2.472,0.200,-0.005
2.474,0.245,-0.010
2.476,0.255,-0.015
2.478,0.250,-0.015
2.480,0.275,-0.015
2.482,0.305,-0.005
2.484,0.285,0.000
2.486,0.325,0.005
2.488,0.320,0.010
2.490,0.250,0.010
2.492,0.210,0.005
2.494,0.240,-0.005
2.496,0.265,-0.010
2.498,0.245,-0.015
2.500,0.280,-0.020
2.502,0.250,-0.015
2.504,0.305,-0.005
2.506,0.285,0.005
2.508,0.305,0.020
2.510,0.275,0.035
2.512,0.305,0.045
2.514,0.330,0.050
2.516,0.300,0.050
2.518,0.295,0.050
2.520,0.320,0.045
2.522,0.325,0.035
2.524,0.345,0.030
2.526,0.285,0.025
2.528,0.265,0.020
2.530,0.280,0.020
2.532,0.280,0.025
2.534,0.300,0.030
2.536,0.325,0.035
2.538,0.405,0.045
2.540,0.335,0.055
2.542,0.295,0.060
2.544,0.350,0.070
2.546,0.310,0.075
2.548,0.320,0.080
2.550,0.320,0.080
2.552,0.305,0.080
2.554,0.350,0.085
2.556,0.380,0.085
2.558,0.385,0.090
2.560,0.385,0.095
2.562,0.360,0.100
2.564,0.365,0.110
2.566,0.415,0.115
2.568,0.375,0.125
2.570,0.360,0.130
2.572,0.385,0.130
2.574,0.370,0.130
2.576,0.360,0.130
2.578,0.415,0.130
2.580,0.415,0.130
2.582,0.420,0.130
2.584,0.455,0.140
2.586,0.450,0.145
2.588,0.455,0.155
2.590,0.410,0.165
2.592,0.380,0.175
2.594,0.415,0.185
2.596,0.415,0.190
2.598,0.480,0.195
2.600,0.500,0.200
2.602,0.460,0.205
2.604,0.495,0.210
2.606,0.490,0.210
2.608,0.450,0.215
2.610,0.470,0.215
2.612,0.515,0.215
2.614,0.495,0.210
2.616,0.405,0.205
2.618,0.450,0.195
2.620,0.475,0.185
2.622,0.460,0.180
2.624,0.470,0.180
2.626,0.475,0.180
2.628,0.420,0.185
2.630,0.465,0.195
2.632,0.490,0.205
2.634,0.505,0.215
2.636,0.470,0.220
2.638,0.485,0.225
2.640,0.505,0.225
2.642,0.500,0.215
2.644,0.425,0.205
2.646,0.410,0.190
2.648,0.455,0.170
2.650,0.490,0.155
2.652,0.405,0.140
2.654,0.330,0.130
2.656,0.345,0.120
2.658,0.390,0.115
2.660,0.425,0.115
2.662,0.395,0.120
2.664,0.445,0.120
2.666,0.395,0.125
2.668,0.335,0.125
2.670,0.360,0.120
2.672,0.345,0.110
2.674,0.315,0.100
2.676,0.305,0.080
2.678,0.315,0.060
2.680,0.295,0.040
2.682,0.300,0.020
2.684,0.260,0.005
2.686,0.280,-0.010
2.688,0.235,-0.020
2.690,0.235,-0.025
2.692,0.245,-0.025
2.694,0.225,-0.020
2.696,0.235,-0.020
2.698,0.280,-0.015
2.700,0.255,-0.015
2.702,0.220,-0.015
2.704,0.275,-0.015
2.706,0.280,-0.015
2.708,0.230,-0.015
2.710,0.255,-0.010
2.712,0.225,-0.010
2.714,0.225,-0.005
2.716,0.230,0.000
2.718,0.295,0.000
2.720,0.290,0.000
2.722,0.275,-0.005
2.724,0.270,-0.010
2.726,0.245,-0.020
2.728,0.175,-0.025
2.730,0.185,-0.035
2.732,0.270,-0.035
2.734,0.185,-0.035
2.736,0.190,-0.030
2.738,0.295,-0.025
2.740,0.265,-0.020
2.742,0.260,-0.020
2.744,0.270,-0.020
2.746,0.215,-0.025
2.748,0.225,-0.030
2.750,0.245,-0.035
2.752,0.215,-0.040
2.754,0.165,-0.045
2.756,0.205,-0.045
2.758,0.240,-0.040
2.760,0.235,-0.040
2.762,0.240,-0.035
2.764,0.235,-0.030
2.766,0.230,-0.030
2.768,0.240,-0.030
2.770,0.185,-0.030
2.772,0.200,-0.035
2.774,0.210,-0.035
2.776,0.245,-0.035
2.778,0.270,-0.030
2.780,0.270,-0.025
2.782,0.225,-0.025
2.784,0.200,-0.020
2.786,0.225,-0.020
2.788,0.235,-0.020
2.790,0.230,-0.025
2.792,0.225,-0.030
2.794,0.190,-0.030
2.796,0.240,-0.035
2.798,0.260,-0.035
2.800,0.265,-0.035
2.802,0.245,-0.035
2.804,0.200,-0.035
2.806,0.225,-0.030
2.808,0.230,-0.030
2.810,0.185,-0.035
2.812,0.210,-0.035
2.814,0.210,-0.040
2.816,0.260,-0.040
2.818,0.275,-0.040
2.820,0.225,-0.035
2.822,0.190,-0.035
2.824,0.245,-0.030
2.826,0.210,-0.025
2.828,0.220,-0.025
2.830,0.210,-0.025
2.832,0.185,-0.030
2.834,0.230,-0.030
2.836,0.265,-0.035
2.838,0.290,-0.040
2.840,0.255,-0.045
2.842,0.205,-0.045
2.844,0.200,-0.045
2.846,0.195,-0.045
2.848,0.170,-0.045
2.850,0.180,-0.050
2.852,0.180,-0.050
2.854,0.195,-0.050
2.856,0.240,-0.050
2.858,0.270,-0.050
2.860,0.240,-0.045
2.862,0.255,-0.040
2.864,0.215,-0.035
2.866,0.170,-0.035
2.868,0.185,-0.035
2.870,0.170,-0.035
2.872,0.210,-0.040
2.874,0.200,-0.045
2.876,0.245,-0.050
2.878,0.255,-0.055
2.880,0.235,-0.055
2.882,0.210,-0.055
2.884,0.200,-0.050
2.886,0.215,-0.045
2.888,0.220,-0.045
2.890,0.170,-0.040
2.892,0.220,-0.040
2.894,0.230,-0.045
2.896,0.180,-0.050
2.898,0.205,-0.060
2.900,0.235,-0.065
2.902,0.195,-0.065
2.904,0.215,-0.065
2.906,0.170,-0.060
2.908,0.220,-0.055
2.910,0.180,-0.045
2.912,0.185,-0.040
2.914,0.200,-0.035
2.916,0.255,-0.035
2.918,0.245,-0.040
2.920,0.220,-0.040
2.922,0.195,-0.045
2.924,0.210,-0.050
2.926,0.165,-0.055
2.928,0.155,-0.055
2.930,0.195,-0.055
2.932,0.205,-0.055
2.934,0.220,-0.055
2.936,0.160,-0.055
2.938,0.220,-0.055
2.940,0.230,-0.060
2.942,0.225,-0.060
2.944,0.230,-0.060
2.946,0.165,-0.060
2.948,0.155,-0.060
2.950,0.210,-0.055
2.952,0.210,-0.055
2.954,0.220,-0.050
2.956,0.190,-0.055
2.958,0.195,-0.055
2.960,0.190,-0.060
2.962,0.155,-0.065
2.964,0.150,-0.070
2.966,0.140,-0.070
2.968,0.190,-0.070
2.970,0.205,-0.070
2.972,0.185,-0.065
2.974,0.175,-0.060
2.976,0.240,-0.055
2.978,0.200,-0.050
2.980,0.220,-0.045
2.982,0.215,-0.045
2.984,0.215,-0.045
2.986,0.185,-0.050
2.988,0.210,-0.050
2.990,0.210,-0.050
2.992,0.165,-0.050
2.994,0.210,-0.050
2.996,0.205,-0.050
2.998,0.210,-0.050
3.000,0.215,-0.055
3.002,0.195,-0.055
3.004,0.215,-0.055
3.006,0.185,-0.050
3.008,0.200,-0.050
3.010,0.205,-0.045
3.012,0.195,-0.035
3.014,0.215,-0.030
3.016,0.265,-0.025
3.018,0.265,-0.025
3.020,0.220,-0.025
3.022,0.200,-0.035
3.024,0.205,-0.045
3.026,0.225,-0.055
3.028,0.245,-0.070
3.030,0.140,-0.080
3.032,0.115,-0.085
3.034,0.170,-0.090
3.036,0.230,-0.085
3.038,0.160,-0.080
3.040,0.190,-0.070
3.042,0.225,-0.065
3.044,0.210,-0.060
3.046,0.165,-0.060
3.048,0.160,-0.065
3.050,0.135,-0.065
3.052,0.125,-0.070
3.054,0.190,-0.070
3.056,0.215,-0.070
3.058,0.250,-0.065
3.060,0.250,-0.060
3.062,0.235,-0.055
3.064,0.200,-0.050
3.066,0.165,-0.045
3.068,0.160,-0.045
3.070,0.190,-0.045
3.072,0.205,-0.050
3.074,0.240,-0.055
3.076,0.230,-0.055
3.078,0.220,-0.060
3.080,0.210,-0.060
3.082,0.210,-0.060
3.084,0.175,-0.055
3.086,0.195,-0.055
3.088,0.170,-0.055
3.090,0.145,-0.055
3.092,0.185,-0.055
3.094,0.260,-0.060
3.096,0.235,-0.055
3.098,0.205,-0.055
3.100,0.200,-0.050
3.102,0.210,-0.040
3.104,0.260,-0.030
3.106,0.245,-0.025
3.108,0.220,-0.015
3.110,0.210,-0.015
3.112,0.210,-0.015
3.114,0.210,-0.020
3.116,0.240,-0.030
3.118,0.210,-0.035
3.120,0.220,-0.040
3.122,0.265,-0.040
3.124,0.210,-0.035
3.126,0.220,-0.030
3.128,0.265,-0.015
3.130,0.220,-0.005
3.132,0.250,0.010
3.134,0.310,0.025
3.136,0.325,0.035
3.138,0.315,0.045
3.140,0.355,0.050
3.142,0.310,0.055
3.144,0.290,0.055
3.146,0.320,0.055
3.148,0.275,0.050
3.150,0.310,0.040
3.152,0.285,0.030
3.154,0.255,0.015
3.156,0.270,0.000
3.158,0.230,-0.015
3.160,0.240,-0.025
3.162,0.220,-0.035
3.164,0.195,-0.045
3.166,0.175,-0.045
3.168,0.210,-0.045
3.170,0.195,-0.040
3.172,0.175,-0.040
3.174,0.210,-0.040
3.176,0.250,-0.040
3.178,0.250,-0.045
3.180,0.220,-0.055
3.182,0.220,-0.060
3.184,0.165,-0.065
3.186,0.170,-0.065
3.188,0.170,-0.065
3.190,0.170,-0.060
3.192,0.175,-0.055
3.194,0.220,-0.050
3.196,0.235,-0.050
3.198,0.200,-0.055
3.200,0.150,-0.060
3.202,0.185,-0.070
3.204,0.175,-0.075
3.206,0.185,-0.080
3.208,0.195,-0.080
3.210,0.180,-0.080
3.212,0.155,-0.070
3.214,0.220,-0.060
3.216,0.195,-0.055
3.218,0.180,-0.055
3.220,0.180,-0.065
3.222,0.145,-0.075
3.224,0.135,-0.095
3.226,0.140,-0.105
3.228,0.130,-0.105
3.230,0.160,-0.085
3.232,0.190,-0.045
3.234,0.320,0.025
3.236,0.400,0.115
3.238,0.460,0.215
3.240,0.595,0.310
3.242,0.710,0.385
3.244,0.740,0.435
3.246,0.785,0.445
3.248,0.710,0.420
3.250,0.595,0.355
3.252,0.525,0.265
3.254,0.355,0.160
3.256,0.165,0.055
3.258,0.175,-0.035
3.260,0.140,-0.105
3.262,0.100,-0.155
3.264,0.080,-0.175
3.266,0.090,-0.180
3.268,0.100,-0.170
3.270,0.120,-0.155
3.272,0.110,-0.135
3.274,0.145,-0.120
3.276,0.150,-0.105
3.278,0.175,-0.095
3.280,0.155,-0.085
3.282,0.190,-0.080
3.284,0.160,-0.075
3.286,0.175,-0.075
3.288,0.235,-0.070
3.290,0.190,-0.070
3.292,0.140,-0.075
3.294,0.190,-0.075
3.296,0.190,-0.080
3.298,0.165,-0.080
3.300,0.175,-0.080
3.302,0.195,-0.075
3.304,0.190,-0.070
3.306,0.180,-0.060
3.308,0.195,-0.050
3.310,0.195,-0.045
3.312,0.185,-0.040
3.314,0.205,-0.040
3.316,0.240,-0.040
3.318,0.225,-0.045
3.320,0.210,-0.050
3.322,0.215,-0.055
3.324,0.180,-0.055
3.326,0.185,-0.055
3.328,0.195,-0.050
3.330,0.225,-0.045
3.332,0.250,-0.040
3.334,0.265,-0.035
3.336,0.250,-0.030
3.338,0.215,-0.030
3.340,0.205,-0.030
3.342,0.210,-0.030
3.344,0.200,-0.025
3.346,0.225,-0.025
3.348,0.220,-0.025
3.350,0.200,-0.020
3.352,0.255,-0.020
3.354,0.270,-0.015
3.356,0.285,-0.010
3.358,0.260,-0.010
3.360,0.280,-0.005
3.362,0.260,0.000
3.364,0.280,0.005
3.366,0.230,0.005
3.368,0.230,0.010
3.370,0.225,0.015
3.372,0.215,0.015
3.374,0.295,0.015
3.376,0.310,0.015
3.378,0.285,0.010
3.380,0.300,0.005
3.382,0.190,0.000
3.384,0.230,0.000
3.386,0.270,0.000
3.388,0.270,0.005
3.390,0.270,0.015
3.392,0.280,0.025
3.394,0.330,0.040
3.396,0.315,0.050
3.398,0.300,0.060
3.400,0.305,0.065
3.402,0.295,0.065
3.404,0.285,0.060
3.406,0.260,0.055
3.408,0.290,0.045
3.410,0.270,0.045
3.412,0.315,0.045
3.414,0.360,0.050
3.416,0.345,0.060
3.418,0.320,0.075
3.420,0.330,0.085
3.422,0.295,0.100
3.424,0.360,0.110
3.426,0.380,0.115
3.428,0.350,0.120
3.430,0.340,0.120
3.432,0.390,0.120
3.434,0.385,0.120
3.436,0.370,0.125
3.438,0.410,0.130
3.440,0.390,0.135
3.442,0.380,0.140
3.444,0.370,0.150
3.446,0.365,0.155
3.448,0.385,0.165
3.450,0.395,0.165
3.452,0.410,0.165
3.454,0.410,0.165
3.456,0.405,0.165
3.458,0.435,0.160
3.460,0.465,0.160
3.462,0.400,0.160
3.464,0.380,0.160
3.466,0.390,0.165
3.468,0.405,0.175
3.470,0.385,0.185
3.472,0.495,0.200
3.474,0.520,0.210
3.476,0.500,0.215
3.478,0.475,0.215
3.480,0.410,0.215
3.482,0.370,0.205
3.484,0.405,0.190
3.486,0.430,0.170
3.488,0.420,0.155
3.490,0.375,0.140
3.492,0.415,0.135
3.494,0.440,0.135
3.496,0.430,0.145
3.498,0.425,0.155
3.500,0.420,0.170
3.502,0.385,0.180
3.504,0.430,0.190
3.506,0.465,0.190
3.508,0.430,0.180
3.510,0.370,0.165
3.512,0.365,0.145
3.514,0.385,0.125
3.516,0.365,0.105
3.518,0.330,0.085
3.520,0.285,0.065
3.522,0.290,0.055
3.524,0.300,0.050
3.526,0.280,0.045
3.528,0.250,0.040
3.530,0.295,0.040
3.532,0.315,0.040
3.534,0.305,0.035
3.536,0.255,0.035
3.538,0.275,0.035
3.540,0.295,0.030
3.542,0.260,0.025
3.544,0.240,0.015
3.546,0.240,0.000
3.548,0.215,-0.010
3.550,0.185,-0.025
3.552,0.215,-0.035
3.554,0.245,-0.045
3.556,0.195,-0.050
3.558,0.180,-0.050
3.560,0.200,-0.045
3.562,0.170,-0.040
3.564,0.210,-0.025
3.566,0.240,-0.015
3.568,0.240,-0.005
3.570,0.230,-0.005
3.572,0.210,-0.005
3.574,0.240,-0.010
3.576,0.230,-0.015
3.578,0.245,-0.025
3.580,0.230,-0.030
3.582,0.180,-0.035
3.584,0.190,-0.035
3.586,0.165,-0.035
3.588,0.215,-0.030
3.590,0.205,-0.025
3.592,0.260,-0.020
3.594,0.240,-0.020
3.596,0.215,-0.025
3.598,0.220,-0.025
3.600,0.180,-0.030
3.602,0.190,-0.035
3.604,0.215,-0.040
3.606,0.215,-0.045
3.608,0.170,-0.045
3.610,0.150,-0.045
3.612,0.215,-0.040
3.614,0.200,-0.035
3.616,0.215,-0.030
3.618,0.215,-0.025
3.620,0.215,-0.015
3.622,0.210,-0.010
3.624,0.235,-0.010
3.626,0.215,-0.010
3.628,0.195,-0.010
3.630,0.225,-0.015
3.632,0.225,-0.025
3.634,0.210,-0.035
3.636,0.210,-0.045
3.638,0.220,-0.055
3.640,0.185,-0.060
3.642,0.155,-0.060
3.644,0.155,-0.055
3.646,0.155,-0.045
3.648,0.210,-0.030
3.650,0.305,-0.020
3.652,0.310,-0.010
3.654,0.265,-0.005
3.656,0.200,-0.005
3.658,0.195,-0.015
3.660,0.190,-0.025
3.662,0.170,-0.040
3.664,0.180,-0.055
3.666,0.175,-0.060
3.668,0.160,-0.065
3.670,0.200,-0.060
3.672,0.215,-0.050
3.674,0.210,-0.040
3.676,0.205,-0.025
3.678,0.235,-0.015
3.680,0.270,-0.010
3.682,0.220,-0.010
3.684,0.190,-0.015
3.686,0.195,-0.020
3.688,0.230,-0.025
3.690,0.185,-0.030
3.692,0.225,-0.030
3.694,0.205,-0.030
3.696,0.185,-0.025
3.698,0.250,-0.020
3.700,0.220,-0.015
3.702,0.185,-0.015
3.704,0.175,-0.015
3.706,0.160,-0.020
3.708,0.190,-0.030
3.710,0.220,-0.035
3.712,0.260,-0.040
3.714,0.210,-0.045
3.716,0.140,-0.045
3.718,0.210,-0.040
3.720,0.185,-0.040
3.722,0.210,-0.035
3.724,0.240,-0.030
3.726,0.170,-0.025
3.728,0.155,-0.025
3.730,0.220,-0.025
3.732,0.230,-0.025
3.734,0.205,-0.030
3.736,0.210,-0.030
3.738,0.200,-0.030
3.740,0.185,-0.030
3.742,0.155,-0.030
3.744,0.220,-0.030
3.746,0.170,-0.025
3.748,0.185,-0.020
3.750,0.220,-0.015
3.752,0.235,-0.010
3.754,0.280,-0.010
3.756,0.270,-0.010
3.758,0.210,-0.015
3.760,0.155,-0.020
3.762,0.130,-0.030
3.764,0.160,-0.040
3.766,0.180,-0.050
3.768,0.160,-0.060
3.770,0.195,-0.065
3.772,0.195,-0.065
3.774,0.155,-0.060
3.776,0.205,-0.055
3.778,0.220,-0.045
3.780,0.195,-0.035
3.782,0.185,-0.025
3.784,0.210,-0.015
3.786,0.215,-0.015
3.788,0.210,-0.015
3.790,0.185,-0.020
3.792,0.165,-0.025
3.794,0.160,-0.035
3.796,0.220,-0.035
3.798,0.215,-0.040
3.800,0.195,-0.040
3.802,0.170,-0.035
3.804,0.185,-0.030
3.806,0.190,-0.025
3.808,0.185,-0.025
3.810,0.210,-0.025
3.812,0.210,-0.025
3.814,0.215,-0.030
3.816,0.225,-0.035
3.818,0.215,-0.040
3.820,0.190,-0.045
3.822,0.170,-0.045
3.824,0.185,-0.045
3.826,0.195,-0.045
3.828,0.165,-0.045
3.830,0.160,-0.045
3.832,0.195,-0.045
3.834,0.210,-0.045
3.836,0.215,-0.040
3.838,0.195,-0.040
3.840,0.185,-0.035
3.842,0.210,-0.030
3.844,0.200,-0.025
3.846,0.160,-0.020
3.848,0.185,-0.010
3.850,0.255,-0.010
3.852,0.260,-0.005
3.854,0.235,-0.010
3.856,0.220,-0.010
3.858,0.210,-0.015
3.860,0.175,-0.020
3.862,0.160,-0.025
3.864,0.175,-0.025
3.866,0.190,-0.030
3.868,0.195,-0.030
3.870,0.240,-0.025
3.872,0.220,-0.025
3.874,0.205,-0.020
3.876,0.215,-0.020
3.878,0.240,-0.020
3.880,0.180,-0.020
3.882,0.200,-0.020
3.884,0.195,-0.025
3.886,0.180,-0.025
3.888,0.205,-0.025
3.890,0.215,-0.030
3.892,0.230,-0.035
3.894,0.260,-0.035
3.896,0.195,-0.040
3.898,0.185,-0.045
3.900,0.200,-0.045
3.902,0.195,-0.045
3.904,0.210,-0.040
3.906,0.155,-0.040
3.908,0.135,-0.035
3.910,0.195,-0.030
3.912,0.205,-0.025
3.914,0.210,-0.020
3.916,0.200,-0.020
3.918,0.195,-0.025
3.920,0.175,-0.030
3.922,0.145,-0.035
3.924,0.165,-0.040
3.926,0.215,-0.045
3.928,0.200,-0.045
3.930,0.200,-0.045
3.932,0.195,-0.040
3.934,0.215,-0.035
3.936,0.220,-0.030
3.938,0.190,-0.025
3.940,0.170,-0.025
3.942,0.190,-0.025
3.944,0.170,-0.025
3.946,0.185,-0.025
3.948,0.230,-0.030
3.950,0.265,-0.030
3.952,0.255,-0.030
3.954,0.200,-0.025
3.956,0.175,-0.025
3.958,0.190,-0.020
3.960,0.160,-0.020
3.962,0.195,-0.020
3.964,0.200,-0.025
3.966,0.175,-0.025
3.968,0.205,-0.025
3.970,0.245,-0.020
3.972,0.275,-0.015
3.974,0.280,0.000
3.976,0.235,0.015
3.978,0.245,0.035
3.980,0.265,0.050
3.982,0.315,0.065
3.984,0.295,0.075
3.986,0.260,0.075
3.988,0.280,0.070
3.990,0.280,0.060
3.992,0.255,0.045
3.994,0.275,0.035
3.996,0.310,0.030
3.998,0.300,0.025
4.000,0.280,0.030
4.002,0.205,0.030
4.004,0.225,0.035
4.006,0.245,0.035
4.008,0.260,0.030
4.010,0.270,0.020
4.012,0.245,0.010
4.014,0.245,-0.005
4.016,0.255,-0.020
4.018,0.180,-0.025
4.020,0.120,-0.030
4.022,0.205,-0.030
4.024,0.175,-0.025
4.026,0.150,-0.020
4.028,0.200,-0.015
4.030,0.210,-0.015
4.032,0.220,-0.015
4.034,0.215,-0.025
4.036,0.215,-0.030
4.038,0.165,-0.040
4.040,0.185,-0.045
4.042,0.185,-0.050
4.044,0.195,-0.045
4.046,0.190,-0.040
4.048,0.210,-0.035
4.050,0.210,-0.030
4.052,0.170,-0.030
4.054,0.150,-0.035
4.056,0.180,-0.040
4.058,0.175,-0.050
4.060,0.165,-0.060
4.062,0.175,-0.065
4.064,0.125,-0.065
4.066,0.155,-0.065
4.068,0.185,-0.060
4.070,0.220,-0.055
4.072,0.185,-0.055
4.074,0.175,-0.055
4.076,0.175,-0.060
4.078,0.160,-0.065
4.080,0.165,-0.065
4.082,0.195,-0.045
4.084,0.240,-0.010
4.086,0.260,0.045
4.088,0.285,0.125
4.090,0.445,0.215
4.092,0.580,0.300
4.094,0.665,0.375
4.096,0.730,0.425
4.098,0.685,0.430
4.100,0.635,0.400
4.102,0.565,0.330
4.104,0.430,0.230
4.106,0.255,0.115
4.108,0.125,0.000
4.110,0.070,-0.095
4.112,0.025,-0.170
4.114,0.015,-0.215
4.116,-0.015,-0.225
4.118,0.035,-0.215
4.120,0.060,-0.190
4.122,0.085,-0.160
4.124,0.065,-0.130
4.126,0.070,-0.110
4.128,0.160,-0.095
4.130,0.145,-0.090
4.132,0.150,-0.090
4.134,0.165,-0.090
4.136,0.160,-0.090
4.138,0.130,-0.090
4.140,0.145,-0.080
4.142,0.150,-0.070
4.144,0.150,-0.055
4.146,0.160,-0.045
4.148,0.205,-0.030
4.150,0.205,-0.020
4.152,0.240,-0.015
4.154,0.255,-0.015
4.156,0.195,-0.015
4.158,0.195,-0.015
4.160,0.190,-0.020
4.162,0.195,-0.030
4.164,0.140,-0.035
4.166,0.175,-0.035
4.168,0.235,-0.040
4.170,0.195,-0.035
4.172,0.205,-0.030
4.174,0.215,-0.025
4.176,0.200,-0.015
4.178,0.170,-0.005
4.180,0.235,0.005
4.182,0.245,0.015
4.184,0.225,0.015
4.186,0.205,0.015
4.188,0.205,0.015
4.190,0.210,0.010
4.192,0.245,0.005
4.194,0.235,0.000
4.196,0.205,0.000
4.198,0.180,-0.005
4.200,0.230,0.000
4.202,0.200,0.005
4.204,0.175,0.010
4.206,0.215,0.015
4.208,0.310,0.020
4.210,0.270,0.025
4.212,0.245,0.030
4.214,0.260,0.030
4.216,0.265,0.035
4.218,0.245,0.035
4.220,0.225,0.040
4.222,0.215,0.040
4.224,0.220,0.040
4.226,0.270,0.040
4.228,0.280,0.040
4.230,0.275,0.040
4.232,0.255,0.040
4.234,0.285,0.035
4.236,0.265,0.035
4.238,0.195,0.035
4.240,0.215,0.035
4.242,0.200,0.035
4.244,0.215,0.035
4.246,0.275,0.040
4.248,0.330,0.045
4.250,0.315,0.055
4.252,0.280,0.065
4.254,0.305,0.075
4.256,0.300,0.080
4.258,0.315,0.090
4.260,0.320,0.100
4.262,0.305,0.100
4.264,0.265,0.105
4.266,0.345,0.105
4.268,0.345,0.100
4.270,0.275,0.095
4.272,0.260,0.090
4.274,0.320,0.085
4.276,0.330,0.085
4.278,0.295,0.085
4.280,0.325,0.090
4.282,0.345,0.100
4.284,0.320,0.105
4.286,0.325,0.115
4.288,0.355,0.125
4.290,0.355,0.135
4.292,0.395,0.135
4.294,0.410,0.140
4.296,0.370,0.140
4.298,0.300,0.140
4.300,0.310,0.135
4.302,0.365,0.135
4.304,0.340,0.140
4.306,0.370,0.140
4.308,0.410,0.145
4.310,0.360,0.150
4.312,0.345,0.155
4.314,0.395,0.160
4.316,0.370,0.165
4.318,0.365,0.170
4.320,0.390,0.170
4.322,0.390,0.175
4.324,0.375,0.180
4.326,0.395,0.180
4.328,0.450,0.185
4.330,0.400,0.185
4.332,0.390,0.180
4.334,0.370,0.180
4.336,0.370,0.175
4.338,0.355,0.170
4.340,0.345,0.165
4.342,0.345,0.155
4.344,0.335,0.150
4.346,0.375,0.150
4.348,0.415,0.145
4.350,0.380,0.145
4.352,0.355,0.145
4.354,0.365,0.140
4.356,0.335,0.135
4.358,0.310,0.130
4.360,0.290,0.120
4.362,0.310,0.110
4.364,0.255,0.100
4.366,0.290,0.090
4.368,0.310,0.080
4.370,0.300,0.070
4.372,0.265,0.065
4.374,0.290,0.055
4.376,0.290,0.055
4.378,0.245,0.050
4.380,0.250,0.045
4.382,0.265,0.045
4.384,0.255,0.040
4.386,0.220,0.040
4.388,0.265,0.035
4.390,0.225,0.030
4.392,0.215,0.025
4.394,0.255,0.020
4.396,0.200,0.010
4.398,0.205,0.005
4.400,0.190,-0.005
4.402,0.175,-0.015
4.404,0.140,-0.020
4.406,0.180,-0.025
4.408,0.200,-0.030
4.410,0.205,-0.030
4.412,0.195,-0.030
4.414,0.210,-0.030
4.416,0.200,-0.025
4.418,0.200,-0.020
4.420,0.195,-0.015
4.422,0.145,-0.010
4.424,0.150,-0.010
4.426,0.235,-0.005
4.428,0.220,-0.005
4.430,0.225,-0.010
4.432,0.240,-0.015
4.434,0.180,-0.030
4.436,0.085,-0.040
4.438,0.160,-0.055
4.440,0.125,-0.065
4.442,0.130,-0.075
4.444,0.155,-0.080
4.446,0.190,-0.080
4.448,0.125,-0.070
4.450,0.170,-0.060
4.452,0.195,-0.045
4.454,0.195,-0.030
4.456,0.195,-0.020
4.458,0.180,-0.015
4.460,0.210,-0.020
4.462,0.150,-0.025
4.464,0.160,-0.035
4.466,0.180,-0.050
4.468,0.205,-0.060
4.470,0.155,-0.065
4.472,0.175,-0.065
4.474,0.165,-0.060
4.476,0.120,-0.050
4.478,0.150,-0.040
4.480,0.180,-0.030
4.482,0.170,-0.025
4.484,0.195,-0.020
4.486,0.235,-0.025
4.488,0.195,-0.030
4.490,0.200,-0.040
4.492,0.160,-0.045
4.494,0.160,-0.045
4.496,0.160,-0.045
4.498,0.155,-0.040
4.500,0.205,-0.035
4.502,0.180,-0.025
4.504,0.195,-0.020
4.506,0.225,-0.015
4.508,0.250,-0.015
4.510,0.200,-0.015
4.512,0.170,-0.020
4.514,0.145,-0.020
4.516,0.170,-0.025
4.518,0.210,-0.025
4.520,0.195,-0.025
4.522,0.160,-0.025
4.524,0.195,-0.030
4.526,0.205,-0.030
4.528,0.170,-0.035
4.530,0.185,-0.040
4.532,0.200,-0.045
4.534,0.120,-0.050
4.536,0.175,-0.050
4.538,0.180,-0.050
4.540,0.125,-0.050
4.542,0.130,-0.050
4.544,0.190,-0.050
4.546,0.210,-0.050
4.548,0.185,-0.050
4.550,0.155,-0.050
4.552,0.135,-0.050
4.554,0.135,-0.055
4.556,0.155,-0.055
4.558,0.155,-0.055
4.560,0.165,-0.055
4.562,0.165,-0.050
4.564,0.170,-0.040
4.566,0.155,-0.035
4.568,0.140,-0.025
4.570,0.210,-0.015
4.572,0.245,-0.010
4.574,0.190,-0.010
4.576,0.150,-0.010
4.578,0.195,-0.015
4.580,0.180,-0.025
4.582,0.140,-0.035
4.584,0.190,-0.045
4.586,0.200,-0.055
4.588,0.115,-0.060
4.590,0.110,-0.060
4.592,0.140,-0.055
4.594,0.185,-0.050
4.596,0.170,-0.045
4.598,0.145,-0.035
4.600,0.180,-0.030
4.602,0.170,-0.025
4.604,0.175,-0.025
4.606,0.210,-0.025
4.608,0.190,-0.030
4.610,0.175,-0.035
4.612,0.175,-0.040
4.614,0.125,-0.040
4.616,0.105,-0.045
4.618,0.150,-0.050
4.620,0.195,-0.050
4.622,0.165,-0.050
4.624,0.145,-0.055
4.626,0.135,-0.055
4.628,0.150,-0.055
4.630,0.135,-0.055
4.632,0.120,-0.055
4.634,0.135,-0.055
4.636,0.140,-0.050
4.638,0.135,-0.050
4.640,0.155,-0.045
4.642,0.205,-0.040
4.644,0.225,-0.040
4.646,0.205,-0.040
4.648,0.195,-0.040
4.650,0.130,-0.040
4.652,0.125,-0.045
4.654,0.110,-0.050
4.656,0.130,-0.055
4.658,0.160,-0.055
4.660,0.190,-0.060
4.662,0.190,-0.065
4.664,0.115,-0.070
4.666,0.160,-0.070
4.668,0.125,-0.070
4.670,0.100,-0.075
4.672,0.125,-0.075
4.674,0.135,-0.075
4.676,0.120,-0.070
4.678,0.140,-0.070
4.680,0.175,-0.065
4.682,0.185,-0.060
4.684,0.160,-0.055
4.686,0.180,-0.050
4.688,0.180,-0.050
4.690,0.110,-0.045
4.692,0.140,-0.040
4.694,0.160,-0.040
4.696,0.145,-0.035
4.698,0.175,-0.035
4.700,0.185,-0.040
4.702,0.185,-0.040
4.704,0.175,-0.045
4.706,0.140,-0.050
4.708,0.140,-0.050
4.710,0.130,-0.055
4.712,0.135,-0.060
4.714,0.150,-0.060
4.716,0.140,-0.060
4.718,0.115,-0.060
4.720,0.170,-0.060
4.722,0.180,-0.060
4.724,0.180,-0.060
4.726,0.150,-0.055
4.728,0.135,-0.055
4.730,0.140,-0.060
4.732,0.155,-0.060
4.734,0.175,-0.060
4.736,0.145,-0.060
4.738,0.155,-0.060
4.740,0.115,-0.060
4.742,0.115,-0.060
4.744,0.165,-0.060
4.746,0.145,-0.060
4.748,0.160,-0.060
4.750,0.175,-0.060
4.752,0.115,-0.060
4.754,0.150,-0.060
4.756,0.145,-0.055
4.758,0.110,-0.055
4.760,0.135,-0.055
4.762,0.155,-0.055
4.764,0.170,-0.055
4.766,0.165,-0.055
4.768,0.180,-0.060
4.770,0.130,-0.060
4.772,0.130,-0.065
4.774,0.150,-0.065
4.776,0.100,-0.065
4.778,0.130,-0.065
4.780,0.160,-0.060
4.782,0.145,-0.055
4.784,0.180,-0.045
4.786,0.140,-0.040
4.788,0.120,-0.030
4.790,0.200,-0.020
4.792,0.185,-0.010
4.794,0.205,-0.005
4.796,0.175,0.005
4.798,0.215,0.010
4.800,0.245,0.020
4.802,0.275,0.030
4.804,0.260,0.035
4.806,0.270,0.040
4.808,0.220,0.045
4.810,0.195,0.045
4.812,0.170,0.045
4.814,0.215,0.040
4.816,0.215,0.035
4.818,0.225,0.025
4.820,0.235,0.020
4.822,0.205,0.010
4.824,0.205,0.005
4.826,0.165,0.000
4.828,0.190,-0.005
4.830,0.190,-0.005
4.832,0.205,-0.010
4.834,0.210,-0.015
4.836,0.175,-0.015
4.838,0.165,-0.020
4.840,0.160,-0.030
4.842,0.165,-0.035
4.844,0.135,-0.040
4.846,0.125,-0.050
4.848,0.155,-0.055
4.850,0.145,-0.060
4.852,0.125,-0.060
4.854,0.090,-0.060
4.856,0.130,-0.060
4.858,0.170,-0.060
4.860,0.155,-0.055
4.862,0.115,-0.050
4.864,0.150,-0.050
4.866,0.195,-0.045
4.868,0.150,-0.050
4.870,0.120,-0.055
4.872,0.155,-0.060
4.874,0.090,-0.075
4.876,0.050,-0.085
4.878,0.095,-0.090
4.880,0.090,-0.095
4.882,0.135,-0.090
4.884,0.145,-0.085
4.886,0.165,-0.075
4.888,0.115,-0.070
4.890,0.120,-0.065
4.892,0.100,-0.065
4.894,0.115,-0.070
4.896,0.080,-0.075
4.898,0.115,-0.080
4.900,0.150,-0.075
4.902,0.155,-0.055
4.904,0.235,-0.020
4.906,0.245,0.040
4.908,0.245,0.110
4.910,0.370,0.190
4.912,0.500,0.265
4.914,0.560,0.325
4.916,0.615,0.360
4.918,0.655,0.360
4.920,0.550,0.325
4.922,0.480,0.260
4.924,0.365,0.170
4.926,0.195,0.080
4.928,0.035,-0.010
4.930,0.010,-0.085
4.932,0.040,-0.140
4.934,0.050,-0.170
4.936,0.075,-0.175
4.938,0.105,-0.170
4.940,0.120,-0.150
4.942,0.060,-0.130
4.944,0.060,-0.115
4.946,0.065,-0.100
4.948,0.045,-0.095
4.950,0.015,-0.095
4.952,0.085,-0.095
4.954,0.160,-0.095
4.956,0.120,-0.095
4.958,0.150,-0.090
4.960,0.130,-0.085
4.962,0.105,-0.075
4.964,0.140,-0.065
4.966,0.135,-0.055
4.968,0.130,-0.045
4.970,0.160,-0.035
4.972,0.155,-0.030
4.974,0.170,-0.025
4.976,0.210,-0.020
4.978,0.180,-0.020
4.980,0.235,-0.020
4.982,0.205,-0.025
4.984,0.060,-0.035
4.986,0.120,-0.045
4.988,0.125,-0.055
4.990,0.140,-0.065
4.992,0.100,-0.070
4.994,0.120,-0.070
4.996,0.120,-0.070
4.998,0.165,-0.060
5.000,0.175,-0.050
5.002,0.165,-0.040
5.004,0.200,-0.030
5.006,0.260,-0.025
5.008,0.140,-0.020
5.010,0.125,-0.025
5.012,0.125,-0.030
5.014,0.180,-0.035
5.016,0.145,-0.040
5.018,0.165,-0.045
5.020,0.175,-0.045
5.022,0.200,-0.045
5.024,0.185,-0.035
5.026,0.175,-0.025
5.028,0.115,-0.015
5.030,0.145,-0.005
5.032,0.210,0.005
5.034,0.200,0.010
5.036,0.200,0.015
5.038,0.160,0.015
5.040,0.240,0.010
5.042,0.210,0.005
5.044,0.155,-0.005
5.046,0.200,-0.010
5.048,0.200,-0.010
5.050,0.165,-0.010
5.052,0.175,-0.005
5.054,0.205,0.000
5.056,0.185,0.010
5.058,0.240,0.025
5.060,0.225,0.035
5.062,0.210,0.045
5.064,0.235,0.055
5.066,0.280,0.055
5.068,0.225,0.060
5.070,0.230,0.055
5.072,0.255,0.055
5.074,0.245,0.055
5.076,0.245,0.055
5.078,0.280,0.055
5.080,0.260,0.060
5.082,0.220,0.065
5.084,0.240,0.075
5.086,0.280,0.080
5.088,0.270,0.085
5.090,0.300,0.090
5.092,0.295,0.090
5.094,0.255,0.090
5.096,0.255,0.090
5.098,0.285,0.085
5.100,0.310,0.085
5.102,0.295,0.085
5.104,0.295,0.090
5.106,0.300,0.095
5.108,0.315,0.100
5.110,0.280,0.110
5.112,0.290,0.120
5.114,0.330,0.125
5.116,0.310,0.135
5.118,0.335,0.140
5.120,0.365,0.145
5.122,0.350,0.150
5.124,0.365,0.150
5.126,0.320,0.150
5.128,0.335,0.150
5.130,0.350,0.145
5.132,0.340,0.145
5.134,0.285,0.150
5.136,0.330,0.150
5.138,0.365,0.155
5.140,0.355,0.160
5.142,0.350,0.165
5.144,0.355,0.165
5.146,0.350,0.165
5.148,0.355,0.170
5.150,0.355,0.170
5.152,0.325,0.170
5.154,0.360,0.170
5.156,0.370,0.175
5.158,0.385,0.180
5.160,0.420,0.185
5.162,0.405,0.190
5.164,0.420,0.190
5.166,0.375,0.190
5.168,0.330,0.180
5.170,0.345,0.170
5.172,0.260,0.155
5.174,0.265,0.135
5.176,0.295,0.115
5.178,0.340,0.095
5.180,0.355,0.080
5.182,0.285,0.070
5.184,0.260,0.065
5.186,0.235,0.065
5.188,0.235,0.065
5.190,0.275,0.070
5.192,0.245,0.070
5.194,0.220,0.070
5.196,0.240,0.070
5.198,0.245,0.065
5.200,0.240,0.055
5.202,0.240,0.045
5.204,0.215,0.035
5.206,0.180,0.030
5.208,0.200,0.020
5.210,0.195,0.015
5.212,0.180,0.005
5.214,0.140,0.000
5.216,0.190,0.000
5.218,0.185,-0.005
5.220,0.205,-0.010
5.222,0.195,-0.015
5.224,0.165,-0.020
5.226,0.120,-0.025
5.228,0.145,-0.025
5.230,0.165,-0.030
5.232,0.150,-0.030
5.234,0.105,-0.035
5.236,0.185,-0.035
5.238,0.165,-0.040
5.240,0.145,-0.040
5.242,0.120,-0.045
5.244,0.125,-0.055
5.246,0.140,-0.055
5.248,0.110,-0.060
5.250,0.130,-0.060
5.252,0.135,-0.055
5.254,0.110,-0.050
5.256,0.145,-0.040
5.258,0.190,-0.030
5.260,0.200,-0.020
5.262,0.190,-0.015
5.264,0.165,-0.010
5.266,0.130,-0.015
5.268,0.140,-0.020
5.270,0.170,-0.030
5.272,0.155,-0.045
5.274,0.095,-0.055
5.276,0.150,-0.060
5.278,0.135,-0.065
5.280,0.135,-0.065
5.282,0.155,-0.060
5.284,0.135,-0.050
5.286,0.145,-0.040
5.288,0.175,-0.030
5.290,0.135,-0.025
5.292,0.130,-0.025
5.294,0.160,-0.025
5.296,0.185,-0.030
5.298,0.165,-0.035
5.300,0.155,-0.035
5.302,0.155,-0.040
5.304,0.145,-0.040
5.306,0.120,-0.040
5.308,0.135,-0.035
5.310,0.125,-0.035
5.312,0.140,-0.030
5.314,0.155,-0.030
5.316,0.205,-0.035
5.318,0.205,-0.035
5.320,0.135,-0.040
5.322,0.120,-0.045
5.324,0.135,-0.045
5.326,0.145,-0.045
5.328,0.140,-0.045
5.330,0.130,-0.045
5.332,0.160,-0.040
5.334,0.140,-0.040
5.336,0.135,-0.035
5.338,0.145,-0.035
5.340,0.160,-0.030
5.342,0.205,-0.030
5.344,0.210,-0.025
5.346,0.150,-0.020
5.348,0.165,-0.020
5.350,0.175,-0.015
5.352,0.155,-0.010
5.354,0.185,-0.010
5.356,0.170,-0.015
5.358,0.140,-0.020
5.360,0.140,-0.025
5.362,0.165,-0.035
5.364,0.160,-0.045
5.366,0.105,-0.055
5.368,0.130,-0.065
5.370,0.150,-0.070
5.372,0.115,-0.070
5.374,0.130,-0.070
5.376,0.150,-0.065
5.378,0.125,-0.060
5.380,0.145,-0.050
5.382,0.165,-0.045
5.384,0.130,-0.035
5.386,0.190,-0.030
5.388,0.150,-0.025
5.390,0.165,-0.020
5.392,0.155,-0.020
5.394,0.140,-0.020
5.396,0.200,-0.025
5.398,0.145,-0.025
5.400,0.145,-0.030
5.402,0.160,-0.035
5.404,0.145,-0.040
5.406,0.165,-0.045
5.408,0.155,-0.050
5.410,0.105,-0.050
5.412,0.130,-0.050
5.414,0.120,-0.055
5.416,0.150,-0.055
5.418,0.150,-0.055
5.420,0.110,-0.060
5.422,0.120,-0.060
5.424,0.155,-0.060
5.426,0.135,-0.060
5.428,0.160,-0.055
5.430,0.140,-0.050
5.432,0.125,-0.045
5.434,0.170,-0.040
5.436,0.195,-0.030
5.438,0.175,-0.025
5.440,0.145,-0.020
5.442,0.160,-0.020
5.444,0.185,-0.025
5.446,0.165,-0.030
5.448,0.135,-0.035
5.450,0.155,-0.045
5.452,0.135,-0.050
5.454,0.140,-0.055
5.456,0.160,-0.055
5.458,0.110,-0.055
5.460,0.170,-0.055
5.462,0.200,-0.055
5.464,0.125,-0.050
5.466,0.140,-0.045
5.468,0.155,-0.045
5.470,0.160,-0.040
5.472,0.145,-0.040
5.474,0.170,-0.035
5.476,0.190,-0.035
5.478,0.160,-0.040
5.480,0.165,-0.040
5.482,0.185,-0.040
5.484,0.130,-0.045
5.486,0.140,-0.045
5.488,0.145,-0.050
5.490,0.185,-0.050
5.492,0.140,-0.050
5.494,0.175,-0.055
5.496,0.115,-0.055
5.498,0.130,-0.055
5.500,0.165,-0.055
5.502,0.175,-0.055
5.504,0.125,-0.060
5.506,0.115,-0.060
5.508,0.130,-0.060
5.510,0.155,-0.060
5.512,0.115,-0.060
5.514,0.165,-0.060
5.516,0.165,-0.055
5.518,0.135,-0.055
5.520,0.155,-0.055
5.522,0.180,-0.060
5.524,0.120,-0.060
5.526,0.135,-0.060
5.528,0.140,-0.060
5.530,0.100,-0.060
5.532,0.155,-0.055
5.534,0.180,-0.055
5.536,0.185,-0.050
5.538,0.195,-0.045
5.540,0.170,-0.040
5.542,0.160,-0.035
5.544,0.150,-0.035
5.546,0.180,-0.035
5.548,0.160,-0.035
5.550,0.140,-0.035
5.552,0.155,-0.035
5.554,0.185,-0.035
5.556,0.160,-0.030
5.558,0.165,-0.025
5.560,0.160,-0.025
5.562,0.145,-0.025
5.564,0.160,-0.025
5.566,0.215,-0.030
5.568,0.170,-0.035
5.570,0.135,-0.045
5.572,0.135,-0.055
5.574,0.160,-0.060
5.576,0.170,-0.065
5.578,0.180,-0.065
5.580,0.150,-0.060
5.582,0.140,-0.050
5.584,0.150,-0.040
5.586,0.160,-0.030
5.588,0.160,-0.025
5.590,0.200,-0.020
5.592,0.215,-0.020
5.594,0.190,-0.025
5.596,0.190,-0.035
5.598,0.140,-0.045
5.600,0.120,-0.050
5.602,0.140,-0.060
5.604,0.140,-0.065
5.606,0.135,-0.065
5.608,0.105,-0.065
5.610,0.095,-0.065
5.612,0.150,-0.060
5.614,0.175,-0.055
5.616,0.165,-0.055
5.618,0.195,-0.045
5.620,0.170,-0.040
5.622,0.155,-0.035
5.624,0.160,-0.025
5.626,0.235,-0.015
5.628,0.200,-0.010
5.630,0.165,-0.005
5.632,0.165,-0.005
5.634,0.205,-0.010
5.636,0.260,-0.015
5.638,0.175,-0.020
5.640,0.195,-0.025
5.642,0.195,-0.025
5.644,0.210,-0.020
5.646,0.240,-0.005
5.648,0.225,0.015
5.650,0.210,0.040
5.652,0.190,0.060
5.654,0.295,0.080
5.656,0.295,0.095
5.658,0.300,0.100
5.660,0.310,0.095
5.662,0.340,0.085
5.664,0.270,0.070
5.666,0.255,0.055
5.668,0.200,0.040
5.670,0.220,0.035
5.672,0.245,0.030
5.674,0.240,0.035
5.676,0.235,0.040
5.678,0.260,0.040
5.680,0.265,0.040
5.682,0.245,0.035
5.684,0.215,0.025
5.686,0.170,0.010
5.688,0.155,-0.005
5.690,0.155,-0.020
5.692,0.185,-0.035
5.694,0.150,-0.045
5.696,0.135,-0.050
5.698,0.220,-0.050
5.700,0.195,-0.045
5.702,0.190,-0.040
5.704,0.150,-0.035
5.706,0.130,-0.035
5.708,0.160,-0.035
5.710,0.130,-0.035
5.712,0.145,-0.040
5.714,0.190,-0.045
5.716,0.190,-0.045
5.718,0.175,-0.045
5.720,0.180,-0.045
5.722,0.170,-0.040
5.724,0.115,-0.040
5.726,0.130,-0.035
5.728,0.210,-0.035
5.730,0.210,-0.030
5.732,0.180,-0.030
5.734,0.200,-0.025
5.736,0.185,-0.025
5.738,0.190,-0.025
5.740,0.160,-0.030
5.742,0.140,-0.040
5.744,0.160,-0.050
5.746,0.150,-0.060
5.748,0.155,-0.065
5.750,0.170,-0.060
5.752,0.195,-0.035
5.754,0.255,0.010
5.756,0.320,0.080
5.758,0.370,0.170
5.760,0.465,0.260
5.762,0.580,0.350
5.764,0.675,0.415
5.766,0.730,0.450
5.768,0.770,0.445
5.770,0.650,0.400
5.772,0.530,0.320
5.774,0.450,0.215
5.776,0.265,0.105
5.778,0.070,0.000
5.780,0.080,-0.080
5.782,0.045,-0.135
5.784,0.085,-0.155
5.786,0.145,-0.150
5.788,0.135,-0.125
5.790,0.085,-0.100
5.792,0.155,-0.070
5.794,0.165,-0.055
5.796,0.170,-0.045
5.798,0.155,-0.050
5.800,0.120,-0.060
5.802,0.130,-0.070
5.804,0.175,-0.075
5.806,0.190,-0.075
5.808,0.200,-0.065
5.810,0.215,-0.050
5.812,0.190,-0.035
5.814,0.155,-0.020
5.816,0.195,-0.015
5.818,0.185,-0.015
5.820,0.155,-0.025
5.822,0.145,-0.035
5.824,0.195,-0.045
5.826,0.185,-0.055
5.828,0.165,-0.055
5.830,0.165,-0.050
5.832,0.205,-0.040
5.834,0.220,-0.025
5.836,0.255,-0.010
5.838,0.215,0.005
5.840,0.235,0.010
5.842,0.215,0.015
5.844,0.210,0.010
5.846,0.235,0.005
5.848,0.215,0.000
5.850,0.220,-0.010
5.852,0.190,-0.015
5.854,0.185,-0.020
5.856,0.220,-0.020
5.858,0.210,-0.020
5.860,0.250,-0.015
5.862,0.200,-0.015
5.864,0.205,-0.015
5.866,0.170,-0.015
5.868,0.185,-0.015
5.870,0.220,-0.010
5.872,0.270,-0.010
5.874,0.240,-0.005
5.876,0.250,0.000
5.878,0.250,0.005
5.880,0.255,0.015
5.882,0.230,0.020
5.884,0.240,0.025
5.886,0.215,0.025
5.888,0.250,0.025
5.890,0.250,0.025
5.892,0.260,0.020
5.894,0.215,0.015
5.896,0.255,0.010
5.898,0.270,0.010
5.900,0.270,0.005
5.902,0.260,0.010
5.904,0.250,0.015
5.906,0.235,0.020
5.908,0.235,0.025
5.910,0.255,0.030
5.912,0.280,0.040
5.914,0.270,0.045
5.916,0.320,0.050
5.918,0.295,0.055
5.920,0.300,0.060
5.922,0.260,0.065
5.924,0.295,0.075
5.926,0.315,0.080
5.928,0.295,0.085
5.930,0.280,0.095
5.932,0.335,0.095
5.934,0.395,0.100
5.936,0.375,0.095
5.938,0.290,0.095
5.940,0.295,0.090
5.942,0.285,0.090
5.944,0.320,0.090
5.946,0.305,0.090
5.948,0.320,0.095
5.950,0.325,0.105
5.952,0.375,0.115
5.954,0.350,0.120
5.956,0.385,0.130
5.958,0.415,0.135
5.960,0.380,0.140
5.962,0.310,0.145
5.964,0.350,0.145
5.966,0.380,0.150
5.968,0.375,0.155
5.970,0.420,0.160
5.972,0.410,0.165
5.974,0.425,0.175
5.976,0.405,0.180
5.978,0.430,0.185
5.980,0.415,0.190
5.982,0.410,0.195
5.984,0.465,0.195
5.986,0.435,0.190
5.988,0.365,0.190
5.990,0.395,0.185
5.992,0.445,0.185
5.994,0.440,0.180
5.996,0.415,0.175
5.998,0.405,0.175
6.000,0.405,0.170
6.002,0.420,0.170
6.004,0.405,0.170
6.006,0.420,0.170
6.008,0.395,0.170
6.010,0.395,0.175
6.012,0.415,0.180
6.014,0.440,0.180
6.016,0.430,0.185
6.018,0.435,0.185
6.020,0.455,0.180
6.022,0.460,0.175
6.024,0.400,0.165
6.026,0.340,0.155
6.028,0.330,0.145
6.030,0.360,0.135
6.032,0.375,0.125
6.034,0.385,0.120
6.036,0.375,0.115
6.038,0.350,0.110
6.040,0.290,0.105
6.042,0.315,0.095
6.044,0.330,0.085
6.046,0.315,0.075
6.048,0.265,0.065
6.050,0.305,0.050
6.052,0.285,0.040
6.054,0.285,0.030
6.056,0.270,0.025
6.058,0.285,0.020
6.060,0.230,0.015
6.062,0.225,0.015
6.064,0.270,0.010
6.066,0.230,0.005
6.068,0.205,-0.005
6.070,0.215,-0.015
6.072,0.265,-0.020
6.074,0.230,-0.030
6.076,0.230,-0.035
6.078,0.225,-0.040
6.080,0.175,-0.040
6.082,0.170,-0.040
6.084,0.205,-0.035
6.086,0.235,-0.035
6.088,0.230,-0.035
6.090,0.190,-0.040
6.092,0.185,-0.045
6.094,0.185,-0.050
6.096,0.190,-0.055
6.098,0.235,-0.060
6.100,0.195,-0.060
6.102,0.190,-0.060
6.104,0.215,-0.055
6.106,0.185,-0.045
6.108,0.170,-0.040
6.110,0.200,-0.030
6.112,0.205,-0.030
6.114,0.195,-0.025
6.116,0.240,-0.030
6.118,0.265,-0.035
6.120,0.180,-0.040
6.122,0.205,-0.045
6.124,0.180,-0.050
6.126,0.200,-0.050
6.128,0.210,-0.045
6.130,0.220,-0.040
6.132,0.190,-0.035
6.134,0.230,-0.025
6.136,0.225,-0.020
6.138,0.200,-0.015
6.140,0.190,-0.015
6.142,0.180,-0.020
6.144,0.180,-0.020
6.146,0.235,-0.025
6.148,0.210,-0.025
6.150,0.235,-0.030
6.152,0.235,-0.025
6.154,0.270,-0.025
6.156,0.275,-0.025
6.158,0.220,-0.025
6.160,0.150,-0.030
6.162,0.165,-0.035
6.164,0.165,-0.045
6.166,0.185,-0.050
6.168,0.165,-0.055
6.170,0.190,-0.060
6.172,0.225,-0.055
6.174,0.240,-0.045
6.176,0.230,-0.035
6.178,0.270,-0.025
6.180,0.200,-0.020
6.182,0.190,-0.015
6.184,0.210,-0.015
6.186,0.220,-0.020
6.188,0.170,-0.030
6.190,0.235,-0.040
6.192,0.260,-0.045
6.194,0.225,-0.055
6.196,0.160,-0.055
6.198,0.200,-0.055
6.200,0.150,-0.055
6.202,0.200,-0.050
6.204,0.200,-0.045
6.206,0.180,-0.045
6.208,0.205,-0.045
6.210,0.230,-0.045
6.212,0.205,-0.045
6.214,0.180,-0.045
6.216,0.205,-0.045
6.218,0.205,-0.045
6.220,0.200,-0.040
6.222,0.195,-0.035
6.224,0.190,-0.030
6.226,0.180,-0.030
6.228,0.205,-0.030
6.230,0.230,-0.030
6.232,0.210,-0.030
6.234,0.200,-0.035
6.236,0.235,-0.040
6.238,0.220,-0.040
6.240,0.185,-0.040
6.242,0.200,-0.040
6.244,0.180,-0.045
6.246,0.160,-0.045
6.248,0.145,-0.045
6.250,0.220,-0.045
6.252,0.225,-0.050
6.254,0.250,-0.050
6.256,0.215,-0.050
6.258,0.165,-0.050
6.260,0.145,-0.050
6.262,0.205,-0.045
6.264,0.185,-0.045
6.266,0.195,-0.045
6.268,0.185,-0.045
6.270,0.195,-0.050
6.272,0.200,-0.055
6.274,0.195,-0.055
6.276,0.195,-0.060
6.278,0.200,-0.060
6.280,0.175,-0.060
6.282,0.200,-0.055
6.284,0.235,-0.050
6.286,0.235,-0.045
6.288,0.215,-0.045
6.290,0.210,-0.045
6.292,0.170,-0.055
6.294,0.150,-0.065
6.296,0.165,-0.075
6.298,0.190,-0.085
6.300,0.145,-0.090
6.302,0.165,-0.085
6.304,0.175,-0.080
6.306,0.165,-0.070
6.308,0.175,-0.060
6.310,0.230,-0.050
6.312,0.215,-0.045
6.314,0.175,-0.050
6.316,0.205,-0.055
6.318,0.225,-0.065
6.320,0.130,-0.075
6.322,0.160,-0.080
6.324,0.195,-0.080
6.326,0.180,-0.075
6.328,0.210,-0.065
6.330,0.230,-0.055
6.332,0.200,-0.040
6.334,0.205,-0.035
6.336,0.220,-0.030
6.338,0.200,-0.035
6.340,0.180,-0.045
6.342,0.170,-0.055
6.344,0.195,-0.065
6.346,0.210,-0.075
6.348,0.190,-0.080
6.350,0.185,-0.080
6.352,0.160,-0.075
6.354,0.170,-0.070
6.356,0.185,-0.070
6.358,0.200,-0.070
6.360,0.185,-0.075
6.362,0.185,-0.075
6.364,0.210,-0.080
6.366,0.140,-0.085
6.368,0.170,-0.085
6.370,0.165,-0.085
6.372,0.180,-0.075
6.374,0.180,-0.070
6.376,0.205,-0.060
6.378,0.195,-0.060
6.380,0.175,-0.055
6.382,0.175,-0.060
6.384,0.195,-0.070
6.386,0.155,-0.075
6.388,0.180,-0.085
6.390,0.195,-0.090
6.392,0.175,-0.085
6.394,0.190,-0.080
6.396,0.185,-0.075
6.398,0.165,-0.065
6.400,0.195,-0.055
6.402,0.170,-0.050
6.404,0.200,-0.050
6.406,0.190,-0.055
6.408,0.205,-0.060
6.410,0.190,-0.070
6.412,0.155,-0.085
6.414,0.155,-0.090
6.416,0.185,-0.095
6.418,0.140,-0.095
6.420,0.160,-0.090
6.422,0.180,-0.085
6.424,0.145,-0.075
6.426,0.190,-0.065
6.428,0.220,-0.060
6.430,0.205,-0.050
6.432,0.220,-0.050
6.434,0.250,-0.045
6.436,0.195,-0.045
6.438,0.165,-0.040
6.440,0.165,-0.040
6.442,0.225,-0.035
6.444,0.225,-0.035
6.446,0.180,-0.035
6.448,0.240,-0.035
6.450,0.275,-0.035
6.452,0.220,-0.040
6.454,0.175,-0.045
6.456,0.185,-0.050
6.458,0.180,-0.055
6.460,0.175,-0.055
6.462,0.200,-0.055
6.464,0.215,-0.050
6.466,0.210,-0.045
6.468,0.235,-0.030
6.470,0.265,-0.020
6.472,0.270,-0.005
6.474,0.240,0.005
6.476,0.275,0.015
6.478,0.285,0.025
6.480,0.255,0.025
6.482,0.215,0.030
6.484,0.260,0.025
6.486,0.285,0.025
6.488,0.315,0.020
6.490,0.310,0.020
6.492,0.295,0.025
6.494,0.280,0.025
6.496,0.265,0.030
6.498,0.235,0.030
6.500,0.245,0.030
6.502,0.300,0.030
6.504,0.270,0.020
6.506,0.245,0.010
6.508,0.245,-0.005
6.510,0.245,-0.020
6.512,0.190,-0.035
6.514,0.195,-0.045
6.516,0.190,-0.055
6.518,0.140,-0.055
6.520,0.185,-0.060
6.522,0.210,-0.055
6.524,0.180,-0.055
6.526,0.180,-0.050
6.528,0.235,-0.050
6.530,0.195,-0.045
6.532,0.215,-0.045
6.534,0.185,-0.040
6.536,0.150,-0.035
6.538,0.220,-0.035
6.540,0.245,-0.030
6.542,0.225,-0.030
6.544,0.210,-0.035
6.546,0.155,-0.045
6.548,0.185,-0.055
6.550,0.195,-0.065
6.552,0.160,-0.075
6.554,0.175,-0.085
6.556,0.175,-0.085
6.558,0.160,-0.080
6.560,0.165,-0.065
6.562,0.175,-0.055
6.564,0.175,-0.050
6.566,0.185,-0.045
6.568,0.235,-0.045
6.570,0.205,-0.050
6.572,0.185,-0.055
6.574,0.165,-0.050
6.576,0.215,-0.030
6.578,0.235,0.015
6.580,0.310,0.080
6.582,0.395,0.165
6.584,0.470,0.260
6.586,0.645,0.345
6.588,0.770,0.415
6.590,0.795,0.450
6.592,0.755,0.440
6.594,0.655,0.390
6.596,0.535,0.305
6.598,0.380,0.190
6.600,0.150,0.070
6.602,0.050,-0.045
6.604,0.035,-0.135
6.606,0.060,-0.190
6.608,0.115,-0.215
6.610,0.130,-0.205
6.612,0.155,-0.175
6.614,0.090,-0.130
6.616,0.115,-0.090
6.618,0.140,-0.060
6.620,0.130,-0.040
6.622,0.190,-0.035
6.624,0.175,-0.040
6.626,0.205,-0.045
6.628,0.185,-0.055
6.630,0.170,-0.060
6.632,0.230,-0.060
6.634,0.240,-0.055
6.636,0.215,-0.050
6.638,0.135,-0.045
6.640,0.130,-0.040
6.642,0.180,-0.040
6.644,0.200,-0.045
6.646,0.175,-0.050
6.648,0.155,-0.055
6.650,0.205,-0.060
6.652,0.220,-0.060
6.654,0.195,-0.060
6.656,0.195,-0.050
6.658,0.195,-0.045
6.660,0.205,-0.035
6.662,0.200,-0.025
6.664,0.170,-0.015
6.666,0.235,-0.010
6.668,0.225,-0.005
6.670,0.210,0.000
6.672,0.245,0.000
6.674,0.260,-0.005
6.676,0.185,-0.010
6.678,0.185,-0.020
6.680,0.170,-0.030
6.682,0.195,-0.035
6.684,0.205,-0.045
6.686,0.220,-0.045
6.688,0.230,-0.045
6.690,0.245,-0.040
6.692,0.245,-0.030
6.694,0.250,-0.020
6.696,0.175,-0.005
6.698,0.205,0.005
6.700,0.250,0.015
6.702,0.210,0.015
6.704,0.205,0.015
6.706,0.250,0.010
6.708,0.265,0.005
6.710,0.230,0.000
6.712,0.260,0.000
6.714,0.260,0.005
6.716,0.260,0.010
6.718,0.265,0.020
6.720,0.230,0.035
6.722,0.305,0.045
6.724,0.255,0.050
6.726,0.230,0.050
6.728,0.270,0.045
6.730,0.260,0.035
6.732,0.225,0.025
6.734,0.265,0.015
6.736,0.250,0.010
6.738,0.255,0.010
6.740,0.265,0.015
6.742,0.270,0.030
6.744,0.280,0.050
6.746,0.340,0.065
6.748,0.305,0.080
6.750,0.305,0.085
6.752,0.310,0.090
6.754,0.355,0.085
6.756,0.265,0.080
6.758,0.300,0.075
6.760,0.360,0.075
6.762,0.295,0.075
6.764,0.305,0.080
6.766,0.335,0.085
6.768,0.325,0.095
6.770,0.345,0.105
6.772,0.345,0.115
6.774,0.355,0.120
6.776,0.330,0.125
6.778,0.345,0.125
6.780,0.350,0.125
6.782,0.365,0.125
6.784,0.355,0.130
6.786,0.400,0.135
6.788,0.395,0.145
6.790,0.370,0.155
6.792,0.360,0.165
6.794,0.400,0.175
6.796,0.400,0.185
6.798,0.425,0.190
6.800,0.395,0.190
6.802,0.385,0.185
6.804,0.405,0.185
6.806,0.400,0.180
6.808,0.430,0.180
6.810,0.390,0.180
6.812,0.380,0.180
6.814,0.400,0.185
6.816,0.375,0.190
6.818,0.365,0.190
6.820,0.450,0.195
6.822,0.420,0.195
6.824,0.365,0.190
6.826,0.415,0.185
6.828,0.425,0.180
6.830,0.435,0.180
6.832,0.445,0.175
6.834,0.425,0.175
6.836,0.340,0.175
6.838,0.380,0.180
6.840,0.385,0.180
6.842,0.365,0.180
6.844,0.345,0.180
6.846,0.410,0.175
6.848,0.410,0.160
6.850,0.385,0.150
6.852,0.340,0.135
6.854,0.345,0.120
6.856,0.295,0.105
6.858,0.285,0.095
6.860,0.275,0.090
6.862,0.270,0.085
6.864,0.310,0.080
6.866,0.335,0.080
6.868,0.305,0.080
6.870,0.295,0.075
6.872,0.260,0.070
6.874,0.250,0.060
6.876,0.260,0.050
6.878,0.245,0.035
6.880,0.220,0.020
6.882,0.175,0.010
6.884,0.220,0.000
6.886,0.205,-0.005
6.888,0.220,-0.005
6.890,0.250,-0.005
6.892,0.200,-0.005
6.894,0.185,0.000
6.896,0.200,0.000
6.898,0.180,0.000
6.900,0.240,0.000
6.902,0.205,-0.010
6.904,0.160,-0.015
6.906,0.175,-0.025
6.908,0.140,-0.035
6.910,0.195,-0.045
6.912,0.170,-0.050
6.914,0.140,-0.050
6.916,0.165,-0.045
6.918,0.190,-0.045
6.920,0.185,-0.040
6.922,0.160,-0.035
6.924,0.175,-0.030
6.926,0.170,-0.025
6.928,0.185,-0.025
6.930,0.215,-0.025
6.932,0.210,-0.025
6.934,0.150,-0.030
6.936,0.120,-0.030
6.938,0.130,-0.035
6.940,0.130,-0.040
6.942,0.180,-0.045
6.944,0.245,-0.045
6.946,0.175,-0.045
6.948,0.135,-0.045
6.950,0.130,-0.040
6.952,0.220,-0.035
6.954,0.180,-0.030
6.956,0.140,-0.025
6.958,0.120,-0.025
6.960,0.110,-0.030
6.962,0.115,-0.035
6.964,0.205,-0.045
6.966,0.170,-0.050
6.968,0.130,-0.055
6.970,0.170,-0.050
6.972,0.220,-0.045
6.974,0.165,-0.035
6.976,0.185,-0.020
6.978,0.190,-0.010
6.980,0.160,-0.005
6.982,0.155,-0.005
6.984,0.135,-0.010
6.986,0.150,-0.015
6.988,0.190,-0.030
6.990,0.190,-0.040
6.992,0.175,-0.045
6.994,0.135,-0.050
6.996,0.140,-0.050
6.998,0.170,-0.045
7.000,0.135,-0.045
7.002,0.145,-0.045
7.004,0.170,-0.045
7.006,0.135,-0.050
7.008,0.160,-0.055
7.010,0.135,-0.060
7.012,0.150,-0.055
7.014,0.155,-0.050
7.016,0.215,-0.040
7.018,0.150,-0.025
7.020,0.125,-0.010
7.022,0.175,0.000
7.024,0.220,0.000
7.026,0.180,-0.005
7.028,0.165,-0.015
7.030,0.215,-0.030
7.032,0.165,-0.050
7.034,0.090,-0.065
7.036,0.100,-0.070
7.038,0.110,-0.075
7.040,0.140,-0.070
7.042,0.145,-0.060
7.044,0.190,-0.050
7.046,0.170,-0.040
7.048,0.155,-0.040
7.050,0.140,-0.040
7.052,0.145,-0.050
7.054,0.095,-0.060
7.056,0.115,-0.065
7.058,0.135,-0.070
7.060,0.115,-0.070
7.062,0.100,-0.065
7.064,0.155,-0.055
7.066,0.185,-0.045
7.068,0.150,-0.040
7.070,0.135,-0.035
7.072,0.170,-0.035
7.074,0.090,-0.040
7.076,0.100,-0.050
7.078,0.115,-0.055
7.080,0.115,-0.065
7.082,0.115,-0.065
7.084,0.150,-0.065
7.086,0.160,-0.060
7.088,0.150,-0.055
7.090,0.165,-0.045
7.092,0.160,-0.045
7.094,0.095,-0.040
7.096,0.135,-0.045
7.098,0.145,-0.050
7.100,0.125,-0.055
7.102,0.140,-0.060
7.104,0.150,-0.065
7.106,0.085,-0.070
7.108,0.130,-0.075
7.110,0.145,-0.075
7.112,0.110,-0.075
7.114,0.105,-0.070
7.116,0.110,-0.065
7.118,0.095,-0.060
7.120,0.090,-0.050
7.122,0.155,-0.045
7.124,0.145,-0.040
7.126,0.160,-0.035
7.128,0.145,-0.035
7.130,0.135,-0.035
7.132,0.130,-0.035
7.134,0.100,-0.035
7.136,0.135,-0.035
7.138,0.120,-0.035
7.140,0.130,-0.035
7.142,0.130,-0.040
7.144,0.160,-0.040
7.146,0.130,-0.040
7.148,0.130,-0.045
7.150,0.120,-0.050
7.152,0.090,-0.055
7.154,0.105,-0.065
7.156,0.065,-0.070
7.158,0.095,-0.080
7.160,0.120,-0.080
7.162,0.130,-0.085
7.164,0.125,-0.080
7.166,0.120,-0.075
7.168,0.125,-0.070
7.170,0.150,-0.060
7.172,0.140,-0.055
7.174,0.100,-0.055
7.176,0.055,-0.055
7.178,0.075,-0.055
7.180,0.085,-0.065
7.182,0.120,-0.070
7.184,0.115,-0.075
7.186,0.110,-0.080
7.188,0.115,-0.085
7.190,0.115,-0.080
7.192,0.080,-0.075
7.194,0.100,-0.070
7.196,0.080,-0.065
7.198,0.070,-0.060
7.200,0.115,-0.055
7.202,0.160,-0.050
7.204,0.215,-0.050
7.206,0.140,-0.050
7.208,0.080,-0.050
7.210,0.120,-0.055
7.212,0.085,-0.050
7.214,0.095,-0.050
7.216,0.090,-0.045
7.218,0.100,-0.035
7.220,0.095,-0.030
7.222,0.115,-0.025
7.224,0.175,-0.025
7.226,0.165,-0.030
7.228,0.165,-0.035
7.230,0.150,-0.045
7.232,0.095,-0.055
7.234,0.075,-0.065
7.236,0.025,-0.070
7.238,0.030,-0.070
7.240,0.065,-0.070
7.242,0.125,-0.065
7.244,0.220,-0.050
7.246,0.205,-0.040
7.248,0.175,-0.025
7.250,0.150,-0.015
7.252,0.110,-0.010
7.254,0.070,-0.005
7.256,0.145,-0.005
7.258,0.130,-0.005
7.260,0.120,-0.005
7.262,0.145,-0.010
7.264,0.200,-0.010
7.266,0.195,-0.010
7.268,0.155,-0.005
7.270,0.155,0.000
7.272,0.195,0.005
7.274,0.185,0.010
7.276,0.135,0.015
7.278,0.185,0.020
7.280,0.140,0.025
7.282,0.145,0.030
7.284,0.220,0.035
7.286,0.255,0.035
7.288,0.210,0.040
7.290,0.215,0.040
7.292,0.230,0.045
7.294,0.215,0.045
7.296,0.205,0.050
7.298,0.225,0.045
7.300,0.135,0.040
7.302,0.150,0.030
7.304,0.240,0.020
7.306,0.170,0.005
7.308,0.150,-0.005
7.310,0.135,-0.015
7.312,0.130,-0.025
7.314,0.130,-0.030
7.316,0.085,-0.030
7.318,0.125,-0.025
7.320,0.160,-0.025
7.322,0.160,-0.025
7.324,0.120,-0.030
7.326,0.095,-0.035
7.328,0.095,-0.045
7.330,0.060,-0.060
7.332,0.090,-0.070
7.334,0.055,-0.075
7.336,0.060,-0.080
7.338,0.065,-0.075
7.340,0.080,-0.070
7.342,0.115,-0.060
7.344,0.150,-0.050
7.346,0.140,-0.050
7.348,0.090,-0.050
7.350,0.065,-0.055
7.352,0.085,-0.060
7.354,0.095,-0.070
7.356,0.060,-0.070
7.358,0.070,-0.070
7.360,0.085,-0.060
7.362,0.150,-0.050
7.364,0.140,-0.040
7.366,0.095,-0.030
7.368,0.085,-0.030
7.370,0.125,-0.035
7.372,0.085,-0.050
7.374,0.060,-0.060
7.376,0.060,-0.065
7.378,0.120,-0.050
7.380,0.150,-0.010
7.382,0.200,0.055
7.384,0.255,0.145
7.386,0.400,0.250
7.388,0.545,0.355
7.390,0.665,0.440
7.392,0.755,0.495
7.394,0.700,0.505
7.396,0.610,0.465
7.398,0.535,0.385
7.400,0.360,0.270
7.402,0.190,0.140
7.404,0.080,0.010
7.406,0.010,-0.100
7.408,-0.060,-0.175
7.410,-0.070,-0.220
7.412,-0.050,-0.225
7.414,-0.035,-0.205
7.416,0.005,-0.170
7.418,0.015,-0.135
7.420,-0.010,-0.100
7.422,0.080,-0.080
7.424,0.070,-0.070
7.426,0.045,-0.075
7.428,0.060,-0.085
7.430,0.035,-0.090
7.432,0.045,-0.095
7.434,0.070,-0.090
7.436,0.080,-0.080
7.438,0.075,-0.070
7.440,0.110,-0.055
7.442,0.115,-0.040
7.444,0.115,-0.035
7.446,0.085,-0.030
7.448,0.115,-0.035
7.450,0.080,-0.045
7.452,0.065,-0.055
7.454,0.080,-0.060
7.456,0.055,-0.060
7.458,0.090,-0.060
7.460,0.095,-0.055
7.462,0.115,-0.045
7.464,0.130,-0.035
7.466,0.090,-0.025
7.468,0.130,-0.025
7.470,0.110,-0.020
7.472,0.120,-0.025
7.474,0.130,-0.030
7.476,0.140,-0.035
7.478,0.060,-0.035
7.480,0.085,-0.035
7.482,0.135,-0.030
7.484,0.145,-0.020
7.486,0.195,-0.010
7.488,0.160,0.000
7.490,0.120,0.015
7.492,0.090,0.020
7.494,0.115,0.020
7.496,0.115,0.020
7.498,0.115,0.010
7.500,0.125,0.000
7.502,0.120,-0.010
7.504,0.170,-0.015
7.506,0.190,-0.020
7.508,0.145,-0.020
7.510,0.125,-0.015
7.512,0.080,-0.005
7.514,0.110,0.005
7.516,0.125,0.010
7.518,0.085,0.020
7.520,0.225,0.025
7.522,0.210,0.025
7.524,0.140,0.025
7.526,0.155,0.025
7.528,0.175,0.020
7.530,0.150,0.015
7.532,0.125,0.015
7.534,0.135,0.015
7.536,0.150,0.020
7.538,0.170,0.025
7.540,0.195,0.030
7.542,0.175,0.040
7.544,0.155,0.050
7.546,0.225,0.060
7.548,0.235,0.070
7.550,0.200,0.080
7.552,0.195,0.085
7.554,0.220,0.085
7.556,0.225,0.085
7.558,0.180,0.085
7.560,0.195,0.080
7.562,0.235,0.075
7.564,0.230,0.070
7.566,0.175,0.065
7.568,0.205,0.070
7.570,0.210,0.075
7.572,0.215,0.085
7.574,0.260,0.095
7.576,0.245,0.105
7.578,0.190,0.120
7.580,0.255,0.125
7.582,0.275,0.130
7.584,0.300,0.130
7.586,0.270,0.130
7.588,0.270,0.130
7.590,0.275,0.125
7.592,0.255,0.130
7.594,0.245,0.130
7.596,0.260,0.140
7.598,0.285,0.145
7.600,0.300,0.155
7.602,0.345,0.165
7.604,0.330,0.170
7.606,0.275,0.175
7.608,0.300,0.175
7.610,0.245,0.170
7.612,0.280,0.170
7.614,0.275,0.170
7.616,0.305,0.170
7.618,0.290,0.175
7.620,0.335,0.180
7.622,0.380,0.190
7.624,0.340,0.200
7.626,0.310,0.205
7.628,0.330,0.210
7.630,0.325,0.205
7.632,0.335,0.200
7.634,0.305,0.190
7.636,0.270,0.180
7.638,0.280,0.170
7.640,0.325,0.165
7.642,0.325,0.165
7.644,0.320,0.170
7.646,0.295,0.175
7.648,0.280,0.180
7.650,0.315,0.185
7.652,0.290,0.185
7.654,0.295,0.175
7.656,0.250,0.165
7.658,0.220,0.145
7.660,0.245,0.125
7.662,0.250,0.100
7.664,0.200,0.085
7.666,0.200,0.065
7.668,0.215,0.055
7.670,0.165,0.050
7.672,0.165,0.050
7.674,0.200,0.050
7.676,0.165,0.050
7.678,0.155,0.050
7.680,0.150,0.050
7.682,0.135,0.040
7.684,0.155,0.030
7.686,0.135,0.015
7.688,0.165,0.000
7.690,0.095,-0.015
7.692,0.075,-0.025
7.694,0.085,-0.030
7.696,0.090,-0.035
7.698,0.085,-0.035
7.700,0.095,-0.035
7.702,0.095,-0.030
7.704,0.090,-0.025
7.706,0.110,-0.025
7.708,0.145,-0.025
7.710,0.100,-0.025
7.712,0.055,-0.030
7.714,0.030,-0.035
7.716,0.050,-0.035
7.718,0.090,-0.040
7.720,0.125,-0.040
7.722,0.090,-0.040
7.724,0.090,-0.035
7.726,0.095,-0.035
7.728,0.125,-0.030
7.730,0.115,-0.030
7.732,0.060,-0.030
7.734,0.065,-0.035
7.736,0.075,-0.035
7.738,0.045,-0.040
7.740,0.105,-0.040
7.742,0.125,-0.045
7.744,0.080,-0.045
7.746,0.055,-0.045
7.748,0.035,-0.045
7.750,0.040,-0.040
7.752,0.100,-0.035
7.754,0.085,-0.035
7.756,0.075,-0.030
7.758,0.025,-0.030
7.760,0.090,-0.030
7.762,0.140,-0.035
7.764,0.115,-0.040
7.766,0.070,-0.045
7.768,0.060,-0.050
7.770,0.030,-0.055
7.772,0.030,-0.060
7.774,0.045,-0.060
7.776,0.030,-0.055
7.778,0.085,-0.050
7.780,0.125,-0.045
7.782,0.115,-0.040
7.784,0.105,-0.035
7.786,0.055,-0.030
7.788,0.070,-0.030
7.790,0.080,-0.030
7.792,0.090,-0.035
7.794,0.065,-0.040
7.796,0.045,-0.045
7.798,0.080,-0.050
7.800,0.095,-0.050
7.802,0.055,-0.055
7.804,0.080,-0.055
7.806,0.060,-0.050
7.808,0.055,-0.050
7.810,0.025,-0.050
7.812,0.055,-0.050
7.814,0.080,-0.050
7.816,0.060,-0.050
7.818,0.050,-0.045
7.820,0.095,-0.045
7.822,0.100,-0.040
7.824,0.080,-0.040
7.826,0.080,-0.040
7.828,0.045,-0.035
7.830,0.035,-0.035
7.832,0.060,-0.035
7.834,0.040,-0.035
7.836,0.050,-0.040
7.838,0.110,-0.040
7.840,0.090,-0.035
7.842,0.070,-0.035
7.844,0.090,-0.030
7.846,0.070,-0.030
7.848,0.040,-0.030
7.850,0.015,-0.035
7.852,0.100,-0.040
7.854,0.040,-0.050
7.856,0.010,-0.060
7.858,0.045,-0.065
7.860,0.085,-0.070
7.862,0.075,-0.075
7.864,0.065,-0.070
7.866,0.065,-0.065
7.868,0.020,-0.060
7.870,0.025,-0.050
7.872,0.090,-0.045
7.874,0.035,-0.045
7.876,0.050,-0.050
7.878,0.035,-0.055
7.880,0.045,-0.060
7.882,0.025,-0.070
7.884,0.025,-0.075
7.886,0.065,-0.075
7.888,0.100,-0.070
7.890,0.040,-0.060
7.892,0.050,-0.050
7.894,0.035,-0.040
7.896,0.015,-0.035
7.898,0.050,-0.030
7.900,0.095,-0.030
7.902,0.110,-0.040
7.904,0.105,-0.045
7.906,0.040,-0.060
7.908,-0.045,-0.065
7.910,0.015,-0.075
7.912,0.020,-0.075
7.914,0.020,-0.075
7.916,-0.005,-0.070
7.918,0.100,-0.070
7.920,0.105,-0.065
7.922,0.050,-0.060
7.924,-0.015,-0.060
7.926,0.065,-0.065
7.928,-0.010,-0.065
7.930,0.015,-0.070
7.932,0.025,-0.070
7.934,0.030,-0.070
7.936,0.030,-0.075
7.938,0.085,-0.075
7.940,0.085,-0.075
7.942,0.020,-0.075
7.944,0.020,-0.075
7.946,0.020,-0.075
7.948,-0.010,-0.075
7.950,0.025,-0.075
7.952,0.015,-0.075
7.954,0.025,-0.075
7.956,0.080,-0.075
7.958,0.040,-0.075
7.960,0.045,-0.070
7.962,0.055,-0.065
7.964,0.020,-0.065
7.966,0.030,-0.060
7.968,0.020,-0.055
7.970,0.055,-0.050
7.972,0.075,-0.045
7.974,0.045,-0.040
7.976,0.110,-0.040
7.978,0.060,-0.040
7.980,0.050,-0.045
7.982,0.045,-0.050
7.984,0.005,-0.060
7.986,0.000,-0.070
7.988,0.015,-0.075
7.990,0.015,-0.080
7.992,0.025,-0.085
7.994,0.000,-0.080
7.996,0.035,-0.075
7.998,0.085,-0.060
8.000,0.075,-0.045
8.002,0.080,-0.035
8.004,0.090,-0.020
8.006,0.060,-0.010
8.008,0.040,-0.010
8.010,0.025,-0.010
8.012,0.110,-0.010
8.014,0.080,-0.015
8.016,0.035,-0.020
8.018,0.105,-0.020
8.020,0.130,-0.020
8.022,0.110,-0.015
8.024,0.105,-0.005
8.026,0.120,0.005
8.028,0.085,0.015
8.030,0.105,0.025
8.032,0.075,0.030
8.034,0.130,0.035
8.036,0.110,0.035
8.038,0.130,0.030
8.040,0.150,0.025
8.042,0.130,0.020
8.044,0.095,0.015
8.046,0.115,0.015
8.048,0.075,0.015
8.050,0.125,0.020
8.052,0.135,0.020
8.054,0.095,0.020
8.056,0.075,0.020
8.058,0.165,0.015
8.060,0.080,0.005
8.062,0.075,-0.005
8.064,0.065,-0.015
8.066,0.070,-0.030
8.068,0.015,-0.040
8.070,0.005,-0.055
8.072,0.065,-0.060
8.074,-0.005,-0.070
8.076,0.015,-0.075
8.078,0.045,-0.080
8.080,0.030,-0.085
8.082,0.050,-0.085
8.084,0.045,-0.080
8.086,-0.005,-0.075
8.088,0.005,-0.065
8.090,0.020,-0.055
8.092,0.015,-0.050
8.094,0.020,-0.045
8.096,0.065,-0.045
8.098,0.070,-0.050
8.100,0.020,-0.055
8.102,0.045,-0.065
8.104,0.025,-0.075
8.106,-0.025,-0.080
8.108,-0.045,-0.075
8.110,0.010,-0.070
8.112,0.015,-0.055
8.114,0.020,-0.040
8.116,0.085,-0.030
8.118,0.125,-0.020
8.120,0.095,-0.025
8.122,0.050,-0.030
8.124,0.025,-0.040
8.126,0.025,-0.040
8.128,0.035,-0.035
8.130,0.090,-0.015
8.132,0.130,0.030
8.134,0.145,0.090
8.136,0.260,0.165
8.138,0.385,0.240
8.140,0.405,0.305
8.142,0.490,0.350
8.144,0.560,0.360
8.146,0.465,0.335
8.148,0.390,0.275
8.150,0.280,0.190
8.152,0.060,0.085
8.154,-0.075,-0.020
8.156,-0.105,-0.115
8.158,-0.075,-0.190
8.160,-0.125,-0.235
8.162,-0.155,-0.255
8.164,-0.125,-0.250
8.166,-0.085,-0.225
8.168,-0.135,-0.195
8.170,-0.095,-0.160
8.172,-0.115,-0.130
8.174,-0.055,-0.110
8.176,0.005,-0.095
8.178,0.020,-0.090
8.180,0.010,-0.085
8.182,0.060,-0.080
8.184,0.040,-0.075
8.186,-0.020,-0.070
8.188,0.000,-0.065
8.190,0.000,-0.060
8.192,0.005,-0.060
8.194,0.020,-0.055
8.196,0.040,-0.055
8.198,0.045,-0.055
8.200,0.060,-0.055
8.202,0.050,-0.055
8.204,0.000,-0.050
8.206,-0.055,-0.045
8.208,0.030,-0.045
8.210,0.040,-0.040
8.212,0.025,-0.040
8.214,0.020,-0.040
8.216,0.065,-0.040
8.218,0.100,-0.045
8.220,0.065,-0.040
8.222,0.065,-0.040
8.224,0.040,-0.030
8.226,0.025,-0.025
8.228,0.045,-0.015
8.230,0.080,-0.005
8.232,0.070,0.000
8.234,0.120,0.000
8.236,0.150,0.000
8.238,0.175,-0.005
8.240,0.030,-0.010
8.242,0.035,-0.015
8.244,0.080,-0.015
8.246,0.020,-0.015
8.248,0.065,-0.010
8.250,0.055,-0.005
8.252,0.095,0.000
8.254,0.120,0.005
8.256,0.095,0.010
8.258,0.075,0.015
8.260,0.120,0.015
8.262,0.130,0.015
8.264,0.145,0.010
8.266,0.055,0.010
8.268,0.025,0.015
8.270,0.085,0.015
8.272,0.055,0.015
8.274,0.105,0.015
8.276,0.115,0.015
8.278,0.150,0.015
8.280,0.095,0.015
8.282,0.055,0.015
8.284,0.085,0.015
8.286,0.115,0.020
8.288,0.120,0.025
8.290,0.145,0.035
8.292,0.130,0.040
8.294,0.080,0.050
8.296,0.140,0.060
8.298,0.145,0.065
8.300,0.105,0.070
8.302,0.085,0.065
8.304,0.175,0.065
8.306,0.130,0.060
8.308,0.150,0.055
8.310,0.140,0.055
8.312,0.140,0.055
8.314,0.170,0.060
8.316,0.185,0.075
8.318,0.140,0.090
8.320,0.195,0.105
8.322,0.210,0.120
8.324,0.190,0.130
8.326,0.170,0.140
8.328,0.190,0.140
8.330,0.200,0.135
8.332,0.190,0.125
8.334,0.240,0.110
8.336,0.175,0.100
8.338,0.180,0.095
8.340,0.195,0.100
8.342,0.185,0.110
8.344,0.185,0.125
8.346,0.170,0.140
8.348,0.265,0.160
8.350,0.245,0.180
8.352,0.195,0.190
8.354,0.195,0.190
8.356,0.330,0.185
8.358,0.325,0.175
8.360,0.195,0.165
8.362,0.220,0.155
8.364,0.260,0.145
8.366,0.195,0.145
8.368,0.225,0.145
8.370,0.230,0.155
8.372,0.210,0.160
8.374,0.235,0.170
8.376,0.295,0.175
8.378,0.245,0.175
8.380,0.230,0.175
8.382,0.270,0.170
8.384,0.210,0.165
8.386,0.170,0.160
8.388,0.215,0.155
8.390,0.215,0.155
8.392,0.210,0.150
8.394,0.240,0.145
8.396,0.265,0.140
8.398,0.215,0.135
8.400,0.165,0.125
8.402,0.180,0.120
8.404,0.190,0.110
8.406,0.200,0.105
8.408,0.175,0.100
8.410,0.145,0.095
8.412,0.120,0.095
8.414,0.130,0.090
8.416,0.130,0.080
8.418,0.135,0.070
8.420,0.110,0.055
8.422,0.115,0.040
8.424,0.070,0.020
8.426,0.080,0.000
8.428,0.035,-0.010
8.430,0.040,-0.020
8.432,0.060,-0.025
8.434,0.080,-0.025
8.436,0.105,-0.020
8.438,0.050,-0.015
8.440,0.075,-0.010
8.442,0.060,-0.010
8.444,0.040,-0.010
8.446,-0.005,-0.020
8.448,0.010,-0.030
8.450,0.055,-0.040
8.452,0.035,-0.050
8.454,0.000,-0.060
8.456,0.010,-0.070
8.458,-0.025,-0.075
8.460,0.000,-0.075
8.462,0.020,-0.070
8.464,0.005,-0.065
8.466,0.005,-0.060
8.468,0.010,-0.050
8.470,0.000,-0.040
8.472,0.000,-0.035
8.474,0.050,-0.025
8.476,0.080,-0.020
8.478,0.090,-0.020
8.480,0.065,-0.020
8.482,0.045,-0.025
8.484,-0.010,-0.030
8.486,-0.055,-0.040
8.488,-0.010,-0.055
8.490,0.015,-0.065
8.492,-0.015,-0.070
8.494,0.020,-0.075
8.496,0.015,-0.075
8.498,0.015,-0.070
8.500,0.040,-0.060
8.502,0.030,-0.055
8.504,0.025,-0.045
8.506,0.040,-0.040
8.508,0.040,-0.035
8.510,-0.005,-0.040
8.512,-0.015,-0.040
8.514,0.010,-0.050
8.516,0.015,-0.055
8.518,-0.045,-0.060
8.520,0.005,-0.065
8.522,-0.005,-0.065
8.524,0.020,-0.060
8.526,0.020,-0.060
8.528,-0.010,-0.050
8.530,0.005,-0.045
8.532,0.010,-0.040
8.534,0.055,-0.035
8.536,0.045,-0.030
8.538,0.005,-0.025
8.540,0.050,-0.025
8.542,0.040,-0.025
8.544,0.005,-0.030
8.546,0.010,-0.035
8.548,-0.020,-0.040
8.550,0.035,-0.050
8.552,-0.020,-0.055
8.554,0.015,-0.060
8.556,0.050,-0.060
8.558,0.010,-0.060
8.560,0.035,-0.055
8.562,0.025,-0.045
8.564,-0.015,-0.035
8.566,0.015,-0.025
8.568,0.005,-0.015
8.570,0.005,-0.005
8.572,0.055,-0.005
8.574,0.115,-0.010
8.576,0.085,-0.015
8.578,0.030,-0.030
8.580,-0.020,-0.045
8.582,0.015,-0.060
8.584,-0.055,-0.070
8.586,-0.050,-0.080
8.588,-0.035,-0.085
8.590,-0.055,-0.090
8.592,-0.025,-0.085
8.594,0.025,-0.080
8.596,0.025,-0.070
8.598,0.030,-0.065
8.600,0.015,-0.060
8.602,0.005,-0.055
8.604,-0.010,-0.055
8.606,0.000,-0.060
8.608,-0.015,-0.060
8.610,-0.050,-0.065
8.612,-0.045,-0.070
8.614,0.000,-0.075
8.616,0.035,-0.075
8.618,0.005,-0.075
8.620,0.025,-0.070
8.622,0.010,-0.065
8.624,-0.045,-0.060
8.626,-0.015,-0.055
8.628,-0.025,-0.050
8.630,-0.015,-0.045
8.632,-0.020,-0.045
8.634,0.055,-0.045
8.636,0.005,-0.050
8.638,-0.010,-0.055
8.640,0.020,-0.060
8.642,0.000,-0.070
8.644,-0.075,-0.070
8.646,-0.045,-0.075
8.648,-0.045,-0.070
8.650,-0.080,-0.065
8.652,-0.005,-0.060
8.654,0.045,-0.055
8.656,0.040,-0.045
8.658,0.025,-0.040
8.660,0.000,-0.035
8.662,0.010,-0.040
8.664,-0.020,-0.040
8.666,-0.025,-0.050
8.668,-0.050,-0.055
8.670,-0.010,-0.065
8.672,0.005,-0.070
8.674,-0.025,-0.070
8.676,-0.005,-0.070
8.678,0.005,-0.065
8.680,0.005,-0.055
8.682,0.005,-0.050
8.684,0.065,-0.040
8.686,0.080,-0.040
8.688,-0.005,-0.040
8.690,-0.065,-0.045
8.692,-0.055,-0.050
8.694,-0.020,-0.060
8.696,-0.025,-0.065
8.698,0.020,-0.070
8.700,0.015,-0.070
8.702,-0.015,-0.065
8.704,-0.040,-0.060
8.706,-0.020,-0.050
8.708,-0.035,-0.045
8.710,-0.040,-0.045
8.712,-0.015,-0.045
8.714,-0.015,-0.045
8.716,0.030,-0.050
8.718,0.045,-0.060
8.720,-0.005,-0.060
8.722,-0.050,-0.060
8.724,-0.060,-0.060
8.726,-0.030,-0.055
8.728,0.030,-0.050
8.730,0.015,-0.040
8.732,-0.015,-0.035
8.734,0.020,-0.035
8.736,0.015,-0.035
8.738,-0.015,-0.035
8.740,0.025,-0.040
8.742,-0.030,-0.040
8.744,-0.005,-0.040
8.746,0.020,-0.035
8.748,0.020,-0.030
8.750,0.045,-0.020
8.752,0.065,-0.005
8.754,0.080,0.010
8.756,0.115,0.020
8.758,0.050,0.035
8.760,0.100,0.045
8.762,0.080,0.050
8.764,0.040,0.050
8.766,0.060,0.050
8.768,0.070,0.045
8.770,0.050,0.035
8.772,0.065,0.025
8.774,0.110,0.015
8.776,0.065,0.005
8.778,0.015,-0.005
8.780,0.040,-0.010
8.782,0.030,-0.015
8.784,0.050,-0.015
8.786,0.015,-0.015
8.788,-0.005,-0.015
8.790,0.005,-0.015
8.792,0.000,-0.020
8.794,0.025,-0.025
8.796,0.070,-0.035
8.798,0.020,-0.045
8.800,-0.030,-0.055
8.802,-0.040,-0.065
8.804,-0.025,-0.070
8.806,-0.065,-0.075
8.808,-0.060,-0.075
8.810,-0.010,-0.070
8.812,-0.010,-0.065
8.814,0.005,-0.055
8.816,-0.020,-0.045
8.818,-0.055,-0.040
8.820,0.005,-0.035
8.822,0.055,-0.030
8.824,0.055,-0.030
8.826,-0.010,-0.035
8.828,-0.075,-0.045
8.830,-0.085,-0.055
8.832,-0.060,-0.065
8.834,-0.045,-0.080
8.836,-0.035,-0.085
8.838,-0.045,-0.090
8.840,-0.060,-0.085
8.842,-0.030,-0.075
8.844,-0.015,-0.065
8.846,-0.015,-0.050
8.848,-0.030,-0.040
8.850,-0.040,-0.035
8.852,0.030,-0.035
8.854,0.005,-0.045
8.856,-0.020,-0.050
8.858,-0.040,-0.055
8.860,-0.025,-0.045
8.862,-0.005,-0.020
8.864,0.055,0.030
8.866,0.165,0.095
8.868,0.230,0.175
8.870,0.320,0.255
8.872,0.400,0.325
8.874,0.485,0.370
8.876,0.510,0.380
8.878,0.425,0.355
8.880,0.315,0.290
8.882,0.180,0.195
8.884,0.040,0.090
8.886,-0.100,-0.020
8.888,-0.130,-0.110
8.890,-0.155,-0.180
8.892,-0.145,-0.215
8.894,-0.135,-0.225
8.896,-0.130,-0.205
8.898,-0.115,-0.170
8.900,-0.085,-0.135
8.902,-0.065,-0.100
8.904,-0.030,-0.075
8.906,-0.040,-0.060
8.908,-0.040,-0.060
8.910,-0.080,-0.065
8.912,-0.055,-0.075
8.914,0.015,-0.085
8.916,-0.030,-0.090
8.918,-0.070,-0.090
8.920,-0.060,-0.090
8.922,-0.025,-0.085
8.924,-0.025,-0.080
8.926,-0.060,-0.075
8.928,-0.050,-0.070
8.930,-0.040,-0.070
8.932,-0.030,-0.065
8.934,0.010,-0.060
8.936,-0.005,-0.055
8.938,0.015,-0.045
8.940,0.010,-0.035
8.942,0.000,-0.030
8.944,0.035,-0.020
8.946,0.035,-0.015
8.948,-0.005,-0.015
8.950,0.020,-0.015
8.952,0.025,-0.015
8.954,0.035,-0.015
8.956,0.050,-0.010
8.958,0.045,-0.010
8.960,0.025,-0.005
8.962,-0.020,0.000
8.964,0.005,0.005
8.966,0.005,0.005
8.968,-0.025,0.005
8.970,-0.010,0.000
8.972,0.060,-0.005
8.974,0.070,-0.005
8.976,0.025,-0.010
8.978,0.055,-0.005
8.980,0.045,0.000
8.982,-0.010,0.010
8.984,0.050,0.020
8.986,0.070,0.025
8.988,0.025,0.035
8.990,0.080,0.035
8.992,0.070,0.035
8.994,0.060,0.035
8.996,0.065,0.030
8.998,0.050,0.025
9.000,0.000,0.025
9.002,0.045,0.025
9.004,0.085,0.035
9.006,0.105,0.045
9.008,0.100,0.055
9.010,0.080,0.065
9.012,0.110,0.075
9.014,0.095,0.080
9.016,0.050,0.080
9.018,0.145,0.075
9.020,0.075,0.070
9.022,0.040,0.060
9.024,0.065,0.055
9.026,0.085,0.055
9.028,0.115,0.055
9.030,0.145,0.060
9.032,0.125,0.070
9.034,0.115,0.080
9.036,0.105,0.090
9.038,0.120,0.100
9.040,0.105,0.105
9.042,0.145,0.105
9.044,0.110,0.105
9.046,0.130,0.100
9.048,0.150,0.095
9.050,0.165,0.095
9.052,0.175,0.100
9.054,0.170,0.105
9.056,0.130,0.115
9.058,0.145,0.125
9.060,0.150,0.135
9.062,0.135,0.145
9.064,0.125,0.145
9.066,0.155,0.150
9.068,0.165,0.150
9.070,0.215,0.150
9.072,0.200,0.150
9.074,0.215,0.155
9.076,0.205,0.165
9.078,0.235,0.175
9.080,0.205,0.185
9.082,0.210,0.190
9.084,0.215,0.195
9.086,0.225,0.200
9.088,0.190,0.195
9.090,0.185,0.195
9.092,0.220,0.185
9.094,0.255,0.180
9.096,0.235,0.180
9.098,0.225,0.180
9.100,0.195,0.185
9.102,0.205,0.195
9.104,0.215,0.205
9.106,0.215,0.215
9.108,0.250,0.225
9.110,0.260,0.230
9.112,0.235,0.230
9.114,0.230,0.225
9.116,0.220,0.215
9.118,0.225,0.210
9.120,0.255,0.200
9.122,0.250,0.195
9.124,0.195,0.195
9.126,0.180,0.190
9.128,0.180,0.190
9.130,0.215,0.185
9.132,0.210,0.180
9.134,0.200,0.170
9.136,0.175,0.155
9.138,0.205,0.140
9.140,0.125,0.120
9.142,0.035,0.100
9.144,0.085,0.085
9.146,0.080,0.075
9.148,0.080,0.065
9.150,0.120,0.065
9.152,0.130,0.065
9.154,0.110,0.065
9.156,0.100,0.065
9.158,0.065,0.060
9.160,0.010,0.055
9.162,0.040,0.045
9.164,0.080,0.035
9.166,0.065,0.025
9.168,0.020,0.015
9.170,0.030,0.005
9.172,0.020,0.000
9.174,0.045,-0.005
9.176,0.040,0.000
9.178,0.020,0.000
9.180,-0.035,0.000
9.182,0.025,0.005
9.184,0.010,0.000
9.186,-0.010,0.000
9.188,0.010,-0.005
9.190,0.050,-0.010
9.192,0.010,-0.015
9.194,-0.010,-0.020
9.196,0.025,-0.025
9.198,0.015,-0.025
9.200,-0.020,-0.030
9.202,-0.020,-0.030
9.204,0.005,-0.035
9.206,-0.055,-0.035
9.208,0.000,-0.040
9.210,-0.030,-0.045
9.212,-0.025,-0.045
9.214,-0.025,-0.045
9.216,-0.010,-0.045
9.218,0.015,-0.045
9.220,-0.035,-0.040
9.222,-0.030,-0.035
9.224,0.005,-0.035
9.226,-0.020,-0.030
9.228,-0.020,-0.030
9.230,0.025,-0.030
9.232,0.025,-0.025
9.234,-0.025,-0.025
9.236,-0.040,-0.025
9.238,-0.080,-0.025
9.240,-0.045,-0.025
9.242,0.015,-0.025
9.244,0.030,-0.025
9.246,0.010,-0.030
9.248,-0.025,-0.035
9.250,0.010,-0.035
9.252,-0.055,-0.040
9.254,-0.055,-0.045
9.256,0.025,-0.050
9.258,-0.050,-0.050
9.260,-0.070,-0.045
9.262,-0.020,-0.040
9.264,-0.010,-0.035
9.266,-0.020,-0.030
9.268,0.040,-0.025
9.270,0.040,-0.020
9.272,0.005,-0.020
9.274,0.000,-0.015
9.276,0.020,-0.015
9.278,0.000,-0.015
9.280,-0.055,-0.020
9.282,-0.040,-0.025
9.284,-0.035,-0.030
9.286,-0.030,-0.040
9.288,-0.010,-0.050
9.290,0.020,-0.055
9.292,-0.035,-0.060
9.294,-0.025,-0.065
9.296,-0.025,-0.060
9.298,-0.025,-0.055
9.300,-0.010,-0.045
9.302,-0.015,-0.035
9.304,0.040,-0.025
9.306,-0.025,-0.020
9.308,-0.040,-0.015
9.310,0.010,-0.015
9.312,-0.025,-0.020
9.314,-0.025,-0.025
9.316,-0.005,-0.030
9.318,-0.010,-0.035
9.320,-0.035,-0.035
9.322,0.005,-0.035
9.324,-0.020,-0.025
9.326,-0.040,-0.020
9.328,0.005,-0.015
9.330,0.000,-0.010
9.332,-0.010,-0.015
9.334,-0.020,-0.020
9.336,-0.015,-0.030
9.338,-0.060,-0.040
9.340,-0.075,-0.050
9.342,-0.065,-0.060
9.344,-0.035,-0.060
9.346,-0.065,-0.055
9.348,0.010,-0.050
9.350,0.010,-0.040
9.352,-0.005,-0.030
9.354,-0.045,-0.020
9.356,-0.025,-0.015
9.358,-0.005,-0.015
9.360,0.015,-0.020
9.362,-0.015,-0.025
9.364,-0.040,-0.030
9.366,-0.045,-0.035
9.368,-0.040,-0.040
9.370,0.010,-0.045
9.372,0.005,-0.050
9.374,-0.030,-0.050
9.376,-0.030,-0.050
9.378,-0.120,-0.055
9.380,-0.015,-0.055
9.382,0.000,-0.055
9.384,-0.045,-0.055
9.386,-0.060,-0.055
9.388,-0.060,-0.050
9.390,0.015,-0.040
9.392,0.000,-0.035
9.394,-0.025,-0.030
9.396,-0.005,-0.025
9.398,-0.030,-0.020
9.400,-0.005,-0.020
9.402,-0.005,-0.025
9.404,-0.025,-0.030
9.406,-0.055,-0.040
9.408,-0.025,-0.045
9.410,-0.015,-0.045
9.412,-0.020,-0.050
9.414,-0.040,-0.045
9.416,0.005,-0.040
9.418,-0.005,-0.035
9.420,-0.085,-0.030
9.422,-0.030,-0.025
9.424,-0.030,-0.020
9.426,-0.035,-0.020
9.428,0.035,-0.020
9.430,0.095,-0.020
9.432,-0.015,-0.025
9.434,-0.035,-0.030
9.436,-0.020,-0.035
9.438,-0.050,-0.040
9.440,-0.030,-0.045
9.442,-0.020,-0.050
9.444,-0.005,-0.055
9.446,-0.040,-0.065
9.448,-0.035,-0.070
9.450,-0.085,-0.070
9.452,-0.040,-0.075
9.454,-0.035,-0.070
9.456,-0.020,-0.065
9.458,-0.020,-0.055
9.460,-0.030,-0.045
9.462,-0.050,-0.035
9.464,-0.030,-0.025
9.466,-0.015,-0.015
9.468,0.050,-0.010
9.470,0.040,-0.005
9.472,0.035,0.000
9.474,0.025,0.000
9.476,0.030,0.000
9.478,-0.005,0.000
9.480,0.015,0.005
9.482,0.035,0.005
9.484,0.025,0.010
9.486,0.035,0.020
9.488,0.075,0.025
9.490,0.050,0.035
9.492,0.085,0.045
9.494,0.075,0.050
9.496,0.090,0.060
9.498,0.030,0.065
9.500,0.080,0.065
9.502,0.130,0.065
9.504,0.045,0.060
9.506,0.050,0.055
9.508,0.105,0.050
9.510,0.060,0.040
9.512,0.050,0.030
9.514,0.065,0.020
9.516,0.070,0.010
9.518,0.010,0.005
9.520,-0.030,-0.005
9.522,-0.010,-0.010
9.524,-0.015,-0.015
9.526,-0.020,-0.020
9.528,-0.010,-0.025
9.530,-0.005,-0.035
9.532,0.010,-0.040
9.534,-0.065,-0.050
9.536,-0.035,-0.060
9.538,-0.025,-0.070
9.540,-0.005,-0.075
9.542,0.000,-0.070
9.544,-0.065,-0.065
9.546,-0.065,-0.055
9.548,-0.040,-0.045
9.550,-0.020,-0.035
9.552,-0.015,-0.030
9.554,-0.010,-0.025
9.556,-0.035,-0.025
9.558,-0.050,-0.035
9.560,0.015,-0.045
9.562,-0.045,-0.050
9.564,-0.075,-0.055
9.566,-0.055,-0.060
9.568,0.005,-0.055
9.570,-0.010,-0.050
9.572,-0.015,-0.040
9.574,-0.045,-0.035
9.576,-0.060,-0.035
9.578,-0.030,-0.045
9.580,-0.020,-0.055
9.582,-0.065,-0.065
9.584,-0.055,-0.070
9.586,-0.030,-0.065
9.588,-0.020,-0.040
9.590,0.025,0.010
9.592,0.070,0.080
9.594,0.215,0.165
9.596,0.290,0.255
9.598,0.375,0.340
9.600,0.465,0.400
9.602,0.525,0.430
9.604,0.485,0.420
9.606,0.395,0.370
9.608,0.355,0.285
9.610,0.165,0.180
9.612,-0.035,0.070
9.614,-0.105,-0.040
9.616,-0.180,-0.125
9.618,-0.195,-0.180
9.620,-0.160,-0.210
9.622,-0.125,-0.205
9.624,-0.145,-0.185
9.626,-0.115,-0.155
9.628,-0.070,-0.120
9.630,-0.100,-0.095
9.632,-0.080,-0.075
9.634,-0.045,-0.070
9.636,-0.080,-0.070
9.638,-0.080,-0.070
9.640,-0.050,-0.075
9.642,-0.060,-0.075
9.644,-0.070,-0.070
9.646,-0.010,-0.065
9.648,0.020,-0.055
9.650,-0.025,-0.045
9.652,-0.025,-0.040
9.654,0.000,-0.035
9.656,0.020,-0.040
9.658,-0.045,-0.045
9.660,-0.080,-0.050
9.662,-0.085,-0.055
9.664,-0.015,-0.060
9.666,0.030,-0.060
9.668,0.020,-0.055
9.670,-0.060,-0.055
9.672,-0.050,-0.050
9.674,-0.025,-0.050
9.676,-0.045,-0.055
9.678,-0.080,-0.055
9.680,-0.050,-0.060
9.682,-0.050,-0.065
9.684,-0.035,-0.065
9.686,0.000,-0.060
9.688,-0.010,-0.055
9.690,-0.030,-0.045
9.692,-0.045,-0.035
9.694,0.025,-0.025
9.696,0.010,-0.015
9.698,-0.025,-0.010
9.700,-0.020,-0.010
9.702,0.020,-0.010
9.704,0.030,-0.010
9.706,0.010,-0.015
9.708,0.025,-0.020
9.710,0.020,-0.025
9.712,-0.010,-0.025
9.714,-0.035,-0.025
9.716,-0.025,-0.025
9.718,0.015,-0.025
9.720,-0.025,-0.020
9.722,0.010,-0.015
9.724,0.005,-0.010
9.726,0.025,-0.010
9.728,0.070,-0.005
9.730,0.065,0.000
9.732,0.060,0.005
9.734,0.050,0.005
9.736,0.020,0.010
9.738,0.020,0.015
9.740,0.015,0.020
9.742,0.055,0.020
9.744,0.030,0.025
9.746,0.080,0.025
9.748,0.070,0.030
9.750,0.070,0.030
9.752,0.040,0.035
9.754,0.055,0.035
9.756,0.065,0.040
9.758,0.120,0.045
9.760,0.070,0.045
9.762,0.025,0.050
9.764,0.055,0.050
9.766,0.100,0.055
9.768,0.065,0.055
9.770,0.095,0.060
9.772,0.115,0.060
9.774,0.110,0.060
9.776,0.080,0.065
9.778,0.080,0.070
9.780,0.080,0.075
9.782,0.095,0.085
9.784,0.110,0.090
9.786,0.205,0.100
9.788,0.175,0.110
9.790,0.150,0.120
9.792,0.130,0.125
9.794,0.130,0.130
9.796,0.125,0.135
9.798,0.155,0.135
9.800,0.155,0.135
9.802,0.145,0.140
9.804,0.170,0.140
9.806,0.200,0.145
9.808,0.205,0.145
9.810,0.205,0.150
9.812,0.165,0.155
9.814,0.140,0.155
9.816,0.125,0.155
9.818,0.195,0.155
9.820,0.200,0.155
9.822,0.155,0.155
9.824,0.175,0.160
9.826,0.230,0.160
9.828,0.215,0.165
9.830,0.215,0.170
9.832,0.220,0.175
9.834,0.215,0.180
9.836,0.190,0.180
9.838,0.205,0.180
9.840,0.235,0.180
9.842,0.160,0.175
9.844,0.180,0.175
9.846,0.230,0.170
9.848,0.240,0.165
9.850,0.225,0.165
9.852,0.175,0.160
9.854,0.185,0.155
9.856,0.130,0.150
9.858,0.105,0.135
9.860,0.135,0.125
9.862,0.100,0.110
9.864,0.105,0.095
9.866,0.115,0.085
9.868,0.130,0.075
9.870,0.140,0.070
9.872,0.140,0.065
9.874,0.120,0.065
9.876,0.035,0.060
9.878,0.030,0.055
9.880,0.050,0.045
9.882,0.050,0.030
9.884,0.080,0.015
9.886,0.010,0.000
9.888,-0.010,-0.020
9.890,-0.010,-0.030
9.892,0.055,-0.035
9.894,0.005,-0.035
9.896,-0.015,-0.030
9.898,0.025,-0.020
9.900,-0.025,-0.010
9.902,0.005,-0.005
9.904,0.005,0.000
9.906,0.035,0.000
9.908,0.050,-0.005
9.910,0.005,-0.020
9.912,-0.015,-0.035
9.914,-0.060,-0.045
9.916,-0.060,-0.060
9.918,-0.035,-0.070
9.920,-0.010,-0.075
9.922,-0.060,-0.075
9.924,-0.015,-0.070
9.926,0.010,-0.065
9.928,-0.025,-0.060
9.930,-0.035,-0.055
9.932,-0.065,-0.050
9.934,-0.025,-0.050
9.936,-0.040,-0.050
9.938,-0.065,-0.050
9.940,-0.055,-0.055
9.942,-0.030,-0.055
9.944,0.010,-0.055
9.946,0.010,-0.055
9.948,-0.020,-0.055
9.950,-0.015,-0.055
9.952,0.020,-0.055
9.954,-0.065,-0.055
9.956,-0.055,-0.060
9.958,-0.035,-0.070
9.960,-0.095,-0.075
9.962,-0.055,-0.085
9.964,-0.020,-0.090
9.966,0.010,-0.090
9.968,-0.040,-0.085
9.970,-0.035,-0.075
9.972,-0.020,-0.060
9.974,-0.020,-0.050
9.976,-0.015,-0.040
9.978,-0.010,-0.040
9.980,-0.055,-0.040
9.982,-0.085,-0.045
9.984,-0.035,-0.055
9.986,-0.020,-0.065
9.988,-0.020,-0.075
9.990,-0.020,-0.080
9.992,-0.005,-0.080
9.994,-0.070,-0.075
9.996,-0.035,-0.065
9.998,-0.045,-0.050
