'Elapsed time','ECG I','ECG I filtered'
'seconds','mV','mV'
0.000,0.275,0.085
0.002,0.385,0.035
0.004,0.310,-0.010
0.006,0.185,-0.050
0.008,-0.015,-0.075
0.010,0.135,-0.095
0.012,-0.025,-0.095
0.014,-0.040,-0.090
0.016,0.100,-0.075
0.018,0.120,-0.060
0.020,0.200,-0.045
0.022,0.330,-0.035
0.024,0.255,-0.035
0.026,0.140,-0.040
0.028,0.160,-0.055
0.030,0.080,-0.065
0.032,0.030,-0.075
0.034,-0.080,-0.080
0.036,0.010,-0.075
0.038,0.105,-0.065
0.040,0.205,-0.045
0.042,0.435,-0.025
0.044,0.355,0.000
0.046,0.315,0.020
0.048,0.185,0.040
0.050,0.170,0.055
0.052,0.010,0.070
0.054,0.135,0.085
0.056,0.265,0.105
0.058,0.415,0.120
0.060,0.445,0.135
0.062,0.520,0.145
0.064,0.525,0.140
0.066,0.375,0.125
0.068,0.255,0.095
0.070,0.115,0.050
0.072,-0.045,0.000
0.074,-0.100,-0.055
0.076,0.055,-0.105
0.078,0.110,-0.145
0.080,0.175,-0.175
0.082,0.170,-0.190
0.084,0.040,-0.190
0.086,0.065,-0.180
0.088,0.010,-0.170
0.090,-0.075,-0.155
0.092,-0.155,-0.140
0.094,0.040,-0.130
0.096,0.050,-0.120
0.098,-0.015,-0.110
0.100,0.210,-0.105
0.102,0.285,-0.095
0.104,0.280,-0.080
0.106,0.235,-0.070
0.108,0.190,-0.055
0.110,0.070,-0.040
0.112,-0.045,-0.030
0.114,0.045,-0.025
0.116,0.060,-0.020
0.118,0.175,-0.025
0.120,0.255,-0.030
0.122,0.295,-0.040
0.124,0.350,-0.045
0.126,0.235,-0.055
0.128,0.075,-0.060
0.130,0.130,-0.060
0.132,-0.025,-0.050
0.134,-0.065,-0.045
0.136,-0.060,-0.030
0.138,0.190,-0.020
0.140,0.450,-0.005
0.142,0.440,0.000
0.144,0.305,0.005
0.146,0.210,0.000
0.148,0.265,-0.005
0.150,-0.005,-0.015
0.152,-0.080,-0.030
0.154,0.130,-0.045
0.156,0.015,-0.055
0.158,0.155,-0.055
0.160,0.335,-0.055
0.162,0.310,-0.045
0.164,0.295,-0.030
0.166,0.250,-0.010
0.168,0.235,0.005
0.170,0.145,0.015
0.172,0.055,0.020
0.174,0.000,0.015
0.176,0.145,0.005
0.178,0.230,-0.020
0.180,0.365,-0.040
0.182,0.335,-0.065
0.184,0.140,-0.085
0.186,0.100,-0.095
0.188,0.120,-0.095
0.190,0.030,-0.085
0.192,0.010,-0.065
0.194,0.065,-0.045
0.196,0.140,-0.015
0.198,0.260,0.010
0.200,0.395,0.030
0.202,0.450,0.050
0.204,0.385,0.060
0.206,0.355,0.070
0.208,0.240,0.075
0.210,0.035,0.075
0.212,0.100,0.075
0.214,0.285,0.075
0.216,0.220,0.075
0.218,0.325,0.070
0.220,0.420,0.070
0.222,0.430,0.070
0.224,0.350,0.070
0.226,0.330,0.070
0.228,0.260,0.070
0.230,0.140,0.070
0.232,0.065,0.075
0.234,0.195,0.075
0.236,0.285,0.080
0.238,0.400,0.085
0.240,0.605,0.100
0.242,0.355,0.115
0.244,0.330,0.140
0.246,0.455,0.160
0.248,0.445,0.185
0.250,0.330,0.200
0.252,0.295,0.215
0.254,0.285,0.215
0.256,0.290,0.210
0.258,0.450,0.200
0.260,0.595,0.185
0.262,0.525,0.170
0.264,0.525,0.160
0.266,0.460,0.155
0.268,0.350,0.155
0.270,0.180,0.160
0.272,0.215,0.165
0.274,0.315,0.165
0.276,0.445,0.165
0.278,0.295,0.160
0.280,0.505,0.145
0.282,0.510,0.130
0.284,0.405,0.115
0.286,0.395,0.095
0.288,0.290,0.080
0.290,0.120,0.070
0.292,0.055,0.060
0.294,0.100,0.050
0.296,0.255,0.045
0.298,0.300,0.035
0.300,0.465,0.030
0.302,0.400,0.025
0.304,0.445,0.020
0.306,0.200,0.020
0.308,0.175,0.015
0.310,0.025,0.015
0.312,0.050,0.015
0.314,0.205,0.010
0.316,0.195,0.005
0.318,0.230,0.000
0.320,0.370,-0.010
0.322,0.395,-0.020
0.324,0.300,-0.025
0.326,0.275,-0.025
0.328,0.035,-0.025
0.330,-0.075,-0.020
0.332,0.120,-0.015
0.334,0.130,-0.015
0.336,0.215,-0.015
0.338,0.225,-0.020
0.340,0.385,-0.020
0.342,0.235,-0.025
0.344,0.370,-0.025
0.346,0.315,-0.025
0.348,0.100,-0.015
0.350,0.010,-0.005
0.352,0.160,0.005
0.354,0.175,0.015
0.356,0.225,0.020
0.358,0.200,0.015
0.360,0.335,0.005
0.362,0.350,-0.010
0.364,0.295,-0.030
0.366,0.215,-0.045
0.368,0.155,-0.055
0.370,0.015,-0.060
0.372,-0.015,-0.060
0.374,0.100,-0.055
0.376,0.335,-0.050
0.378,0.075,-0.045
0.380,0.310,-0.040
0.382,0.385,-0.040
0.384,0.305,-0.045
0.386,0.200,-0.045
0.388,0.105,-0.050
0.390,0.040,-0.050
0.392,0.020,-0.045
0.394,0.160,-0.035
0.396,0.205,-0.025
0.398,0.300,-0.010
0.400,0.385,0.005
0.402,0.375,0.015
0.404,0.285,0.025
0.406,0.315,0.030
0.408,0.205,0.030
0.410,0.055,0.025
0.412,0.045,0.015
0.414,0.140,0.010
0.416,0.300,0.005
0.418,0.335,0.000
0.420,0.385,-0.005
0.422,0.365,-0.005
0.424,0.225,-0.005
0.426,0.240,0.000
0.428,0.135,0.000
0.430,0.080,0.000
0.432,0.050,0.000
0.434,0.100,-0.010
0.436,0.235,-0.015
0.438,0.330,-0.020
0.440,0.445,-0.025
0.442,0.330,-0.025
0.444,0.260,-0.025
0.446,0.165,-0.015
0.448,0.150,-0.005
0.450,0.165,0.010
0.452,0.125,0.025
0.454,0.120,0.030
0.456,0.295,0.035
0.458,0.365,0.035
0.460,0.465,0.030
0.462,0.425,0.025
0.464,0.305,0.015
0.466,0.140,0.010
0.468,0.200,0.000
0.470,0.065,0.000
0.472,0.055,0.000
0.474,0.215,0.000
0.476,0.215,0.000
0.478,0.275,0.000
0.480,0.455,0.000
0.482,0.420,0.000
0.484,0.285,-0.005
0.486,0.205,-0.005
0.488,0.140,-0.010
0.490,0.105,-0.010
0.492,0.120,-0.015
0.494,0.145,-0.020
0.496,0.205,-0.025
0.498,0.430,-0.030
0.500,0.280,-0.035
0.502,0.200,-0.035
0.504,0.315,-0.035
0.506,0.265,-0.030
0.508,0.095,-0.025
0.510,0.060,-0.015
0.512,0.175,-0.010
0.514,0.190,-0.005
0.516,0.170,-0.010
0.518,0.345,-0.015
0.520,0.315,-0.030
0.522,0.385,-0.045
0.524,0.240,-0.055
0.526,0.100,-0.065
0.528,0.180,-0.065
0.530,0.005,-0.060
0.532,-0.015,-0.045
0.534,0.190,-0.025
0.536,0.295,-0.010
0.538,0.370,0.005
0.540,0.360,0.010
0.542,0.380,0.010
0.544,0.330,0.010
0.546,0.235,0.005
0.548,0.160,0.005
0.550,0.070,0.015
0.552,0.125,0.030
0.554,0.200,0.055
0.556,0.400,0.085
0.558,0.450,0.110
0.560,0.590,0.130
0.562,0.675,0.140
0.564,0.525,0.130
0.566,0.300,0.110
0.568,0.075,0.075
0.570,0.095,0.030
0.572,0.060,-0.020
0.574,0.080,-0.065
0.576,0.140,-0.105
0.578,0.330,-0.140
0.580,0.270,-0.165
0.582,0.225,-0.180
0.584,0.115,-0.190
0.586,-0.050,-0.190
0.588,-0.105,-0.185
0.590,-0.080,-0.175
0.592,-0.055,-0.160
0.594,0.085,-0.140
0.596,0.225,-0.115
0.598,0.280,-0.090
0.600,0.425,-0.070
0.602,0.365,-0.050
0.604,0.275,-0.040
0.606,0.150,-0.040
0.608,0.075,-0.040
0.610,-0.070,-0.050
0.612,0.115,-0.055
0.614,0.120,-0.055
0.616,0.295,-0.055
0.618,0.475,-0.045
0.620,0.400,-0.030
0.622,0.415,-0.020
0.624,0.145,-0.010
0.626,0.235,-0.005
0.628,0.100,-0.005
0.630,0.090,-0.015
0.632,0.110,-0.030
0.634,0.190,-0.040
0.636,0.240,-0.045
0.638,0.360,-0.045
0.640,0.420,-0.035
0.642,0.360,-0.015
0.644,0.110,0.000
0.646,0.400,0.020
0.648,0.285,0.030
0.650,0.055,0.030
0.652,0.075,0.020
0.654,0.235,0.000
0.656,0.190,-0.020
0.658,0.440,-0.035
0.660,0.400,-0.045
0.662,0.390,-0.045
0.664,0.260,-0.035
0.666,0.250,-0.015
0.668,0.110,0.010
0.670,0.115,0.030
0.672,0.145,0.045
0.674,0.235,0.055
0.676,0.355,0.055
0.678,0.435,0.045
0.680,0.475,0.035
0.682,0.410,0.020
0.684,0.315,0.010
0.686,0.265,0.000
0.688,0.090,-0.005
0.690,0.060,-0.010
0.692,0.135,-0.015
0.694,0.305,-0.015
0.696,0.295,-0.015
0.698,0.455,-0.015
0.700,0.390,-0.005
0.702,0.310,0.005
0.704,0.385,0.020
0.706,0.190,0.040
0.708,0.160,0.055
0.710,0.230,0.075
0.712,0.275,0.080
0.714,0.290,0.085
0.716,0.440,0.075
0.718,0.565,0.060
0.720,0.485,0.045
0.722,0.485,0.035
0.724,0.250,0.025
0.726,0.170,0.025
0.728,0.100,0.035
0.730,0.120,0.055
0.732,0.345,0.075
0.734,0.475,0.100
0.736,0.585,0.125
0.738,0.665,0.145
0.740,0.505,0.160
0.742,0.510,0.170
0.744,0.435,0.175
0.746,0.305,0.180
0.748,0.330,0.185
0.750,0.300,0.190
0.752,0.445,0.200
0.754,0.490,0.205
0.756,0.570,0.210
0.758,0.675,0.210
0.760,0.670,0.210
0.762,0.505,0.210
0.764,0.485,0.210
0.766,0.385,0.205
0.768,0.280,0.200
0.770,0.225,0.200
0.772,0.470,0.195
0.774,0.465,0.185
0.776,0.630,0.180
0.778,0.710,0.170
0.780,0.565,0.155
0.782,0.525,0.145
0.784,0.310,0.130
0.786,0.305,0.115
0.788,0.205,0.100
0.790,0.170,0.090
0.792,0.280,0.080
0.794,0.420,0.075
0.796,0.520,0.065
0.798,0.545,0.060
0.800,0.425,0.050
0.802,0.250,0.040
0.804,0.370,0.030
0.806,0.200,0.015
0.808,0.155,0.000
0.810,0.105,-0.010
0.812,0.200,-0.025
0.814,0.325,-0.035
0.816,0.320,-0.040
0.818,0.365,-0.040
0.820,0.450,-0.035
0.822,0.350,-0.030
0.824,0.155,-0.020
0.826,0.090,-0.015
0.828,0.235,-0.010
0.830,0.115,-0.005
0.832,0.235,-0.010
0.834,0.360,-0.015
0.836,0.350,-0.020
0.838,0.455,-0.025
0.840,0.435,-0.025
0.842,0.370,-0.025
0.844,0.350,-0.020
0.846,0.070,-0.010
0.848,0.045,-0.005
0.850,0.055,0.005
0.852,0.350,0.005
0.854,0.340,0.005
0.856,0.460,0.000
0.858,0.465,-0.010
0.860,0.455,-0.015
0.862,0.325,-0.020
0.864,0.115,-0.025
0.866,0.085,-0.030
0.868,0.160,-0.030
0.870,0.160,-0.025
0.872,0.295,-0.020
0.874,0.240,-0.015
0.876,0.475,-0.015
0.878,0.390,-0.010
0.880,0.440,-0.010
0.882,0.290,-0.010
0.884,0.305,-0.015
0.886,0.140,-0.020
0.888,0.185,-0.025
0.890,-0.010,-0.030
0.892,0.295,-0.035
0.894,0.235,-0.040
0.896,0.420,-0.040
0.898,0.380,-0.040
0.900,0.425,-0.030
0.902,0.405,-0.020
0.904,0.310,-0.010
0.906,0.150,-0.005
0.908,0.125,0.000
0.910,0.150,0.000
0.912,0.215,-0.005
0.914,0.345,-0.015
0.916,0.410,-0.030
0.918,0.465,-0.040
0.920,0.345,-0.055
0.922,0.300,-0.060
0.924,0.260,-0.055
0.926,0.085,-0.045
0.928,0.110,-0.035
0.930,0.170,-0.020
0.932,0.265,-0.005
0.934,0.360,0.005
0.936,0.430,0.010
0.938,0.485,0.005
0.940,0.405,-0.005
0.942,0.310,-0.015
0.944,0.270,-0.025
0.946,0.120,-0.035
0.948,0.040,-0.040
0.950,0.140,-0.040
0.952,0.275,-0.040
0.954,0.265,-0.030
0.956,0.485,-0.020
0.958,0.530,-0.010
0.960,0.475,0.000
0.962,0.195,0.015
0.964,0.310,0.020
0.966,0.250,0.030
0.968,0.155,0.035
0.970,0.230,0.035
0.972,0.315,0.030
0.974,0.345,0.020
0.976,0.410,0.010
0.978,0.470,-0.005
0.980,0.535,-0.015
0.982,0.380,-0.030
0.984,0.030,-0.035
0.986,0.115,-0.035
0.988,0.175,-0.035
0.990,0.245,-0.030
0.992,0.230,-0.020
0.994,0.340,-0.015
0.996,0.465,-0.015
0.998,0.480,-0.015
1.000,0.385,-0.020
1.002,0.275,-0.030
1.004,0.275,-0.040
1.006,0.005,-0.050
1.008,0.065,-0.055
1.010,0.210,-0.055
1.012,0.200,-0.055
1.014,0.380,-0.050
1.016,0.510,-0.045
1.018,0.480,-0.045
1.020,0.355,-0.040
1.022,0.205,-0.040
1.024,0.060,-0.045
1.026,0.060,-0.045
1.028,0.180,-0.045
1.030,0.220,-0.040
1.032,0.250,-0.035
1.034,0.340,-0.025
1.036,0.610,-0.015
1.038,0.495,-0.005
1.040,0.340,0.000
1.042,0.255,-0.005
1.044,0.170,-0.010
1.046,0.115,-0.020
1.048,0.135,-0.035
1.050,0.200,-0.045
1.052,0.300,-0.050
1.054,0.400,-0.045
1.056,0.465,-0.030
1.058,0.455,-0.005
1.060,0.450,0.025
1.062,0.425,0.060
1.064,0.195,0.085
1.066,0.095,0.105
1.068,0.550,0.110
1.070,0.360,0.100
1.072,0.265,0.075
1.074,0.525,0.040
1.076,0.505,0.000
1.078,0.395,-0.045
1.080,0.215,-0.085
1.082,0.250,-0.120
1.084,0.170,-0.145
1.086,-0.070,-0.160
1.088,-0.040,-0.170
1.090,0.060,-0.175
1.092,0.235,-0.170
1.094,0.355,-0.165
1.096,0.290,-0.155
1.098,0.290,-0.145
1.100,0.305,-0.125
1.102,0.195,-0.110
1.104,0.140,-0.090
1.106,0.070,-0.070
1.108,0.160,-0.055
1.110,0.260,-0.045
1.112,0.265,-0.035
1.114,0.405,-0.035
1.116,0.495,-0.035
1.118,0.430,-0.040
1.120,0.275,-0.045
1.122,0.280,-0.050
1.124,0.155,-0.050
1.126,0.105,-0.045
1.128,0.175,-0.035
1.130,0.285,-0.030
1.132,0.300,-0.020
1.134,0.475,-0.020
1.136,0.450,-0.020
1.138,0.395,-0.030
1.140,0.355,-0.040
1.142,0.245,-0.050
1.144,0.085,-0.060
1.146,0.130,-0.065
1.148,0.085,-0.065
1.150,0.205,-0.055
1.152,0.275,-0.040
1.154,0.530,-0.020
1.156,0.550,-0.005
1.158,0.450,0.005
1.160,0.325,0.010
1.162,0.250,0.010
1.164,0.120,0.000
1.166,0.250,-0.010
1.168,0.175,-0.020
1.170,0.245,-0.030
1.172,0.370,-0.035
1.174,0.515,-0.035
1.176,0.335,-0.030
1.178,0.415,-0.020
1.180,0.405,-0.015
1.182,0.320,-0.015
1.184,0.225,-0.015
1.186,0.165,-0.025
1.188,0.205,-0.035
1.190,0.090,-0.040
1.192,0.210,-0.045
1.194,0.520,-0.040
1.196,0.480,-0.030
1.198,0.515,-0.010
1.200,0.450,0.010
1.202,0.355,0.030
1.204,0.240,0.045
1.206,0.225,0.055
1.208,0.215,0.055
1.210,0.295,0.045
1.212,0.305,0.035
1.214,0.500,0.020
1.216,0.500,0.005
1.218,0.455,0.000
1.220,0.415,0.000
1.222,0.430,0.005
1.224,0.210,0.015
1.226,0.165,0.035
1.228,0.170,0.055
1.230,0.365,0.075
1.232,0.420,0.090
1.234,0.635,0.110
1.236,0.600,0.120
1.238,0.585,0.125
1.240,0.505,0.130
1.242,0.390,0.125
1.244,0.265,0.120
1.246,0.305,0.110
1.248,0.345,0.105
1.250,0.480,0.100
1.252,0.495,0.100
1.254,0.520,0.110
1.256,0.465,0.125
1.258,0.630,0.145
1.260,0.550,0.170
1.262,0.610,0.195
1.264,0.400,0.215
1.266,0.465,0.225
1.268,0.435,0.230
1.270,0.495,0.225
1.272,0.495,0.210
1.274,0.640,0.190
1.276,0.720,0.175
1.278,0.650,0.160
1.280,0.495,0.155
1.282,0.445,0.150
1.284,0.345,0.150
1.286,0.350,0.150
1.288,0.355,0.145
1.290,0.455,0.135
1.292,0.495,0.120
1.294,0.525,0.095
1.296,0.525,0.075
1.298,0.485,0.055
1.300,0.355,0.035
1.302,0.375,0.025
1.304,0.215,0.020
1.306,0.145,0.015
1.308,0.220,0.015
1.310,0.360,0.010
1.312,0.425,0.005
1.314,0.525,-0.010
1.316,0.490,-0.030
1.318,0.340,-0.045
1.320,0.305,-0.060
1.322,0.050,-0.070
1.324,0.105,-0.070
1.326,0.195,-0.055
1.328,0.300,-0.040
1.330,0.345,-0.015
1.332,0.370,0.005
1.334,0.510,0.025
1.336,0.535,0.030
1.338,0.455,0.030
1.340,0.330,0.020
1.342,0.195,0.005
1.344,0.220,-0.010
1.346,0.145,-0.020
1.348,0.335,-0.030
1.350,0.240,-0.035
1.352,0.330,-0.035
1.354,0.525,-0.035
1.356,0.465,-0.040
1.358,0.425,-0.040
1.360,0.300,-0.050
1.362,0.145,-0.055
1.364,0.095,-0.065
1.366,-0.025,-0.065
1.368,0.205,-0.060
1.370,0.380,-0.050
1.372,0.500,-0.035
1.374,0.490,-0.020
1.376,0.545,0.000
1.378,0.405,0.010
1.380,0.220,0.015
1.382,0.240,0.010
1.384,0.155,0.005
1.386,0.255,-0.010
1.388,0.235,-0.020
1.390,0.305,-0.025
1.392,0.365,-0.025
1.394,0.515,-0.025
1.396,0.475,-0.015
1.398,0.370,-0.010
1.400,0.350,-0.005
1.402,0.175,-0.010
1.404,0.200,-0.020
1.406,0.170,-0.035
1.408,0.160,-0.050
1.410,0.365,-0.065
1.412,0.335,-0.075
1.414,0.310,-0.080
1.416,0.450,-0.080
1.418,0.315,-0.070
1.420,0.305,-0.055
1.422,0.215,-0.040
1.424,0.190,-0.025
1.426,0.145,-0.020
1.428,0.215,-0.015
1.430,0.330,-0.015
1.432,0.410,-0.020
1.434,0.470,-0.025
1.436,0.525,-0.025
1.438,0.415,-0.030
1.440,0.335,-0.030
1.442,0.145,-0.030
1.444,0.130,-0.025
1.446,0.155,-0.025
1.448,0.310,-0.025
1.450,0.350,-0.025
1.452,0.420,-0.020
1.454,0.445,-0.020
1.456,0.460,-0.020
1.458,0.345,-0.015
1.460,0.300,-0.020
1.462,0.210,-0.020
1.464,0.165,-0.030
1.466,0.160,-0.040
1.468,0.255,-0.050
1.470,0.240,-0.060
1.472,0.390,-0.065
1.474,0.395,-0.065
1.476,0.560,-0.055
1.478,0.335,-0.040
1.480,0.165,-0.020
1.482,0.165,0.005
1.484,0.325,0.025
1.486,0.275,0.040
1.488,0.330,0.045
1.490,0.340,0.040
1.492,0.525,0.030
1.494,0.495,0.020
1.496,0.515,0.005
1.498,0.360,-0.010
1.500,0.260,-0.020
1.502,0.155,-0.025
1.504,0.160,-0.025
1.506,0.150,-0.025
1.508,0.285,-0.025
1.510,0.365,-0.020
1.512,0.450,-0.025
1.514,0.500,-0.025
1.516,0.435,-0.030
1.518,0.270,-0.035
1.520,0.285,-0.040
1.522,0.155,-0.045
1.524,0.090,-0.050
1.526,0.165,-0.055
1.528,0.310,-0.060
1.530,0.310,-0.065
1.532,0.355,-0.070
1.534,0.440,-0.075
1.536,0.385,-0.075
1.538,0.250,-0.070
1.540,0.280,-0.060
1.542,0.140,-0.050
1.544,0.085,-0.035
1.546,0.135,-0.020
1.548,0.370,-0.015
1.550,0.345,-0.010
1.552,0.580,-0.015
1.554,0.575,-0.020
1.556,0.380,-0.025
1.558,0.160,-0.025
1.560,0.285,-0.020
1.562,0.155,-0.010
1.564,0.180,0.010
1.566,0.270,0.035
1.568,0.430,0.060
1.570,0.500,0.080
1.572,0.675,0.095
1.574,0.705,0.095
1.576,0.470,0.085
1.578,0.380,0.065
1.580,0.350,0.035
1.582,0.105,0.000
1.584,0.165,-0.040
1.586,0.105,-0.075
1.588,0.205,-0.105
1.590,0.260,-0.135
1.592,0.385,-0.155
1.594,0.300,-0.170
1.596,0.280,-0.180
1.598,0.195,-0.185
1.600,0.120,-0.180
1.602,-0.030,-0.170
1.604,0.005,-0.155
1.606,0.115,-0.135
1.608,0.255,-0.110
1.610,0.310,-0.090
1.612,0.360,-0.070
1.614,0.470,-0.055
1.616,0.445,-0.045
1.618,0.380,-0.040
1.620,0.230,-0.035
1.622,0.090,-0.035
1.624,0.005,-0.040
1.626,0.185,-0.040
1.628,0.370,-0.035
1.630,0.440,-0.035
1.632,0.535,-0.025
1.634,0.435,-0.020
1.636,0.345,-0.010
1.638,0.195,-0.005
1.640,0.375,0.000
1.642,0.190,0.005
1.644,0.195,0.000
1.646,0.260,-0.005
1.648,0.355,-0.010
1.650,0.340,-0.020
1.652,0.485,-0.025
1.654,0.525,-0.030
1.656,0.365,-0.035
1.658,0.285,-0.035
1.660,0.125,-0.035
1.662,0.200,-0.035
1.664,0.215,-0.035
1.666,0.195,-0.035
1.668,0.300,-0.035
1.670,0.440,-0.035
1.672,0.540,-0.035
1.674,0.340,-0.035
1.676,0.415,-0.030
1.678,0.305,-0.030
1.680,0.230,-0.030
1.682,0.105,-0.030
1.684,0.150,-0.030
1.686,0.185,-0.035
1.688,0.380,-0.045
1.690,0.355,-0.050
1.692,0.450,-0.055
1.694,0.405,-0.050
1.696,0.370,-0.045
1.698,0.350,-0.025
1.700,0.165,-0.005
1.702,0.235,0.015
1.704,0.220,0.035
1.706,0.300,0.055
1.708,0.385,0.065
1.710,0.455,0.065
1.712,0.600,0.065
1.714,0.550,0.060
1.716,0.480,0.050
1.718,0.330,0.045
1.720,0.210,0.040
1.722,0.150,0.040
1.724,0.315,0.040
1.726,0.310,0.040
1.728,0.295,0.040
1.730,0.565,0.040
1.732,0.630,0.035
1.734,0.515,0.035
1.736,0.330,0.035
1.738,0.295,0.045
1.740,0.275,0.055
1.742,0.245,0.075
1.744,0.395,0.095
1.746,0.475,0.120
1.748,0.515,0.140
1.750,0.545,0.150
1.752,0.635,0.160
1.754,0.580,0.160
1.756,0.470,0.160
1.758,0.475,0.155
1.760,0.385,0.145
1.762,0.295,0.140
1.764,0.390,0.140
1.766,0.485,0.140
1.768,0.480,0.145
1.770,0.575,0.150
1.772,0.575,0.155
1.774,0.645,0.160
1.776,0.545,0.165
1.778,0.540,0.170
1.780,0.350,0.175
1.782,0.380,0.180
1.784,0.350,0.185
1.786,0.425,0.180
1.788,0.370,0.180
1.790,0.780,0.170
1.792,0.730,0.160
1.794,0.565,0.145
1.796,0.490,0.130
1.798,0.405,0.110
1.800,0.200,0.090
1.802,0.235,0.070
1.804,0.265,0.050
1.806,0.385,0.030
1.808,0.380,0.020
1.810,0.425,0.005
1.812,0.470,0.000
1.814,0.445,-0.005
1.816,0.425,0.000
1.818,0.375,0.005
1.820,0.145,0.010
1.822,0.150,0.015
1.824,0.295,0.020
1.826,0.300,0.020
1.828,0.365,0.010
1.830,0.455,-0.005
1.832,0.445,-0.020
1.834,0.365,-0.040
1.836,0.315,-0.055
1.838,0.210,-0.060
1.840,0.075,-0.065
1.842,0.175,-0.055
1.844,0.215,-0.045
1.846,0.255,-0.035
1.848,0.355,-0.025
1.850,0.420,-0.020
1.852,0.440,-0.030
1.854,0.440,-0.040
1.856,0.290,-0.060
1.858,0.235,-0.080
1.860,0.110,-0.090
1.862,-0.005,-0.095
1.864,0.050,-0.090
1.866,0.195,-0.080
1.868,0.340,-0.055
1.870,0.555,-0.035
1.872,0.595,-0.010
1.874,0.440,0.000
1.876,0.305,0.005
1.878,0.225,0.000
1.880,0.075,-0.015
1.882,0.160,-0.030
1.884,0.165,-0.050
1.886,0.290,-0.065
1.888,0.305,-0.070
1.890,0.340,-0.070
1.892,0.330,-0.055
1.894,0.480,-0.040
1.896,0.370,-0.015
1.898,0.250,0.005
1.900,0.180,0.025
1.902,0.100,0.035
1.904,0.270,0.040
1.906,0.305,0.030
1.908,0.380,0.010
1.910,0.445,-0.020
1.912,0.535,-0.050
1.914,0.375,-0.080
1.916,0.250,-0.105
1.918,0.095,-0.120
1.920,-0.095,-0.120
1.922,-0.045,-0.105
1.924,0.130,-0.080
1.926,0.225,-0.045
1.928,0.535,-0.015
1.930,0.590,0.015
1.932,0.520,0.035
1.934,0.425,0.045
1.936,0.260,0.035
1.938,0.355,0.020
1.940,0.070,0.000
1.942,0.100,-0.020
1.944,0.170,-0.040
1.946,0.295,-0.055
1.948,0.390,-0.060
1.950,0.370,-0.055
1.952,0.495,-0.045
1.954,0.425,-0.035
1.956,0.260,-0.020
1.958,0.225,-0.010
1.960,0.120,-0.005
1.962,0.110,0.000
1.964,0.185,0.000
1.966,0.330,-0.005
1.968,0.395,-0.015
1.970,0.560,-0.020
1.972,0.505,-0.035
1.974,0.305,-0.045
1.976,0.255,-0.055
1.978,0.185,-0.065
1.980,0.100,-0.070
1.982,0.025,-0.070
1.984,-0.155,-0.065
1.986,0.240,-0.055
1.988,0.645,-0.040
1.990,0.595,-0.025
1.992,0.450,-0.010
1.994,0.375,0.005
1.996,0.245,0.010
1.998,0.200,0.015
2.000,0.130,0.010
2.002,0.155,0.005
2.004,0.265,0.000
2.006,0.335,-0.005
2.008,0.435,-0.005
2.010,0.500,-0.005
2.012,0.470,0.000
2.014,0.370,0.005
2.016,0.305,0.005
2.018,0.165,0.005
2.020,0.095,0.000
2.022,0.155,-0.010
2.024,0.215,-0.025
2.026,0.305,-0.045
2.028,0.325,-0.065
2.030,0.465,-0.085
2.032,0.370,-0.100
2.034,0.265,-0.110
2.036,0.170,-0.110
2.038,-0.070,-0.110
2.040,0.035,-0.105
2.042,0.190,-0.095
2.044,0.220,-0.085
2.046,0.150,-0.070
2.048,0.405,-0.055
2.050,0.495,-0.040
2.052,0.435,-0.025
2.054,0.380,-0.015
2.056,0.245,0.000
2.058,0.075,0.005
2.060,0.225,0.010
2.062,0.185,0.015
2.064,0.280,0.020
2.066,0.345,0.020
2.068,0.540,0.025
2.070,0.520,0.025
2.072,0.355,0.035
2.074,0.370,0.045
2.076,0.455,0.050
2.078,0.215,0.060
2.080,0.185,0.065
2.082,0.285,0.060
2.084,0.410,0.050
2.086,0.330,0.030
2.088,0.420,0.000
2.090,0.465,-0.035
2.092,0.450,-0.075
2.094,0.210,-0.115
2.096,0.160,-0.155
2.098,-0.085,-0.190
2.100,-0.090,-0.210
2.102,-0.130,-0.225
2.104,0.065,-0.220
2.106,0.150,-0.210
2.108,0.255,-0.185
2.110,0.355,-0.155
2.112,0.340,-0.125
2.114,0.295,-0.100
2.116,0.285,-0.075
2.118,0.095,-0.065
2.120,0.010,-0.060
2.122,0.085,-0.060
2.124,0.180,-0.060
2.126,0.245,-0.065
2.128,0.415,-0.060
2.130,0.515,-0.050
2.132,0.450,-0.035
2.134,0.280,-0.020
2.136,0.275,0.000
2.138,0.125,0.015
2.140,0.160,0.020
2.142,0.180,0.015
2.144,0.270,0.000
2.146,0.290,-0.015
2.148,0.375,-0.035
2.150,0.450,-0.055
2.152,0.380,-0.065
2.154,0.195,-0.070
2.156,0.315,-0.065
2.158,0.055,-0.055
2.160,0.110,-0.045
2.162,0.110,-0.035
2.164,0.210,-0.030
2.166,0.300,-0.030
2.168,0.515,-0.035
2.170,0.460,-0.040
2.172,0.270,-0.040
2.174,0.235,-0.040
2.176,0.310,-0.030
2.178,0.190,-0.025
2.180,0.140,-0.015
2.182,0.175,-0.005
2.184,0.285,-0.005
2.186,0.310,-0.010
2.188,0.445,-0.020
2.190,0.495,-0.030
2.192,0.335,-0.045
2.194,0.320,-0.050
2.196,0.180,-0.050
2.198,0.025,-0.045
2.200,0.090,-0.035
2.202,0.150,-0.020
2.204,0.345,-0.005
2.206,0.410,0.005
2.208,0.510,0.010
2.210,0.500,0.015
2.212,0.310,0.020
2.214,0.285,0.020
2.216,0.400,0.020
2.218,0.115,0.025
2.220,0.165,0.030
2.222,0.265,0.035
2.224,0.355,0.045
2.226,0.385,0.045
2.228,0.505,0.050
2.230,0.505,0.050
2.232,0.435,0.050
2.234,0.285,0.050
2.236,0.310,0.050
2.238,0.165,0.050
2.240,0.235,0.055
2.242,0.340,0.060
2.244,0.310,0.070
2.246,0.410,0.075
2.248,0.565,0.085
2.250,0.610,0.095
2.252,0.505,0.105
2.254,0.325,0.110
2.256,0.355,0.120
2.258,0.275,0.130
2.260,0.225,0.135
2.262,0.345,0.140
2.264,0.505,0.145
2.266,0.545,0.150
2.268,0.625,0.155
2.270,0.615,0.160
2.272,0.560,0.160
2.274,0.490,0.165
2.276,0.415,0.170
2.278,0.255,0.180
2.280,0.330,0.180
2.282,0.420,0.185
2.284,0.535,0.185
2.286,0.565,0.180
2.288,0.625,0.170
2.290,0.605,0.160
2.292,0.480,0.150
2.294,0.315,0.140
2.296,0.415,0.125
2.298,0.190,0.120
2.300,0.275,0.115
2.302,0.360,0.110
2.304,0.520,0.105
2.306,0.510,0.105
2.308,0.575,0.100
2.310,0.570,0.095
2.312,0.445,0.085
2.314,0.290,0.070
2.316,0.185,0.055
2.318,0.115,0.035
2.320,0.110,0.020
2.322,0.335,0.005
2.324,0.305,-0.005
2.326,0.415,-0.015
2.328,0.455,-0.015
2.330,0.490,-0.010
2.332,0.360,-0.005
2.334,0.250,0.005
2.336,0.160,0.010
2.338,0.110,0.010
2.340,0.080,0.005
2.342,0.165,-0.005
2.344,0.445,-0.015
2.346,0.435,-0.025
2.348,0.460,-0.030
2.350,0.235,-0.035
2.352,0.335,-0.035
2.354,0.270,-0.030
2.356,0.145,-0.020
2.358,0.160,-0.010
2.360,0.165,-0.005
2.362,0.180,-0.005
2.364,0.295,-0.005
2.366,0.425,-0.010
2.368,0.445,-0.015
2.370,0.490,-0.025
2.372,0.345,-0.030
2.374,0.195,-0.030
2.376,0.065,-0.030
2.378,0.105,-0.030
2.380,0.050,-0.025
2.382,0.210,-0.025
2.384,0.355,-0.030
2.386,0.460,-0.030
2.388,0.405,-0.035
2.390,0.450,-0.040
2.392,0.295,-0.040
2.394,0.185,-0.040
2.396,0.075,-0.030
2.398,0.075,-0.025
2.400,0.145,-0.015
2.402,0.300,-0.015
2.404,0.330,-0.020
2.406,0.380,-0.025
2.408,0.485,-0.040
2.410,0.405,-0.060
2.412,0.205,-0.070
2.414,0.115,-0.080
2.416,0.035,-0.075
2.418,0.110,-0.065
2.420,0.080,-0.050
2.422,0.300,-0.030
2.424,0.375,-0.010
2.426,0.315,0.005
2.428,0.520,0.010
2.430,0.535,0.005
2.432,0.265,-0.005
2.434,0.265,-0.020
2.436,0.050,-0.030
2.438,0.080,-0.035
2.440,0.220,-0.035
2.442,0.210,-0.025
2.444,0.215,-0.015
2.446,0.500,0.000
2.448,0.510,0.010
2.450,0.360,0.015
2.452,0.345,0.010
2.454,0.310,-0.005
2.456,0.095,-0.020
2.458,0.105,-0.035
2.460,0.160,-0.045
2.462,0.215,-0.050
2.464,0.310,-0.045
2.466,0.405,-0.035
2.468,0.400,-0.020
2.470,0.395,-0.005
2.472,0.315,0.000
2.474,0.305,0.005
2.476,0.105,0.000
2.478,0.105,-0.010
2.480,0.230,-0.025
2.482,0.330,-0.035
2.484,0.300,-0.040
2.486,0.350,-0.040
2.488,0.300,-0.035
2.490,0.385,-0.025
2.492,0.290,-0.010
2.494,0.355,0.000
2.496,0.135,0.010
2.498,0.095,0.015
2.500,0.230,0.020
2.502,0.285,0.025
2.504,0.295,0.025
2.506,0.510,0.025
2.508,0.510,0.025
2.510,0.360,0.025
2.512,0.375,0.025
2.514,0.265,0.015
2.516,0.120,0.005
2.518,0.070,-0.005
2.520,0.175,-0.020
2.522,0.290,-0.030
2.524,0.245,-0.040
2.526,0.450,-0.040
2.528,0.435,-0.040
2.530,0.380,-0.035
2.532,0.275,-0.025
2.534,0.230,-0.020
2.536,0.105,-0.015
2.538,0.020,-0.020
2.540,0.080,-0.030
2.542,0.240,-0.040
2.544,0.385,-0.060
2.546,0.485,-0.075
2.548,0.425,-0.090
2.550,0.210,-0.100
2.552,0.180,-0.105
2.554,0.140,-0.095
2.556,-0.050,-0.085
2.558,0.050,-0.065
2.560,0.175,-0.045
2.562,0.295,-0.025
2.564,0.355,-0.010
2.566,0.475,0.005
2.568,0.445,0.015
2.570,0.350,0.015
2.572,0.415,0.015
2.574,0.335,0.020
2.576,0.050,0.020
2.578,0.090,0.030
2.580,0.190,0.045
2.582,0.290,0.060
2.584,0.565,0.075
2.586,0.685,0.090
2.588,0.715,0.090
2.590,0.390,0.085
2.592,0.305,0.065
2.594,0.095,0.030
2.596,0.120,-0.010
2.598,0.140,-0.060
2.600,0.135,-0.105
2.602,0.115,-0.145
2.604,0.235,-0.175
2.606,0.275,-0.185
2.608,0.205,-0.185
2.610,0.125,-0.170
2.612,0.155,-0.150
2.614,0.030,-0.120
2.616,0.065,-0.095
2.618,0.015,-0.080
2.620,0.190,-0.070
2.622,0.270,-0.065
2.624,0.355,-0.070
2.626,0.440,-0.070
2.628,0.315,-0.075
2.630,0.250,-0.075
2.632,0.180,-0.065
2.634,0.100,-0.050
2.636,0.085,-0.035
2.638,0.230,-0.015
2.640,0.280,-0.005
2.642,0.305,0.005
2.644,0.400,0.010
2.646,0.430,0.005
2.648,0.385,0.000
2.650,0.270,-0.010
2.652,0.310,-0.015
2.654,0.090,-0.020
2.656,0.050,-0.025
2.658,0.235,-0.020
2.660,0.300,-0.020
2.662,0.275,-0.020
2.664,0.355,-0.020
2.666,0.370,-0.025
2.668,0.385,-0.030
2.670,0.255,-0.035
2.672,0.305,-0.035
2.674,0.090,-0.030
2.676,0.175,-0.025
2.678,0.210,-0.010
2.680,0.235,0.005
2.682,0.330,0.020
2.684,0.440,0.030
2.686,0.455,0.030
2.688,0.390,0.025
2.690,0.435,0.015
2.692,0.240,0.000
2.694,0.140,-0.015
2.696,0.085,-0.025
2.698,0.065,-0.030
2.700,0.180,-0.020
2.702,0.290,-0.005
2.704,0.605,0.015
2.706,0.525,0.035
2.708,0.475,0.055
2.710,0.315,0.065
2.712,0.290,0.065
2.714,0.150,0.050
2.716,0.185,0.035
2.718,0.285,0.020
2.720,0.225,0.005
2.722,0.305,-0.005
2.724,0.425,-0.005
2.726,0.480,0.005
2.728,0.480,0.020
2.730,0.335,0.030
2.732,0.340,0.045
2.734,0.125,0.045
2.736,0.160,0.045
2.738,0.145,0.035
2.740,0.395,0.025
2.742,0.340,0.020
2.744,0.445,0.020
2.746,0.485,0.030
2.748,0.520,0.055
2.750,0.325,0.085
2.752,0.430,0.115
2.754,0.325,0.145
2.756,0.180,0.165
2.758,0.355,0.175
2.760,0.445,0.175
2.762,0.465,0.170
2.764,0.620,0.160
2.766,0.635,0.150
2.768,0.540,0.145
2.770,0.500,0.145
2.772,0.350,0.155
2.774,0.210,0.175
2.776,0.330,0.190
2.778,0.480,0.205
2.780,0.520,0.220
2.782,0.490,0.225
2.784,0.680,0.225
2.786,0.645,0.220
2.788,0.590,0.215
2.790,0.565,0.210
2.792,0.420,0.205
2.794,0.370,0.195
2.796,0.345,0.190
2.798,0.365,0.185
2.800,0.445,0.180
2.802,0.445,0.170
2.804,0.585,0.155
2.806,0.570,0.145
2.808,0.525,0.135
2.810,0.435,0.125
2.812,0.380,0.115
2.814,0.185,0.110
2.816,0.270,0.100
2.818,0.345,0.090
2.820,0.390,0.080
2.822,0.330,0.070
2.824,0.490,0.055
2.826,0.475,0.040
2.828,0.395,0.030
2.830,0.300,0.020
2.832,0.185,0.015
2.834,0.180,0.010
2.836,0.190,0.005
2.838,0.185,0.005
2.840,0.280,0.000
2.842,0.325,-0.005
2.844,0.405,-0.010
2.846,0.480,-0.015
2.848,0.365,-0.020
2.850,0.325,-0.020
2.852,0.150,-0.020
2.854,0.105,-0.015
2.856,0.100,-0.010
2.858,0.215,-0.005
2.860,0.335,-0.005
2.862,0.320,-0.010
2.864,0.470,-0.015
2.866,0.390,-0.025
2.868,0.350,-0.040
2.870,0.275,-0.050
2.872,0.195,-0.055
2.874,0.155,-0.055
2.876,0.000,-0.055
2.878,0.125,-0.050
2.880,0.200,-0.040
2.882,0.375,-0.035
2.884,0.405,-0.035
2.886,0.400,-0.035
2.888,0.415,-0.045
2.890,0.205,-0.050
2.892,0.115,-0.060
2.894,-0.020,-0.070
2.896,0.025,-0.070
2.898,0.135,-0.065
2.900,0.300,-0.050
2.902,0.470,-0.040
2.904,0.535,-0.020
2.906,0.420,-0.005
2.908,0.300,0.005
2.910,0.255,0.010
2.912,0.115,0.010
2.914,0.050,0.005
2.916,0.155,0.000
2.918,0.285,-0.005
2.920,0.345,-0.005
2.922,0.495,-0.005
2.924,0.430,-0.005
2.926,0.385,0.000
2.928,0.330,0.010
2.930,0.255,0.010
2.932,0.210,0.010
2.934,0.180,0.010
2.936,0.160,0.005
2.938,0.260,-0.005
2.940,0.250,-0.015
2.942,0.400,-0.020
2.944,0.485,-0.030
2.946,0.390,-0.030
2.948,0.315,-0.035
2.950,0.150,-0.035
2.952,0.145,-0.035
2.954,0.090,-0.035
2.956,0.095,-0.035
2.958,0.110,-0.040
2.960,0.380,-0.040
2.962,0.365,-0.040
2.964,0.425,-0.040
2.966,0.310,-0.040
2.968,0.385,-0.035
2.970,0.230,-0.030
2.972,0.100,-0.025
2.974,0.030,-0.020
2.976,0.085,-0.010
2.978,0.315,-0.005
2.980,0.330,0.000
2.982,0.440,0.010
2.984,0.520,0.020
2.986,0.505,0.030
2.988,0.395,0.040
2.990,0.250,0.045
2.992,0.190,0.050
2.994,0.165,0.050
2.996,0.190,0.040
2.998,0.260,0.030
3.000,0.340,0.015
3.002,0.425,0.000
3.004,0.460,-0.010
3.006,0.385,-0.015
3.008,0.305,-0.010
3.010,0.210,-0.005
3.012,0.090,0.000
3.014,0.245,0.010
3.016,0.175,0.010
3.018,0.220,0.005
3.020,0.300,-0.005
3.022,0.515,-0.025
3.024,0.340,-0.045
3.026,0.225,-0.065
3.028,0.190,-0.075
3.030,0.260,-0.085
3.032,0.130,-0.085
3.034,0.020,-0.075
3.036,0.090,-0.070
3.038,0.235,-0.065
3.040,0.260,-0.060
3.042,0.475,-0.060
3.044,0.130,-0.065
3.046,0.335,-0.065
3.048,0.390,-0.065
3.050,0.240,-0.060
3.052,0.025,-0.050
3.054,0.105,-0.030
3.056,0.210,-0.010
3.058,0.195,0.005
3.060,0.350,0.015
3.062,0.510,0.020
3.064,0.480,0.015
3.066,0.335,0.005
3.068,0.290,-0.010
3.070,0.310,-0.020
3.072,0.140,-0.025
3.074,0.050,-0.015
3.076,0.155,0.005
3.078,0.285,0.030
3.080,0.345,0.065
3.082,0.515,0.100
3.084,0.675,0.125
3.086,0.650,0.140
3.088,0.450,0.140
3.090,0.315,0.125
3.092,0.160,0.090
3.094,0.155,0.050
3.096,0.135,0.000
3.098,0.200,-0.050
3.100,0.320,-0.100
3.102,0.290,-0.140
3.104,0.275,-0.165
3.106,0.155,-0.185
3.108,0.075,-0.195
3.110,0.035,-0.195
3.112,0.015,-0.185
3.114,0.010,-0.175
3.116,-0.025,-0.165
3.118,0.095,-0.150
3.120,0.230,-0.135
3.122,0.420,-0.115
3.124,0.330,-0.095
3.126,0.200,-0.075
3.128,0.295,-0.055
3.130,0.160,-0.035
3.132,0.055,-0.020
3.134,0.150,-0.010
3.136,0.280,-0.005
3.138,0.325,-0.005
3.140,0.245,-0.005
3.142,0.430,-0.010
3.144,0.420,-0.015
3.146,0.355,-0.015
3.148,0.220,-0.010
3.150,0.250,-0.010
3.152,0.095,-0.005
3.154,0.140,-0.005
3.156,0.185,-0.010
3.158,0.270,-0.020
3.160,0.295,-0.035
3.162,0.390,-0.050
3.164,0.390,-0.060
3.166,0.290,-0.065
3.168,0.200,-0.065
3.170,0.140,-0.060
3.172,0.065,-0.045
3.174,0.160,-0.030
3.176,0.195,-0.020
3.178,0.220,-0.015
3.180,0.385,-0.015
3.182,0.400,-0.025
3.184,0.465,-0.040
3.186,0.240,-0.055
3.188,0.150,-0.065
3.190,0.130,-0.065
3.192,0.105,-0.060
3.194,0.135,-0.045
3.196,0.310,-0.020
3.198,0.270,0.005
3.200,0.265,0.025
3.202,0.510,0.040
3.204,0.525,0.045
3.206,0.380,0.040
3.208,0.305,0.030
3.210,0.140,0.015
3.212,0.115,0.005
3.214,0.130,-0.005
3.216,0.280,-0.005
3.218,0.265,0.000
3.220,0.475,0.010
3.222,0.375,0.020
3.224,0.480,0.025
3.226,0.340,0.035
3.228,0.295,0.035
3.230,0.210,0.035
3.232,0.205,0.035
3.234,0.170,0.035
3.236,0.265,0.040
3.238,0.425,0.045
3.240,0.415,0.055
3.242,0.445,0.065
3.244,0.460,0.075
3.246,0.485,0.075
3.248,0.335,0.075
3.250,0.190,0.070
3.252,0.215,0.060
3.254,0.250,0.050
3.256,0.265,0.040
3.258,0.355,0.035
3.260,0.510,0.040
3.262,0.385,0.050
3.264,0.430,0.070
3.266,0.370,0.095
3.268,0.450,0.130
3.270,0.380,0.160
3.272,0.590,0.190
3.274,0.315,0.215
3.276,0.320,0.230
3.278,0.465,0.245
3.280,0.700,0.250
3.282,0.650,0.250
3.284,0.635,0.245
3.286,0.560,0.240
3.288,0.560,0.230
3.290,0.410,0.220
3.292,0.335,0.210
3.294,0.310,0.205
3.296,0.375,0.195
3.298,0.475,0.190
3.300,0.645,0.180
3.302,0.655,0.175
3.304,0.555,0.160
3.306,0.465,0.145
3.308,0.335,0.130
3.310,0.195,0.110
3.312,0.210,0.090
3.314,0.290,0.065
3.316,0.235,0.045
3.318,0.370,0.030
3.320,0.475,0.020
3.322,0.455,0.010
3.324,0.460,0.005
3.326,0.290,0.005
3.328,0.230,0.005
3.330,0.095,0.005
3.332,0.105,0.000
3.334,0.175,-0.005
3.336,0.220,-0.010
3.338,0.310,-0.020
3.340,0.405,-0.030
3.342,0.450,-0.040
3.344,0.370,-0.050
3.346,0.275,-0.060
3.348,0.170,-0.070
3.350,-0.020,-0.075
3.352,-0.025,-0.075
3.354,0.115,-0.075
3.356,0.265,-0.065
3.358,0.285,-0.055
3.360,0.425,-0.040
3.362,0.405,-0.030
3.364,0.305,-0.015
3.366,0.200,-0.010
3.368,0.340,-0.005
3.370,0.115,-0.005
3.372,0.150,-0.010
3.374,0.125,-0.020
3.376,0.145,-0.025
3.378,0.320,-0.035
3.380,0.480,-0.040
3.382,0.420,-0.040
3.384,0.285,-0.040
3.386,0.155,-0.035
3.388,0.185,-0.035
3.390,0.105,-0.035
3.392,0.090,-0.035
3.394,0.125,-0.040
3.396,0.245,-0.045
3.398,0.200,-0.050
3.400,0.405,-0.050
3.402,0.405,-0.050
3.404,0.390,-0.045
3.406,0.220,-0.040
3.408,0.175,-0.035
3.410,0.100,-0.030
3.412,0.010,-0.030
3.414,0.255,-0.030
3.416,0.230,-0.030
3.418,0.210,-0.035
3.420,0.385,-0.040
3.422,0.410,-0.040
3.424,0.340,-0.045
3.426,0.260,-0.050
3.428,0.240,-0.050
3.430,0.055,-0.050
3.432,0.095,-0.055
3.434,0.055,-0.055
3.436,0.125,-0.055
3.438,0.180,-0.055
3.440,0.430,-0.050
3.442,0.425,-0.040
3.444,0.270,-0.030
3.446,0.375,-0.015
3.448,0.210,0.000
3.450,0.035,0.010
3.452,0.185,0.015
3.454,0.175,0.020
3.456,0.265,0.015
3.458,0.380,0.010
3.460,0.425,0.000
3.462,0.445,-0.005
3.464,0.340,-0.010
3.466,0.230,-0.010
3.468,0.195,-0.005
3.470,0.130,0.000
3.472,0.180,0.005
3.474,0.170,0.005
3.476,0.245,0.005
3.478,0.265,0.000
3.480,0.500,-0.005
3.482,0.420,-0.015
3.484,0.320,-0.020
3.486,0.000,-0.025
3.488,0.255,-0.020
3.490,0.210,-0.015
3.492,0.180,-0.005
3.494,0.155,0.010
3.496,0.290,0.015
3.498,0.285,0.020
3.500,0.445,0.015
3.502,0.480,0.005
3.504,0.320,-0.010
3.506,0.230,-0.030
3.508,0.180,-0.045
3.510,0.020,-0.065
3.512,0.040,-0.075
3.514,0.140,-0.080
3.516,0.110,-0.080
3.518,0.305,-0.075
3.520,0.490,-0.070
3.522,0.280,-0.060
3.524,0.195,-0.055
3.526,0.220,-0.050
3.528,0.195,-0.050
3.530,0.095,-0.055
3.532,0.015,-0.055
3.534,0.085,-0.060
3.536,0.205,-0.060
3.538,0.310,-0.060
3.540,0.480,-0.055
3.542,0.420,-0.050
3.544,0.245,-0.040
3.546,0.205,-0.030
3.548,0.070,-0.020
3.550,0.030,-0.010
3.552,0.145,-0.005
3.554,0.260,0.000
3.556,0.360,0.005
3.558,0.390,0.010
3.560,0.375,0.010
3.562,0.340,0.015
3.564,0.350,0.020
3.566,0.235,0.030
3.568,0.155,0.040
3.570,0.195,0.045
3.572,0.255,0.050
3.574,0.320,0.055
3.576,0.395,0.050
3.578,0.315,0.040
3.580,0.350,0.025
3.582,0.450,0.000
3.584,0.260,-0.030
3.586,0.180,-0.060
3.588,0.015,-0.095
3.590,-0.030,-0.130
3.592,0.040,-0.160
3.594,-0.065,-0.185
3.596,0.020,-0.200
3.598,0.190,-0.205
3.600,0.250,-0.200
3.602,0.300,-0.185
3.604,0.060,-0.165
3.606,0.155,-0.135
3.608,0.010,-0.105
3.610,-0.055,-0.080
3.612,0.050,-0.060
3.614,0.190,-0.050
3.616,0.260,-0.045
3.618,0.330,-0.045
3.620,0.355,-0.055
3.622,0.315,-0.060
3.624,0.270,-0.065
3.626,0.155,-0.060
3.628,-0.045,-0.055
3.630,0.030,-0.040
3.632,0.165,-0.020
3.634,0.285,-0.005
3.636,0.335,0.010
3.638,0.360,0.015
3.640,0.510,0.015
3.642,0.295,0.005
3.644,0.295,-0.005
3.646,0.220,-0.020
3.648,0.070,-0.030
3.650,0.060,-0.035
3.652,0.100,-0.030
3.654,0.165,-0.025
3.656,0.230,-0.015
3.658,0.425,0.000
3.660,0.415,0.010
3.662,0.340,0.010
3.664,0.330,0.005
3.666,0.210,-0.005
3.668,0.070,-0.015
3.670,0.035,-0.030
3.672,0.070,-0.045
3.674,0.245,-0.050
3.676,0.180,-0.055
3.678,0.400,-0.050
3.680,0.370,-0.040
3.682,0.295,-0.030
3.684,0.165,-0.020
3.686,0.205,-0.010
3.688,0.090,0.000
3.690,0.145,0.005
3.692,0.195,0.010
3.694,0.245,0.015
3.696,0.225,0.015
3.698,0.400,0.015
3.700,0.375,0.010
3.702,0.455,0.005
3.704,0.260,-0.005
3.706,0.210,-0.015
3.708,-0.030,-0.030
3.710,0.095,-0.040
3.712,0.150,-0.055
3.714,0.150,-0.060
3.716,0.185,-0.065
3.718,0.345,-0.060
3.720,0.390,-0.055
3.722,0.250,-0.045
3.724,0.095,-0.030
3.726,0.250,-0.015
3.728,0.230,0.000
3.730,0.135,0.020
3.732,0.085,0.035
3.734,0.185,0.055
3.736,0.430,0.075
3.738,0.565,0.100
3.740,0.590,0.120
3.742,0.495,0.140
3.744,0.350,0.160
3.746,0.345,0.170
3.748,0.240,0.175
3.750,0.220,0.170
3.752,0.330,0.165
3.754,0.370,0.155
3.756,0.480,0.145
3.758,0.535,0.140
3.760,0.560,0.140
3.762,0.530,0.150
3.764,0.335,0.160
3.766,0.460,0.180
3.768,0.245,0.195
3.770,0.210,0.210
3.772,0.295,0.220
3.774,0.475,0.220
3.776,0.590,0.210
3.778,0.620,0.195
3.780,0.600,0.180
3.782,0.450,0.165
3.784,0.335,0.150
3.786,0.245,0.140
3.788,0.245,0.130
3.790,0.235,0.125
3.792,0.260,0.115
3.794,0.280,0.105
3.796,0.370,0.090
3.798,0.490,0.070
3.800,0.535,0.050
3.802,0.380,0.035
3.804,0.190,0.015
3.806,0.120,0.005
3.808,0.030,-0.005
3.810,0.045,-0.010
3.812,0.230,-0.015
3.814,0.285,-0.015
3.816,0.240,-0.020
3.818,0.320,-0.025
3.820,0.325,-0.030
3.822,0.280,-0.035
3.824,0.240,-0.040
3.826,0.200,-0.040
3.828,0.025,-0.030
3.830,0.015,-0.025
3.832,0.160,-0.015
3.834,0.265,-0.005
3.836,0.335,-0.005
3.838,0.345,-0.005
3.840,0.315,-0.015
3.842,0.250,-0.025
3.844,0.170,-0.040
3.846,0.030,-0.050
3.848,0.010,-0.060
3.850,0.110,-0.065
3.852,0.085,-0.065
3.854,0.170,-0.060
3.856,0.325,-0.050
3.858,0.415,-0.045
3.860,0.370,-0.040
3.862,0.160,-0.035
3.864,0.120,-0.040
3.866,0.065,-0.040
3.868,0.040,-0.045
3.870,0.040,-0.045
3.872,0.075,-0.045
3.874,0.250,-0.045
3.876,0.355,-0.045
3.878,0.290,-0.045
3.880,0.335,-0.045
3.882,0.260,-0.050
3.884,0.185,-0.055
3.886,0.005,-0.060
3.888,-0.075,-0.065
3.890,0.020,-0.065
3.892,0.120,-0.060
3.894,0.190,-0.055
3.896,0.320,-0.045
3.898,0.355,-0.035
3.900,0.380,-0.025
3.902,0.290,-0.020
3.904,0.240,-0.015
3.906,-0.025,-0.015
3.908,-0.035,-0.020
3.910,0.085,-0.025
3.912,0.190,-0.030
3.914,0.275,-0.030
3.916,0.315,-0.030
3.918,0.275,-0.025
3.920,0.355,-0.020
3.922,0.265,-0.015
3.924,0.135,-0.010
3.926,0.025,-0.010
3.928,-0.015,-0.010
3.930,0.090,-0.015
3.932,0.170,-0.020
3.934,0.200,-0.025
3.936,0.400,-0.030
3.938,0.380,-0.030
3.940,0.295,-0.025
3.942,0.220,-0.015
3.944,0.105,-0.005
3.946,0.025,0.000
3.948,0.085,0.005
3.950,0.110,0.005
3.952,0.175,0.000
3.954,0.235,-0.015
3.956,0.315,-0.030
3.958,0.335,-0.045
3.960,0.300,-0.055
3.962,0.260,-0.060
3.964,0.080,-0.060
3.966,-0.045,-0.045
3.968,0.005,-0.030
3.970,0.080,-0.005
3.972,0.145,0.020
3.974,0.375,0.035
3.976,0.440,0.050
3.978,0.350,0.050
3.980,0.450,0.040
3.982,0.245,0.030
3.984,0.290,0.010
3.986,-0.070,-0.010
3.988,-0.040,-0.030
3.990,0.055,-0.045
3.992,0.140,-0.050
3.994,0.195,-0.050
3.996,0.365,-0.045
3.998,0.335,-0.040
4.000,0.280,-0.030
4.002,0.165,-0.025
4.004,0.060,-0.025
4.006,-0.115,-0.025
4.008,0.100,-0.030
4.010,0.140,-0.040
4.012,0.075,-0.050
4.014,0.185,-0.060
4.016,0.350,-0.070
4.018,0.390,-0.075
4.020,0.225,-0.075
4.022,0.115,-0.070
4.024,0.110,-0.060
4.026,-0.075,-0.055
4.028,-0.030,-0.045
4.030,0.085,-0.035
4.032,0.145,-0.035
4.034,0.240,-0.035
4.036,0.360,-0.035
4.038,0.310,-0.040
4.040,0.270,-0.050
4.042,0.215,-0.055
4.044,0.115,-0.055
4.046,-0.110,-0.045
4.048,-0.145,-0.035
4.050,0.065,-0.015
4.052,0.245,0.010
4.054,0.315,0.040
4.056,0.520,0.070
4.058,0.560,0.090
4.060,0.435,0.105
4.062,0.215,0.110
4.064,0.195,0.100
4.066,0.080,0.070
4.068,0.070,0.030
4.070,0.050,-0.020
4.072,0.150,-0.075
4.074,0.130,-0.130
4.076,0.230,-0.175
4.078,0.060,-0.210
4.080,-0.020,-0.230
4.082,-0.020,-0.235
4.084,-0.070,-0.220
4.086,-0.120,-0.195
4.088,-0.110,-0.165
4.090,-0.070,-0.135
4.092,0.105,-0.105
4.094,0.175,-0.080
4.096,0.245,-0.065
4.098,0.335,-0.060
4.100,0.215,-0.055
4.102,0.210,-0.055
4.104,0.025,-0.055
4.106,-0.030,-0.055
4.108,-0.015,-0.055
4.110,0.070,-0.050
4.112,0.100,-0.050
4.114,0.275,-0.055
4.116,0.260,-0.055
4.118,0.325,-0.060
4.120,0.155,-0.065
4.122,0.085,-0.070
4.124,-0.010,-0.075
4.126,-0.045,-0.075
4.128,0.040,-0.070
4.130,0.040,-0.065
4.132,0.170,-0.060
4.134,0.175,-0.050
4.136,0.285,-0.045
4.138,0.255,-0.035
4.140,0.135,-0.025
4.142,0.240,-0.020
4.144,0.060,-0.010
4.146,-0.015,-0.005
4.148,0.095,-0.005
4.150,0.130,-0.005
4.152,0.095,-0.005
4.154,0.175,-0.015
4.156,0.340,-0.025
4.158,0.300,-0.035
4.160,0.210,-0.045
4.162,0.155,-0.050
4.164,-0.040,-0.050
4.166,-0.050,-0.045
4.168,0.045,-0.040
4.170,0.100,-0.030
4.172,0.080,-0.020
4.174,0.305,-0.015
4.176,0.390,-0.015
4.178,0.250,-0.015
4.180,0.155,-0.025
4.182,0.130,-0.030
4.184,0.000,-0.040
4.186,-0.040,-0.045
4.188,0.025,-0.045
4.190,0.195,-0.040
4.192,0.155,-0.030
4.194,0.220,-0.020
4.196,0.285,-0.005
4.198,0.330,0.000
4.200,0.165,0.005
4.202,0.265,0.010
4.204,0.000,0.005
4.206,0.025,0.005
4.208,0.065,0.005
4.210,0.160,0.005
4.212,0.150,0.010
4.214,0.335,0.025
4.216,0.355,0.045
4.218,0.250,0.065
4.220,0.350,0.090
4.222,0.215,0.110
4.224,0.130,0.125
4.226,0.170,0.140
4.228,0.185,0.145
4.230,0.255,0.145
4.232,0.320,0.145
4.234,0.440,0.145
4.236,0.430,0.140
4.238,0.450,0.145
4.240,0.315,0.150
4.242,0.270,0.160
4.244,0.190,0.170
4.246,0.125,0.175
4.248,0.250,0.185
4.250,0.435,0.185
4.252,0.345,0.185
4.254,0.420,0.175
4.256,0.425,0.160
4.258,0.405,0.150
4.260,0.360,0.135
4.262,0.245,0.120
4.264,0.150,0.110
4.266,0.140,0.105
4.268,0.070,0.105
4.270,0.165,0.105
4.272,0.240,0.105
4.274,0.420,0.105
4.276,0.425,0.100
4.278,0.360,0.090
4.280,0.280,0.075
4.282,0.175,0.060
4.284,0.025,0.045
4.286,0.010,0.030
4.288,-0.050,0.015
4.290,0.130,0.005
4.292,0.230,0.000
4.294,0.265,0.000
4.296,0.240,0.005
4.298,0.215,0.015
4.300,0.290,0.025
4.302,0.160,0.030
4.304,-0.015,0.035
4.306,0.040,0.040
4.308,0.125,0.040
4.310,0.140,0.035
4.312,0.100,0.030
4.314,0.315,0.020
4.316,0.285,0.010
4.318,0.225,-0.005
4.320,0.125,-0.020
4.322,0.085,-0.030
4.324,-0.060,-0.040
4.326,-0.070,-0.050
4.328,-0.010,-0.060
4.330,0.075,-0.065
4.332,0.140,-0.065
4.334,0.150,-0.065
4.336,0.220,-0.065
4.338,0.135,-0.060
4.340,0.000,-0.050
4.342,0.080,-0.045
4.344,-0.060,-0.035
4.346,-0.025,-0.025
4.348,0.035,-0.015
4.350,0.065,-0.005
4.352,0.190,0.000
4.354,0.335,0.000
4.356,0.255,0.000
4.358,0.170,-0.005
4.360,0.130,-0.015
4.362,-0.010,-0.020
4.364,-0.055,-0.030
4.366,-0.065,-0.040
4.368,0.010,-0.040
4.370,0.060,-0.040
4.372,0.160,-0.035
4.374,0.270,-0.030
4.376,0.270,-0.025
4.378,0.185,-0.020
4.380,0.095,-0.020
4.382,0.010,-0.025
4.384,-0.030,-0.035
4.386,-0.055,-0.045
4.388,-0.055,-0.060
4.390,0.030,-0.075
4.392,0.040,-0.080
4.394,0.160,-0.085
4.396,0.115,-0.075
4.398,0.235,-0.065
4.400,0.090,-0.045
4.402,0.015,-0.025
4.404,-0.125,-0.010
4.406,0.010,0.005
4.408,0.060,0.015
4.410,0.105,0.015
4.412,0.180,0.010
4.414,0.280,0.005
4.416,0.195,0.000
4.418,0.185,-0.005
4.420,0.110,-0.010
4.422,0.035,-0.010
4.424,-0.070,-0.005
4.426,-0.040,-0.005
4.428,0.035,0.000
4.430,0.075,-0.005
4.432,0.215,-0.005
4.434,0.270,-0.010
4.436,0.190,-0.015
4.438,0.160,-0.010
4.440,0.110,-0.005
4.442,-0.010,0.005
4.444,-0.065,0.020
4.446,0.040,0.040
4.448,0.130,0.060
4.450,0.195,0.075
4.452,0.225,0.080
4.454,0.250,0.080
4.456,0.290,0.065
4.458,0.270,0.045
4.460,0.095,0.020
4.462,-0.005,-0.005
4.464,-0.120,-0.035
4.466,-0.055,-0.055
4.468,-0.110,-0.070
4.470,-0.175,-0.080
4.472,0.155,-0.085
4.474,0.295,-0.080
4.476,0.150,-0.075
4.478,-0.020,-0.065
4.480,0.085,-0.050
4.482,-0.040,-0.035
4.484,-0.145,-0.020
4.486,-0.200,-0.005
4.488,0.055,0.005
4.490,0.090,0.015
4.492,0.275,0.020
4.494,0.295,0.020
4.496,0.235,0.010
4.498,0.110,0.000
4.500,0.035,-0.010
4.502,-0.155,-0.020
4.504,-0.100,-0.030
4.506,-0.070,-0.035
4.508,0.065,-0.035
4.510,0.060,-0.030
4.512,0.160,-0.025
4.514,0.205,-0.015
4.516,0.180,-0.010
4.518,0.135,-0.005
4.520,0.095,-0.005
4.522,-0.135,-0.005
4.524,-0.100,-0.010
4.526,-0.070,-0.010
4.528,0.110,-0.010
4.530,0.095,-0.005
4.532,0.180,0.000
4.534,0.135,0.010
4.536,0.180,0.025
4.538,0.155,0.040
4.540,0.220,0.055
4.542,0.015,0.075
4.544,-0.005,0.085
4.546,0.040,0.095
4.548,0.130,0.095
4.550,0.150,0.080
4.552,0.235,0.055
4.554,0.220,0.020
4.556,0.220,-0.020
4.558,-0.010,-0.065
4.560,-0.075,-0.110
4.562,-0.215,-0.145
4.564,-0.330,-0.175
4.566,-0.305,-0.185
4.568,-0.165,-0.185
4.570,-0.100,-0.175
4.572,0.030,-0.155
4.574,0.115,-0.135
4.576,0.055,-0.110
4.578,0.020,-0.090
4.580,-0.010,-0.075
4.582,-0.210,-0.065
4.584,-0.170,-0.055
4.586,-0.100,-0.045
4.588,-0.020,-0.040
4.590,0.030,-0.030
4.592,0.195,-0.020
4.594,0.225,-0.015
4.596,0.175,-0.015
4.598,-0.015,-0.015
4.600,0.015,-0.015
4.602,-0.205,-0.025
4.604,-0.230,-0.035
4.606,-0.105,-0.045
4.608,0.015,-0.050
4.610,0.200,-0.055
4.612,0.010,-0.055
4.614,0.175,-0.055
4.616,-0.005,-0.055
4.618,0.060,-0.055
4.620,-0.040,-0.055
4.622,-0.200,-0.055
4.624,-0.220,-0.055
4.626,-0.200,-0.055
4.628,-0.050,-0.050
4.630,0.030,-0.035
4.632,0.160,-0.020
4.634,0.265,0.000
4.636,0.190,0.020
4.638,0.050,0.035
4.640,0.025,0.040
4.642,-0.135,0.035
4.644,-0.115,0.020
4.646,-0.100,0.000
4.648,-0.040,-0.025
4.650,-0.025,-0.045
4.652,0.115,-0.055
4.654,0.170,-0.060
4.656,0.020,-0.055
4.658,0.060,-0.045
4.660,-0.075,-0.030
4.662,-0.185,-0.015
4.664,-0.210,-0.005
4.666,-0.015,0.000
4.668,0.055,0.000
4.670,-0.080,0.000
4.672,0.100,-0.005
4.674,0.235,-0.005
4.676,0.190,0.000
4.678,0.080,0.010
4.680,-0.060,0.025
4.682,-0.205,0.045
4.684,-0.150,0.060
4.686,-0.015,0.070
4.688,0.070,0.075
4.690,0.140,0.080
4.692,0.295,0.080
4.694,0.300,0.080
4.696,0.125,0.080
4.698,0.100,0.080
4.700,0.040,0.080
4.702,-0.110,0.080
4.704,-0.110,0.075
4.706,-0.035,0.070
4.708,0.055,0.065
4.710,0.100,0.060
4.712,0.265,0.060
4.714,0.165,0.065
4.716,0.200,0.080
4.718,0.160,0.100
4.720,-0.045,0.120
4.722,-0.035,0.140
4.724,0.025,0.155
4.726,0.110,0.160
4.728,0.125,0.155
4.730,0.205,0.140
4.732,0.350,0.125
4.734,0.205,0.110
4.736,0.035,0.110
4.738,0.085,0.115
4.740,0.035,0.140
4.742,0.085,0.170
4.744,0.095,0.205
4.746,0.140,0.235
4.748,0.205,0.255
4.750,0.380,0.265
4.752,0.415,0.255
4.754,0.255,0.235
4.756,0.255,0.205
4.758,0.110,0.175
4.760,0.020,0.145
4.762,-0.080,0.125
4.764,-0.075,0.115
4.766,0.115,0.110
4.768,0.085,0.110
4.770,0.220,0.110
4.772,0.140,0.110
4.774,0.275,0.100
4.776,0.125,0.090
4.778,-0.045,0.070
4.780,-0.090,0.055
4.782,-0.185,0.035
4.784,-0.120,0.020
4.786,-0.060,0.010
4.788,-0.070,0.000
4.790,0.070,-0.005
4.792,0.140,-0.015
4.794,0.165,-0.020
4.796,-0.060,-0.025
4.798,-0.125,-0.025
4.800,-0.120,-0.025
4.802,-0.220,-0.025
4.804,-0.220,-0.020
4.806,-0.060,-0.015
4.808,-0.175,-0.010
4.810,0.120,-0.005
4.812,0.180,-0.005
4.814,0.105,-0.005
4.816,-0.035,-0.010
4.818,-0.105,-0.015
4.820,-0.205,-0.020
4.822,-0.235,-0.020
4.824,-0.235,-0.020
4.826,-0.140,-0.020
4.828,0.015,-0.015
4.830,0.055,-0.015
4.832,0.080,-0.015
4.834,0.075,-0.010
4.836,-0.030,-0.015
4.838,-0.115,-0.015
4.840,-0.235,-0.015
4.842,-0.210,-0.015
4.844,-0.145,-0.010
4.846,-0.130,-0.005
4.848,-0.040,0.000
4.850,0.085,0.010
4.852,0.075,0.015
4.854,0.185,0.015
4.856,-0.020,0.015
4.858,-0.160,0.005
4.860,-0.270,-0.005
4.862,-0.275,-0.015
4.864,-0.115,-0.025
4.866,-0.135,-0.040
4.868,-0.110,-0.045
4.870,0.005,-0.050
4.872,0.020,-0.055
4.874,-0.100,-0.055
4.876,-0.015,-0.050
4.878,-0.085,-0.045
4.880,-0.305,-0.040
4.882,-0.230,-0.035
4.884,-0.250,-0.030
4.886,-0.150,-0.020
4.888,-0.115,-0.010
4.890,0.075,0.000
4.892,0.155,0.005
4.894,0.080,0.015
4.896,-0.040,0.020
4.898,-0.075,0.025
4.900,-0.270,0.025
4.902,-0.265,0.025
4.904,-0.170,0.025
4.906,0.005,0.025
4.908,0.015,0.025
4.910,0.095,0.025
4.912,0.075,0.030
4.914,0.040,0.030
4.916,-0.055,0.025
4.918,-0.095,0.020
4.920,-0.155,0.005
4.922,-0.280,-0.010
4.924,-0.220,-0.025
4.926,-0.170,-0.035
4.928,-0.065,-0.045
4.930,0.005,-0.045
4.932,-0.015,-0.040
4.934,-0.050,-0.025
4.936,-0.045,-0.010
4.938,-0.165,0.010
4.940,-0.170,0.030
4.942,-0.195,0.045
4.944,-0.140,0.050
4.946,-0.050,0.055
4.948,-0.025,0.055
4.950,0.075,0.050
4.952,0.135,0.045
4.954,0.055,0.035
4.956,-0.075,0.030
4.958,-0.170,0.025
4.960,-0.200,0.020
4.962,-0.245,0.015
4.964,-0.240,0.005
4.966,-0.175,-0.005
4.968,-0.065,-0.015
4.970,0.055,-0.020
4.972,0.025,-0.025
4.974,-0.035,-0.025
4.976,-0.150,-0.020
4.978,-0.225,-0.020
4.980,-0.310,-0.015
4.982,-0.270,-0.015
4.984,-0.235,-0.020
4.986,-0.170,-0.030
4.988,-0.090,-0.045
4.990,0.000,-0.060
4.992,-0.060,-0.070
4.994,-0.185,-0.075
4.996,-0.295,-0.070
4.998,-0.090,-0.055
5.000,-0.340,-0.035
5.002,-0.390,-0.010
5.004,-0.155,0.015
5.006,-0.085,0.035
5.008,0.000,0.045
5.010,0.085,0.045
5.012,0.050,0.040
5.014,-0.030,0.035
5.016,-0.145,0.025
5.018,-0.195,0.025
5.020,-0.230,0.035
5.022,-0.230,0.055
5.024,-0.140,0.080
5.026,0.095,0.105
5.028,0.090,0.130
5.030,0.215,0.150
5.032,0.205,0.160
5.034,0.035,0.150
5.036,-0.100,0.130
5.038,-0.150,0.095
5.040,-0.265,0.045
5.042,-0.250,-0.005
5.044,-0.160,-0.055
5.046,-0.210,-0.105
5.048,-0.215,-0.145
5.050,-0.245,-0.170
5.052,-0.230,-0.180
5.054,-0.305,-0.180
5.056,-0.310,-0.165
5.058,-0.425,-0.145
5.060,-0.465,-0.120
5.062,-0.450,-0.090
5.064,-0.180,-0.065
5.066,-0.040,-0.045
5.068,-0.100,-0.030
5.070,-0.040,-0.020
5.072,-0.015,-0.015
5.074,-0.095,-0.015
5.076,-0.200,-0.015
5.078,-0.315,-0.020
5.080,-0.280,-0.025
5.082,-0.410,-0.030
5.084,-0.245,-0.035
5.086,-0.125,-0.035
5.088,-0.060,-0.040
5.090,-0.035,-0.040
5.092,-0.040,-0.040
5.094,-0.135,-0.035
5.096,-0.265,-0.035
5.098,-0.460,-0.035
5.100,-0.335,-0.040
5.102,-0.355,-0.045
5.104,-0.330,-0.050
5.106,-0.105,-0.055
5.108,0.040,-0.060
5.110,-0.060,-0.060
5.112,-0.125,-0.060
5.114,-0.225,-0.055
5.116,-0.305,-0.045
5.118,-0.440,-0.035
5.120,-0.250,-0.020
5.122,-0.180,-0.010
5.124,-0.270,-0.005
5.126,-0.185,0.000
5.128,0.015,0.005
5.130,-0.040,0.005
5.132,-0.125,0.005
5.134,-0.115,0.005
5.136,-0.135,0.005
5.138,-0.285,0.010
5.140,-0.345,0.010
5.142,-0.345,0.010
5.144,-0.210,0.010
5.146,-0.245,0.000
5.148,0.015,-0.005
5.150,0.015,-0.015
5.152,-0.095,-0.025
5.154,-0.170,-0.035
5.156,-0.205,-0.035
5.158,-0.405,-0.030
5.160,-0.425,-0.025
5.162,-0.330,-0.010
5.164,-0.135,0.005
5.166,-0.095,0.015
5.168,0.035,0.025
5.170,-0.025,0.030
5.172,-0.165,0.030
5.174,-0.115,0.025
5.176,-0.165,0.015
5.178,-0.285,0.005
5.180,-0.390,-0.005
5.182,-0.335,-0.010
5.184,-0.270,-0.015
5.186,-0.190,-0.010
5.188,-0.125,-0.005
5.190,-0.025,0.005
5.192,0.030,0.020
5.194,-0.125,0.035
5.196,-0.120,0.055
5.198,-0.325,0.070
5.200,-0.400,0.085
5.202,-0.200,0.095
5.204,0.020,0.105
5.206,-0.110,0.115
5.208,0.065,0.120
5.210,0.110,0.130
5.212,0.080,0.135
5.214,-0.075,0.145
5.216,-0.070,0.150
5.218,-0.230,0.160
5.220,-0.205,0.165
5.222,-0.130,0.170
5.224,-0.045,0.175
5.226,0.000,0.170
5.228,0.125,0.170
5.230,0.110,0.160
5.232,0.110,0.155
5.234,-0.085,0.150
5.236,-0.120,0.145
5.238,-0.255,0.140
5.240,-0.210,0.140
5.242,-0.145,0.135
5.244,-0.060,0.135
5.246,-0.020,0.130
5.248,0.100,0.130
5.250,0.080,0.120
5.252,-0.070,0.115
5.254,-0.115,0.105
5.256,-0.215,0.095
5.258,-0.255,0.085
5.260,-0.295,0.065
5.262,-0.230,0.045
5.264,-0.235,0.025
5.266,-0.120,-0.005
5.268,-0.060,-0.030
5.270,-0.170,-0.050
5.272,-0.130,-0.065
5.274,-0.395,-0.075
5.276,-0.465,-0.070
5.278,-0.385,-0.060
5.280,-0.330,-0.050
5.282,-0.335,-0.030
5.284,-0.215,-0.020
5.286,-0.130,-0.010
5.288,-0.010,-0.010
5.290,-0.125,-0.020
5.292,-0.180,-0.030
5.294,-0.245,-0.050
5.296,-0.450,-0.065
5.298,-0.515,-0.075
5.300,-0.460,-0.080
5.302,-0.340,-0.075
5.304,-0.265,-0.070
5.306,-0.150,-0.055
5.308,-0.080,-0.040
5.310,-0.070,-0.030
5.312,-0.235,-0.020
5.314,-0.270,-0.015
5.316,-0.280,-0.015
5.318,-0.420,-0.020
5.320,-0.400,-0.030
5.322,-0.345,-0.040
5.324,-0.375,-0.050
5.326,-0.155,-0.055
5.328,-0.180,-0.060
5.330,-0.170,-0.060
5.332,-0.130,-0.050
5.334,-0.150,-0.040
5.336,-0.380,-0.030
5.338,-0.455,-0.020
5.340,-0.410,-0.015
5.342,-0.310,-0.015
5.344,-0.310,-0.020
5.346,-0.155,-0.035
5.348,-0.040,-0.050
5.350,-0.125,-0.070
5.352,-0.320,-0.080
5.354,-0.370,-0.085
5.356,-0.435,-0.085
5.358,-0.405,-0.070
5.360,-0.425,-0.055
5.362,-0.440,-0.035
5.364,-0.205,-0.015
5.366,-0.120,-0.005
5.368,-0.090,0.005
5.370,-0.090,0.000
5.372,-0.190,-0.005
5.374,-0.330,-0.015
5.376,-0.405,-0.025
5.378,-0.400,-0.030
5.380,-0.405,-0.035
5.382,-0.275,-0.040
5.384,-0.310,-0.040
5.386,-0.215,-0.040
5.388,-0.060,-0.045
5.390,-0.165,-0.050
5.392,-0.300,-0.060
5.394,-0.285,-0.070
5.396,-0.475,-0.075
5.398,-0.545,-0.075
5.400,-0.540,-0.070
5.402,-0.345,-0.055
5.404,-0.160,-0.040
5.406,-0.165,-0.020
5.408,-0.175,-0.005
5.410,-0.010,0.010
5.412,-0.160,0.015
5.414,-0.275,0.015
5.416,-0.400,0.010
5.418,-0.490,0.000
5.420,-0.475,-0.010
5.422,-0.430,-0.025
5.424,-0.170,-0.030
5.426,-0.070,-0.035
5.428,-0.160,-0.040
5.430,-0.150,-0.035
5.432,-0.195,-0.030
5.434,-0.255,-0.020
5.436,-0.440,-0.015
5.438,-0.460,-0.005
5.440,-0.380,0.000
5.442,-0.235,0.010
5.444,-0.225,0.015
5.446,-0.175,0.025
5.448,-0.015,0.030
5.450,-0.115,0.035
5.452,-0.190,0.035
5.454,-0.235,0.035
5.456,-0.350,0.025
5.458,-0.415,0.015
5.460,-0.375,0.000
5.462,-0.355,-0.025
5.464,-0.320,-0.050
5.466,-0.175,-0.070
5.468,-0.170,-0.090
5.470,-0.390,-0.110
5.472,-0.265,-0.115
5.474,-0.325,-0.120
5.476,-0.515,-0.110
5.478,-0.530,-0.100
5.480,-0.470,-0.085
5.482,-0.385,-0.070
5.484,-0.290,-0.055
5.486,-0.035,-0.045
5.488,-0.175,-0.040
5.490,-0.190,-0.035
5.492,-0.285,-0.035
5.494,-0.310,-0.030
5.496,-0.470,-0.030
5.498,-0.475,-0.030
5.500,-0.350,-0.025
5.502,-0.310,-0.020
5.504,-0.250,-0.015
5.506,-0.180,-0.015
5.508,-0.065,-0.015
5.510,-0.155,-0.015
5.512,-0.280,-0.020
5.514,-0.305,-0.020
5.516,-0.465,-0.025
5.518,-0.450,-0.025
5.520,-0.475,-0.020
5.522,-0.255,-0.010
5.524,-0.225,0.005
5.526,-0.090,0.020
5.528,-0.085,0.040
5.530,-0.055,0.055
5.532,-0.165,0.065
5.534,-0.140,0.065
5.536,-0.435,0.055
5.538,-0.560,0.040
5.540,-0.305,0.015
5.542,-0.315,-0.015
5.544,-0.215,-0.045
5.546,-0.230,-0.075
5.548,-0.190,-0.095
5.550,-0.225,-0.105
5.552,-0.500,-0.110
5.554,-0.390,-0.105
5.556,-0.540,-0.095
5.558,-0.495,-0.085
5.560,-0.460,-0.075
5.562,-0.340,-0.070
5.564,-0.300,-0.065
5.566,-0.120,-0.065
5.568,-0.195,-0.065
5.570,-0.150,-0.065
5.572,-0.420,-0.060
5.574,-0.455,-0.050
5.576,-0.390,-0.040
5.578,-0.440,-0.030
5.580,-0.355,-0.015
5.582,-0.300,-0.010
5.584,-0.275,0.000
5.586,-0.080,0.000
5.588,-0.130,0.000
5.590,-0.170,-0.005
5.592,-0.330,-0.010
5.594,-0.395,-0.010
5.596,-0.470,-0.015
5.598,-0.385,-0.015
5.600,-0.310,-0.015
5.602,-0.300,-0.015
5.604,-0.110,-0.015
5.606,-0.200,-0.020
5.608,-0.200,-0.025
5.610,-0.225,-0.025
5.612,-0.245,-0.025
5.614,-0.395,-0.025
5.616,-0.450,-0.020
5.618,-0.350,-0.010
5.620,-0.400,-0.010
5.622,-0.280,-0.010
5.624,-0.140,-0.015
5.626,-0.125,-0.025
5.628,-0.215,-0.045
5.630,-0.355,-0.060
5.632,-0.425,-0.075
5.634,-0.335,-0.085
5.636,-0.545,-0.090
5.638,-0.480,-0.080
5.640,-0.350,-0.070
5.642,-0.340,-0.050
5.644,-0.180,-0.035
5.646,-0.125,-0.020
5.648,-0.195,-0.015
5.650,-0.275,-0.015
5.652,-0.275,-0.020
5.654,-0.410,-0.025
5.656,-0.425,-0.035
5.658,-0.495,-0.035
5.660,-0.345,-0.035
5.662,-0.295,-0.025
5.664,-0.205,-0.015
5.666,-0.005,0.000
5.668,-0.125,0.015
5.670,-0.255,0.020
5.672,-0.355,0.025
5.674,-0.320,0.025
5.676,-0.430,0.020
5.678,-0.410,0.015
5.680,-0.285,0.010
5.682,-0.330,0.005
5.684,-0.085,0.005
5.686,0.035,0.005
5.688,-0.210,0.005
5.690,-0.265,0.010
5.692,-0.240,0.015
5.694,-0.365,0.020
5.696,-0.455,0.025
5.698,-0.415,0.030
5.700,-0.285,0.035
5.702,-0.160,0.045
5.704,-0.095,0.060
5.706,-0.060,0.075
5.708,-0.045,0.095
5.710,0.030,0.115
5.712,-0.215,0.130
5.714,-0.365,0.145
5.716,-0.255,0.150
5.718,-0.285,0.155
5.720,-0.220,0.155
5.722,-0.160,0.150
5.724,0.105,0.140
5.726,0.060,0.140
5.728,0.010,0.135
5.730,-0.190,0.135
5.732,-0.170,0.140
5.734,-0.225,0.150
5.736,-0.310,0.155
5.738,-0.195,0.155
5.740,-0.190,0.155
5.742,-0.135,0.150
5.744,0.085,0.145
5.746,-0.025,0.135
5.748,-0.050,0.130
5.750,-0.115,0.125
5.752,-0.095,0.125
5.754,-0.310,0.130
5.756,-0.340,0.135
5.758,-0.180,0.135
5.760,-0.170,0.135
5.762,-0.155,0.125
5.764,-0.015,0.105
5.766,-0.065,0.080
5.768,-0.065,0.055
5.770,-0.175,0.030
5.772,-0.380,0.005
5.774,-0.450,-0.010
5.776,-0.495,-0.020
5.778,-0.515,-0.020
5.780,-0.260,-0.020
5.782,-0.245,-0.015
5.784,-0.080,-0.010
5.786,-0.065,-0.010
5.788,-0.230,-0.010
5.790,-0.315,-0.015
5.792,-0.315,-0.020
5.794,-0.390,-0.020
5.796,-0.530,-0.025
5.798,-0.590,-0.020
5.800,-0.210,-0.020
5.802,-0.260,-0.015
5.804,0.010,-0.010
5.806,-0.085,-0.010
5.808,-0.280,-0.015
5.810,-0.295,-0.020
5.812,-0.310,-0.030
5.814,-0.415,-0.040
5.816,-0.530,-0.050
5.818,-0.520,-0.055
5.820,-0.365,-0.055
5.822,-0.240,-0.050
5.824,-0.150,-0.045
5.826,-0.105,-0.035
5.828,-0.160,-0.025
5.830,-0.255,-0.015
5.832,-0.370,-0.005
5.834,-0.520,-0.005
5.836,-0.470,-0.005
5.838,-0.335,-0.010
5.840,-0.280,-0.015
5.842,-0.225,-0.030
5.844,-0.180,-0.040
5.846,-0.235,-0.050
5.848,-0.190,-0.060
5.850,-0.250,-0.060
5.852,-0.325,-0.060
5.854,-0.505,-0.050
5.856,-0.615,-0.040
5.858,-0.290,-0.025
5.860,-0.340,-0.015
5.862,-0.260,-0.010
5.864,-0.055,-0.010
5.866,-0.155,-0.010
5.868,-0.205,-0.020
5.870,-0.255,-0.030
5.872,-0.385,-0.035
5.874,-0.475,-0.040
5.876,-0.415,-0.045
5.878,-0.390,-0.045
5.880,-0.355,-0.040
5.882,-0.380,-0.035
5.884,-0.110,-0.035
5.886,-0.235,-0.030
5.888,-0.180,-0.025
5.890,-0.150,-0.020
5.892,-0.185,-0.020
5.894,-0.425,-0.015
5.896,-0.435,-0.015
5.898,-0.415,-0.015
5.900,-0.345,-0.010
5.902,-0.270,-0.015
5.904,-0.090,-0.020
5.906,-0.135,-0.025
5.908,-0.185,-0.030
5.910,-0.380,-0.040
5.912,-0.340,-0.045
5.914,-0.435,-0.050
5.916,-0.435,-0.050
5.918,-0.295,-0.045
5.920,-0.395,-0.040
5.922,-0.255,-0.035
5.924,-0.125,-0.025
5.926,-0.185,-0.020
5.928,-0.250,-0.020
5.930,-0.180,-0.020
5.932,-0.275,-0.020
5.934,-0.515,-0.025
5.936,-0.450,-0.025
5.938,-0.330,-0.020
5.940,-0.330,-0.010
5.942,-0.120,0.000
5.944,-0.125,0.015
5.946,-0.175,0.025
5.948,-0.050,0.035
5.950,-0.190,0.035
5.952,-0.355,0.035
5.954,-0.395,0.025
5.956,-0.360,0.010
5.958,-0.335,-0.010
5.960,-0.315,-0.025
5.962,-0.230,-0.040
5.964,-0.110,-0.045
5.966,-0.165,-0.045
5.968,-0.220,-0.040
5.970,-0.215,-0.030
5.972,-0.425,-0.015
5.974,-0.375,-0.005
5.976,-0.380,0.000
5.978,-0.425,0.005
5.980,-0.260,0.005
5.982,-0.140,0.000
5.984,-0.025,-0.010
5.986,-0.115,-0.015
5.988,-0.100,-0.025
5.990,-0.335,-0.030
5.992,-0.415,-0.030
5.994,-0.505,-0.030
5.996,-0.440,-0.035
5.998,-0.405,-0.035
6.000,-0.260,-0.040
6.002,-0.060,-0.045
6.004,-0.135,-0.050
6.006,-0.185,-0.050
6.008,-0.225,-0.050
6.010,-0.320,-0.045
6.012,-0.475,-0.035
6.014,-0.375,-0.025
6.016,-0.345,-0.020
6.018,-0.345,-0.015
6.020,-0.310,-0.015
6.022,-0.185,-0.020
6.024,0.045,-0.030
6.026,-0.160,-0.040
6.028,-0.330,-0.055
6.030,-0.330,-0.060
6.032,-0.485,-0.065
6.034,-0.405,-0.065
6.036,-0.425,-0.065
6.038,-0.350,-0.060
6.040,-0.385,-0.055
6.042,-0.110,-0.050
6.044,-0.210,-0.040
6.046,-0.070,-0.030
6.048,-0.090,-0.015
6.050,-0.280,0.005
6.052,-0.380,0.030
6.054,-0.375,0.050
6.056,-0.215,0.070
6.058,-0.275,0.085
6.060,-0.165,0.090
6.062,0.055,0.085
6.064,0.130,0.075
6.066,0.035,0.055
6.068,-0.300,0.030
6.070,-0.340,0.010
6.072,-0.450,-0.010
6.074,-0.410,-0.025
6.076,-0.325,-0.040
6.078,-0.290,-0.050
6.080,-0.260,-0.065
6.082,-0.145,-0.080
6.084,-0.215,-0.095
6.086,-0.310,-0.115
6.088,-0.435,-0.130
6.090,-0.395,-0.140
6.092,-0.480,-0.145
6.094,-0.490,-0.140
6.096,-0.400,-0.125
6.098,-0.390,-0.105
6.100,-0.305,-0.085
6.102,-0.135,-0.060
6.104,-0.170,-0.045
6.106,-0.115,-0.040
6.108,-0.225,-0.040
6.110,-0.345,-0.045
6.112,-0.440,-0.060
6.114,-0.495,-0.075
6.116,-0.455,-0.085
6.118,-0.460,-0.090
6.120,-0.135,-0.085
6.122,-0.185,-0.075
6.124,-0.165,-0.060
6.126,-0.110,-0.040
6.128,-0.180,-0.020
6.130,-0.255,-0.005
6.132,-0.355,0.005
6.134,-0.415,0.005
6.136,-0.410,0.000
6.138,-0.290,-0.010
6.140,-0.200,-0.025
6.142,-0.105,-0.040
6.144,-0.100,-0.050
6.146,-0.245,-0.055
6.148,-0.295,-0.055
6.150,-0.180,-0.045
6.152,-0.420,-0.035
6.154,-0.375,-0.020
6.156,-0.455,-0.010
6.158,-0.200,0.000
6.160,-0.080,0.010
6.162,-0.090,0.010
6.164,-0.080,0.010
6.166,-0.100,0.010
6.168,-0.190,0.010
6.170,-0.310,0.010
6.172,-0.395,0.005
6.174,-0.340,0.000
6.176,-0.325,-0.010
6.178,-0.295,-0.020
6.180,-0.225,-0.035
6.182,-0.040,-0.050
6.184,-0.075,-0.060
6.186,-0.350,-0.070
6.188,-0.230,-0.065
6.190,-0.400,-0.055
6.192,-0.390,-0.040
6.194,-0.265,-0.015
6.196,-0.285,0.005
6.198,-0.230,0.025
6.200,-0.100,0.035
6.202,-0.045,0.040
6.204,-0.100,0.035
6.206,-0.125,0.030
6.208,-0.205,0.020
6.210,-0.215,0.010
6.212,-0.390,0.005
6.214,-0.320,0.010
6.216,-0.215,0.020
6.218,-0.160,0.030
6.220,-0.085,0.045
6.222,-0.035,0.060
6.224,0.060,0.065
6.226,-0.110,0.070
6.228,-0.085,0.075
6.230,-0.205,0.075
6.232,-0.330,0.070
6.234,-0.315,0.075
6.236,-0.165,0.075
6.238,-0.060,0.080
6.240,-0.095,0.090
6.242,0.140,0.100
6.244,0.030,0.110
6.246,-0.010,0.120
6.248,-0.145,0.135
6.250,-0.090,0.145
6.252,-0.215,0.160
6.254,-0.175,0.170
6.256,-0.060,0.180
6.258,-0.035,0.190
6.260,0.075,0.195
6.262,0.260,0.195
6.264,0.175,0.190
6.266,0.020,0.185
6.268,-0.045,0.175
6.270,-0.180,0.160
6.272,-0.195,0.145
6.274,-0.215,0.130
6.276,-0.220,0.120
6.278,-0.135,0.110
6.280,0.005,0.105
6.282,0.275,0.105
6.284,0.000,0.110
6.286,0.005,0.110
6.288,-0.060,0.115
6.290,-0.135,0.115
6.292,-0.255,0.115
6.294,-0.320,0.105
6.296,-0.205,0.095
6.298,-0.070,0.075
6.300,0.015,0.055
6.302,0.025,0.035
6.304,-0.035,0.020
6.306,-0.065,0.005
6.308,-0.235,-0.005
6.310,-0.500,-0.005
6.312,-0.305,-0.010
6.314,-0.315,-0.005
6.316,-0.225,-0.005
6.318,-0.120,-0.005
6.320,0.005,-0.010
6.322,-0.075,-0.015
6.324,-0.100,-0.020
6.326,-0.170,-0.025
6.328,-0.195,-0.025
6.330,-0.410,-0.025
6.332,-0.315,-0.025
6.334,-0.305,-0.020
6.336,-0.235,-0.020
6.338,-0.270,-0.025
6.340,-0.035,-0.030
6.342,-0.055,-0.040
6.344,-0.125,-0.050
6.346,-0.170,-0.055
6.348,-0.230,-0.065
6.350,-0.360,-0.065
6.352,-0.405,-0.065
6.354,-0.375,-0.060
6.356,-0.245,-0.050
6.358,-0.250,-0.045
6.360,-0.065,-0.040
6.362,0.040,-0.040
6.364,-0.140,-0.045
6.366,-0.090,-0.050
6.368,-0.275,-0.055
6.370,-0.450,-0.060
6.372,-0.445,-0.055
6.374,-0.435,-0.050
6.376,-0.175,-0.035
6.378,-0.130,-0.020
6.380,0.015,-0.005
6.382,-0.010,0.010
6.384,-0.020,0.015
6.386,-0.120,0.020
6.388,-0.175,0.015
6.390,-0.255,0.005
6.392,-0.340,-0.005
6.394,-0.340,-0.020
6.396,-0.250,-0.030
6.398,-0.285,-0.040
6.400,-0.030,-0.040
6.402,-0.015,-0.045
6.404,0.035,-0.040
6.406,-0.190,-0.040
6.408,-0.240,-0.035
6.410,-0.385,-0.035
6.412,-0.380,-0.035
6.414,-0.315,-0.035
6.416,-0.140,-0.040
6.418,-0.185,-0.045
6.420,-0.045,-0.050
6.422,-0.070,-0.050
6.424,-0.135,-0.045
6.426,-0.170,-0.040
6.428,-0.200,-0.030
6.430,-0.330,-0.015
6.432,-0.285,-0.005
6.434,-0.305,0.000
6.436,-0.130,0.005
6.438,-0.060,0.005
6.440,-0.100,0.005
6.442,0.000,-0.005
6.444,-0.085,-0.015
6.446,-0.160,-0.025
6.448,-0.170,-0.035
6.450,-0.385,-0.040
6.452,-0.355,-0.045
6.454,-0.295,-0.045
6.456,-0.140,-0.045
6.458,-0.135,-0.040
6.460,0.005,-0.035
6.462,-0.110,-0.035
6.464,-0.065,-0.030
6.466,-0.145,-0.030
6.468,-0.270,-0.035
6.470,-0.320,-0.035
6.472,-0.295,-0.040
6.474,-0.235,-0.045
6.476,-0.205,-0.050
6.478,-0.120,-0.055
6.480,-0.090,-0.055
6.482,-0.065,-0.050
6.484,-0.085,-0.045
6.486,-0.165,-0.035
6.488,-0.275,-0.025
6.490,-0.355,-0.010
6.492,-0.255,0.000
6.494,-0.195,0.005
6.496,-0.110,0.010
6.498,-0.040,0.005
6.500,-0.025,0.000
6.502,-0.100,-0.015
6.504,-0.055,-0.025
6.506,-0.120,-0.035
6.508,-0.270,-0.045
6.510,-0.380,-0.045
6.512,-0.325,-0.040
6.514,-0.190,-0.030
6.516,-0.100,-0.020
6.518,-0.120,-0.010
6.520,0.070,-0.005
6.522,0.005,-0.005
6.524,-0.115,-0.010
6.526,-0.205,-0.025
6.528,-0.275,-0.035
6.530,-0.390,-0.045
6.532,-0.295,-0.055
6.534,-0.190,-0.055
6.536,-0.115,-0.055
6.538,-0.140,-0.045
6.540,0.060,-0.030
6.542,-0.070,-0.020
6.544,-0.135,-0.010
6.546,-0.135,0.000
6.548,-0.105,0.000
6.550,-0.295,0.000
6.552,-0.295,-0.005
6.554,-0.230,-0.010
6.556,-0.080,-0.010
6.558,0.040,-0.015
6.560,0.050,-0.015
6.562,-0.085,-0.015
6.564,-0.080,-0.010
6.566,-0.175,-0.010
6.568,-0.315,-0.010
6.570,-0.250,-0.010
6.572,-0.260,-0.020
6.574,-0.195,-0.025
6.576,-0.165,-0.035
6.578,-0.060,-0.040
6.580,0.050,-0.045
6.582,0.090,-0.050
6.584,-0.205,-0.050
6.586,-0.215,-0.045
6.588,-0.355,-0.040
6.590,-0.205,-0.030
6.592,-0.280,-0.020
6.594,-0.230,-0.015
6.596,-0.065,-0.015
6.598,-0.015,-0.015
6.600,0.060,-0.020
6.602,-0.050,-0.035
6.604,-0.150,-0.050
6.606,-0.220,-0.065
6.608,-0.330,-0.080
6.610,-0.290,-0.095
6.612,-0.255,-0.100
6.614,-0.160,-0.105
6.616,-0.270,-0.095
6.618,-0.240,-0.085
6.620,-0.080,-0.065
6.622,0.010,-0.045
6.624,0.020,-0.020
6.626,0.050,0.000
6.628,-0.255,0.025
6.630,-0.215,0.050
6.632,-0.185,0.075
6.634,-0.080,0.100
6.636,0.065,0.130
6.638,0.220,0.155
6.640,0.305,0.180
6.642,0.235,0.195
6.644,0.180,0.200
6.646,0.070,0.195
6.648,-0.130,0.170
6.650,-0.175,0.125
6.652,-0.140,0.075
6.654,-0.125,0.010
6.656,-0.130,-0.050
6.658,0.010,-0.100
6.660,-0.115,-0.140
6.662,-0.220,-0.165
6.664,-0.230,-0.175
6.666,-0.265,-0.170
6.668,-0.410,-0.155
6.670,-0.455,-0.140
6.672,-0.285,-0.120
6.674,-0.180,-0.105
6.676,-0.150,-0.100
6.678,-0.070,-0.095
6.680,-0.110,-0.090
6.682,-0.125,-0.085
6.684,0.000,-0.075
6.686,-0.130,-0.060
6.688,-0.285,-0.045
6.690,-0.375,-0.025
6.692,-0.200,-0.005
6.694,-0.140,0.005
6.696,-0.045,0.015
6.698,0.115,0.015
6.700,0.080,0.010
6.702,0.025,0.000
6.704,-0.105,-0.010
6.706,-0.125,-0.020
6.708,-0.245,-0.025
6.710,-0.305,-0.025
6.712,-0.230,-0.025
6.714,-0.095,-0.020
6.716,-0.080,-0.020
6.718,0.050,-0.020
6.720,0.095,-0.020
6.722,0.055,-0.030
6.724,-0.080,-0.035
6.726,-0.150,-0.045
6.728,-0.350,-0.050
6.730,-0.290,-0.050
6.732,-0.305,-0.045
6.734,-0.190,-0.035
6.736,0.015,-0.020
6.738,0.180,-0.005
6.740,0.165,0.010
6.742,0.175,0.025
6.744,-0.115,0.035
6.746,-0.130,0.040
6.748,-0.205,0.035
6.750,-0.255,0.035
6.752,-0.140,0.025
6.754,-0.050,0.020
6.756,0.025,0.015
6.758,0.165,0.015
6.760,0.030,0.020
6.762,0.085,0.025
6.764,0.040,0.025
6.766,-0.135,0.030
6.768,-0.180,0.025
6.770,-0.135,0.020
6.772,-0.165,0.005
6.774,-0.125,-0.010
6.776,-0.045,-0.020
6.778,-0.095,-0.030
6.780,0.015,-0.035
6.782,0.135,-0.025
6.784,0.030,-0.010
6.786,-0.075,0.015
6.788,-0.230,0.035
6.790,-0.250,0.060
6.792,0.000,0.075
6.794,0.010,0.080
6.796,0.025,0.080
6.798,0.145,0.070
6.800,0.195,0.055
6.802,0.145,0.045
6.804,0.055,0.040
6.806,-0.105,0.045
6.808,-0.200,0.055
6.810,-0.180,0.075
6.812,-0.110,0.095
6.814,0.175,0.115
6.816,0.175,0.135
6.818,0.305,0.145
6.820,0.260,0.155
6.822,0.320,0.160
6.824,-0.020,0.160
6.826,-0.020,0.160
6.828,-0.035,0.165
6.830,0.030,0.170
6.832,0.070,0.180
6.834,0.160,0.190
6.836,0.275,0.200
6.838,0.420,0.205
6.840,0.290,0.210
6.842,0.140,0.210
6.844,0.180,0.205
6.846,0.055,0.200
6.848,-0.020,0.195
6.850,0.020,0.190
6.852,0.065,0.185
6.854,0.120,0.180
6.856,0.265,0.175
6.858,0.270,0.165
6.860,0.245,0.160
6.862,0.250,0.155
6.864,0.095,0.145
6.866,0.030,0.130
6.868,-0.085,0.120
6.870,-0.090,0.100
6.872,-0.045,0.085
6.874,0.005,0.070
6.876,0.165,0.050
6.878,0.170,0.040
6.880,0.085,0.030
6.882,0.100,0.025
6.884,0.010,0.020
6.886,-0.105,0.025
6.888,-0.175,0.030
6.890,-0.115,0.035
6.892,0.040,0.035
6.894,-0.030,0.035
6.896,-0.010,0.030
6.898,0.170,0.025
6.900,0.150,0.015
6.902,0.065,0.000
6.904,-0.015,-0.005
6.906,-0.080,-0.010
6.908,-0.210,-0.015
6.910,-0.160,-0.015
6.912,-0.065,-0.015
6.914,-0.040,-0.010
6.916,0.065,-0.010
6.918,0.080,-0.015
6.920,0.135,-0.025
6.922,0.045,-0.035
6.924,-0.125,-0.050
6.926,-0.190,-0.065
6.928,-0.135,-0.075
6.930,-0.245,-0.080
6.932,-0.175,-0.075
6.934,-0.070,-0.065
6.936,0.090,-0.055
6.938,0.020,-0.035
6.940,0.225,-0.015
6.942,0.115,0.000
6.944,-0.055,0.015
6.946,-0.230,0.025
6.948,-0.095,0.030
6.950,-0.045,0.030
6.952,-0.035,0.025
6.954,0.025,0.010
6.956,0.095,0.000
6.958,0.120,-0.010
6.960,0.115,-0.025
6.962,0.015,-0.030
6.964,0.015,-0.035
6.966,-0.220,-0.035
6.968,-0.170,-0.025
6.970,-0.190,-0.020
6.972,-0.020,-0.005
6.974,0.015,0.005
6.976,0.230,0.010
6.978,0.205,0.015
6.980,0.095,0.015
6.982,0.030,0.010
6.984,-0.025,0.005
6.986,-0.085,-0.005
6.988,-0.105,-0.015
6.990,-0.165,-0.020
6.992,-0.010,-0.020
6.994,-0.020,-0.020
6.996,0.135,-0.015
6.998,0.175,-0.010
7.000,0.130,-0.010
7.002,0.060,-0.015
7.004,-0.065,-0.020
7.006,-0.145,-0.035
7.008,-0.120,-0.050
7.010,-0.175,-0.060
7.012,-0.215,-0.070
7.014,-0.085,-0.070
7.016,0.155,-0.060
7.018,0.325,-0.040
7.020,0.090,-0.015
7.022,0.065,0.010
7.024,0.025,0.035
7.026,-0.090,0.055
7.028,-0.030,0.065
7.030,-0.030,0.070
7.032,0.075,0.060
7.034,0.065,0.050
7.036,0.230,0.035
7.038,0.275,0.020
7.040,0.085,0.005
7.042,0.020,-0.005
7.044,0.040,-0.010
7.046,-0.120,-0.015
7.048,-0.165,-0.020
7.050,-0.105,-0.020
7.052,0.035,-0.025
7.054,0.040,-0.030
7.056,0.080,-0.030
7.058,0.135,-0.035
7.060,0.180,-0.035
7.062,0.075,-0.040
7.064,-0.135,-0.040
7.066,-0.105,-0.040
7.068,-0.220,-0.040
7.070,-0.010,-0.040
7.072,0.090,-0.040
7.074,-0.110,-0.045
7.076,0.150,-0.040
7.078,0.170,-0.035
7.080,0.080,-0.025
7.082,0.110,-0.015
7.084,0.025,-0.005
7.086,-0.110,0.005
7.088,-0.090,0.010
7.090,-0.005,0.015
7.092,0.030,0.010
7.094,0.145,0.005
7.096,0.175,-0.005
7.098,0.205,-0.015
7.100,0.140,-0.020
7.102,-0.030,-0.020
7.104,-0.010,-0.020
7.106,-0.100,-0.015
7.108,-0.110,-0.010
7.110,-0.075,-0.015
7.112,-0.005,-0.015
7.114,0.180,-0.025
7.116,0.225,-0.030
7.118,0.215,-0.035
7.120,-0.015,-0.035
7.122,-0.115,-0.025
7.124,0.020,-0.010
7.126,-0.040,0.005
7.128,-0.075,0.025
7.130,0.070,0.045
7.132,0.140,0.055
7.134,0.165,0.060
7.136,0.355,0.050
7.138,0.245,0.040
7.140,0.120,0.025
7.142,0.020,0.015
7.144,-0.035,0.005
7.146,-0.060,0.000
7.148,-0.060,0.000
7.150,-0.010,0.000
7.152,0.140,0.000
7.154,0.180,0.000
7.156,0.245,-0.005
7.158,0.180,-0.010
7.160,0.110,-0.025
7.162,-0.020,-0.030
7.164,-0.190,-0.040
7.166,-0.150,-0.040
7.168,0.075,-0.035
7.170,-0.050,-0.025
7.172,0.185,-0.010
7.174,0.205,0.000
7.176,0.225,0.010
7.178,0.175,0.010
7.180,0.110,0.000
7.182,0.030,-0.015
7.184,-0.080,-0.030
7.186,-0.130,-0.050
7.188,-0.065,-0.070
7.190,0.065,-0.085
7.192,0.025,-0.090
7.194,0.120,-0.090
7.196,0.180,-0.085
7.198,0.045,-0.075
7.200,-0.085,-0.060
7.202,0.125,-0.050
7.204,-0.055,-0.035
7.206,-0.020,-0.025
7.208,0.030,-0.015
7.210,-0.010,0.000
7.212,0.110,0.010
7.214,0.310,0.025
7.216,0.285,0.040
7.218,0.300,0.060
7.220,0.195,0.080
7.222,0.135,0.100
7.224,0.050,0.120
7.226,0.115,0.145
7.228,0.200,0.160
7.230,0.190,0.175
7.232,0.410,0.180
7.234,0.630,0.180
7.236,0.315,0.165
7.238,0.235,0.145
7.240,0.225,0.110
7.242,0.195,0.065
7.244,0.070,0.015
7.246,-0.085,-0.040
7.248,-0.165,-0.090
7.250,-0.110,-0.135
7.252,-0.055,-0.165
7.254,0.050,-0.175
7.256,0.100,-0.175
7.258,0.050,-0.155
7.260,0.085,-0.130
7.262,0.040,-0.100
7.264,-0.100,-0.070
7.266,-0.055,-0.045
7.268,-0.015,-0.035
7.270,0.010,-0.025
7.272,0.045,-0.030
7.274,0.270,-0.030
7.276,0.305,-0.035
7.278,0.170,-0.035
7.280,0.040,-0.030
7.282,0.065,-0.020
7.284,-0.055,-0.010
7.286,0.070,-0.005
7.288,0.025,0.000
7.290,0.095,-0.005
7.292,0.060,-0.015
7.294,0.240,-0.030
7.296,0.285,-0.045
7.298,0.145,-0.060
7.300,0.120,-0.070
7.302,0.030,-0.075
7.304,-0.090,-0.065
7.306,-0.160,-0.055
7.308,-0.020,-0.040
7.310,0.130,-0.025
7.312,0.200,-0.015
7.314,0.235,-0.005
7.316,0.210,-0.005
7.318,0.285,-0.010
7.320,0.170,-0.020
7.322,0.005,-0.030
7.324,0.000,-0.040
7.326,-0.015,-0.045
7.328,-0.070,-0.045
7.330,0.030,-0.040
7.332,0.265,-0.030
7.334,0.270,-0.020
7.336,0.330,-0.005
7.338,0.210,0.000
7.340,0.140,0.005
7.342,0.140,0.010
7.344,0.020,0.005
7.346,0.020,0.005
7.348,0.035,0.000
7.350,0.115,0.000
7.352,0.230,0.000
7.354,0.345,0.000
7.356,0.345,0.005
7.358,0.200,0.015
7.360,0.155,0.020
7.362,0.160,0.025
7.364,0.010,0.025
7.366,0.070,0.025
7.368,0.115,0.020
7.370,0.120,0.010
7.372,0.185,0.005
7.374,0.240,0.000
7.376,0.250,0.005
7.378,0.330,0.010
7.380,0.110,0.020
7.382,0.215,0.035
7.384,0.130,0.050
7.386,0.060,0.060
7.388,0.100,0.065
7.390,0.240,0.065
7.392,0.295,0.055
7.394,0.345,0.050
7.396,0.360,0.040
7.398,0.240,0.035
7.400,0.155,0.035
7.402,0.185,0.045
7.404,0.110,0.060
7.406,0.060,0.080
7.408,0.175,0.105
7.410,0.325,0.125
7.412,0.465,0.140
7.414,0.565,0.155
7.416,0.395,0.160
7.418,0.430,0.160
7.420,0.365,0.160
7.422,0.245,0.160
7.424,0.190,0.155
7.426,0.245,0.160
7.428,0.210,0.160
7.430,0.295,0.165
7.432,0.435,0.165
7.434,0.510,0.165
7.436,0.560,0.170
7.438,0.430,0.170
7.440,0.390,0.170
7.442,0.295,0.170
7.444,0.255,0.170
7.446,0.160,0.170
7.448,0.270,0.170
7.450,0.355,0.170
7.452,0.455,0.165
7.454,0.485,0.155
7.456,0.525,0.135
7.458,0.365,0.115
7.460,0.270,0.090
7.462,0.195,0.065
7.464,0.140,0.040
7.466,0.060,0.020
7.468,-0.010,0.010
7.470,0.115,0.000
7.472,0.400,0.000
7.474,0.400,0.000
7.476,0.325,0.005
7.478,0.210,0.005
7.480,0.230,0.000
7.482,0.130,-0.005
7.484,0.085,-0.010
7.486,-0.040,-0.015
7.488,0.045,-0.020
7.490,0.190,-0.020
7.492,0.360,-0.020
7.494,0.400,-0.015
7.496,0.420,-0.005
7.498,0.275,0.000
7.500,0.100,0.000
7.502,-0.025,0.000
7.504,0.060,-0.010
7.506,0.080,-0.025
7.508,0.090,-0.045
7.510,0.095,-0.060
7.512,0.255,-0.080
7.514,0.295,-0.090
7.516,0.345,-0.095
7.518,0.205,-0.090
7.520,0.055,-0.080
7.522,-0.035,-0.065
7.524,0.035,-0.050
7.526,0.000,-0.040
7.528,0.160,-0.025
7.530,0.195,-0.020
7.532,0.380,-0.020
7.534,0.370,-0.025
7.536,0.325,-0.030
7.538,0.220,-0.035
7.540,0.130,-0.045
7.542,0.035,-0.050
7.544,0.000,-0.055
7.546,-0.015,-0.055
7.548,0.100,-0.060
7.550,0.275,-0.060
7.552,0.320,-0.060
7.554,0.390,-0.065
7.556,0.255,-0.065
7.558,0.185,-0.070
7.560,0.160,-0.075
7.562,-0.015,-0.080
7.564,0.060,-0.080
7.566,-0.120,-0.075
7.568,0.050,-0.070
7.570,0.280,-0.060
7.572,0.420,-0.045
7.574,0.465,-0.025
7.576,0.435,-0.010
7.578,0.240,0.005
7.580,0.175,0.015
7.582,0.080,0.020
7.584,0.090,0.015
7.586,0.095,0.000
7.588,0.255,-0.015
7.590,0.185,-0.030
7.592,0.365,-0.045
7.594,0.385,-0.060
7.596,0.305,-0.065
7.598,0.225,-0.060
7.600,0.130,-0.055
7.602,-0.040,-0.045
7.604,0.095,-0.040
7.606,0.090,-0.030
7.608,0.165,-0.030
7.610,0.280,-0.030
7.612,0.345,-0.035
7.614,0.360,-0.040
7.616,0.360,-0.040
7.618,0.180,-0.040
7.620,0.230,-0.035
7.622,0.050,-0.030
7.624,0.040,-0.025
7.626,0.165,-0.025
7.628,0.180,-0.025
7.630,0.240,-0.030
7.632,0.445,-0.040
7.634,0.335,-0.050
7.636,0.310,-0.060
7.638,0.240,-0.070
7.640,0.070,-0.080
7.642,0.050,-0.085
7.644,-0.015,-0.080
7.646,0.120,-0.080
7.648,0.265,-0.075
7.650,0.155,-0.065
7.652,0.305,-0.055
7.654,0.400,-0.045
7.656,0.445,-0.030
7.658,0.270,-0.020
7.660,0.230,-0.010
7.662,0.050,0.000
7.664,0.100,0.005
7.666,0.105,0.005
7.668,0.395,-0.005
7.670,0.275,-0.015
7.672,0.375,-0.025
7.674,0.355,-0.035
7.676,0.280,-0.045
7.678,0.260,-0.045
7.680,0.260,-0.045
7.682,0.095,-0.035
7.684,0.110,-0.030
7.686,0.050,-0.020
7.688,0.235,-0.010
7.690,0.460,-0.010
7.692,0.375,-0.010
7.694,0.330,-0.015
7.696,0.380,-0.015
7.698,0.295,-0.020
7.700,0.220,-0.020
7.702,0.110,-0.020
7.704,0.105,-0.020
7.706,0.185,-0.015
7.708,0.280,-0.015
7.710,0.310,-0.020
7.712,0.445,-0.030
7.714,0.365,-0.040
7.716,0.285,-0.055
7.718,0.215,-0.070
7.720,0.220,-0.085
7.722,0.045,-0.095
7.724,0.060,-0.095
7.726,-0.035,-0.095
7.728,0.165,-0.090
7.730,0.370,-0.075
7.732,0.430,-0.065
7.734,0.385,-0.050
7.736,0.340,-0.040
7.738,0.260,-0.030
7.740,0.170,-0.030
7.742,0.120,-0.035
7.744,0.095,-0.040
7.746,0.140,-0.050
7.748,0.260,-0.065
7.750,0.315,-0.075
7.752,0.405,-0.080
7.754,0.365,-0.085
7.756,0.330,-0.080
7.758,0.180,-0.070
7.760,0.130,-0.055
7.762,0.050,-0.040
7.764,0.035,-0.025
7.766,0.330,-0.015
7.768,0.295,-0.005
7.770,0.385,-0.005
7.772,0.465,-0.005
7.774,0.515,-0.005
7.776,0.360,0.005
7.778,0.295,0.020
7.780,0.205,0.040
7.782,0.275,0.075
7.784,0.250,0.110
7.786,0.380,0.145
7.788,0.600,0.175
7.790,0.610,0.195
7.792,0.720,0.195
7.794,0.560,0.175
7.796,0.490,0.135
7.798,0.330,0.085
7.800,0.220,0.020
7.802,0.120,-0.045
7.804,0.050,-0.105
7.806,0.140,-0.160
7.808,0.060,-0.195
7.810,0.110,-0.220
7.812,0.275,-0.225
7.814,0.235,-0.215
7.816,0.205,-0.195
7.818,0.135,-0.170
7.820,0.125,-0.140
7.822,0.125,-0.115
7.824,0.065,-0.090
7.826,0.185,-0.075
7.828,0.230,-0.060
7.830,0.370,-0.055
7.832,0.395,-0.050
7.834,0.425,-0.050
7.836,0.385,-0.045
7.838,0.245,-0.045
7.840,0.105,-0.040
7.842,0.175,-0.035
7.844,0.140,-0.035
7.846,0.250,-0.040
7.848,0.290,-0.050
7.850,0.355,-0.060
7.852,0.415,-0.075
7.854,0.380,-0.090
7.856,0.270,-0.095
7.858,0.155,-0.095
7.860,0.035,-0.085
7.862,0.105,-0.070
7.864,0.235,-0.050
7.866,0.290,-0.025
7.868,0.370,-0.005
7.870,0.455,0.010
7.872,0.495,0.015
7.874,0.415,0.015
7.876,0.345,0.005
7.878,0.375,-0.015
7.880,0.090,-0.035
7.882,0.110,-0.055
7.884,0.255,-0.065
7.886,0.350,-0.070
7.888,0.295,-0.070
7.890,0.240,-0.060
7.892,0.450,-0.040
7.894,0.475,-0.025
7.896,0.360,-0.005
7.898,0.325,0.010
7.900,0.235,0.015
7.902,0.200,0.015
7.904,0.210,0.005
7.906,0.315,-0.010
7.908,0.345,-0.020
7.910,0.450,-0.035
7.912,0.510,-0.040
7.914,0.410,-0.040
7.916,0.270,-0.035
7.918,0.415,-0.025
7.920,0.060,-0.015
7.922,0.145,-0.005
7.924,0.335,0.000
7.926,0.375,-0.005
7.928,0.275,-0.010
7.930,0.590,-0.015
7.932,0.420,-0.025
7.934,0.415,-0.030
7.936,0.365,-0.030
7.938,0.305,-0.025
7.940,0.240,-0.015
7.942,0.200,0.000
7.944,0.255,0.015
7.946,0.425,0.030
7.948,0.400,0.045
7.950,0.530,0.055
7.952,0.580,0.065
7.954,0.605,0.080
7.956,0.505,0.085
7.958,0.415,0.095
7.960,0.235,0.105
7.962,0.265,0.110
7.964,0.390,0.110
7.966,0.445,0.105
7.968,0.525,0.100
7.970,0.695,0.095
7.972,0.560,0.090
7.974,0.550,0.095
7.976,0.520,0.105
7.978,0.365,0.120
7.980,0.295,0.145
7.982,0.500,0.170
7.984,0.490,0.195
7.986,0.625,0.210
7.988,0.595,0.215
7.990,0.660,0.210
7.992,0.680,0.200
7.994,0.570,0.185
7.996,0.615,0.175
7.998,0.505,0.165
8.000,0.385,0.170
8.002,0.365,0.175
8.004,0.505,0.180
8.006,0.540,0.185
8.008,0.680,0.185
8.010,0.725,0.170
8.012,0.565,0.145
8.014,0.600,0.115
8.016,0.435,0.080
8.018,0.360,0.045
8.020,0.130,0.025
8.022,0.265,0.010
8.024,0.345,0.015
8.026,0.415,0.025
8.028,0.580,0.040
8.030,0.535,0.050
8.032,0.515,0.055
8.034,0.525,0.045
8.036,0.385,0.030
8.038,0.320,0.000
8.040,0.180,-0.035
8.042,0.155,-0.065
8.044,0.235,-0.090
8.046,0.325,-0.105
8.048,0.430,-0.105
8.050,0.380,-0.095
8.052,0.325,-0.080
8.054,0.390,-0.060
8.056,0.460,-0.040
8.058,0.255,-0.025
8.060,0.210,-0.015
8.062,0.200,-0.010
8.064,0.350,-0.010
8.066,0.425,-0.010
8.068,0.395,-0.010
8.070,0.500,-0.015
8.072,0.525,-0.015
8.074,0.515,-0.015
8.076,0.390,-0.015
8.078,0.240,-0.020
8.080,0.220,-0.025
8.082,0.185,-0.030
8.084,0.295,-0.040
8.086,0.395,-0.050
8.088,0.455,-0.050
8.090,0.415,-0.050
8.092,0.460,-0.050
8.094,0.470,-0.040
8.096,0.360,-0.035
8.098,0.260,-0.035
8.100,0.185,-0.035
8.102,0.160,-0.045
8.104,0.275,-0.050
8.106,0.385,-0.065
8.108,0.385,-0.070
8.110,0.520,-0.075
8.112,0.460,-0.070
8.114,0.430,-0.060
8.116,0.370,-0.045
8.118,0.260,-0.030
8.120,0.220,-0.020
8.122,0.215,-0.015
8.124,0.360,-0.020
8.126,0.405,-0.030
8.128,0.480,-0.040
8.130,0.485,-0.055
8.132,0.370,-0.060
8.134,0.405,-0.060
8.136,0.345,-0.050
8.138,0.275,-0.030
8.140,0.205,-0.010
8.142,0.345,0.005
8.144,0.370,0.020
8.146,0.450,0.020
8.148,0.520,0.010
8.150,0.590,-0.005
8.152,0.510,-0.025
8.154,0.340,-0.045
8.156,0.345,-0.060
8.158,0.160,-0.060
8.160,0.240,-0.055
8.162,0.270,-0.040
8.164,0.370,-0.020
8.166,0.510,-0.005
8.168,0.525,0.005
8.170,0.640,0.005
8.172,0.485,0.000
8.174,0.315,-0.010
8.176,0.380,-0.025
8.178,0.220,-0.035
8.180,0.280,-0.040
8.182,0.325,-0.035
8.184,0.320,-0.025
8.186,0.325,-0.010
8.188,0.600,0.005
8.190,0.665,0.015
8.192,0.625,0.020
8.194,0.385,0.015
8.196,0.365,0.010
8.198,0.200,0.000
8.200,0.290,-0.010
8.202,0.300,-0.020
8.204,0.370,-0.020
8.206,0.365,-0.020
8.208,0.590,-0.015
8.210,0.545,-0.010
8.212,0.485,-0.010
8.214,0.380,-0.010
8.216,0.485,-0.015
8.218,0.190,-0.015
8.220,0.295,-0.020
8.222,0.245,-0.020
8.224,0.385,-0.020
8.226,0.435,-0.010
8.228,0.590,0.000
8.230,0.615,0.015
8.232,0.570,0.025
8.234,0.470,0.035
8.236,0.430,0.040
8.238,0.275,0.040
8.240,0.320,0.035
8.242,0.325,0.030
8.244,0.400,0.020
8.246,0.535,0.010
8.248,0.545,0.005
8.250,0.595,-0.005
8.252,0.560,-0.010
8.254,0.455,-0.015
8.256,0.355,-0.020
8.258,0.170,-0.025
8.260,0.255,-0.030
8.262,0.305,-0.030
8.264,0.405,-0.035
8.266,0.375,-0.040
8.268,0.540,-0.040
8.270,0.525,-0.045
8.272,0.555,-0.045
8.274,0.440,-0.050
8.276,0.355,-0.050
8.278,0.175,-0.050
8.280,0.205,-0.050
8.282,0.290,-0.055
8.284,0.325,-0.055
8.286,0.470,-0.060
8.288,0.565,-0.060
8.290,0.555,-0.070
8.292,0.505,-0.075
8.294,0.340,-0.085
8.296,0.200,-0.090
8.298,0.160,-0.095
8.300,0.200,-0.095
8.302,0.300,-0.085
8.304,0.455,-0.070
8.306,0.375,-0.050
8.308,0.505,-0.025
8.310,0.675,0.005
8.312,0.665,0.040
8.314,0.550,0.065
8.316,0.425,0.095
8.318,0.365,0.115
8.320,0.370,0.130
8.322,0.395,0.145
8.324,0.465,0.155
8.326,0.735,0.165
8.328,0.950,0.175
8.330,0.910,0.175
8.332,0.755,0.175
8.334,0.520,0.160
8.336,0.415,0.135
8.338,0.290,0.095
8.340,0.305,0.045
8.342,0.385,-0.015
8.344,0.420,-0.075
8.346,0.385,-0.135
8.348,0.420,-0.180
8.350,0.380,-0.205
8.352,0.240,-0.215
8.354,0.150,-0.205
8.356,0.240,-0.185
8.358,0.065,-0.155
8.360,0.280,-0.120
8.362,0.295,-0.095
8.364,0.375,-0.070
8.366,0.455,-0.060
8.368,0.520,-0.060
8.370,0.530,-0.060
8.372,0.490,-0.065
8.374,0.455,-0.065
8.376,0.350,-0.060
8.378,0.245,-0.050
8.380,0.220,-0.040
8.382,0.300,-0.025
8.384,0.435,-0.015
8.386,0.600,-0.010
8.388,0.665,-0.010
8.390,0.555,-0.020
8.392,0.495,-0.030
8.394,0.435,-0.040
8.396,0.290,-0.050
8.398,0.225,-0.050
8.400,0.285,-0.045
8.402,0.365,-0.035
8.404,0.475,-0.020
8.406,0.600,-0.005
8.408,0.600,0.010
8.410,0.665,0.015
8.412,0.550,0.015
8.414,0.505,0.010
8.416,0.260,0.000
8.418,0.230,-0.010
8.420,0.310,-0.015
8.422,0.385,-0.020
8.424,0.555,-0.020
8.426,0.620,-0.010
8.428,0.560,0.000
8.430,0.600,0.010
8.432,0.525,0.015
8.434,0.380,0.020
8.436,0.235,0.015
8.438,0.405,0.000
8.440,0.375,-0.020
8.442,0.355,-0.035
8.444,0.465,-0.050
8.446,0.625,-0.060
8.448,0.405,-0.060
8.450,0.595,-0.045
8.452,0.415,-0.025
8.454,0.480,0.005
8.456,0.360,0.030
8.458,0.440,0.050
8.460,0.405,0.065
8.462,0.450,0.065
8.464,0.470,0.060
8.466,0.685,0.045
8.468,0.630,0.025
8.470,0.560,0.010
8.472,0.605,0.000
8.474,0.440,0.000
8.476,0.305,0.010
8.478,0.325,0.020
8.480,0.375,0.040
8.482,0.500,0.060
8.484,0.610,0.075
8.486,0.680,0.080
8.488,0.690,0.085
8.490,0.650,0.085
8.492,0.585,0.085
8.494,0.540,0.080
8.496,0.440,0.080
8.498,0.405,0.080
8.500,0.495,0.090
8.502,0.440,0.095
8.504,0.510,0.105
8.506,0.770,0.115
8.508,0.820,0.125
8.510,0.760,0.135
8.512,0.660,0.145
8.514,0.675,0.155
8.516,0.430,0.165
8.518,0.400,0.180
8.520,0.490,0.195
8.522,0.730,0.210
8.524,0.895,0.220
8.526,0.950,0.225
8.528,0.800,0.225
8.530,0.760,0.215
8.532,0.655,0.205
8.534,0.565,0.190
8.536,0.545,0.180
8.538,0.570,0.170
8.540,0.635,0.165
8.542,0.545,0.160
8.544,0.700,0.165
8.546,0.825,0.165
8.548,0.815,0.170
8.550,0.815,0.165
8.552,0.645,0.160
8.554,0.475,0.145
8.556,0.415,0.125
8.558,0.395,0.105
8.560,0.425,0.085
8.562,0.530,0.065
8.564,0.620,0.045
8.566,0.645,0.035
8.568,0.690,0.030
8.570,0.720,0.030
8.572,0.510,0.035
8.574,0.435,0.035
8.576,0.355,0.035
8.578,0.305,0.030
8.580,0.440,0.025
8.582,0.450,0.010
8.584,0.560,0.000
8.586,0.665,-0.015
8.588,0.655,-0.025
8.590,0.565,-0.030
8.592,0.465,-0.030
8.594,0.395,-0.025
8.596,0.315,-0.015
8.598,0.350,-0.005
8.600,0.285,0.005
8.602,0.545,0.010
8.604,0.535,0.010
8.606,0.705,0.005
8.608,0.655,-0.005
8.610,0.615,-0.015
8.612,0.460,-0.025
8.614,0.435,-0.035
8.616,0.220,-0.040
8.618,0.300,-0.045
8.620,0.315,-0.040
8.622,0.455,-0.040
8.624,0.525,-0.040
8.626,0.590,-0.040
8.628,0.615,-0.040
8.630,0.565,-0.045
8.632,0.465,-0.050
8.634,0.350,-0.055
8.636,0.225,-0.055
8.638,0.300,-0.050
8.640,0.330,-0.045
8.642,0.390,-0.035
8.644,0.525,-0.025
8.646,0.725,-0.020
8.648,0.675,-0.015
8.650,0.610,-0.020
8.652,0.500,-0.025
8.654,0.455,-0.040
8.656,0.155,-0.055
8.658,0.320,-0.065
8.660,0.240,-0.075
8.662,0.315,-0.075
8.664,0.525,-0.070
8.666,0.720,-0.060
8.668,0.615,-0.050
8.670,0.635,-0.035
8.672,0.455,-0.020
8.674,0.420,-0.015
8.676,0.295,-0.010
8.678,0.310,-0.015
8.680,0.370,-0.020
8.682,0.455,-0.030
8.684,0.595,-0.040
8.686,0.645,-0.045
8.688,0.600,-0.040
8.690,0.555,-0.035
8.692,0.465,-0.025
8.694,0.420,-0.015
8.696,0.350,-0.005
8.698,0.405,0.000
8.700,0.450,0.005
8.702,0.425,0.005
8.704,0.610,-0.005
8.706,0.685,-0.010
8.708,0.655,-0.020
8.710,0.570,-0.030
8.712,0.420,-0.035
8.714,0.340,-0.035
8.716,0.265,-0.035
8.718,0.335,-0.030
8.720,0.460,-0.030
8.722,0.490,-0.025
8.724,0.615,-0.020
8.726,0.695,-0.015
8.728,0.665,-0.010
8.730,0.515,0.000
8.732,0.500,0.005
8.734,0.405,0.015
8.736,0.360,0.020
8.738,0.455,0.020
8.740,0.485,0.010
8.742,0.470,0.000
8.744,0.600,-0.015
8.746,0.730,-0.035
8.748,0.640,-0.050
8.750,0.375,-0.060
8.752,0.455,-0.065
8.754,0.260,-0.065
8.756,0.255,-0.055
8.758,0.400,-0.035
8.760,0.490,-0.020
8.762,0.535,0.000
8.764,0.755,0.010
8.766,0.660,0.020
8.768,0.625,0.020
8.770,0.590,0.020
8.772,0.530,0.020
8.774,0.365,0.015
8.776,0.380,0.015
8.778,0.420,0.015
8.780,0.520,0.015
8.782,0.585,0.010
8.784,0.690,0.005
8.786,0.635,-0.005
8.788,0.585,-0.020
8.790,0.530,-0.040
8.792,0.340,-0.060
8.794,0.255,-0.075
8.796,0.275,-0.085
8.798,0.410,-0.090
8.800,0.410,-0.090
8.802,0.395,-0.080
8.804,0.615,-0.065
8.806,0.590,-0.050
8.808,0.655,-0.040
8.810,0.505,-0.025
8.812,0.415,-0.020
8.814,0.350,-0.015
8.816,0.330,-0.015
8.818,0.395,-0.020
8.820,0.495,-0.020
8.822,0.565,-0.020
8.824,0.640,-0.025
8.826,0.635,-0.025
8.828,0.665,-0.025
8.830,0.520,-0.025
8.832,0.410,-0.025
8.834,0.250,-0.025
8.836,0.280,-0.030
8.838,0.405,-0.030
8.840,0.500,-0.025
8.842,0.560,-0.015
8.844,0.740,-0.005
8.846,0.715,0.015
8.848,0.660,0.040
8.850,0.585,0.070
8.852,0.510,0.095
8.854,0.410,0.125
8.856,0.615,0.145
8.858,0.625,0.155
8.860,0.730,0.155
8.862,0.700,0.145
8.864,0.790,0.120
8.866,0.755,0.085
8.868,0.580,0.040
8.870,0.500,-0.005
8.872,0.415,-0.050
8.874,0.440,-0.090
8.876,0.320,-0.125
8.878,0.205,-0.150
8.880,0.295,-0.160
8.882,0.240,-0.165
8.884,0.570,-0.160
8.886,0.535,-0.150
8.888,0.500,-0.135
8.890,0.465,-0.120
8.892,0.370,-0.105
8.894,0.345,-0.095
8.896,0.280,-0.085
8.898,0.340,-0.075
8.900,0.395,-0.070
8.902,0.420,-0.060
8.904,0.605,-0.055
8.906,0.715,-0.045
8.908,0.655,-0.040
8.910,0.465,-0.035
8.912,0.415,-0.030
8.914,0.355,-0.030
8.916,0.320,-0.030
8.918,0.375,-0.030
8.920,0.505,-0.030
8.922,0.605,-0.030
8.924,0.690,-0.025
8.926,0.700,-0.020
8.928,0.550,-0.015
8.930,0.450,-0.010
8.932,0.450,-0.010
8.934,0.335,-0.010
8.936,0.395,-0.015
8.938,0.445,-0.025
8.940,0.450,-0.040
8.942,0.465,-0.055
8.944,0.630,-0.070
8.946,0.700,-0.080
8.948,0.505,-0.085
8.950,0.425,-0.085
8.952,0.320,-0.075
8.954,0.335,-0.060
8.956,0.395,-0.045
8.958,0.455,-0.030
8.960,0.495,-0.015
8.962,0.580,-0.010
8.964,0.565,-0.005
8.966,0.685,-0.005
8.968,0.605,-0.005
8.970,0.525,-0.010
8.972,0.460,-0.010
8.974,0.380,-0.010
8.976,0.385,-0.005
8.978,0.455,-0.005
8.980,0.550,-0.005
8.982,0.660,-0.010
8.984,0.625,-0.015
8.986,0.705,-0.025
8.988,0.505,-0.035
8.990,0.425,-0.040
8.992,0.475,-0.040
8.994,0.385,-0.035
8.996,0.395,-0.020
8.998,0.355,-0.005
9.000,0.395,0.015
9.002,0.660,0.035
9.004,0.905,0.055
9.006,0.815,0.065
9.008,0.665,0.065
9.010,0.585,0.065
9.012,0.425,0.055
9.014,0.325,0.045
9.016,0.365,0.035
9.018,0.545,0.030
9.020,0.565,0.025
9.022,0.765,0.025
9.024,0.770,0.030
9.026,0.660,0.035
9.028,0.520,0.045
9.030,0.570,0.055
9.032,0.465,0.065
9.034,0.435,0.075
9.036,0.440,0.090
9.038,0.625,0.105
9.040,0.730,0.120
9.042,0.805,0.135
9.044,0.865,0.150
9.046,0.835,0.165
9.048,0.790,0.180
9.050,0.705,0.195
9.052,0.610,0.210
9.054,0.595,0.215
9.056,0.625,0.215
9.058,0.705,0.215
9.060,0.725,0.200
9.062,0.895,0.185
9.064,0.885,0.165
9.066,0.785,0.140
9.068,0.700,0.120
9.070,0.615,0.110
9.072,0.445,0.100
9.074,0.450,0.105
9.076,0.550,0.115
9.078,0.660,0.130
9.080,0.685,0.150
9.082,0.910,0.160
9.084,0.940,0.165
9.086,0.755,0.155
9.088,0.665,0.140
9.090,0.630,0.115
9.092,0.405,0.085
9.094,0.385,0.055
9.096,0.460,0.030
9.098,0.540,0.010
9.100,0.540,-0.005
9.102,0.670,-0.010
9.104,0.670,-0.015
9.106,0.605,-0.020
9.108,0.535,-0.025
9.110,0.510,-0.030
9.112,0.315,-0.040
9.114,0.290,-0.050
9.116,0.445,-0.060
9.118,0.320,-0.060
9.120,0.530,-0.055
9.122,0.695,-0.050
9.124,0.590,-0.035
9.126,0.695,-0.020
9.128,0.585,-0.010
9.130,0.475,-0.005
9.132,0.285,-0.010
9.134,0.340,-0.020
9.136,0.385,-0.030
9.138,0.440,-0.045
9.140,0.480,-0.060
9.142,0.615,-0.065
9.144,0.615,-0.065
9.146,0.655,-0.060
9.148,0.535,-0.045
9.150,0.410,-0.030
9.152,0.350,-0.020
9.154,0.350,-0.010
9.156,0.495,-0.005
9.158,0.475,-0.005
9.160,0.550,-0.010
9.162,0.610,-0.025
9.164,0.640,-0.035
9.166,0.700,-0.045
9.168,0.495,-0.050
9.170,0.450,-0.050
9.172,0.340,-0.050
9.174,0.285,-0.045
9.176,0.245,-0.040
9.178,0.460,-0.035
9.180,0.620,-0.035
9.182,0.685,-0.030
9.184,0.725,-0.035
9.186,0.620,-0.035
9.188,0.480,-0.035
9.190,0.405,-0.035
9.192,0.300,-0.035
9.194,0.370,-0.035
9.196,0.430,-0.030
9.198,0.440,-0.030
9.200,0.490,-0.030
9.202,0.735,-0.035
9.204,0.690,-0.035
9.206,0.570,-0.035
9.208,0.480,-0.040
9.210,0.470,-0.040
9.212,0.320,-0.035
9.214,0.355,-0.030
9.216,0.340,-0.025
9.218,0.515,-0.020
9.220,0.625,-0.015
9.222,0.750,-0.010
9.224,0.710,-0.005
9.226,0.570,-0.010
9.228,0.520,-0.015
9.230,0.450,-0.020
9.232,0.350,-0.030
9.234,0.265,-0.035
9.236,0.465,-0.040
9.238,0.435,-0.045
9.240,0.490,-0.045
9.242,0.595,-0.045
9.244,0.765,-0.040
9.246,0.695,-0.030
9.248,0.515,-0.025
9.250,0.320,-0.020
9.252,0.310,-0.015
9.254,0.370,-0.010
9.256,0.420,-0.010
9.258,0.500,-0.010
9.260,0.630,-0.010
9.262,0.740,-0.010
9.264,0.710,-0.005
9.266,0.580,-0.005
9.268,0.535,-0.005
9.270,0.450,0.000
9.272,0.390,0.000
9.274,0.400,-0.005
9.276,0.395,-0.015
9.278,0.455,-0.020
9.280,0.615,-0.030
9.282,0.740,-0.040
9.284,0.610,-0.045
9.286,0.520,-0.040
9.288,0.485,-0.030
9.290,0.375,-0.020
9.292,0.405,0.000
9.294,0.445,0.020
9.296,0.505,0.035
9.298,0.565,0.045
9.300,0.640,0.050
9.302,0.795,0.045
9.304,0.790,0.035
9.306,0.560,0.025
9.308,0.500,0.015
9.310,0.440,0.010
9.312,0.395,0.010
9.314,0.410,0.015
9.316,0.525,0.020
9.318,0.570,0.025
9.320,0.660,0.025
9.322,0.690,0.020
9.324,0.655,0.010
9.326,0.555,-0.010
9.328,0.470,-0.025
9.330,0.285,-0.040
9.332,0.330,-0.050
9.334,0.380,-0.050
9.336,0.495,-0.050
9.338,0.520,-0.040
9.340,0.650,-0.035
9.342,0.655,-0.030
9.344,0.630,-0.030
9.346,0.485,-0.035
9.348,0.460,-0.045
9.350,0.315,-0.055
9.352,0.305,-0.065
9.354,0.300,-0.070
9.356,0.435,-0.070
9.358,0.555,-0.065
9.360,0.695,-0.050
9.362,0.590,-0.035
9.364,0.610,-0.020
9.366,0.525,-0.015
9.368,0.615,-0.010
9.370,0.370,-0.015
9.372,0.350,-0.020
9.374,0.385,-0.030
9.376,0.290,-0.030
9.378,0.445,-0.030
9.380,0.765,-0.015
9.382,0.735,0.005
9.384,0.745,0.035
9.386,0.670,0.070
9.388,0.540,0.100
9.390,0.485,0.130
9.392,0.530,0.155
9.394,0.610,0.165
9.396,0.680,0.170
9.398,0.740,0.155
9.400,0.810,0.135
9.402,0.720,0.100
9.404,0.660,0.065
9.406,0.555,0.020
9.408,0.550,-0.025
9.410,0.320,-0.070
9.412,0.220,-0.105
9.414,0.240,-0.135
9.416,0.255,-0.150
9.418,0.320,-0.155
9.420,0.545,-0.150
9.422,0.535,-0.140
9.424,0.550,-0.120
9.426,0.440,-0.100
9.428,0.490,-0.080
9.430,0.320,-0.060
9.432,0.325,-0.045
9.434,0.340,-0.035
9.436,0.440,-0.025
9.438,0.485,-0.025
9.440,0.645,-0.025
9.442,0.665,-0.030
9.444,0.640,-0.040
9.446,0.495,-0.045
9.448,0.410,-0.055
9.450,0.300,-0.060
9.452,0.210,-0.065
9.454,0.370,-0.070
9.456,0.480,-0.075
9.458,0.455,-0.070
9.460,0.650,-0.065
9.462,0.570,-0.055
9.464,0.615,-0.040
9.466,0.495,-0.025
9.468,0.485,-0.010
9.470,0.375,0.005
9.472,0.375,0.015
9.474,0.410,0.020
9.476,0.480,0.025
9.478,0.585,0.020
9.480,0.715,0.015
9.482,0.730,0.000
9.484,0.620,-0.010
9.486,0.475,-0.020
9.488,0.435,-0.030
9.490,0.270,-0.035
9.492,0.310,-0.035
9.494,0.410,-0.035
9.496,0.460,-0.035
9.498,0.555,-0.030
9.500,0.615,-0.030
9.502,0.715,-0.030
9.504,0.595,-0.035
9.506,0.465,-0.035
9.508,0.415,-0.040
9.510,0.275,-0.040
9.512,0.230,-0.035
9.514,0.450,-0.030
9.516,0.435,-0.020
9.518,0.575,-0.005
9.520,0.780,0.005
9.522,0.705,0.015
9.524,0.625,0.020
9.526,0.560,0.025
9.528,0.435,0.025
9.530,0.350,0.020
9.532,0.340,0.015
9.534,0.385,0.015
9.536,0.485,0.015
9.538,0.535,0.020
9.540,0.760,0.025
9.542,0.830,0.030
9.544,0.660,0.040
9.546,0.575,0.045
9.548,0.425,0.045
9.550,0.395,0.045
9.552,0.375,0.040
9.554,0.500,0.035
9.556,0.510,0.030
9.558,0.560,0.030
9.560,0.745,0.035
9.562,0.720,0.045
9.564,0.630,0.060
9.566,0.580,0.070
9.568,0.465,0.085
9.570,0.485,0.100
9.572,0.535,0.110
9.574,0.520,0.115
9.576,0.635,0.120
9.578,0.750,0.125
9.580,0.790,0.130
9.582,0.750,0.135
9.584,0.645,0.150
9.586,0.675,0.165
9.588,0.625,0.180
9.590,0.620,0.195
9.592,0.590,0.210
9.594,0.715,0.215
9.596,0.695,0.220
9.598,0.725,0.215
9.600,0.930,0.205
9.602,0.770,0.190
9.604,0.750,0.175
9.606,0.675,0.165
9.608,0.640,0.150
9.610,0.505,0.145
9.612,0.565,0.135
9.614,0.520,0.135
9.616,0.615,0.135
9.618,0.750,0.135
9.620,0.805,0.135
9.622,0.745,0.135
9.624,0.735,0.130
9.626,0.615,0.120
9.628,0.485,0.110
9.630,0.490,0.095
9.632,0.420,0.080
9.634,0.480,0.065
9.636,0.580,0.050
9.638,0.645,0.035
9.640,0.690,0.025
9.642,0.655,0.015
9.644,0.580,0.010
9.646,0.465,0.005
9.648,0.300,0.000
9.650,0.365,0.000
9.652,0.280,-0.005
9.654,0.440,-0.005
9.656,0.510,-0.010
9.658,0.755,-0.015
9.660,0.655,-0.020
9.662,0.615,-0.025
9.664,0.400,-0.025
9.666,0.395,-0.030
9.668,0.325,-0.030
9.670,0.320,-0.030
9.672,0.485,-0.025
9.674,0.460,-0.025
9.676,0.410,-0.025
9.678,0.675,-0.020
9.680,0.545,-0.025
9.682,0.585,-0.025
9.684,0.565,-0.030
9.686,0.450,-0.035
9.688,0.280,-0.040
9.690,0.240,-0.040
9.692,0.305,-0.045
9.694,0.440,-0.045
9.696,0.505,-0.045
9.698,0.635,-0.045
9.700,0.600,-0.045
9.702,0.530,-0.045
9.704,0.480,-0.045
9.706,0.455,-0.040
9.708,0.255,-0.040
9.710,0.315,-0.035
9.712,0.330,-0.035
9.714,0.405,-0.030
9.716,0.495,-0.030
9.718,0.645,-0.030
9.720,0.640,-0.030
9.722,0.575,-0.035
9.724,0.440,-0.045
9.726,0.420,-0.050
9.728,0.220,-0.055
9.730,0.245,-0.055
9.732,0.300,-0.050
9.734,0.470,-0.045
9.736,0.495,-0.035
9.738,0.660,-0.025
9.740,0.680,-0.015
9.742,0.605,-0.005
9.744,0.465,-0.005
9.746,0.355,-0.005
9.748,0.390,-0.010
9.750,0.345,-0.020
9.752,0.280,-0.025
9.754,0.395,-0.035
9.756,0.495,-0.035
9.758,0.680,-0.035
9.760,0.620,-0.030
9.762,0.545,-0.025
9.764,0.420,-0.020
9.766,0.430,-0.015
9.768,0.345,-0.010
9.770,0.260,-0.015
9.772,0.315,-0.020
9.774,0.400,-0.030
9.776,0.475,-0.045
9.778,0.600,-0.055
9.780,0.595,-0.070
9.782,0.525,-0.075
9.784,0.395,-0.075
9.786,0.320,-0.075
9.788,0.335,-0.065
9.790,0.180,-0.055
9.792,0.290,-0.040
9.794,0.545,-0.025
9.796,0.575,-0.015
9.798,0.565,-0.010
9.800,0.620,-0.010
9.802,0.540,-0.015
9.804,0.505,-0.020
9.806,0.430,-0.030
9.808,0.250,-0.035
9.810,0.275,-0.040
9.812,0.345,-0.040
9.814,0.515,-0.035
9.816,0.470,-0.025
9.818,0.625,-0.020
9.820,0.655,-0.015
9.822,0.555,-0.010
9.824,0.420,-0.010
9.826,0.460,-0.015
9.828,0.250,-0.025
9.830,0.160,-0.030
9.832,0.395,-0.035
9.834,0.455,-0.035
9.836,0.510,-0.030
9.838,0.595,-0.020
9.840,0.660,-0.010
9.842,0.580,0.000
9.844,0.540,0.010
9.846,0.445,0.010
9.848,0.230,0.015
9.850,0.320,0.010
9.852,0.375,0.000
9.854,0.430,-0.010
9.856,0.565,-0.020
9.858,0.655,-0.025
9.860,0.570,-0.035
9.862,0.495,-0.045
9.864,0.400,-0.050
9.866,0.385,-0.060
9.868,0.260,-0.070
9.870,0.200,-0.080
9.872,0.240,-0.090
9.874,0.300,-0.095
9.876,0.385,-0.100
9.878,0.550,-0.095
9.880,0.550,-0.085
9.882,0.460,-0.070
9.884,0.470,-0.055
9.886,0.365,-0.040
9.888,0.265,-0.030
9.890,0.350,-0.025
9.892,0.295,-0.020
9.894,0.255,-0.025
9.896,0.595,-0.035
9.898,0.605,-0.040
9.900,0.650,-0.050
9.902,0.455,-0.055
9.904,0.410,-0.060
9.906,0.290,-0.060
9.908,0.285,-0.055
9.910,0.280,-0.050
9.912,0.335,-0.045
9.914,0.365,-0.040
9.916,0.565,-0.035
9.918,0.635,-0.030
9.920,0.570,-0.015
9.922,0.490,0.000
9.924,0.445,0.020
9.926,0.440,0.040
9.928,0.375,0.065
9.930,0.430,0.085
9.932,0.540,0.100
9.934,0.470,0.110
9.936,0.830,0.105
9.938,0.705,0.090
9.940,0.610,0.070
9.942,0.480,0.045
9.944,0.415,0.015
9.946,0.405,-0.010
9.948,0.300,-0.035
9.950,0.285,-0.060
9.952,0.315,-0.080
9.954,0.255,-0.100
9.956,0.445,-0.120
9.958,0.510,-0.135
9.960,0.455,-0.145
9.962,0.320,-0.155
9.964,0.275,-0.150
9.966,0.190,-0.140
9.968,0.205,-0.125
9.970,0.255,-0.100
9.972,0.265,-0.075
9.974,0.475,-0.050
9.976,0.545,-0.025
9.978,0.510,-0.015
9.980,0.595,-0.005
9.982,0.595,-0.010
9.984,0.415,-0.015
9.986,0.205,-0.025
9.988,0.290,-0.040
9.990,0.250,-0.045
9.992,0.405,-0.050
9.994,0.410,-0.050
9.996,0.530,-0.045
9.998,0.555,-0.040
