'Elapsed time','ECG I','ECG I filtered'
'seconds','mV','mV'
0.000,0.040,0.055
0.002,-0.120,-0.015
0.004,-0.290,-0.055
0.006,-0.185,-0.085
0.008,-0.120,-0.095
0.010,-0.115,-0.080
0.012,0.000,-0.055
0.014,-0.015,-0.025
0.016,0.140,-0.005
0.018,0.095,0.005
0.020,0.020,0.000
0.022,-0.115,-0.020
0.024,-0.305,-0.040
0.026,-0.170,-0.060
0.028,-0.140,-0.070
0.030,-0.045,-0.065
0.032,0.015,-0.055
0.034,0.025,-0.035
0.036,0.145,-0.015
0.038,0.115,-0.005
0.040,0.025,0.000
0.042,-0.120,-0.005
0.044,-0.300,-0.010
0.046,-0.120,-0.020
0.048,-0.100,-0.030
0.050,-0.015,-0.030
0.052,0.005,-0.025
0.054,0.040,-0.015
0.056,0.190,-0.010
0.058,0.150,-0.005
0.060,0.035,-0.005
0.062,-0.165,-0.015
0.064,-0.320,-0.025
0.066,-0.170,-0.040
0.068,-0.100,-0.050
0.070,-0.120,-0.055
0.072,0.065,-0.055
0.074,0.035,-0.045
0.076,0.190,-0.035
0.078,0.150,-0.025
0.080,-0.020,-0.015
0.082,-0.200,-0.010
0.084,-0.275,-0.010
0.086,-0.100,-0.015
0.088,-0.145,-0.025
0.090,-0.070,-0.035
0.092,-0.005,-0.040
0.094,0.030,-0.045
0.096,0.180,-0.050
0.098,0.095,-0.050
0.100,0.025,-0.045
0.102,-0.225,-0.045
0.104,-0.330,-0.040
0.106,-0.110,-0.040
0.108,-0.110,-0.035
0.110,-0.085,-0.030
0.112,-0.010,-0.030
0.114,0.025,-0.025
0.116,0.195,-0.025
0.118,0.115,-0.025
0.120,0.000,-0.030
0.122,-0.195,-0.030
0.124,-0.280,-0.035
0.126,-0.115,-0.035
0.128,-0.100,-0.040
0.130,-0.085,-0.040
0.132,-0.010,-0.045
0.134,-0.005,-0.045
0.136,0.100,-0.050
0.138,0.115,-0.055
0.140,0.030,-0.055
0.142,-0.180,-0.060
0.144,-0.210,-0.060
0.146,-0.185,-0.060
0.148,-0.150,-0.055
0.150,-0.090,-0.050
0.152,-0.025,-0.050
0.154,0.070,-0.045
0.156,0.200,-0.050
0.158,0.060,-0.055
0.160,-0.045,-0.060
0.162,-0.260,-0.070
0.164,-0.220,-0.075
0.166,-0.190,-0.075
0.168,-0.105,-0.070
0.170,-0.010,-0.060
0.172,-0.005,-0.050
0.174,0.025,-0.040
0.176,0.155,-0.035
0.178,0.090,-0.040
0.180,0.010,-0.050
0.182,-0.295,-0.060
0.184,-0.220,-0.080
0.186,-0.210,-0.090
0.188,-0.125,-0.095
0.190,-0.090,-0.095
0.192,0.000,-0.080
0.194,0.040,-0.065
0.196,0.200,-0.040
0.198,0.085,-0.025
0.200,-0.010,-0.010
0.202,-0.260,-0.010
0.204,-0.175,-0.020
0.206,-0.100,-0.035
0.208,-0.095,-0.055
0.210,-0.075,-0.070
0.212,0.010,-0.080
0.214,0.100,-0.080
0.216,0.160,-0.070
0.218,0.030,-0.050
0.220,-0.105,-0.035
0.222,-0.295,-0.020
0.224,-0.105,-0.010
0.226,-0.085,-0.010
0.228,-0.125,-0.020
0.230,0.045,-0.035
0.232,0.030,-0.050
0.234,0.105,-0.060
0.236,0.130,-0.060
0.238,0.080,-0.055
0.240,-0.010,-0.045
0.242,-0.255,-0.025
0.244,-0.145,-0.005
0.246,-0.085,0.005
0.248,-0.040,0.015
0.250,0.040,0.010
0.252,0.010,0.005
0.254,0.175,-0.010
0.256,0.205,-0.025
0.258,0.075,-0.035
0.260,-0.090,-0.040
0.262,-0.265,-0.040
0.264,-0.125,-0.040
0.266,-0.125,-0.035
0.268,-0.115,-0.030
0.270,0.000,-0.025
0.272,0.080,-0.025
0.274,0.170,-0.030
0.276,0.135,-0.030
0.278,0.055,-0.030
0.280,-0.085,-0.030
0.282,-0.310,-0.025
0.284,-0.115,-0.015
0.286,-0.065,-0.010
0.288,-0.030,-0.005
0.290,0.040,0.000
0.292,0.055,0.000
0.294,0.205,0.000
0.296,0.175,-0.005
0.298,0.060,-0.010
0.300,-0.095,-0.015
0.302,-0.290,-0.015
0.304,-0.115,-0.015
0.306,-0.115,-0.010
0.308,0.000,-0.005
0.310,0.035,0.000
0.312,0.125,0.010
0.314,0.265,0.020
0.316,0.195,0.025
0.318,0.045,0.035
0.320,-0.060,0.040
0.322,-0.190,0.045
0.324,0.000,0.050
0.326,-0.015,0.050
0.328,0.000,0.045
0.330,0.070,0.045
0.332,0.125,0.040
0.334,0.235,0.035
0.336,0.200,0.030
0.338,0.090,0.030
0.340,-0.085,0.030
0.342,-0.240,0.035
0.344,-0.030,0.045
0.346,0.060,0.050
0.348,0.045,0.055
0.350,0.075,0.065
0.352,0.165,0.070
0.354,0.350,0.080
0.356,0.265,0.085
0.358,0.115,0.090
0.360,-0.025,0.100
0.362,-0.165,0.105
0.364,0.030,0.105
0.366,0.025,0.105
0.368,0.070,0.100
0.370,0.195,0.095
0.372,0.170,0.090
0.374,0.310,0.080
0.376,0.225,0.075
0.378,0.120,0.070
0.380,-0.050,0.070
0.382,-0.190,0.070
0.384,0.015,0.075
0.386,0.020,0.075
0.388,0.030,0.075
0.390,0.095,0.070
0.392,0.145,0.065
0.394,0.345,0.050
0.396,0.205,0.040
0.398,0.085,0.030
0.400,-0.140,0.015
0.402,-0.165,0.005
0.404,-0.070,0.000
0.406,-0.125,-0.005
0.408,0.010,-0.005
0.410,0.100,-0.010
0.412,0.065,-0.010
0.414,0.230,-0.015
0.416,0.115,-0.020
0.418,0.030,-0.025
0.420,-0.150,-0.030
0.422,-0.165,-0.035
0.424,-0.110,-0.040
0.426,-0.120,-0.045
0.428,-0.100,-0.045
0.430,0.040,-0.050
0.432,0.060,-0.050
0.434,0.175,-0.045
0.436,0.145,-0.040
0.438,0.060,-0.035
0.440,-0.195,-0.030
0.442,-0.180,-0.025
0.444,-0.125,-0.025
0.446,-0.050,-0.025
0.448,-0.010,-0.030
0.450,0.025,-0.040
0.452,0.050,-0.050
0.454,0.195,-0.065
0.456,0.025,-0.085
0.458,-0.095,-0.105
0.460,-0.325,-0.125
0.462,-0.270,-0.140
0.464,-0.210,-0.160
0.466,-0.195,-0.170
0.468,-0.190,-0.165
0.470,-0.065,-0.150
0.472,0.045,-0.115
0.474,0.165,-0.055
0.476,0.125,0.030
0.478,0.155,0.135
0.480,0.055,0.260
0.482,0.270,0.395
0.484,0.520,0.535
0.486,0.660,0.670
0.488,0.870,0.780
0.490,1.020,0.870
0.492,1.140,0.930
0.494,1.230,0.955
0.496,1.065,0.940
0.498,0.970,0.900
0.500,0.650,0.825
0.502,0.635,0.730
0.504,0.540,0.620
0.506,0.430,0.505
0.508,0.375,0.380
0.510,0.340,0.265
0.512,0.275,0.160
0.514,0.245,0.075
0.516,0.090,0.000
0.518,-0.065,-0.055
0.520,-0.295,-0.095
0.522,-0.215,-0.120
0.524,-0.215,-0.140
0.526,-0.225,-0.150
0.528,-0.155,-0.160
0.530,-0.095,-0.165
0.532,0.020,-0.165
0.534,0.075,-0.160
0.536,-0.030,-0.155
0.538,-0.175,-0.140
0.540,-0.345,-0.120
0.542,-0.180,-0.105
0.544,-0.115,-0.085
0.546,-0.055,-0.070
0.548,-0.020,-0.060
0.550,0.015,-0.055
0.552,0.120,-0.060
0.554,0.150,-0.065
0.556,0.050,-0.070
0.558,-0.105,-0.070
0.560,-0.305,-0.075
0.562,-0.125,-0.070
0.564,-0.115,-0.070
0.566,-0.135,-0.065
0.568,0.030,-0.060
0.570,0.070,-0.060
0.572,0.085,-0.060
0.574,0.155,-0.065
0.576,0.010,-0.070
0.578,-0.130,-0.070
0.580,-0.305,-0.070
0.582,-0.145,-0.070
0.584,-0.075,-0.065
0.586,-0.085,-0.060
0.588,-0.015,-0.055
0.590,0.035,-0.050
0.592,0.180,-0.045
0.594,0.145,-0.040
0.596,0.035,-0.035
0.598,-0.105,-0.035
0.600,-0.280,-0.040
0.602,-0.110,-0.040
0.604,-0.075,-0.045
0.606,-0.040,-0.055
0.608,0.070,-0.060
0.610,0.040,-0.060
0.612,0.145,-0.060
0.614,0.135,-0.055
0.616,0.075,-0.045
0.618,-0.115,-0.030
0.620,-0.220,-0.015
0.622,-0.070,-0.005
0.624,-0.075,0.005
0.626,-0.035,0.010
0.628,0.065,0.010
0.630,0.110,0.005
0.632,0.265,0.000
0.634,0.180,-0.005
0.636,0.065,-0.010
0.638,-0.090,-0.005
0.640,-0.235,0.000
0.642,-0.035,0.005
0.644,-0.085,0.015
0.646,-0.015,0.020
0.648,0.080,0.025
0.650,0.165,0.025
0.652,0.255,0.020
0.654,0.190,0.020
0.656,0.115,0.015
0.658,-0.045,0.015
0.660,-0.225,0.015
0.662,-0.075,0.020
0.664,-0.015,0.030
0.666,0.050,0.035
0.668,0.140,0.045
0.670,0.155,0.050
0.672,0.285,0.055
0.674,0.240,0.060
0.676,0.120,0.065
0.678,-0.035,0.070
0.680,-0.130,0.070
0.682,0.005,0.080
0.684,0.060,0.085
0.686,0.120,0.090
0.688,0.160,0.090
0.690,0.195,0.095
0.692,0.330,0.100
0.694,0.325,0.105
0.696,0.195,0.110
0.698,-0.020,0.120
0.700,-0.040,0.130
0.702,0.130,0.140
0.704,0.090,0.150
0.706,0.150,0.160
0.708,0.240,0.170
0.710,0.220,0.170
0.712,0.445,0.170
0.714,0.340,0.170
0.716,0.265,0.170
0.718,0.035,0.165
0.720,0.015,0.170
0.722,0.125,0.175
0.724,0.195,0.180
0.726,0.215,0.190
0.728,0.255,0.200
0.730,0.320,0.210
0.732,0.495,0.215
0.734,0.370,0.225
0.736,0.265,0.230
0.738,0.095,0.235
0.740,0.125,0.240
0.742,0.210,0.240
0.744,0.215,0.240
0.746,0.250,0.240
0.748,0.315,0.235
0.750,0.335,0.230
0.752,0.455,0.220
0.754,0.350,0.210
0.756,0.265,0.195
0.758,0.015,0.185
0.760,0.060,0.170
0.762,0.165,0.155
0.764,0.130,0.145
0.766,0.120,0.135
0.768,0.210,0.120
0.770,0.285,0.110
0.772,0.360,0.100
0.774,0.225,0.090
0.776,0.170,0.080
0.778,-0.045,0.075
0.780,-0.040,0.065
0.782,-0.010,0.060
0.784,-0.020,0.050
0.786,0.105,0.045
0.788,0.145,0.040
0.790,0.215,0.035
0.792,0.295,0.030
0.794,0.175,0.025
0.796,0.100,0.020
0.798,-0.150,0.020
0.800,-0.080,0.015
0.802,-0.050,0.015
0.804,-0.020,0.010
0.806,0.080,0.010
0.808,0.115,0.005
0.810,0.140,0.005
0.812,0.215,0.000
0.814,0.145,-0.005
0.816,0.040,-0.010
0.818,-0.230,-0.015
0.820,-0.095,-0.020
0.822,-0.030,-0.020
0.824,-0.060,-0.025
0.826,0.015,-0.030
0.828,0.060,-0.035
0.830,0.140,-0.035
0.832,0.210,-0.035
0.834,0.035,-0.035
0.836,0.075,-0.030
0.838,-0.150,-0.025
0.840,-0.085,-0.015
0.842,-0.065,-0.005
0.844,-0.015,0.005
0.846,0.040,0.010
0.848,0.065,0.005
0.850,0.230,-0.005
0.852,0.210,-0.015
0.854,0.090,-0.030
0.856,-0.065,-0.050
0.858,-0.250,-0.060
0.860,-0.145,-0.065
0.862,-0.070,-0.065
0.864,-0.075,-0.060
0.866,0.045,-0.045
0.868,0.070,-0.035
0.870,0.215,-0.025
0.872,0.240,-0.015
0.874,0.105,-0.010
0.876,-0.060,-0.010
0.878,-0.250,-0.015
0.880,-0.065,-0.015
0.882,-0.030,-0.020
0.884,-0.005,-0.020
0.886,0.090,-0.020
0.888,0.110,-0.015
0.890,0.240,-0.010
0.892,0.205,-0.005
0.894,0.090,0.000
0.896,-0.090,0.000
0.898,-0.205,0.000
0.900,-0.080,-0.005
0.902,0.000,-0.005
0.904,0.020,-0.010
0.906,0.090,-0.010
0.908,0.130,-0.015
0.910,0.225,-0.010
0.912,0.230,-0.010
0.914,0.085,-0.005
0.916,-0.135,0.005
0.918,-0.150,0.010
0.920,0.020,0.010
0.922,-0.030,0.010
0.924,0.030,0.010
0.926,0.095,0.005
0.928,0.135,0.000
0.930,0.215,-0.005
0.932,0.175,-0.010
0.934,0.025,-0.015
0.936,-0.050,-0.015
0.938,-0.155,-0.015
0.940,-0.040,-0.015
0.942,-0.045,-0.010
0.944,0.070,-0.005
0.946,0.110,-0.005
0.948,0.060,-0.005
0.950,0.220,-0.010
0.952,0.160,-0.015
0.954,0.075,-0.025
0.956,-0.105,-0.025
0.958,-0.235,-0.030
0.960,-0.070,-0.025
0.962,-0.025,-0.020
0.964,0.040,-0.015
0.966,0.080,-0.010
0.968,0.080,-0.005
0.970,0.265,-0.005
0.972,0.185,-0.005
0.974,0.050,-0.005
0.976,-0.080,-0.010
0.978,-0.195,-0.010
0.980,-0.030,-0.010
0.982,-0.020,-0.010
0.984,0.050,-0.010
0.986,0.070,-0.010
0.988,0.075,-0.015
0.990,0.220,-0.025
0.992,0.155,-0.035
0.994,0.035,-0.050
0.996,-0.140,-0.060
0.998,-0.180,-0.070
1.000,-0.110,-0.075
1.002,-0.085,-0.070
1.004,-0.020,-0.065
1.006,0.040,-0.055
1.008,0.040,-0.050
1.010,0.175,-0.045
1.012,0.130,-0.045
1.014,0.040,-0.055
1.016,-0.155,-0.065
1.018,-0.170,-0.075
1.020,-0.040,-0.085
1.022,-0.105,-0.090
1.024,-0.040,-0.085
1.026,0.045,-0.080
1.028,0.035,-0.075
1.030,0.190,-0.070
1.032,0.100,-0.070
1.034,-0.025,-0.075
1.036,-0.190,-0.080
1.038,-0.165,-0.090
1.040,-0.100,-0.090
1.042,-0.095,-0.090
1.044,-0.040,-0.080
1.046,0.005,-0.070
1.048,0.055,-0.050
1.050,0.325,-0.035
1.052,0.150,-0.025
1.054,0.025,-0.025
1.056,-0.170,-0.035
1.058,-0.100,-0.050
1.060,-0.105,-0.070
1.062,-0.130,-0.090
1.064,-0.140,-0.100
1.066,0.070,-0.105
1.068,0.085,-0.100
1.070,0.150,-0.090
1.072,0.140,-0.075
1.074,0.050,-0.055
1.076,-0.170,-0.040
1.078,-0.115,-0.035
1.080,-0.115,-0.035
1.082,-0.025,-0.040
1.084,0.015,-0.045
1.086,0.055,-0.055
1.088,0.125,-0.060
1.090,0.250,-0.065
1.092,0.120,-0.060
1.094,0.015,-0.060
1.096,-0.245,-0.055
1.098,-0.140,-0.050
1.100,-0.075,-0.045
1.102,-0.030,-0.045
1.104,0.025,-0.045
1.106,0.095,-0.045
1.108,0.190,-0.045
1.110,0.220,-0.050
1.112,0.090,-0.055
1.114,-0.010,-0.055
1.116,-0.265,-0.060
1.118,-0.095,-0.060
1.120,-0.075,-0.065
1.122,-0.070,-0.075
1.124,0.045,-0.080
1.126,0.055,-0.085
1.128,0.170,-0.085
1.130,0.190,-0.085
1.132,0.035,-0.085
1.134,-0.055,-0.080
1.136,-0.255,-0.075
1.138,-0.090,-0.070
1.140,-0.050,-0.065
1.142,-0.060,-0.065
1.144,0.060,-0.065
1.146,0.075,-0.065
1.148,0.190,-0.065
1.150,0.195,-0.060
1.152,0.065,-0.060
1.154,0.000,-0.050
1.156,-0.215,-0.045
1.158,-0.095,-0.035
1.160,-0.010,-0.025
1.162,0.020,-0.020
1.164,0.100,-0.020
1.166,0.110,-0.020
1.168,0.210,-0.020
1.170,0.185,-0.020
1.172,0.095,-0.020
1.174,-0.030,-0.020
1.176,-0.190,-0.015
1.178,-0.010,-0.010
1.180,-0.025,-0.010
1.182,0.070,-0.010
1.184,0.120,-0.010
1.186,0.140,-0.010
1.188,0.230,-0.015
1.190,0.220,-0.010
1.192,0.110,-0.005
1.194,-0.040,0.005
1.196,-0.160,0.015
1.198,0.020,0.030
1.200,0.130,0.045
1.202,0.110,0.060
1.204,0.155,0.065
1.206,0.170,0.070
1.208,0.330,0.065
1.210,0.295,0.060
1.212,0.240,0.050
1.214,0.045,0.045
1.216,-0.150,0.045
1.218,0.005,0.045
1.220,0.060,0.050
1.222,0.140,0.060
1.224,0.195,0.065
1.226,0.210,0.065
1.228,0.315,0.065
1.230,0.280,0.055
1.232,0.160,0.040
1.234,-0.020,0.025
1.236,-0.165,0.010
1.238,0.005,-0.005
1.240,-0.010,-0.015
1.242,0.025,-0.015
1.244,0.120,-0.015
1.246,0.140,-0.010
1.248,0.295,-0.005
1.250,0.250,-0.005
1.252,0.140,-0.005
1.254,-0.080,-0.015
1.256,-0.220,-0.025
1.258,-0.080,-0.040
1.260,-0.045,-0.055
1.262,0.005,-0.070
1.264,0.045,-0.085
1.266,0.070,-0.090
1.268,0.185,-0.095
1.270,0.155,-0.095
1.272,0.055,-0.095
1.274,-0.135,-0.090
1.276,-0.255,-0.085
1.278,-0.095,-0.085
1.280,-0.100,-0.085
1.282,0.010,-0.090
1.284,0.050,-0.090
1.286,0.065,-0.090
1.288,0.190,-0.090
1.290,0.155,-0.085
1.292,0.085,-0.080
1.294,-0.105,-0.070
1.296,-0.210,-0.065
1.298,-0.085,-0.065
1.300,-0.045,-0.070
1.302,-0.005,-0.085
1.304,0.000,-0.105
1.306,-0.010,-0.130
1.308,0.160,-0.165
1.310,0.065,-0.195
1.312,-0.095,-0.220
1.314,-0.340,-0.230
1.316,-0.365,-0.230
1.318,-0.170,-0.210
1.320,-0.120,-0.170
1.322,-0.020,-0.105
1.324,0.115,-0.020
1.326,0.230,0.080
1.328,0.540,0.195
1.330,0.585,0.315
1.332,0.555,0.440
1.334,0.540,0.560
1.336,0.635,0.665
1.338,0.810,0.750
1.340,0.895,0.805
1.342,0.880,0.835
1.344,1.040,0.825
1.346,0.995,0.785
1.348,1.055,0.715
1.350,0.815,0.620
1.352,0.645,0.510
1.354,0.310,0.385
1.356,0.190,0.265
1.358,0.140,0.155
1.360,0.015,0.060
1.362,-0.050,-0.015
1.364,0.085,-0.075
1.366,0.130,-0.115
1.368,0.145,-0.145
1.370,0.050,-0.160
1.372,-0.075,-0.180
1.374,-0.260,-0.190
1.376,-0.285,-0.205
1.378,-0.225,-0.220
1.380,-0.230,-0.230
1.382,-0.115,-0.235
1.384,-0.050,-0.230
1.386,0.020,-0.215
1.388,0.115,-0.190
1.390,0.040,-0.160
1.392,0.030,-0.125
1.394,-0.190,-0.100
1.396,-0.110,-0.080
1.398,-0.080,-0.065
1.400,-0.030,-0.065
1.402,0.040,-0.070
1.404,0.075,-0.080
1.406,0.115,-0.090
1.408,0.225,-0.090
1.410,0.080,-0.090
1.412,0.045,-0.080
1.414,-0.170,-0.070
1.416,-0.055,-0.060
1.418,0.010,-0.055
1.420,0.015,-0.055
1.422,-0.020,-0.060
1.424,0.120,-0.065
1.426,0.205,-0.075
1.428,0.215,-0.080
1.430,0.130,-0.075
1.432,0.040,-0.065
1.434,-0.160,-0.050
1.436,-0.020,-0.030
1.438,0.020,-0.015
1.440,0.045,-0.005
1.442,0.085,0.000
1.444,0.160,-0.010
1.446,0.265,-0.020
1.448,0.230,-0.035
1.450,0.130,-0.045
1.452,0.045,-0.045
1.454,-0.200,-0.045
1.456,-0.025,-0.030
1.458,0.045,-0.015
1.460,0.070,0.000
1.462,0.140,0.015
1.464,0.190,0.020
1.466,0.325,0.025
1.468,0.280,0.020
1.470,0.155,0.020
1.472,0.090,0.015
1.474,-0.045,0.020
1.476,0.070,0.025
1.478,0.035,0.035
1.480,0.065,0.050
1.482,0.240,0.060
1.484,0.270,0.065
1.486,0.390,0.065
1.488,0.335,0.060
1.490,0.180,0.050
1.492,0.065,0.045
1.494,-0.105,0.035
1.496,0.070,0.035
1.498,0.135,0.040
1.500,0.135,0.050
1.502,0.190,0.060
1.504,0.270,0.070
1.506,0.420,0.080
1.508,0.385,0.085
1.510,0.250,0.090
1.512,0.095,0.090
1.514,-0.065,0.095
1.516,0.105,0.095
1.518,0.175,0.100
1.520,0.240,0.105
1.522,0.285,0.110
1.524,0.265,0.120
1.526,0.425,0.125
1.528,0.440,0.130
1.530,0.375,0.135
1.532,0.205,0.140
1.534,0.025,0.145
1.536,0.145,0.150
1.538,0.205,0.155
1.540,0.275,0.165
1.542,0.300,0.175
1.544,0.400,0.180
1.546,0.540,0.190
1.548,0.510,0.200
1.550,0.365,0.205
1.552,0.205,0.210
1.554,0.175,0.215
1.556,0.235,0.220
1.558,0.270,0.225
1.560,0.305,0.230
1.562,0.410,0.230
1.564,0.465,0.235
1.566,0.590,0.240
1.568,0.510,0.245
1.570,0.400,0.250
1.572,0.275,0.255
1.574,0.155,0.260
1.576,0.295,0.260
1.578,0.295,0.260
1.580,0.390,0.260
1.582,0.455,0.260
1.584,0.445,0.255
1.586,0.600,0.255
1.588,0.550,0.255
1.590,0.425,0.255
1.592,0.240,0.255
1.594,0.200,0.255
1.596,0.315,0.255
1.598,0.270,0.250
1.600,0.335,0.240
1.602,0.415,0.230
1.604,0.415,0.210
1.606,0.560,0.195
1.608,0.455,0.175
1.610,0.380,0.160
1.612,0.130,0.150
1.614,0.105,0.145
1.616,0.195,0.140
1.618,0.200,0.135
1.620,0.215,0.130
1.622,0.290,0.125
1.624,0.310,0.110
1.626,0.445,0.095
1.628,0.355,0.080
1.630,0.240,0.060
1.632,0.000,0.045
1.634,0.030,0.030
1.636,0.105,0.025
1.638,0.095,0.020
1.640,0.130,0.020
1.642,0.185,0.020
1.644,0.220,0.015
1.646,0.290,0.005
1.648,0.245,-0.005
1.650,0.185,-0.020
1.652,-0.015,-0.040
1.654,-0.060,-0.050
1.656,-0.040,-0.060
1.658,0.010,-0.065
1.660,0.045,-0.065
1.662,0.195,-0.060
1.664,0.190,-0.060
1.666,0.290,-0.055
1.668,0.195,-0.055
1.670,0.095,-0.060
1.672,-0.100,-0.065
1.674,-0.065,-0.070
1.676,-0.035,-0.075
1.678,0.000,-0.080
1.680,0.040,-0.085
1.682,0.185,-0.090
1.684,0.175,-0.090
1.686,0.260,-0.095
1.688,0.135,-0.095
1.690,0.090,-0.100
1.692,-0.190,-0.100
1.694,-0.085,-0.095
1.696,0.000,-0.090
1.698,0.005,-0.085
1.700,0.115,-0.075
1.702,0.155,-0.065
1.704,0.270,-0.055
1.706,0.315,-0.050
1.708,0.160,-0.050
1.710,0.075,-0.055
1.712,-0.155,-0.065
1.714,-0.030,-0.070
1.716,-0.045,-0.080
1.718,-0.005,-0.085
1.720,0.065,-0.085
1.722,0.170,-0.085
1.724,0.285,-0.080
1.726,0.260,-0.080
1.728,0.135,-0.075
1.730,0.035,-0.080
1.732,-0.175,-0.085
1.734,-0.085,-0.095
1.736,-0.015,-0.105
1.738,0.000,-0.115
1.740,0.115,-0.120
1.742,0.120,-0.120
1.744,0.210,-0.120
1.746,0.225,-0.115
1.748,0.140,-0.105
1.750,-0.015,-0.100
1.752,-0.220,-0.095
1.754,-0.035,-0.095
1.756,0.040,-0.100
1.758,-0.035,-0.105
1.760,0.060,-0.115
1.762,0.115,-0.125
1.764,0.235,-0.130
1.766,0.220,-0.130
1.768,0.110,-0.130
1.770,0.015,-0.125
1.772,-0.220,-0.115
1.774,-0.060,-0.110
1.776,0.005,-0.110
1.778,0.030,-0.110
1.780,0.060,-0.110
1.782,0.080,-0.120
1.784,0.230,-0.130
1.786,0.185,-0.135
1.788,0.115,-0.145
1.790,-0.045,-0.150
1.792,-0.260,-0.155
1.794,-0.050,-0.155
1.796,-0.050,-0.150
1.798,-0.070,-0.150
1.800,0.030,-0.145
1.802,0.085,-0.140
1.804,0.265,-0.140
1.806,0.220,-0.140
1.808,0.095,-0.140
1.810,-0.095,-0.145
1.812,-0.255,-0.150
1.814,-0.115,-0.160
1.816,-0.065,-0.165
1.818,0.035,-0.165
1.820,0.105,-0.170
1.822,0.065,-0.170
1.824,0.190,-0.165
1.826,0.175,-0.160
1.828,0.070,-0.150
1.830,-0.095,-0.145
1.832,-0.230,-0.140
1.834,-0.070,-0.135
1.836,-0.020,-0.140
1.838,-0.035,-0.145
1.840,0.095,-0.150
1.842,0.120,-0.155
1.844,0.225,-0.160
1.846,0.245,-0.160
1.848,0.035,-0.155
1.850,-0.110,-0.150
1.852,-0.180,-0.140
1.854,-0.035,-0.130
1.856,-0.060,-0.125
1.858,-0.005,-0.125
1.860,0.075,-0.130
1.862,0.090,-0.140
1.864,0.265,-0.150
1.866,0.195,-0.160
1.868,0.090,-0.165
1.870,-0.155,-0.165
1.872,-0.240,-0.160
1.874,-0.050,-0.155
1.876,0.015,-0.145
1.878,0.015,-0.135
1.880,0.085,-0.130
1.882,0.105,-0.125
1.884,0.250,-0.130
1.886,0.225,-0.135
1.888,0.120,-0.140
1.890,-0.115,-0.145
1.892,-0.165,-0.145
1.894,-0.065,-0.145
1.896,-0.005,-0.135
1.898,0.030,-0.130
1.900,0.110,-0.120
1.902,0.130,-0.115
1.904,0.290,-0.115
1.906,0.210,-0.120
1.908,0.060,-0.125
1.910,-0.165,-0.135
1.912,-0.115,-0.140
1.914,-0.005,-0.145
1.916,-0.030,-0.145
1.918,0.035,-0.140
1.920,0.085,-0.135
1.922,0.135,-0.130
1.924,0.290,-0.125
1.926,0.170,-0.125
1.928,0.085,-0.125
1.930,-0.145,-0.130
1.932,-0.105,-0.135
1.934,0.005,-0.135
1.936,-0.040,-0.135
1.938,0.060,-0.135
1.940,0.165,-0.130
1.942,0.160,-0.120
1.944,0.305,-0.115
1.946,0.160,-0.110
1.948,0.085,-0.105
1.950,-0.070,-0.105
1.952,-0.065,-0.105
1.954,0.005,-0.100
1.956,0.030,-0.100
1.958,0.050,-0.095
1.960,0.190,-0.095
1.962,0.220,-0.090
1.964,0.295,-0.085
1.966,0.205,-0.085
1.968,0.180,-0.085
1.970,-0.080,-0.085
1.972,-0.085,-0.085
1.974,0.020,-0.080
1.976,0.075,-0.080
1.978,0.115,-0.075
1.980,0.200,-0.065
1.982,0.260,-0.050
1.984,0.400,-0.040
1.986,0.260,-0.030
1.988,0.220,-0.020
1.990,-0.035,-0.015
1.992,0.025,-0.015
1.994,0.100,-0.015
1.996,0.105,-0.025
1.998,0.155,-0.035
2.000,0.230,-0.040
2.002,0.340,-0.050
2.004,0.350,-0.055
2.006,0.210,-0.060
2.008,0.145,-0.060
2.010,-0.105,-0.060
2.012,0.020,-0.060
2.014,0.080,-0.060
2.016,0.085,-0.060
2.018,0.165,-0.055
2.020,0.200,-0.060
2.022,0.270,-0.060
2.024,0.335,-0.060
2.026,0.240,-0.060
2.028,0.105,-0.060
2.030,-0.085,-0.065
2.032,0.010,-0.070
2.034,0.030,-0.075
2.036,0.070,-0.085
2.038,0.145,-0.095
2.040,0.100,-0.110
2.042,0.240,-0.125
2.044,0.250,-0.135
2.046,0.130,-0.145
2.048,0.020,-0.145
2.050,-0.160,-0.145
2.052,-0.075,-0.140
2.054,-0.025,-0.130
2.056,0.070,-0.120
2.058,0.165,-0.110
2.060,0.170,-0.110
2.062,0.260,-0.115
2.064,0.185,-0.125
2.066,0.085,-0.140
2.068,-0.015,-0.155
2.070,-0.175,-0.170
2.072,-0.090,-0.175
2.074,-0.040,-0.180
2.076,-0.025,-0.175
2.078,0.120,-0.165
2.080,0.140,-0.150
2.082,0.270,-0.135
2.084,0.240,-0.125
2.086,0.125,-0.120
2.088,-0.020,-0.120
2.090,-0.160,-0.130
2.092,-0.025,-0.140
2.094,-0.040,-0.160
2.096,-0.040,-0.175
2.098,0.080,-0.195
2.100,0.055,-0.210
2.102,0.205,-0.225
2.104,0.155,-0.240
2.106,-0.005,-0.250
2.108,-0.175,-0.260
2.110,-0.385,-0.265
2.112,-0.170,-0.265
2.114,-0.095,-0.245
2.116,-0.055,-0.205
2.118,0.110,-0.140
2.120,0.245,-0.050
2.122,0.490,0.065
2.124,0.600,0.200
2.126,0.655,0.345
2.128,0.625,0.490
2.130,0.590,0.615
2.132,0.905,0.715
2.134,0.980,0.780
2.136,1.020,0.810
2.138,1.020,0.795
2.140,0.995,0.745
2.142,1.115,0.670
2.144,0.995,0.575
2.146,0.735,0.465
2.148,0.455,0.355
2.150,0.200,0.245
2.152,0.220,0.140
2.154,0.150,0.050
2.156,0.075,-0.030
2.158,0.130,-0.100
2.160,0.140,-0.150
2.162,0.235,-0.190
2.164,0.145,-0.215
2.166,0.025,-0.225
2.168,-0.140,-0.230
2.170,-0.290,-0.230
2.172,-0.155,-0.230
2.174,-0.140,-0.230
2.176,-0.040,-0.230
2.178,0.065,-0.230
2.180,0.065,-0.230
2.182,0.180,-0.230
2.184,0.125,-0.230
2.186,0.040,-0.220
2.188,-0.125,-0.210
2.190,-0.180,-0.195
2.192,-0.055,-0.180
2.194,-0.020,-0.165
2.196,0.020,-0.155
2.198,0.135,-0.145
2.200,0.105,-0.145
2.202,0.325,-0.145
2.204,0.220,-0.145
2.206,0.060,-0.145
2.208,-0.090,-0.145
2.210,-0.150,-0.145
2.212,0.010,-0.140
2.214,0.070,-0.140
2.216,0.050,-0.135
2.218,0.135,-0.140
2.220,0.160,-0.140
2.222,0.195,-0.140
2.224,0.220,-0.140
2.226,0.145,-0.140
2.228,-0.065,-0.135
2.230,-0.050,-0.125
2.232,0.030,-0.115
2.234,0.045,-0.100
2.236,0.085,-0.090
2.238,0.160,-0.080
2.240,0.190,-0.075
2.242,0.375,-0.070
2.244,0.240,-0.070
2.246,0.170,-0.065
2.248,0.005,-0.060
2.250,0.005,-0.055
2.252,0.085,-0.045
2.254,0.115,-0.035
2.256,0.170,-0.025
2.258,0.260,-0.020
2.260,0.290,-0.010
2.262,0.405,-0.010
2.264,0.305,-0.005
2.266,0.230,-0.005
2.268,0.005,0.000
2.270,0.085,0.000
2.272,0.140,0.005
2.274,0.170,0.010
2.276,0.235,0.015
2.278,0.275,0.015
2.280,0.265,0.015
2.282,0.440,0.015
2.284,0.300,0.010
2.286,0.250,0.010
2.288,0.060,0.005
2.290,0.120,0.010
2.292,0.175,0.015
2.294,0.155,0.025
2.296,0.265,0.040
2.298,0.320,0.050
2.300,0.405,0.060
2.302,0.465,0.070
2.304,0.365,0.080
2.306,0.360,0.085
2.308,0.090,0.090
2.310,0.205,0.095
2.312,0.235,0.095
2.314,0.270,0.100
2.316,0.320,0.105
2.318,0.380,0.110
2.320,0.455,0.115
2.322,0.535,0.120
2.324,0.435,0.130
2.326,0.315,0.140
2.328,0.155,0.150
2.330,0.255,0.160
2.332,0.315,0.170
2.334,0.355,0.175
2.336,0.475,0.180
2.338,0.440,0.180
2.340,0.515,0.180
2.342,0.580,0.180
2.344,0.470,0.180
2.346,0.350,0.185
2.348,0.205,0.195
2.350,0.295,0.210
2.352,0.380,0.225
2.354,0.415,0.240
2.356,0.465,0.255
2.358,0.520,0.265
2.360,0.650,0.270
2.362,0.665,0.270
2.364,0.595,0.265
2.366,0.430,0.260
2.368,0.245,0.255
2.370,0.345,0.260
2.372,0.405,0.265
2.374,0.415,0.275
2.376,0.520,0.285
2.378,0.595,0.300
2.380,0.745,0.315
2.382,0.705,0.320
2.384,0.600,0.320
2.386,0.440,0.320
2.388,0.265,0.310
2.390,0.400,0.300
2.392,0.445,0.290
2.394,0.470,0.280
2.396,0.510,0.270
2.398,0.530,0.265
2.400,0.685,0.260
2.402,0.645,0.260
2.404,0.510,0.255
2.406,0.325,0.250
2.408,0.150,0.245
2.410,0.375,0.235
2.412,0.385,0.225
2.414,0.410,0.210
2.416,0.465,0.200
2.418,0.435,0.190
2.420,0.600,0.180
2.422,0.520,0.175
2.424,0.390,0.165
2.426,0.245,0.160
2.428,0.135,0.150
2.430,0.275,0.140
2.432,0.315,0.130
2.434,0.285,0.120
2.436,0.295,0.110
2.438,0.370,0.105
2.440,0.560,0.100
2.442,0.500,0.105
2.444,0.365,0.110
2.446,0.195,0.120
2.448,0.060,0.125
2.450,0.270,0.130
2.452,0.250,0.130
2.454,0.290,0.130
2.456,0.360,0.120
2.458,0.390,0.110
2.460,0.555,0.095
2.462,0.455,0.085
2.464,0.325,0.080
2.466,0.115,0.080
2.468,0.075,0.085
2.470,0.255,0.090
2.472,0.220,0.100
2.474,0.320,0.110
2.476,0.365,0.115
2.478,0.385,0.115
2.480,0.550,0.120
2.482,0.485,0.120
2.484,0.370,0.120
2.486,0.130,0.120
2.488,0.125,0.125
2.490,0.275,0.130
2.492,0.265,0.135
2.494,0.345,0.140
2.496,0.420,0.140
2.498,0.375,0.135
2.500,0.560,0.130
2.502,0.455,0.120
2.504,0.395,0.115
2.506,0.135,0.105
2.508,0.135,0.105
2.510,0.255,0.100
2.512,0.230,0.100
2.514,0.265,0.100
2.516,0.390,0.100
2.518,0.390,0.100
2.520,0.525,0.100
2.522,0.390,0.100
2.524,0.340,0.100
2.526,0.165,0.105
2.528,0.165,0.110
2.530,0.260,0.115
2.532,0.270,0.115
2.534,0.310,0.115
2.536,0.380,0.115
2.538,0.370,0.105
2.540,0.510,0.095
2.542,0.370,0.080
2.544,0.270,0.065
2.546,0.105,0.055
2.548,0.135,0.050
2.550,0.155,0.045
2.552,0.190,0.045
2.554,0.225,0.050
2.556,0.340,0.050
2.558,0.335,0.050
2.560,0.455,0.045
2.562,0.335,0.035
2.564,0.255,0.025
2.566,-0.010,0.015
2.568,0.055,0.005
2.570,0.145,0.000
2.572,0.150,-0.005
2.574,0.205,0.000
2.576,0.250,0.000
2.578,0.275,0.000
2.580,0.365,-0.005
2.582,0.280,-0.010
2.584,0.195,-0.025
2.586,-0.030,-0.040
2.588,0.005,-0.050
2.590,0.080,-0.055
2.592,0.145,-0.055
2.594,0.165,-0.050
2.596,0.265,-0.040
2.598,0.270,-0.025
2.600,0.335,-0.015
2.602,0.265,-0.005
2.604,0.165,0.000
2.606,-0.030,-0.005
2.608,0.080,-0.015
2.610,0.100,-0.025
2.612,0.090,-0.035
2.614,0.185,-0.045
2.616,0.260,-0.050
2.618,0.345,-0.055
2.620,0.310,-0.050
2.622,0.245,-0.045
2.624,0.155,-0.040
2.626,-0.090,-0.035
2.628,0.040,-0.030
2.630,0.100,-0.030
2.632,0.110,-0.030
2.634,0.205,-0.030
2.636,0.260,-0.030
2.638,0.410,-0.030
2.640,0.305,-0.030
2.642,0.240,-0.025
2.644,0.130,-0.025
2.646,-0.120,-0.025
2.648,0.045,-0.025
2.650,0.085,-0.025
2.652,0.130,-0.030
2.654,0.220,-0.040
2.656,0.170,-0.045
2.658,0.305,-0.050
2.660,0.370,-0.055
2.662,0.230,-0.055
2.664,0.065,-0.050
2.666,-0.120,-0.050
2.668,0.040,-0.045
2.670,0.075,-0.040
2.672,0.135,-0.035
2.674,0.190,-0.035
2.676,0.195,-0.040
2.678,0.350,-0.040
2.680,0.380,-0.045
2.682,0.180,-0.050
2.684,0.050,-0.050
2.686,-0.120,-0.050
2.688,0.050,-0.045
2.690,0.090,-0.040
2.692,0.110,-0.035
2.694,0.190,-0.035
2.696,0.215,-0.030
2.698,0.360,-0.035
2.700,0.365,-0.040
2.702,0.195,-0.045
2.704,0.020,-0.050
2.706,-0.105,-0.050
2.708,0.055,-0.050
2.710,0.115,-0.040
2.712,0.100,-0.035
2.714,0.175,-0.030
2.716,0.215,-0.025
2.718,0.370,-0.025
2.720,0.320,-0.030
2.722,0.220,-0.035
2.724,0.020,-0.045
2.726,-0.125,-0.055
2.728,0.025,-0.060
2.730,0.050,-0.065
2.732,0.110,-0.065
2.734,0.170,-0.060
2.736,0.130,-0.055
2.738,0.345,-0.050
2.740,0.285,-0.055
2.742,0.200,-0.055
2.744,0.030,-0.065
2.746,-0.165,-0.070
2.748,0.040,-0.075
2.750,0.015,-0.080
2.752,0.105,-0.080
2.754,0.205,-0.070
2.756,0.185,-0.060
2.758,0.355,-0.045
2.760,0.300,-0.030
2.762,0.185,-0.020
2.764,0.055,-0.015
2.766,-0.040,-0.020
2.768,0.065,-0.030
2.770,-0.010,-0.045
2.772,0.060,-0.065
2.774,0.165,-0.080
2.776,0.180,-0.095
2.778,0.285,-0.100
2.780,0.290,-0.095
2.782,0.230,-0.090
2.784,-0.065,-0.080
2.786,-0.145,-0.065
2.788,0.085,-0.055
2.790,0.075,-0.045
2.792,0.090,-0.040
2.794,0.210,-0.035
2.796,0.175,-0.035
2.798,0.370,-0.035
2.800,0.305,-0.035
2.802,0.200,-0.030
2.804,0.005,-0.025
2.806,-0.015,-0.015
2.808,0.090,0.000
2.810,0.120,0.010
2.812,0.165,0.020
2.814,0.250,0.025
2.816,0.245,0.030
2.818,0.425,0.035
2.820,0.360,0.035
2.822,0.240,0.035
2.824,0.050,0.040
2.826,0.075,0.040
2.828,0.170,0.035
2.830,0.140,0.035
2.832,0.180,0.030
2.834,0.235,0.025
2.836,0.220,0.020
2.838,0.400,0.010
2.840,0.285,0.005
2.842,0.245,0.000
2.844,0.010,-0.005
2.846,0.055,0.000
2.848,0.120,0.000
2.850,0.120,0.000
2.852,0.145,-0.005
2.854,0.210,-0.015
2.856,0.250,-0.025
2.858,0.340,-0.040
2.860,0.160,-0.060
2.862,0.110,-0.075
2.864,-0.120,-0.090
2.866,-0.055,-0.105
2.868,0.060,-0.110
2.870,0.010,-0.110
2.872,0.015,-0.110
2.874,0.145,-0.110
2.876,0.195,-0.105
2.878,0.295,-0.105
2.880,0.140,-0.105
2.882,0.095,-0.105
2.884,-0.170,-0.110
2.886,-0.035,-0.110
2.888,0.000,-0.110
2.890,0.015,-0.110
2.892,0.085,-0.110
2.894,0.170,-0.105
2.896,0.240,-0.100
2.898,0.280,-0.090
2.900,0.140,-0.085
2.902,0.035,-0.075
2.904,-0.135,-0.070
2.906,0.030,-0.070
2.908,-0.005,-0.075
2.910,0.000,-0.085
2.912,0.115,-0.100
2.914,0.150,-0.115
2.916,0.185,-0.130
2.918,0.200,-0.140
2.920,0.075,-0.150
2.922,-0.005,-0.160
2.924,-0.200,-0.160
2.926,-0.105,-0.165
2.928,-0.030,-0.165
2.930,-0.050,-0.160
2.932,0.040,-0.155
2.934,0.060,-0.140
2.936,0.185,-0.110
2.938,0.295,-0.060
2.940,0.290,0.015
2.942,0.220,0.115
2.944,0.210,0.240
2.946,0.450,0.380
2.948,0.655,0.520
2.950,0.840,0.650
2.952,1.020,0.760
2.954,1.120,0.835
2.956,1.250,0.875
2.958,1.200,0.875
2.960,1.090,0.840
2.962,0.875,0.775
2.964,0.595,0.685
2.966,0.710,0.585
2.968,0.585,0.480
2.970,0.480,0.375
2.972,0.465,0.275
2.974,0.380,0.180
2.976,0.375,0.095
2.978,0.320,0.020
2.980,0.105,-0.050
2.982,-0.015,-0.100
2.984,-0.165,-0.140
2.986,-0.120,-0.165
2.988,-0.060,-0.180
2.990,-0.055,-0.185
2.992,0.030,-0.175
2.994,0.070,-0.165
2.996,0.215,-0.150
2.998,0.205,-0.135
3.000,0.095,-0.125
3.002,-0.055,-0.110
3.004,-0.255,-0.105
3.006,0.025,-0.095
3.008,-0.005,-0.090
3.010,0.050,-0.080
3.012,0.150,-0.070
3.014,0.180,-0.060
3.016,0.330,-0.050
3.018,0.285,-0.040
3.020,0.185,-0.035
3.022,-0.010,-0.030
3.024,-0.160,-0.030
3.026,0.060,-0.035
3.028,0.075,-0.045
3.030,0.050,-0.060
3.032,0.125,-0.070
3.034,0.120,-0.075
3.036,0.275,-0.080
3.038,0.295,-0.080
3.040,0.140,-0.075
3.042,-0.005,-0.070
3.044,-0.135,-0.060
3.046,0.010,-0.050
3.048,-0.040,-0.040
3.050,0.130,-0.035
3.052,0.190,-0.030
3.054,0.215,-0.030
3.056,0.360,-0.030
3.058,0.265,-0.025
3.060,0.180,-0.025
3.062,0.025,-0.020
3.064,-0.055,-0.015
3.066,0.065,-0.010
3.068,0.040,-0.010
3.070,0.110,-0.010
3.072,0.215,-0.015
3.074,0.225,-0.020
3.076,0.365,-0.025
3.078,0.275,-0.030
3.080,0.185,-0.035
3.082,0.010,-0.030
3.084,-0.080,-0.025
3.086,0.055,-0.015
3.088,0.055,-0.010
3.090,0.115,-0.005
3.092,0.205,-0.005
3.094,0.200,-0.010
3.096,0.380,-0.010
3.098,0.250,-0.015
3.100,0.160,-0.020
3.102,0.000,-0.020
3.104,-0.025,-0.015
3.106,0.075,-0.005
3.108,0.085,0.005
3.110,0.190,0.015
3.112,0.255,0.025
3.114,0.245,0.030
3.116,0.395,0.030
3.118,0.275,0.030
3.120,0.170,0.020
3.122,0.030,0.015
3.124,0.070,0.010
3.126,0.070,0.005
3.128,0.055,0.000
3.130,0.125,0.005
3.132,0.230,0.005
3.134,0.310,0.015
3.136,0.440,0.020
3.138,0.290,0.030
3.140,0.230,0.040
3.142,0.015,0.050
3.144,0.080,0.060
3.146,0.140,0.070
3.148,0.170,0.080
3.150,0.170,0.085
3.152,0.350,0.085
3.154,0.370,0.090
3.156,0.450,0.090
3.158,0.355,0.090
3.160,0.295,0.095
3.162,0.055,0.105
3.164,0.120,0.115
3.166,0.225,0.125
3.168,0.275,0.135
3.170,0.255,0.145
3.172,0.425,0.150
3.174,0.420,0.150
3.176,0.510,0.150
3.178,0.350,0.145
3.180,0.315,0.145
3.182,0.110,0.145
3.184,0.205,0.150
3.186,0.240,0.160
3.188,0.305,0.170
3.190,0.350,0.185
3.192,0.405,0.200
3.194,0.515,0.210
3.196,0.560,0.215
3.198,0.445,0.220
3.200,0.365,0.215
3.202,0.125,0.215
3.204,0.240,0.215
3.206,0.310,0.210
3.208,0.330,0.210
3.210,0.430,0.210
3.212,0.450,0.210
3.214,0.530,0.205
3.216,0.520,0.200
3.218,0.410,0.190
3.220,0.300,0.180
3.222,0.075,0.165
3.224,0.175,0.150
3.226,0.225,0.135
3.228,0.225,0.120
3.230,0.350,0.110
3.232,0.345,0.100
3.234,0.405,0.090
3.236,0.420,0.080
3.238,0.290,0.070
3.240,0.205,0.060
3.242,-0.005,0.050
3.244,0.045,0.040
3.246,0.125,0.030
3.248,0.115,0.025
3.250,0.185,0.015
3.252,0.300,0.010
3.254,0.335,0.010
3.256,0.325,0.005
3.258,0.260,0.005
3.260,0.110,0.005
3.262,-0.075,0.005
3.264,0.040,0.000
3.266,0.055,0.000
3.268,0.085,-0.005
3.270,0.185,-0.010
3.272,0.215,-0.010
3.274,0.420,-0.010
3.276,0.285,-0.005
3.278,0.195,0.000
3.280,0.060,0.005
3.282,-0.105,0.010
3.284,0.070,0.015
3.286,0.100,0.015
3.288,0.130,0.010
3.290,0.210,0.005
3.292,0.195,0.000
3.294,0.350,-0.005
3.296,0.350,-0.010
3.298,0.210,-0.010
3.300,0.060,-0.005
3.302,-0.095,0.005
3.304,0.100,0.010
3.306,0.070,0.020
3.308,0.130,0.025
3.310,0.170,0.025
3.312,0.270,0.020
3.314,0.415,0.015
3.316,0.385,0.005
3.318,0.205,-0.005
3.320,0.015,-0.010
3.322,-0.120,-0.020
3.324,0.010,-0.025
3.326,0.085,-0.030
3.328,0.135,-0.035
3.330,0.135,-0.035
3.332,0.165,-0.040
3.334,0.300,-0.040
3.336,0.275,-0.040
3.338,0.180,-0.035
3.340,0.030,-0.030
3.342,-0.095,-0.025
3.344,0.070,-0.020
3.346,0.050,-0.015
3.348,0.080,-0.015
3.350,0.150,-0.020
3.352,0.180,-0.025
3.354,0.350,-0.030
3.356,0.305,-0.035
3.358,0.195,-0.035
3.360,0.010,-0.035
3.362,-0.070,-0.025
3.364,0.055,-0.020
3.366,0.060,-0.010
3.368,0.145,-0.005
3.370,0.200,0.000
3.372,0.240,0.000
3.374,0.390,-0.005
3.376,0.275,-0.010
3.378,0.190,-0.020
3.380,-0.010,-0.030
3.382,-0.080,-0.040
3.384,0.045,-0.045
3.386,0.055,-0.050
3.388,0.080,-0.050
3.390,0.180,-0.050
3.392,0.165,-0.045
3.394,0.345,-0.040
3.396,0.320,-0.035
3.398,0.180,-0.025
3.400,-0.010,-0.015
3.402,-0.015,-0.010
3.404,0.080,-0.005
3.406,0.085,-0.005
3.408,0.150,-0.010
3.410,0.150,-0.015
3.412,0.235,-0.030
3.414,0.380,-0.040
3.416,0.240,-0.045
3.418,0.155,-0.050
3.420,-0.085,-0.050
3.422,-0.020,-0.050
3.424,0.070,-0.040
3.426,0.115,-0.035
3.428,0.065,-0.030
3.430,0.160,-0.030
3.432,0.215,-0.030
3.434,0.390,-0.035
3.436,0.245,-0.040
3.438,0.185,-0.045
3.440,-0.095,-0.050
3.442,-0.020,-0.050
3.444,0.075,-0.050
3.446,0.080,-0.045
3.448,0.100,-0.040
3.450,0.185,-0.040
3.452,0.210,-0.040
3.454,0.350,-0.040
3.456,0.225,-0.040
3.458,0.145,-0.045
3.460,-0.095,-0.045
3.462,0.010,-0.045
3.464,0.075,-0.045
3.466,0.090,-0.045
3.468,0.110,-0.045
3.470,0.195,-0.040
3.472,0.270,-0.040
3.474,0.325,-0.035
3.476,0.260,-0.035
3.478,0.175,-0.030
3.480,-0.055,-0.025
3.482,0.040,-0.020
3.484,0.040,-0.015
3.486,0.065,-0.015
3.488,0.150,-0.020
3.490,0.230,-0.030
3.492,0.270,-0.040
3.494,0.320,-0.050
3.496,0.205,-0.060
3.498,0.185,-0.065
3.500,-0.135,-0.065
3.502,-0.060,-0.060
3.504,0.090,-0.055
3.506,0.110,-0.045
3.508,0.135,-0.040
3.510,0.190,-0.040
3.512,0.260,-0.040
3.514,0.340,-0.040
3.516,0.250,-0.045
3.518,0.080,-0.045
3.520,-0.095,-0.045
3.522,0.025,-0.040
3.524,0.115,-0.035
3.526,0.135,-0.025
3.528,0.145,-0.020
3.530,0.200,-0.020
3.532,0.335,-0.020
3.534,0.355,-0.025
3.536,0.220,-0.035
3.538,0.065,-0.045
3.540,-0.115,-0.055
3.542,0.055,-0.065
3.544,0.105,-0.070
3.546,0.030,-0.070
3.548,0.195,-0.075
3.550,0.170,-0.075
3.552,0.225,-0.075
3.554,0.295,-0.075
3.556,0.220,-0.075
3.558,0.040,-0.075
3.560,-0.165,-0.070
3.562,0.060,-0.070
3.564,0.100,-0.070
3.566,0.080,-0.070
3.568,0.140,-0.070
3.570,0.150,-0.075
3.572,0.260,-0.080
3.574,0.280,-0.085
3.576,0.185,-0.090
3.578,0.025,-0.095
3.580,-0.140,-0.100
3.582,0.035,-0.105
3.584,0.040,-0.105
3.586,0.020,-0.105
3.588,0.135,-0.105
3.590,0.140,-0.100
3.592,0.295,-0.095
3.594,0.310,-0.095
3.596,0.195,-0.090
3.598,-0.030,-0.080
3.600,-0.140,-0.075
3.602,0.045,-0.070
3.604,0.035,-0.065
3.606,0.125,-0.060
3.608,0.245,-0.055
3.610,0.230,-0.050
3.612,0.345,-0.050
3.614,0.320,-0.045
3.616,0.190,-0.040
3.618,0.045,-0.035
3.620,-0.130,-0.035
3.622,0.070,-0.035
3.624,0.105,-0.045
3.626,0.125,-0.055
3.628,0.190,-0.065
3.630,0.175,-0.075
3.632,0.275,-0.080
3.634,0.320,-0.080
3.636,0.245,-0.070
3.638,0.030,-0.060
3.640,-0.100,-0.045
3.642,0.090,-0.030
3.644,0.045,-0.020
3.646,0.125,-0.015
3.648,0.230,-0.020
3.650,0.230,-0.025
3.652,0.405,-0.035
3.654,0.335,-0.040
3.656,0.275,-0.040
3.658,0.070,-0.030
3.660,0.005,-0.020
3.662,0.140,0.000
3.664,0.095,0.015
3.666,0.135,0.030
3.668,0.280,0.035
3.670,0.340,0.040
3.672,0.495,0.040
3.674,0.410,0.035
3.676,0.300,0.030
3.678,0.110,0.030
3.680,0.050,0.035
3.682,0.210,0.045
3.684,0.170,0.055
3.686,0.190,0.060
3.688,0.270,0.060
3.690,0.295,0.055
3.692,0.505,0.045
3.694,0.425,0.030
3.696,0.305,0.015
3.698,0.070,0.005
3.700,0.045,0.000
3.702,0.125,0.000
3.704,0.115,0.005
3.706,0.200,0.010
3.708,0.260,0.010
3.710,0.315,0.005
3.712,0.445,-0.005
3.714,0.335,-0.020
3.716,0.205,-0.045
3.718,-0.010,-0.065
3.720,-0.035,-0.085
3.722,0.045,-0.095
3.724,0.085,-0.100
3.726,0.105,-0.100
3.728,0.185,-0.095
3.730,0.205,-0.090
3.732,0.395,-0.085
3.734,0.235,-0.085
3.736,0.160,-0.090
3.738,-0.130,-0.100
3.740,-0.025,-0.110
3.742,0.035,-0.125
3.744,0.075,-0.135
3.746,0.060,-0.140
3.748,0.140,-0.140
3.750,0.185,-0.145
3.752,0.275,-0.145
3.754,0.170,-0.145
3.756,0.140,-0.145
3.758,-0.095,-0.150
3.760,-0.065,-0.155
3.762,-0.015,-0.160
3.764,-0.010,-0.170
3.766,0.065,-0.175
3.768,0.175,-0.175
3.770,0.135,-0.180
3.772,0.295,-0.185
3.774,0.115,-0.190
3.776,0.055,-0.195
3.778,-0.245,-0.210
3.780,-0.100,-0.220
3.782,-0.035,-0.235
3.784,-0.035,-0.240
3.786,-0.070,-0.240
3.788,0.050,-0.225
3.790,0.195,-0.195
3.792,0.300,-0.135
3.794,0.265,-0.055
3.796,0.270,0.055
3.798,0.210,0.180
3.800,0.465,0.320
3.802,0.690,0.460
3.804,0.810,0.595
3.806,0.995,0.710
3.808,1.135,0.800
3.810,1.335,0.860
3.812,1.365,0.880
3.814,1.205,0.865
3.816,1.015,0.820
3.818,0.745,0.750
3.820,0.775,0.660
3.822,0.750,0.550
3.824,0.645,0.440
3.826,0.630,0.325
3.828,0.460,0.215
3.830,0.430,0.115
3.832,0.370,0.030
3.834,0.230,-0.045
3.836,0.110,-0.100
3.838,-0.105,-0.145
3.840,-0.015,-0.170
3.842,0.005,-0.190
3.844,-0.020,-0.195
3.846,0.090,-0.200
3.848,0.125,-0.195
3.850,0.235,-0.190
3.852,0.240,-0.185
3.854,0.120,-0.175
3.856,-0.020,-0.170
3.858,-0.150,-0.160
3.860,0.000,-0.155
3.862,0.060,-0.145
3.864,0.100,-0.140
3.866,0.115,-0.135
3.868,0.235,-0.130
3.870,0.350,-0.125
3.872,0.265,-0.125
3.874,0.150,-0.120
3.876,0.000,-0.115
3.878,-0.090,-0.110
3.880,0.060,-0.110
3.882,0.105,-0.110
3.884,0.135,-0.110
3.886,0.160,-0.115
3.888,0.195,-0.120
3.890,0.325,-0.125
3.892,0.325,-0.130
3.894,0.150,-0.135
3.896,0.050,-0.135
3.898,-0.120,-0.135
3.900,0.045,-0.130
3.902,0.100,-0.130
3.904,0.100,-0.125
3.906,0.140,-0.120
3.908,0.195,-0.120
3.910,0.350,-0.115
3.912,0.290,-0.115
3.914,0.165,-0.110
3.916,0.045,-0.105
3.918,-0.110,-0.095
3.920,0.125,-0.090
3.922,0.125,-0.080
3.924,0.160,-0.075
3.926,0.195,-0.070
3.928,0.265,-0.070
3.930,0.400,-0.070
3.932,0.335,-0.075
3.934,0.215,-0.080
3.936,0.070,-0.085
3.938,-0.080,-0.090
3.940,0.095,-0.100
3.942,0.065,-0.105
3.944,0.105,-0.110
3.946,0.200,-0.110
3.948,0.285,-0.105
3.950,0.410,-0.100
3.952,0.310,-0.090
3.954,0.225,-0.075
3.956,0.045,-0.065
3.958,-0.045,-0.055
3.960,0.125,-0.050
3.962,0.155,-0.055
3.964,0.200,-0.060
3.966,0.240,-0.070
3.968,0.260,-0.085
3.970,0.390,-0.090
3.972,0.280,-0.095
3.974,0.235,-0.090
3.976,0.085,-0.080
3.978,0.050,-0.060
3.980,0.165,-0.040
3.982,0.140,-0.020
3.984,0.205,-0.005
3.986,0.380,0.005
3.988,0.365,0.005
3.990,0.455,0.005
3.992,0.410,0.005
3.994,0.375,0.005
3.996,0.160,0.005
3.998,0.125,0.015
4.000,0.205,0.030
4.002,0.280,0.045
4.004,0.315,0.060
4.006,0.375,0.070
4.008,0.390,0.075
4.010,0.570,0.080
4.012,0.495,0.080
4.014,0.450,0.080
4.016,0.160,0.080
4.018,0.235,0.085
4.020,0.320,0.095
4.022,0.290,0.105
4.024,0.435,0.115
4.026,0.510,0.130
4.028,0.490,0.140
4.030,0.610,0.145
4.032,0.505,0.145
4.034,0.470,0.140
4.036,0.280,0.135
4.038,0.270,0.130
4.040,0.375,0.125
4.042,0.335,0.125
4.044,0.370,0.120
4.046,0.470,0.120
4.048,0.525,0.120
4.050,0.640,0.120
4.052,0.490,0.120
4.054,0.445,0.125
4.056,0.215,0.125
4.058,0.325,0.130
4.060,0.375,0.130
4.062,0.355,0.130
4.064,0.375,0.125
4.066,0.430,0.120
4.068,0.510,0.110
4.070,0.575,0.095
4.072,0.485,0.080
4.074,0.400,0.060
4.076,0.125,0.050
4.078,0.215,0.040
4.080,0.265,0.030
4.082,0.245,0.030
4.084,0.315,0.025
4.086,0.375,0.025
4.088,0.395,0.020
4.090,0.555,0.015
4.092,0.380,0.010
4.094,0.255,0.000
4.096,0.060,-0.015
4.098,0.155,-0.025
4.100,0.215,-0.040
4.102,0.220,-0.050
4.104,0.240,-0.060
4.106,0.295,-0.070
4.108,0.365,-0.080
4.110,0.400,-0.090
4.112,0.300,-0.095
4.114,0.130,-0.100
4.116,-0.020,-0.105
4.118,0.070,-0.105
4.120,0.110,-0.105
4.122,0.175,-0.105
4.124,0.255,-0.100
4.126,0.285,-0.100
4.128,0.355,-0.095
4.130,0.410,-0.100
4.132,0.250,-0.100
4.134,0.085,-0.105
4.136,-0.025,-0.110
4.138,0.100,-0.115
4.140,0.085,-0.120
4.142,0.100,-0.125
4.144,0.215,-0.125
4.146,0.275,-0.125
4.148,0.400,-0.120
4.150,0.400,-0.115
4.152,0.240,-0.110
4.154,0.075,-0.105
4.156,-0.050,-0.100
4.158,0.130,-0.095
4.160,0.150,-0.095
4.162,0.170,-0.090
4.164,0.280,-0.090
4.166,0.330,-0.095
4.168,0.395,-0.095
4.170,0.355,-0.095
4.172,0.240,-0.095
4.174,0.085,-0.095
4.176,-0.025,-0.090
4.178,0.120,-0.085
4.180,0.180,-0.080
4.182,0.245,-0.075
4.184,0.265,-0.070
4.186,0.295,-0.065
4.188,0.460,-0.065
4.190,0.385,-0.065
4.192,0.295,-0.065
4.194,0.110,-0.070
4.196,-0.015,-0.075
4.198,0.125,-0.080
4.200,0.150,-0.080
4.202,0.195,-0.085
4.204,0.280,-0.085
4.206,0.330,-0.080
4.208,0.415,-0.080
4.210,0.370,-0.075
4.212,0.250,-0.070
4.214,0.135,-0.065
4.216,0.040,-0.060
4.218,0.180,-0.055
4.220,0.170,-0.055
4.222,0.230,-0.055
4.224,0.275,-0.060
4.226,0.300,-0.065
4.228,0.450,-0.070
4.230,0.400,-0.075
4.232,0.290,-0.080
4.234,0.095,-0.085
4.236,-0.020,-0.090
4.238,0.140,-0.095
4.240,0.110,-0.100
4.242,0.170,-0.100
4.244,0.250,-0.105
4.246,0.265,-0.100
4.248,0.430,-0.095
4.250,0.380,-0.090
4.252,0.285,-0.080
4.254,0.115,-0.070
4.256,0.075,-0.065
4.258,0.190,-0.060
4.260,0.160,-0.055
4.262,0.225,-0.060
4.264,0.245,-0.070
4.266,0.355,-0.075
4.268,0.455,-0.085
4.270,0.385,-0.090
4.272,0.305,-0.085
4.274,0.120,-0.080
4.276,0.055,-0.065
4.278,0.185,-0.050
4.280,0.200,-0.035
4.282,0.265,-0.025
4.284,0.330,-0.020
4.286,0.315,-0.025
4.288,0.490,-0.035
4.290,0.430,-0.045
4.292,0.305,-0.055
4.294,0.115,-0.060
4.296,0.130,-0.065
4.298,0.170,-0.060
4.300,0.195,-0.050
4.302,0.280,-0.035
4.304,0.345,-0.030
4.306,0.315,-0.025
4.308,0.510,-0.025
4.310,0.415,-0.035
4.312,0.325,-0.050
4.314,0.055,-0.065
4.316,0.130,-0.075
4.318,0.155,-0.085
4.320,0.210,-0.080
4.322,0.220,-0.075
4.324,0.330,-0.060
4.326,0.365,-0.045
4.328,0.490,-0.030
4.330,0.430,-0.020
4.332,0.295,-0.015
4.334,0.110,-0.015
4.336,0.170,-0.020
4.338,0.220,-0.030
4.340,0.240,-0.040
4.342,0.275,-0.045
4.344,0.345,-0.045
4.346,0.415,-0.045
4.348,0.510,-0.045
4.350,0.385,-0.040
4.352,0.305,-0.040
4.354,0.065,-0.040
4.356,0.145,-0.045
4.358,0.165,-0.050
4.360,0.225,-0.055
4.362,0.265,-0.065
4.364,0.340,-0.065
4.366,0.405,-0.070
4.368,0.470,-0.065
4.370,0.355,-0.060
4.372,0.295,-0.055
4.374,0.070,-0.050
4.376,0.135,-0.050
4.378,0.200,-0.045
4.380,0.190,-0.050
4.382,0.310,-0.050
4.384,0.335,-0.055
4.386,0.465,-0.055
4.388,0.475,-0.055
4.390,0.350,-0.055
4.392,0.230,-0.055
4.394,0.005,-0.055
4.396,0.150,-0.055
4.398,0.175,-0.055
4.400,0.205,-0.055
4.402,0.330,-0.055
4.404,0.380,-0.055
4.406,0.450,-0.045
4.408,0.465,-0.040
4.410,0.430,-0.030
4.412,0.255,-0.020
4.414,0.070,-0.010
4.416,0.200,-0.005
4.418,0.235,-0.005
4.420,0.255,-0.010
4.422,0.350,-0.015
4.424,0.360,-0.025
4.426,0.460,-0.030
4.428,0.490,-0.035
4.430,0.380,-0.030
4.432,0.225,-0.020
4.434,0.105,-0.010
4.436,0.225,0.005
4.438,0.250,0.015
4.440,0.275,0.025
4.442,0.380,0.025
4.444,0.430,0.020
4.446,0.515,0.015
4.448,0.540,0.010
4.450,0.405,0.010
4.452,0.315,0.015
4.454,0.125,0.025
4.456,0.260,0.040
4.458,0.290,0.055
4.460,0.345,0.070
4.462,0.455,0.080
4.464,0.485,0.085
4.466,0.630,0.090
4.468,0.560,0.090
4.470,0.435,0.085
4.472,0.375,0.090
4.474,0.185,0.090
4.476,0.340,0.100
4.478,0.370,0.110
4.480,0.400,0.115
4.482,0.485,0.125
4.484,0.495,0.125
4.486,0.625,0.120
4.488,0.595,0.115
4.490,0.480,0.100
4.492,0.315,0.090
4.494,0.115,0.080
4.496,0.315,0.070
4.498,0.345,0.060
4.500,0.430,0.055
4.502,0.455,0.050
4.504,0.375,0.045
4.506,0.540,0.040
4.508,0.515,0.035
4.510,0.385,0.035
4.512,0.255,0.030
4.514,0.095,0.035
4.516,0.295,0.035
4.518,0.305,0.035
4.520,0.305,0.035
4.522,0.390,0.035
4.524,0.390,0.025
4.526,0.535,0.015
4.528,0.485,0.000
4.530,0.355,-0.010
4.532,0.165,-0.020
4.534,0.065,-0.020
4.536,0.245,-0.020
4.538,0.200,-0.015
4.540,0.285,-0.005
4.542,0.340,0.000
4.544,0.380,0.000
4.546,0.520,0.000
4.548,0.460,-0.015
4.550,0.325,-0.030
4.552,0.150,-0.045
4.554,0.080,-0.055
4.556,0.210,-0.055
4.558,0.180,-0.050
4.560,0.245,-0.035
4.562,0.385,-0.020
4.564,0.380,-0.005
4.566,0.520,0.000
4.568,0.415,-0.010
4.570,0.285,-0.035
4.572,0.115,-0.075
4.574,0.070,-0.120
4.576,0.080,-0.155
4.578,0.090,-0.180
4.580,0.130,-0.175
4.582,0.205,-0.140
4.584,0.310,-0.080
4.586,0.460,0.000
4.588,0.390,0.080
4.590,0.430,0.150
4.592,0.330,0.195
4.594,0.505,0.205
4.596,0.730,0.185
4.598,0.880,0.135
4.600,0.135,0.070
4.602,0.165,0.005
4.604,0.165,-0.050
4.606,0.155,-0.090
4.608,0.190,-0.105
4.610,0.265,-0.105
4.612,0.310,-0.095
4.614,0.425,-0.080
4.616,0.295,-0.070
4.618,0.230,-0.070
4.620,0.040,-0.075
4.622,0.150,-0.085
4.624,0.175,-0.090
4.626,0.205,-0.090
4.628,0.250,-0.080
4.630,0.350,-0.065
4.632,0.400,-0.045
4.634,0.475,-0.025
4.636,0.355,-0.010
4.638,0.250,-0.005
4.640,0.080,-0.005
4.642,0.220,-0.015
4.644,0.220,-0.025
4.646,0.230,-0.035
4.648,0.300,-0.035
4.650,0.355,-0.030
4.652,0.460,-0.020
4.654,0.515,-0.010
4.656,0.365,0.000
4.658,0.310,0.005
4.660,0.120,0.010
4.662,0.165,0.010
4.664,0.250,0.005
4.666,0.300,0.000
4.668,0.300,-0.005
4.670,0.375,-0.005
4.672,0.500,-0.005
4.674,0.505,-0.010
4.676,0.345,-0.010
4.678,0.240,-0.010
4.680,0.020,-0.010
4.682,0.205,-0.010
4.684,0.250,-0.010
4.686,0.280,-0.005
4.688,0.350,0.005
4.690,0.405,0.015
4.692,0.555,0.025
4.694,0.545,0.030
4.696,0.440,0.035
4.698,0.215,0.030
4.700,0.050,0.025
4.702,0.190,0.015
4.704,0.265,0.005
4.706,0.250,0.000
4.708,0.380,0.000
4.710,0.405,0.005
4.712,0.545,0.020
4.714,0.510,0.035
4.716,0.445,0.050
4.718,0.285,0.065
4.720,0.125,0.075
4.722,0.270,0.080
4.724,0.270,0.080
4.726,0.335,0.075
4.728,0.390,0.070
4.730,0.460,0.065
4.732,0.540,0.065
4.734,0.555,0.070
4.736,0.445,0.080
4.738,0.330,0.085
4.740,0.145,0.095
4.742,0.305,0.100
4.744,0.345,0.105
4.746,0.345,0.105
4.748,0.435,0.100
4.750,0.445,0.100
4.752,0.580,0.100
4.754,0.555,0.105
4.756,0.485,0.110
4.758,0.310,0.125
4.760,0.190,0.135
4.762,0.330,0.145
4.764,0.415,0.160
4.766,0.450,0.165
4.768,0.505,0.170
4.770,0.530,0.175
4.772,0.685,0.175
4.774,0.615,0.175
4.776,0.495,0.180
4.778,0.335,0.190
4.780,0.230,0.200
4.782,0.435,0.210
4.784,0.455,0.220
4.786,0.510,0.230
4.788,0.605,0.240
4.790,0.560,0.245
4.792,0.750,0.250
4.794,0.725,0.255
4.796,0.615,0.260
4.798,0.430,0.265
4.800,0.325,0.270
4.802,0.475,0.275
4.804,0.500,0.280
4.806,0.535,0.285
4.808,0.570,0.290
4.810,0.645,0.290
4.812,0.825,0.290
4.814,0.730,0.290
4.816,0.595,0.295
4.818,0.470,0.300
4.820,0.435,0.310
4.822,0.525,0.320
4.824,0.530,0.330
4.826,0.585,0.335
4.828,0.660,0.340
4.830,0.675,0.335
4.832,0.815,0.325
4.834,0.730,0.310
4.836,0.635,0.295
4.838,0.405,0.275
4.840,0.410,0.260
4.842,0.460,0.245
4.844,0.440,0.235
4.846,0.510,0.225
4.848,0.540,0.215
4.850,0.530,0.210
4.852,0.700,0.200
4.854,0.580,0.185
4.856,0.515,0.175
4.858,0.260,0.160
4.860,0.255,0.145
4.862,0.360,0.130
4.864,0.335,0.120
4.866,0.390,0.110
4.868,0.465,0.105
4.870,0.460,0.095
4.872,0.550,0.090
4.874,0.465,0.085
4.876,0.385,0.080
4.878,0.170,0.080
4.880,0.205,0.080
4.882,0.295,0.080
4.884,0.300,0.085
4.886,0.375,0.085
4.888,0.430,0.085
4.890,0.450,0.080
4.892,0.555,0.070
4.894,0.375,0.055
4.896,0.325,0.040
4.898,0.170,0.025
4.900,0.165,0.010
4.902,0.230,0.005
4.904,0.240,0.005
4.906,0.255,0.010
4.908,0.380,0.020
4.910,0.405,0.035
4.912,0.525,0.050
4.914,0.420,0.060
4.916,0.340,0.065
4.918,0.145,0.065
4.920,0.230,0.060
4.922,0.295,0.055
4.924,0.275,0.045
4.926,0.270,0.040
4.928,0.400,0.040
4.930,0.450,0.040
4.932,0.515,0.045
4.934,0.420,0.055
4.936,0.325,0.060
4.938,0.115,0.065
4.940,0.225,0.070
4.942,0.290,0.075
4.944,0.265,0.070
4.946,0.370,0.070
4.948,0.415,0.065
4.950,0.505,0.060
4.952,0.585,0.055
4.954,0.370,0.050
4.956,0.250,0.050
4.958,0.065,0.045
4.960,0.195,0.040
4.962,0.270,0.040
4.964,0.240,0.035
4.966,0.315,0.035
4.968,0.340,0.030
4.970,0.465,0.030
4.972,0.495,0.030
4.974,0.455,0.035
4.976,0.280,0.035
4.978,0.065,0.045
4.980,0.205,0.050
4.982,0.230,0.055
4.984,0.245,0.060
4.986,0.330,0.060
4.988,0.390,0.055
4.990,0.535,0.050
4.992,0.445,0.040
4.994,0.370,0.035
4.996,0.225,0.030
4.998,0.050,0.025
5.000,0.175,0.025
5.002,0.185,0.025
5.004,0.265,0.025
5.006,0.330,0.030
5.008,0.380,0.030
5.010,0.475,0.030
5.012,0.455,0.025
5.014,0.305,0.020
5.016,0.170,0.015
5.018,0.030,0.010
5.020,0.175,0.010
5.022,0.230,0.015
5.024,0.250,0.015
5.026,0.320,0.025
5.028,0.365,0.030
5.030,0.475,0.035
5.032,0.475,0.035
5.034,0.345,0.035
5.036,0.175,0.030
5.038,0.055,0.030
5.040,0.190,0.025
5.042,0.175,0.025
5.044,0.280,0.025
5.046,0.395,0.030
5.048,0.355,0.040
5.050,0.525,0.050
5.052,0.445,0.055
5.054,0.400,0.060
5.056,0.210,0.060
5.058,0.025,0.055
5.060,0.240,0.050
5.062,0.235,0.040
5.064,0.200,0.030
5.066,0.305,0.025
5.068,0.330,0.020
5.070,0.495,0.020
5.072,0.425,0.020
5.074,0.330,0.025
5.076,0.170,0.025
5.078,0.035,0.025
5.080,0.160,0.025
5.082,0.165,0.015
5.084,0.235,0.010
5.086,0.350,0.005
5.088,0.345,0.000
5.090,0.450,-0.005
5.092,0.445,0.000
5.094,0.280,0.005
5.096,0.105,0.010
5.098,0.000,0.015
5.100,0.190,0.020
5.102,0.200,0.020
5.104,0.225,0.020
5.106,0.355,0.020
5.108,0.320,0.020
5.110,0.485,0.025
5.112,0.440,0.030
5.114,0.335,0.035
5.116,0.175,0.040
5.118,0.050,0.035
5.120,0.155,0.030
5.122,0.125,0.015
5.124,0.250,0.000
5.126,0.340,-0.015
5.128,0.250,-0.030
5.130,0.435,-0.035
5.132,0.400,-0.035
5.134,0.310,-0.025
5.136,0.090,-0.010
5.138,0.075,0.000
5.140,0.145,0.010
5.142,0.140,0.015
5.144,0.210,0.010
5.146,0.290,0.000
5.148,0.285,-0.015
5.150,0.415,-0.030
5.152,0.350,-0.040
5.154,0.265,-0.040
5.156,0.060,-0.035
5.158,0.105,-0.025
5.160,0.135,-0.010
5.162,0.165,0.000
5.164,0.275,0.005
5.166,0.315,0.005
5.168,0.265,0.000
5.170,0.400,-0.010
5.172,0.355,-0.015
5.174,0.250,-0.025
5.176,0.050,-0.025
5.178,0.055,-0.025
5.180,0.160,-0.025
5.182,0.160,-0.025
5.184,0.145,-0.025
5.186,0.240,-0.025
5.188,0.300,-0.035
5.190,0.385,-0.040
5.192,0.255,-0.050
5.194,0.300,-0.055
5.196,0.025,-0.055
5.198,0.050,-0.055
5.200,0.090,-0.050
5.202,0.085,-0.050
5.204,0.195,-0.045
5.206,0.245,-0.050
5.208,0.315,-0.055
5.210,0.395,-0.060
5.212,0.270,-0.070
5.214,0.195,-0.070
5.216,-0.065,-0.070
5.218,0.070,-0.065
5.220,0.105,-0.055
5.222,0.115,-0.040
5.224,0.200,-0.035
5.226,0.270,-0.030
5.228,0.310,-0.035
5.230,0.375,-0.045
5.232,0.250,-0.055
5.234,0.195,-0.070
5.236,-0.015,-0.080
5.238,0.045,-0.085
5.240,0.000,-0.085
5.242,0.080,-0.075
5.244,0.200,-0.065
5.246,0.245,-0.055
5.248,0.365,-0.045
5.250,0.345,-0.040
5.252,0.310,-0.040
5.254,0.160,-0.045
5.256,-0.050,-0.050
5.258,0.050,-0.055
5.260,0.090,-0.060
5.262,0.105,-0.060
5.264,0.230,-0.055
5.266,0.255,-0.050
5.268,0.335,-0.040
5.270,0.390,-0.030
5.272,0.285,-0.025
5.274,0.130,-0.020
5.276,-0.035,-0.015
5.278,0.135,-0.010
5.280,0.185,0.000
5.282,0.165,0.005
5.284,0.265,0.015
5.286,0.310,0.020
5.288,0.450,0.030
5.290,0.410,0.035
5.292,0.385,0.035
5.294,0.175,0.040
5.296,0.015,0.035
5.298,0.175,0.035
5.300,0.210,0.030
5.302,0.190,0.030
5.304,0.250,0.030
5.306,0.330,0.030
5.308,0.475,0.035
5.310,0.425,0.040
5.312,0.320,0.040
5.314,0.195,0.045
5.316,0.030,0.045
5.318,0.120,0.040
5.320,0.195,0.040
5.322,0.220,0.035
5.324,0.330,0.025
5.326,0.315,0.020
5.328,0.445,0.015
5.330,0.395,0.010
5.332,0.305,0.000
5.334,0.145,-0.005
5.336,-0.115,-0.015
5.338,0.110,-0.025
5.340,0.100,-0.035
5.342,0.105,-0.045
5.344,0.200,-0.055
5.346,0.220,-0.065
5.348,0.360,-0.070
5.350,0.290,-0.075
5.352,0.205,-0.075
5.354,0.060,-0.075
5.356,-0.105,-0.075
5.358,0.030,-0.075
5.360,0.035,-0.080
5.362,0.090,-0.085
5.364,0.155,-0.090
5.366,0.150,-0.095
5.368,0.335,-0.100
5.370,0.290,-0.105
5.372,0.205,-0.105
5.374,-0.020,-0.105
5.376,-0.110,-0.100
5.378,0.040,-0.095
5.380,0.015,-0.095
5.382,0.085,-0.090
5.384,0.170,-0.090
5.386,0.130,-0.095
5.388,0.340,-0.105
5.390,0.270,-0.120
5.392,0.150,-0.135
5.394,-0.080,-0.150
5.396,-0.175,-0.170
5.398,-0.055,-0.185
5.400,-0.115,-0.205
5.402,-0.060,-0.215
5.404,0.010,-0.220
5.406,0.060,-0.210
5.408,0.240,-0.190
5.410,0.240,-0.145
5.412,0.160,-0.075
5.414,0.085,0.015
5.416,0.140,0.135
5.418,0.380,0.270
5.420,0.585,0.415
5.422,0.820,0.565
5.424,1.030,0.705
5.426,1.155,0.825
5.428,1.405,0.915
5.430,1.345,0.970
5.432,1.205,0.975
5.434,1.015,0.940
5.436,0.900,0.865
5.438,0.870,0.755
5.440,0.750,0.620
5.442,0.660,0.480
5.444,0.615,0.335
5.446,0.460,0.205
5.448,0.495,0.095
5.450,0.295,0.010
5.452,0.155,-0.055
5.454,-0.045,-0.095
5.456,-0.045,-0.125
5.458,-0.010,-0.145
5.460,-0.075,-0.155
5.462,0.000,-0.170
5.464,0.060,-0.185
5.466,0.080,-0.200
5.468,0.210,-0.210
5.470,0.105,-0.215
5.472,0.040,-0.215
5.474,-0.160,-0.205
5.476,-0.120,-0.185
5.478,-0.005,-0.165
5.480,0.035,-0.145
5.482,0.085,-0.125
5.484,0.125,-0.115
5.486,0.095,-0.110
5.488,0.270,-0.110
5.490,0.235,-0.115
5.492,0.145,-0.120
5.494,-0.130,-0.125
5.496,-0.030,-0.130
5.498,-0.005,-0.125
5.500,0.030,-0.120
5.502,0.075,-0.115
5.504,0.175,-0.110
5.506,0.215,-0.105
5.508,0.300,-0.110
5.510,0.135,-0.115
5.512,0.125,-0.125
5.514,-0.125,-0.130
5.516,-0.010,-0.140
5.518,-0.005,-0.140
5.520,0.050,-0.140
5.522,0.070,-0.140
5.524,0.130,-0.135
5.526,0.220,-0.125
5.528,0.275,-0.115
5.530,0.175,-0.110
5.532,0.145,-0.100
5.534,-0.090,-0.095
5.536,-0.015,-0.090
5.538,0.055,-0.090
5.540,0.050,-0.090
5.542,0.115,-0.090
5.544,0.235,-0.095
5.546,0.285,-0.100
5.548,0.255,-0.105
5.550,0.095,-0.110
5.552,0.050,-0.110
5.554,-0.090,-0.110
5.556,0.025,-0.105
5.558,0.050,-0.095
5.560,0.110,-0.085
5.562,0.210,-0.075
5.564,0.225,-0.065
5.566,0.325,-0.060
5.568,0.315,-0.055
5.570,0.170,-0.055
5.572,0.050,-0.060
5.574,-0.075,-0.060
5.576,0.045,-0.065
5.578,0.105,-0.060
5.580,0.090,-0.060
5.582,0.225,-0.050
5.584,0.245,-0.045
5.586,0.390,-0.035
5.588,0.335,-0.030
5.590,0.200,-0.025
5.592,0.050,-0.025
5.594,-0.100,-0.025
5.596,0.070,-0.030
5.598,0.085,-0.030
5.600,0.175,-0.030
5.602,0.270,-0.025
5.604,0.250,-0.015
5.606,0.390,-0.005
5.608,0.360,0.005
5.610,0.270,0.010
5.612,0.110,0.015
5.614,-0.010,0.015
5.616,0.115,0.010
5.618,0.155,0.005
5.620,0.115,-0.005
5.622,0.265,-0.010
5.624,0.300,-0.015
5.626,0.375,-0.015
5.628,0.380,-0.015
5.630,0.235,-0.010
5.632,0.105,-0.005
5.634,-0.030,0.005
5.636,0.090,0.010
5.638,0.135,0.015
5.640,0.210,0.020
5.642,0.275,0.025
5.644,0.305,0.030
5.646,0.460,0.040
5.648,0.405,0.050
5.650,0.295,0.060
5.652,0.150,0.070
5.654,0.040,0.075
5.656,0.200,0.075
5.658,0.185,0.075
5.660,0.235,0.070
5.662,0.280,0.065
5.664,0.355,0.065
5.666,0.510,0.075
5.668,0.480,0.085
5.670,0.340,0.100
5.672,0.215,0.115
5.674,0.095,0.130
5.676,0.235,0.140
5.678,0.250,0.140
5.680,0.305,0.135
5.682,0.355,0.125
5.684,0.390,0.110
5.686,0.535,0.100
5.688,0.470,0.085
5.690,0.345,0.080
5.692,0.155,0.080
5.694,-0.005,0.080
5.696,0.160,0.080
5.698,0.195,0.080
5.700,0.260,0.070
5.702,0.355,0.055
5.704,0.345,0.040
5.706,0.405,0.020
5.708,0.330,0.005
5.710,0.235,-0.010
5.712,0.060,-0.020
5.714,-0.045,-0.030
5.716,0.085,-0.035
5.718,0.085,-0.040
5.720,0.080,-0.050
5.722,0.185,-0.065
5.724,0.175,-0.080
5.726,0.355,-0.100
5.728,0.250,-0.115
5.730,0.135,-0.120
5.732,-0.080,-0.125
5.734,-0.100,-0.125
5.736,-0.020,-0.115
5.738,0.025,-0.110
5.740,0.095,-0.105
5.742,0.185,-0.105
5.744,0.160,-0.110
5.746,0.300,-0.120
5.748,0.180,-0.135
5.750,0.125,-0.145
5.752,-0.100,-0.155
5.754,-0.125,-0.160
5.756,-0.045,-0.160
5.758,0.015,-0.155
5.760,0.070,-0.145
5.762,0.115,-0.140
5.764,0.185,-0.135
5.766,0.235,-0.135
5.768,0.175,-0.140
5.770,0.135,-0.140
5.772,-0.085,-0.145
5.774,-0.095,-0.150
5.776,0.000,-0.150
5.778,0.045,-0.150
5.780,0.015,-0.145
5.782,0.110,-0.140
5.784,0.160,-0.140
5.786,0.265,-0.135
5.788,0.200,-0.130
5.790,0.125,-0.130
5.792,-0.100,-0.130
5.794,-0.045,-0.125
5.796,0.025,-0.125
5.798,0.010,-0.120
5.800,0.045,-0.120
5.802,0.175,-0.120
5.804,0.200,-0.120
5.806,0.275,-0.125
5.808,0.160,-0.130
5.810,0.115,-0.135
5.812,-0.085,-0.145
5.814,-0.080,-0.145
5.816,-0.010,-0.145
5.818,-0.005,-0.145
5.820,0.075,-0.140
5.822,0.185,-0.135
5.824,0.205,-0.125
5.826,0.255,-0.120
5.828,0.165,-0.120
5.830,0.130,-0.120
5.832,-0.130,-0.120
5.834,-0.015,-0.120
5.836,0.030,-0.115
5.838,0.065,-0.115
5.840,0.090,-0.110
5.842,0.160,-0.100
5.844,0.255,-0.090
5.846,0.345,-0.080
5.848,0.215,-0.075
5.850,0.135,-0.070
5.852,-0.070,-0.065
5.854,0.030,-0.065
5.856,0.055,-0.070
5.858,0.085,-0.070
5.860,0.130,-0.075
5.862,0.195,-0.080
5.864,0.305,-0.080
5.866,0.315,-0.080
5.868,0.190,-0.080
5.870,0.095,-0.075
5.872,-0.050,-0.070
5.874,0.030,-0.065
5.876,0.030,-0.060
5.878,0.060,-0.060
5.880,0.245,-0.055
5.882,0.240,-0.050
5.884,0.320,-0.045
5.886,0.305,-0.045
5.888,0.230,-0.040
5.890,0.125,-0.035
5.892,-0.025,-0.035
5.894,0.075,-0.035
5.896,0.090,-0.035
5.898,0.085,-0.040
5.900,0.200,-0.045
5.902,0.265,-0.050
5.904,0.340,-0.055
5.906,0.320,-0.060
5.908,0.205,-0.060
5.910,0.060,-0.060
5.912,-0.075,-0.055
5.914,0.075,-0.050
5.916,0.060,-0.045
5.918,0.095,-0.045
5.920,0.190,-0.045
5.922,0.200,-0.045
5.924,0.385,-0.050
5.926,0.355,-0.055
5.928,0.210,-0.065
5.930,0.085,-0.070
5.932,-0.165,-0.075
5.934,0.045,-0.075
5.936,0.035,-0.075
5.938,0.090,-0.075
5.940,0.160,-0.070
5.942,0.195,-0.070
5.944,0.365,-0.065
5.946,0.325,-0.065
5.948,0.205,-0.060
5.950,0.055,-0.065
5.952,-0.090,-0.065
5.954,0.055,-0.070
5.956,0.010,-0.075
5.958,0.185,-0.080
5.960,0.150,-0.080
5.962,0.170,-0.075
5.964,0.345,-0.075
5.966,0.315,-0.070
5.968,0.215,-0.060
5.970,0.035,-0.055
5.972,-0.065,-0.050
5.974,0.070,-0.050
5.976,0.060,-0.055
5.978,0.125,-0.060
5.980,0.195,-0.065
5.982,0.180,-0.070
5.984,0.360,-0.075
5.986,0.310,-0.075
5.988,0.200,-0.070
5.990,0.020,-0.065
5.992,-0.090,-0.060
5.994,0.095,-0.055
5.996,0.040,-0.055
5.998,0.130,-0.060
6.000,0.210,-0.065
6.002,0.175,-0.075
6.004,0.385,-0.080
6.006,0.275,-0.080
6.008,0.180,-0.075
6.010,0.020,-0.070
6.012,-0.080,-0.060
6.014,0.065,-0.050
6.016,0.095,-0.045
6.018,0.165,-0.040
6.020,0.205,-0.040
6.022,0.225,-0.040
6.024,0.395,-0.045
6.026,0.325,-0.045
6.028,0.220,-0.045
6.030,0.045,-0.045
6.032,-0.020,-0.040
6.034,0.110,-0.035
6.036,0.125,-0.030
6.038,0.140,-0.025
6.040,0.285,-0.025
6.042,0.260,-0.025
6.044,0.390,-0.025
6.046,0.335,-0.025
6.048,0.260,-0.025
6.050,0.085,-0.015
6.052,0.040,-0.010
6.054,0.180,0.000
6.056,0.155,0.010
6.058,0.155,0.015
6.060,0.285,0.020
6.062,0.320,0.020
6.064,0.475,0.020
6.066,0.365,0.020
6.068,0.325,0.020
6.070,0.125,0.030
6.072,0.105,0.040
6.074,0.205,0.055
6.076,0.245,0.065
6.078,0.255,0.080
6.080,0.305,0.085
6.082,0.430,0.085
6.084,0.530,0.080
6.086,0.435,0.070
6.088,0.410,0.060
6.090,0.080,0.050
6.092,0.130,0.045
6.094,0.165,0.050
6.096,0.185,0.050
6.098,0.270,0.060
6.100,0.355,0.065
6.102,0.400,0.065
6.104,0.510,0.065
6.106,0.400,0.060
6.108,0.270,0.045
6.110,0.055,0.030
6.112,0.120,0.010
6.114,0.165,-0.005
6.116,0.125,-0.025
6.118,0.220,-0.040
6.120,0.235,-0.055
6.122,0.315,-0.065
6.124,0.330,-0.070
6.126,0.235,-0.080
6.128,0.170,-0.080
6.130,-0.070,-0.085
6.132,0.065,-0.085
6.134,0.080,-0.090
6.136,0.070,-0.090
6.138,0.115,-0.090
6.140,0.215,-0.095
6.142,0.290,-0.090
6.144,0.290,-0.090
6.146,0.285,-0.085
6.148,0.155,-0.080
6.150,-0.040,-0.075
6.152,0.015,-0.070
6.154,0.075,-0.070
6.156,0.115,-0.070
6.158,0.200,-0.075
6.160,0.230,-0.080
6.162,0.320,-0.085
6.164,0.355,-0.085
6.166,0.215,-0.085
6.168,0.100,-0.085
6.170,-0.075,-0.085
6.172,0.040,-0.085
6.174,0.060,-0.090
6.176,0.080,-0.100
6.178,0.155,-0.120
6.180,0.165,-0.140
6.182,0.255,-0.170
6.184,0.265,-0.195
6.186,0.055,-0.215
6.188,-0.065,-0.225
6.190,-0.240,-0.220
6.192,-0.060,-0.200
6.194,-0.005,-0.160
6.196,0.035,-0.100
6.198,0.265,-0.020
6.200,0.370,0.085
6.202,0.675,0.205
6.204,0.795,0.340
6.206,0.840,0.485
6.208,0.825,0.630
6.210,0.840,0.760
6.212,1.095,0.870
6.214,1.150,0.940
6.216,1.150,0.970
6.218,1.230,0.950
6.220,1.190,0.885
6.222,1.235,0.780
6.224,1.020,0.650
6.226,0.845,0.510
6.228,0.550,0.375
6.230,0.300,0.250
6.232,0.275,0.145
6.234,0.140,0.065
6.236,0.125,0.005
6.238,0.195,-0.045
6.240,0.250,-0.085
6.242,0.380,-0.120
6.244,0.240,-0.155
6.246,0.105,-0.185
6.248,-0.085,-0.210
6.250,-0.240,-0.225
6.252,-0.075,-0.230
6.254,-0.035,-0.220
6.256,0.030,-0.205
6.258,0.165,-0.180
6.260,0.170,-0.155
6.262,0.360,-0.135
6.264,0.275,-0.120
6.266,0.205,-0.110
6.268,0.020,-0.110
6.270,-0.115,-0.110
6.272,0.055,-0.110
6.274,0.100,-0.105
6.276,0.125,-0.100
6.278,0.195,-0.090
6.280,0.235,-0.085
6.282,0.400,-0.075
6.284,0.340,-0.075
6.286,0.210,-0.075
6.288,0.045,-0.075
6.290,-0.070,-0.080
6.292,0.085,-0.085
6.294,0.070,-0.085
6.296,0.145,-0.085
6.298,0.265,-0.080
6.300,0.255,-0.075
6.302,0.410,-0.070
6.304,0.340,-0.070
6.306,0.260,-0.075
6.308,0.010,-0.075
6.310,0.010,-0.080
6.312,0.100,-0.080
6.314,0.175,-0.075
6.316,0.130,-0.065
6.318,0.285,-0.050
6.320,0.290,-0.035
6.322,0.445,-0.020
6.324,0.385,-0.005
6.326,0.295,0.000
6.328,0.110,0.000
6.330,0.045,-0.005
6.332,0.190,-0.010
6.334,0.170,-0.020
6.336,0.230,-0.025
6.338,0.245,-0.030
6.340,0.270,-0.025
6.342,0.470,-0.015
6.344,0.395,-0.005
6.346,0.310,0.005
6.348,0.120,0.010
6.350,0.145,0.015
6.352,0.210,0.015
6.354,0.190,0.015
6.356,0.280,0.015
6.358,0.390,0.010
6.360,0.380,0.010
6.362,0.505,0.010
6.364,0.355,0.015
6.366,0.365,0.025
6.368,0.120,0.030
6.370,0.165,0.035
6.372,0.235,0.040
6.374,0.195,0.035
6.376,0.320,0.035
6.378,0.390,0.030
6.380,0.465,0.025
6.382,0.535,0.020
6.384,0.390,0.020
6.386,0.320,0.020
6.388,0.075,0.025
6.390,0.125,0.035
6.392,0.240,0.045
6.394,0.275,0.055
6.396,0.360,0.065
6.398,0.455,0.075
6.400,0.485,0.085
6.402,0.595,0.090
6.404,0.475,0.095
6.406,0.405,0.095
6.408,0.145,0.100
6.410,0.225,0.100
6.412,0.295,0.105
6.414,0.350,0.110
6.416,0.405,0.115
6.418,0.515,0.130
6.420,0.630,0.145
6.422,0.655,0.160
6.424,0.500,0.180
6.426,0.460,0.195
6.428,0.300,0.210
6.430,0.420,0.220
6.432,0.425,0.225
6.434,0.495,0.225
6.436,0.520,0.225
6.438,0.530,0.220
6.440,0.630,0.215
6.442,0.735,0.210
6.444,0.590,0.210
6.446,0.490,0.215
6.448,0.285,0.225
6.450,0.410,0.240
6.452,0.470,0.255
6.454,0.520,0.265
6.456,0.560,0.275
6.458,0.600,0.280
6.460,0.765,0.280
6.462,0.865,0.280
6.464,0.610,0.270
6.466,0.495,0.260
6.468,0.330,0.250
6.470,0.380,0.235
6.472,0.490,0.225
6.474,0.455,0.215
6.476,0.575,0.210
6.478,0.515,0.200
6.480,0.710,0.190
6.482,0.670,0.180
6.484,0.535,0.170
6.486,0.355,0.155
6.488,0.205,0.135
6.490,0.315,0.115
6.492,0.285,0.095
6.494,0.295,0.075
6.496,0.405,0.055
6.498,0.470,0.040
6.500,0.560,0.025
6.502,0.485,0.020
6.504,0.415,0.015
6.506,0.240,0.015
6.508,0.040,0.015
6.510,0.195,0.010
6.512,0.200,0.010
6.514,0.270,0.000
6.516,0.360,-0.005
6.518,0.350,-0.015
6.520,0.495,-0.025
6.522,0.445,-0.035
6.524,0.330,-0.040
6.526,0.185,-0.040
6.528,0.015,-0.040
6.530,0.175,-0.040
6.532,0.175,-0.040
6.534,0.215,-0.045
6.536,0.285,-0.050
6.538,0.310,-0.055
6.540,0.470,-0.065
6.542,0.440,-0.070
6.544,0.315,-0.070
6.546,0.155,-0.070
6.548,-0.020,-0.065
6.550,0.175,-0.060
6.552,0.150,-0.050
6.554,0.210,-0.045
6.556,0.325,-0.040
6.558,0.350,-0.045
6.560,0.490,-0.050
6.562,0.430,-0.060
6.564,0.350,-0.065
6.566,0.140,-0.075
6.568,-0.010,-0.080
6.570,0.120,-0.085
6.572,0.185,-0.085
6.574,0.185,-0.085
6.576,0.280,-0.085
6.578,0.310,-0.080
6.580,0.475,-0.080
6.582,0.435,-0.080
6.584,0.290,-0.080
6.586,0.145,-0.080
6.588,0.000,-0.075
6.590,0.135,-0.075
6.592,0.085,-0.075
6.594,0.325,-0.070
6.596,0.330,-0.065
6.598,0.375,-0.065
6.600,0.525,-0.060
6.602,0.410,-0.060
6.604,0.310,-0.055
6.606,0.115,-0.055
6.608,0.015,-0.055
6.610,0.195,-0.055
6.612,0.215,-0.055
6.614,0.230,-0.060
6.616,0.300,-0.060
6.618,0.375,-0.065
6.620,0.565,-0.060
6.622,0.405,-0.060
6.624,0.340,-0.050
6.626,0.165,-0.045
6.628,0.150,-0.035
6.630,0.225,-0.025
6.632,0.210,-0.025
6.634,0.280,-0.025
6.636,0.370,-0.030
6.638,0.355,-0.035
6.640,0.535,-0.045
6.642,0.450,-0.050
6.644,0.335,-0.055
6.646,0.095,-0.050
6.648,0.175,-0.040
6.650,0.250,-0.025
6.652,0.255,-0.010
6.654,0.330,0.000
6.656,0.390,0.005
6.658,0.415,0.005
6.660,0.575,0.000
6.662,0.495,-0.010
6.664,0.355,-0.020
6.666,0.175,-0.030
6.668,0.160,-0.035
6.670,0.230,-0.035
6.672,0.305,-0.025
6.674,0.330,-0.020
6.676,0.390,-0.010
6.678,0.465,0.000
6.680,0.605,0.005
6.682,0.490,0.005
6.684,0.390,0.000
6.686,0.130,-0.005
6.688,0.220,-0.010
6.690,0.245,-0.010
6.692,0.260,-0.010
6.694,0.375,-0.005
6.696,0.560,0.005
6.698,0.535,0.010
6.700,0.600,0.020
6.702,0.390,0.030
6.704,0.465,0.035
6.706,0.195,0.035
6.708,0.260,0.035
6.710,0.320,0.035
6.712,0.355,0.035
6.714,0.400,0.030
6.716,0.505,0.030
6.718,0.625,0.025
6.720,0.635,0.025
6.722,0.450,0.025
6.724,0.375,0.030
6.726,0.175,0.030
6.728,0.290,0.030
6.730,0.335,0.035
6.732,0.385,0.035
6.734,0.420,0.035
6.736,0.475,0.030
6.738,0.580,0.030
6.740,0.610,0.025
6.742,0.465,0.020
6.744,0.370,0.015
6.746,0.175,0.010
6.748,0.255,0.010
6.750,0.330,0.010
6.752,0.355,0.015
6.754,0.460,0.015
6.756,0.490,0.020
6.758,0.610,0.025
6.760,0.615,0.030
6.762,0.470,0.035
6.764,0.370,0.035
6.766,0.180,0.035
6.768,0.305,0.030
6.770,0.315,0.025
6.772,0.365,0.015
6.774,0.475,0.005
6.776,0.460,0.000
6.778,0.585,-0.005
6.780,0.575,-0.005
6.782,0.455,0.000
6.784,0.320,0.010
6.786,0.150,0.015
6.788,0.315,0.025
6.790,0.330,0.030
6.792,0.395,0.030
6.794,0.470,0.025
6.796,0.485,0.015
6.798,0.600,0.005
6.800,0.590,-0.005
6.802,0.465,-0.015
6.804,0.265,-0.015
6.806,0.105,-0.010
6.808,0.320,0.000
6.810,0.365,0.010
6.812,0.395,0.020
6.814,0.490,0.030
6.816,0.555,0.030
6.818,0.630,0.035
6.820,0.605,0.030
6.822,0.455,0.025
6.824,0.325,0.020
6.826,0.195,0.015
6.828,0.320,0.010
6.830,0.330,0.010
6.832,0.415,0.005
6.834,0.465,0.005
6.836,0.475,0.000
6.838,0.630,0.000
6.840,0.555,0.000
6.842,0.520,0.000
6.844,0.335,0.000
6.846,0.160,0.005
6.848,0.375,0.005
6.850,0.320,0.005
6.852,0.425,0.005
6.854,0.470,0.000
6.856,0.445,-0.005
6.858,0.635,-0.010
6.860,0.630,-0.010
6.862,0.510,-0.010
6.864,0.300,-0.010
6.866,0.185,-0.005
6.868,0.315,0.000
6.870,0.325,0.005
6.872,0.405,0.010
6.874,0.485,0.005
6.876,0.455,0.000
6.878,0.690,-0.005
6.880,0.620,-0.010
6.882,0.500,-0.010
6.884,0.275,-0.010
6.886,0.185,-0.005
6.888,0.400,0.005
6.890,0.375,0.010
6.892,0.410,0.020
6.894,0.525,0.030
6.896,0.540,0.040
6.898,0.745,0.045
6.900,0.650,0.050
6.902,0.545,0.055
6.904,0.325,0.060
6.906,0.345,0.065
6.908,0.465,0.065
6.910,0.440,0.070
6.912,0.465,0.070
6.914,0.545,0.065
6.916,0.550,0.065
6.918,0.735,0.060
6.920,0.670,0.060
6.922,0.595,0.060
6.924,0.340,0.065
6.926,0.345,0.075
6.928,0.480,0.080
6.930,0.455,0.090
6.932,0.520,0.090
6.934,0.595,0.085
6.936,0.620,0.075
6.938,0.765,0.065
6.940,0.585,0.050
6.942,0.520,0.040
6.944,0.330,0.030
6.946,0.330,0.030
6.948,0.450,0.030
6.950,0.470,0.035
6.952,0.485,0.035
6.954,0.555,0.040
6.956,0.575,0.035
6.958,0.675,0.025
6.960,0.635,0.015
6.962,0.495,0.005
6.964,0.285,-0.005
6.966,0.285,-0.015
6.968,0.440,-0.015
6.970,0.395,-0.015
6.972,0.390,-0.010
6.974,0.560,-0.005
6.976,0.600,-0.005
6.978,0.665,-0.005
6.980,0.570,-0.010
6.982,0.530,-0.010
6.984,0.280,-0.015
6.986,0.320,-0.020
6.988,0.405,-0.025
6.990,0.405,-0.025
6.992,0.445,-0.030
6.994,0.510,-0.040
6.996,0.515,-0.050
6.998,0.610,-0.065
7.000,0.505,-0.080
7.002,0.475,-0.095
7.004,0.200,-0.105
7.006,0.260,-0.110
7.008,0.305,-0.110
7.010,0.345,-0.105
7.012,0.430,-0.105
7.014,0.470,-0.105
7.016,0.550,-0.115
7.018,0.550,-0.130
7.020,0.410,-0.150
7.022,0.290,-0.170
7.024,0.075,-0.180
7.026,0.210,-0.180
7.028,0.240,-0.155
7.030,0.365,-0.105
7.032,0.510,-0.025
7.034,0.655,0.080
7.036,0.915,0.210
7.038,1.070,0.350
7.040,1.110,0.495
7.042,1.115,0.625
7.044,1.015,0.740
7.046,1.285,0.820
7.048,1.355,0.865
7.050,1.345,0.875
7.052,1.430,0.845
7.054,1.335,0.785
7.056,1.400,0.695
7.058,1.310,0.590
7.060,1.090,0.475
7.062,0.805,0.360
7.064,0.510,0.255
7.066,0.530,0.160
7.068,0.470,0.075
7.070,0.470,0.005
7.072,0.470,-0.055
7.074,0.495,-0.100
7.076,0.545,-0.140
7.078,0.545,-0.170
7.080,0.400,-0.195
7.082,0.285,-0.210
7.084,0.060,-0.220
7.086,0.145,-0.220
7.088,0.230,-0.210
7.090,0.290,-0.195
7.092,0.425,-0.180
7.094,0.465,-0.160
7.096,0.595,-0.145
7.098,0.555,-0.130
7.100,0.460,-0.120
7.102,0.315,-0.115
7.104,0.190,-0.115
7.106,0.320,-0.115
7.108,0.360,-0.115
7.110,0.370,-0.120
7.112,0.470,-0.120
7.114,0.500,-0.120
7.116,0.635,-0.115
7.118,0.545,-0.110
7.120,0.535,-0.110
7.122,0.370,-0.105
7.124,0.170,-0.105
7.126,0.340,-0.105
7.128,0.325,-0.110
7.130,0.400,-0.110
7.132,0.465,-0.115
7.134,0.515,-0.120
7.136,0.615,-0.120
7.138,0.640,-0.120
7.140,0.510,-0.120
7.142,0.290,-0.115
7.144,0.175,-0.110
7.146,0.395,-0.105
7.148,0.350,-0.100
7.150,0.435,-0.105
7.152,0.510,-0.105
7.154,0.550,-0.110
7.156,0.650,-0.115
7.158,0.570,-0.120
7.160,0.460,-0.120
7.162,0.290,-0.120
7.164,0.180,-0.115
7.166,0.395,-0.110
7.168,0.400,-0.110
7.170,0.415,-0.105
7.172,0.540,-0.100
7.174,0.545,-0.100
7.176,0.690,-0.100
7.178,0.635,-0.095
7.180,0.495,-0.090
7.182,0.340,-0.085
7.184,0.235,-0.080
7.186,0.410,-0.070
7.188,0.435,-0.065
7.190,0.475,-0.060
7.192,0.550,-0.060
7.194,0.570,-0.065
7.196,0.740,-0.065
7.198,0.680,-0.065
7.200,0.615,-0.065
7.202,0.355,-0.060
7.204,0.330,-0.050
7.206,0.465,-0.040
7.208,0.470,-0.030
7.210,0.515,-0.025
7.212,0.580,-0.020
7.214,0.600,-0.020
7.216,0.805,-0.020
7.218,0.720,-0.020
7.220,0.625,-0.020
7.222,0.385,-0.015
7.224,0.420,-0.010
7.226,0.510,0.000
7.228,0.525,0.010
7.230,0.610,0.020
7.232,0.670,0.025
7.234,0.730,0.025
7.236,0.780,0.025
7.238,0.720,0.025
7.240,0.660,0.030
7.242,0.505,0.035
7.244,0.505,0.045
7.246,0.600,0.060
7.248,0.605,0.080
7.250,0.630,0.095
7.252,0.770,0.115
7.254,0.825,0.125
7.256,0.970,0.130
7.258,0.805,0.130
7.260,0.780,0.130
7.262,0.535,0.125
7.264,0.655,0.130
7.266,0.670,0.135
7.268,0.710,0.145
7.270,0.765,0.160
7.272,0.815,0.175
7.274,0.880,0.185
7.276,1.005,0.195
7.278,0.875,0.200
7.280,0.815,0.205
7.282,0.670,0.200
7.284,0.710,0.200
7.286,0.735,0.200
7.288,0.790,0.195
7.290,0.815,0.195
7.292,0.875,0.195
7.294,0.940,0.195
7.296,1.030,0.195
7.298,0.905,0.195
7.300,0.805,0.190
7.302,0.560,0.185
7.304,0.675,0.180
7.306,0.705,0.170
7.308,0.760,0.160
7.310,0.760,0.145
7.312,0.815,0.135
7.314,0.885,0.115
7.316,0.925,0.100
7.318,0.795,0.085
7.320,0.700,0.070
7.322,0.450,0.055
7.324,0.520,0.050
7.326,0.595,0.040
7.328,0.615,0.040
7.330,0.680,0.035
7.332,0.735,0.030
7.334,0.755,0.020
7.336,0.845,0.010
7.338,0.680,-0.010
7.340,0.555,-0.025
7.342,0.395,-0.045
7.344,0.480,-0.060
7.346,0.505,-0.075
7.348,0.470,-0.085
7.350,0.540,-0.090
7.352,0.630,-0.090
7.354,0.770,-0.090
7.356,0.740,-0.085
7.358,0.600,-0.085
7.360,0.480,-0.080
7.362,0.275,-0.080
7.364,0.450,-0.075
7.366,0.480,-0.075
7.368,0.550,-0.070
7.370,0.630,-0.070
7.372,0.635,-0.070
7.374,0.770,-0.070
7.376,0.725,-0.080
7.378,0.575,-0.085
7.380,0.455,-0.095
7.382,0.300,-0.100
7.384,0.475,-0.105
7.386,0.480,-0.105
7.388,0.505,-0.105
7.390,0.615,-0.095
7.392,0.605,-0.090
7.394,0.725,-0.085
7.396,0.760,-0.080
7.398,0.695,-0.075
7.400,0.535,-0.080
7.402,0.285,-0.085
7.404,0.450,-0.090
7.406,0.505,-0.095
7.408,0.505,-0.100
7.410,0.610,-0.100
7.412,0.630,-0.095
7.414,0.795,-0.090
7.416,0.745,-0.080
7.418,0.635,-0.070
7.420,0.490,-0.065
7.422,0.365,-0.060
7.424,0.475,-0.060
7.426,0.490,-0.060
7.428,0.550,-0.065
7.430,0.655,-0.070
7.432,0.665,-0.075
7.434,0.820,-0.075
7.436,0.755,-0.075
7.438,0.640,-0.075
7.440,0.475,-0.070
7.442,0.300,-0.070
7.444,0.500,-0.070
7.446,0.530,-0.070
7.448,0.570,-0.075
7.450,0.620,-0.080
7.452,0.645,-0.085
7.454,0.855,-0.085
7.456,0.715,-0.085
7.458,0.615,-0.085
7.460,0.470,-0.085
7.462,0.330,-0.085
7.464,0.480,-0.085
7.466,0.505,-0.090
7.468,0.595,-0.095
7.470,0.590,-0.100
7.472,0.620,-0.110
7.474,0.785,-0.115
7.476,0.760,-0.115
7.478,0.605,-0.115
7.480,0.425,-0.110
7.482,0.380,-0.105
7.484,0.530,-0.100
7.486,0.495,-0.095
7.488,0.520,-0.095
7.490,0.645,-0.090
7.492,0.600,-0.095
7.494,0.900,-0.090
7.496,0.745,-0.090
7.498,0.625,-0.085
7.500,0.440,-0.080
7.502,0.405,-0.070
7.504,0.570,-0.065
7.506,0.565,-0.055
7.508,0.590,-0.055
7.510,0.650,-0.055
7.512,0.680,-0.055
7.514,0.865,-0.060
7.516,0.755,-0.065
7.518,0.695,-0.065
7.520,0.480,-0.065
7.522,0.520,-0.065
7.524,0.570,-0.060
7.526,0.500,-0.060
7.528,0.600,-0.060
7.530,0.710,-0.065
7.532,0.710,-0.070
7.534,0.885,-0.075
7.536,0.720,-0.080
7.538,0.665,-0.080
7.540,0.445,-0.080
7.542,0.460,-0.070
7.544,0.580,-0.065
7.546,0.570,-0.055
7.548,0.610,-0.050
7.550,0.675,-0.050
7.552,0.710,-0.060
7.554,0.825,-0.070
7.556,0.740,-0.085
7.558,0.690,-0.100
7.560,0.415,-0.110
7.562,0.430,-0.115
7.564,0.535,-0.105
7.566,0.580,-0.095
7.568,0.640,-0.075
7.570,0.700,-0.060
7.572,0.715,-0.045
7.574,0.855,-0.040
7.576,0.760,-0.040
7.578,0.675,-0.050
7.580,0.430,-0.060
7.582,0.525,-0.070
7.584,0.545,-0.080
7.586,0.560,-0.080
7.588,0.560,-0.075
7.590,0.735,-0.070
7.592,0.820,-0.060
7.594,0.870,-0.050
7.596,0.760,-0.040
7.598,0.725,-0.040
7.600,0.460,-0.040
7.602,0.555,-0.045
7.604,0.560,-0.050
7.606,0.615,-0.055
7.608,0.705,-0.060
7.610,0.740,-0.060
7.612,0.795,-0.055
7.614,0.870,-0.050
7.616,0.710,-0.045
7.618,0.665,-0.040
7.620,0.485,-0.035
7.622,0.565,-0.035
7.624,0.640,-0.035
7.626,0.630,-0.030
7.628,0.725,-0.030
7.630,0.780,-0.025
7.632,0.825,-0.020
7.634,0.890,-0.015
7.636,0.775,-0.010
7.638,0.680,-0.010
7.640,0.505,-0.010
7.642,0.590,-0.010
7.644,0.580,-0.015
7.646,0.670,-0.015
7.648,0.790,-0.020
7.650,0.785,-0.020
7.652,0.890,-0.015
7.654,0.895,-0.010
7.656,0.820,0.000
7.658,0.655,0.005
7.660,0.435,0.015
7.662,0.615,0.020
7.664,0.675,0.025
7.666,0.760,0.030
7.668,0.820,0.030
7.670,0.830,0.030
7.672,0.910,0.035
7.674,0.945,0.040
7.676,0.840,0.050
7.678,0.710,0.060
7.680,0.560,0.070
7.682,0.690,0.075
7.684,0.715,0.080
7.686,0.740,0.080
7.688,0.830,0.080
7.690,0.880,0.075
7.692,1.000,0.070
7.694,1.000,0.070
7.696,0.880,0.070
7.698,0.715,0.075
7.700,0.555,0.075
7.702,0.720,0.080
7.704,0.745,0.085
7.706,0.765,0.080
7.708,0.845,0.075
7.710,0.840,0.065
7.712,1.000,0.060
7.714,0.950,0.050
7.716,0.850,0.045
7.718,0.670,0.040
7.720,0.500,0.040
7.722,0.675,0.035
7.724,0.680,0.030
7.726,0.740,0.025
7.728,0.775,0.015
7.730,0.770,0.000
7.732,0.940,-0.010
7.734,0.895,-0.020
7.736,0.760,-0.025
7.738,0.580,-0.025
7.740,0.470,-0.020
7.742,0.640,-0.015
7.744,0.640,-0.005
7.746,0.720,0.000
7.748,0.720,0.000
7.750,0.795,-0.005
7.752,0.955,-0.010
7.754,0.910,-0.015
7.756,0.770,-0.025
7.758,0.605,-0.030
7.760,0.440,-0.030
7.762,0.620,-0.030
7.764,0.610,-0.025
7.766,0.660,-0.025
7.768,0.825,-0.025
7.770,0.750,-0.030
7.772,0.965,-0.035
7.774,0.860,-0.045
7.776,0.735,-0.050
7.778,0.545,-0.055
7.780,0.470,-0.060
7.782,0.590,-0.065
7.784,0.620,-0.065
7.786,0.625,-0.070
7.788,0.695,-0.075
7.790,0.680,-0.090
7.792,0.870,-0.105
7.794,0.830,-0.125
7.796,0.655,-0.140
7.798,0.365,-0.150
7.800,0.455,-0.145
7.802,0.505,-0.125
7.804,0.600,-0.085
7.806,0.745,-0.015
7.808,0.830,0.075
7.810,0.950,0.185
7.812,1.290,0.310
7.814,1.375,0.450
7.816,1.430,0.585
7.818,1.385,0.705
7.820,1.450,0.810
7.822,1.610,0.880
7.824,1.575,0.920
7.826,1.635,0.920
7.828,1.655,0.880
7.830,1.665,0.810
7.832,1.655,0.710
7.834,1.480,0.600
7.836,1.250,0.480
7.838,0.950,0.360
7.840,0.860,0.250
7.842,0.775,0.155
7.844,0.655,0.070
7.846,0.685,0.005
7.848,0.780,-0.045
7.850,0.770,-0.080
7.852,0.900,-0.110
7.854,0.710,-0.125
7.856,0.625,-0.135
7.858,0.435,-0.140
7.860,0.450,-0.145
7.862,0.545,-0.145
7.864,0.540,-0.140
7.866,0.560,-0.140
7.868,0.690,-0.135
7.870,0.725,-0.130
7.872,0.840,-0.125
7.874,0.740,-0.115
7.876,0.730,-0.100
7.878,0.490,-0.080
7.880,0.540,-0.060
7.882,0.645,-0.045
7.884,0.655,-0.030
7.886,0.710,-0.025
7.888,0.780,-0.025
7.890,0.865,-0.030
7.892,0.935,-0.040
7.894,0.770,-0.050
7.896,0.675,-0.055
7.898,0.545,-0.060
7.900,0.590,-0.060
7.902,0.650,-0.050
7.904,0.640,-0.040
7.906,0.680,-0.035
7.908,0.775,-0.025
7.910,0.930,-0.025
7.912,0.905,-0.025
7.914,0.785,-0.030
7.916,0.710,-0.035
7.918,0.515,-0.040
7.920,0.610,-0.040
7.922,0.645,-0.040
7.924,0.715,-0.030
7.926,0.735,-0.020
7.928,0.780,-0.010
7.930,0.910,-0.005
7.932,0.970,0.000
7.934,0.845,0.000
7.936,0.685,-0.005
7.938,0.545,-0.010
7.940,0.635,-0.015
7.942,0.695,-0.015
7.944,0.685,-0.015
7.946,0.795,-0.010
7.948,0.810,-0.005
7.950,0.935,0.005
7.952,0.910,0.010
7.954,0.820,0.010
7.956,0.740,0.010
7.958,0.575,0.005
7.960,0.680,0.005
7.962,0.715,0.000
7.964,0.695,0.000
7.966,0.785,0.000
7.968,0.820,0.010
7.970,0.975,0.020
7.972,0.990,0.035
7.974,0.880,0.045
7.976,0.705,0.055
7.978,0.605,0.060
7.980,0.740,0.055
7.982,0.690,0.050
7.984,0.730,0.040
7.986,0.870,0.030
7.988,0.835,0.025
7.990,1.015,0.025
7.992,1.025,0.030
7.994,0.840,0.040
7.996,0.675,0.050
7.998,0.565,0.060
8.000,0.730,0.065
8.002,0.750,0.065
8.004,0.760,0.060
8.006,0.905,0.055
8.008,0.890,0.055
8.010,1.000,0.050
8.012,1.005,0.055
8.014,0.895,0.065
8.016,0.745,0.080
8.018,0.610,0.095
8.020,0.760,0.105
8.022,0.805,0.110
8.024,0.880,0.110
8.026,0.860,0.105
8.028,0.870,0.105
8.030,1.085,0.100
8.032,1.050,0.100
8.034,0.920,0.110
8.036,0.825,0.125
8.038,0.675,0.140
8.040,0.825,0.155
8.042,0.810,0.170
8.044,0.875,0.175
8.046,0.965,0.180
8.048,0.995,0.175
8.050,1.160,0.170
8.052,1.110,0.165
8.054,0.970,0.165
8.056,0.795,0.170
8.058,0.680,0.180
8.060,0.875,0.190
8.062,0.860,0.200
8.064,0.915,0.205
8.066,1.015,0.205
8.068,1.005,0.200
8.070,1.195,0.195
8.072,1.110,0.190
8.074,0.985,0.185
8.076,0.805,0.180
8.078,0.690,0.180
8.080,0.855,0.175
8.082,0.835,0.170
8.084,0.910,0.165
8.086,0.970,0.150
8.088,0.895,0.130
8.090,1.070,0.110
8.092,1.015,0.090
8.094,0.905,0.070
8.096,0.640,0.055
8.098,0.615,0.040
8.100,0.730,0.035
8.102,0.735,0.025
8.104,0.695,0.015
8.106,0.825,0.000
8.108,0.795,-0.015
8.110,0.935,-0.035
8.112,0.835,-0.050
8.114,0.750,-0.070
8.116,0.540,-0.080
8.118,0.505,-0.090
8.120,0.565,-0.090
8.122,0.610,-0.090
8.124,0.655,-0.090
8.126,0.695,-0.090
8.128,0.715,-0.090
8.130,0.860,-0.095
8.132,0.795,-0.100
8.134,0.715,-0.105
8.136,0.460,-0.110
8.138,0.495,-0.115
8.140,0.575,-0.115
8.142,0.545,-0.115
8.144,0.610,-0.115
8.146,0.690,-0.115
8.148,0.675,-0.120
8.150,0.870,-0.125
8.152,0.730,-0.135
8.154,0.640,-0.145
8.156,0.430,-0.150
8.158,0.420,-0.150
8.160,0.545,-0.150
8.162,0.545,-0.145
8.164,0.635,-0.135
8.166,0.700,-0.125
8.168,0.765,-0.115
8.170,0.840,-0.110
8.172,0.750,-0.115
8.174,0.655,-0.120
8.176,0.400,-0.135
8.178,0.430,-0.150
8.180,0.520,-0.165
8.182,0.545,-0.175
8.184,0.535,-0.180
8.186,0.645,-0.180
8.188,0.715,-0.170
8.190,0.830,-0.160
8.192,0.700,-0.145
8.194,0.670,-0.135
8.196,0.425,-0.125
8.198,0.480,-0.120
8.200,0.555,-0.120
8.202,0.530,-0.125
8.204,0.610,-0.130
8.206,0.665,-0.140
8.208,0.770,-0.145
8.210,0.805,-0.150
8.212,0.640,-0.150
8.214,0.630,-0.145
8.216,0.450,-0.140
8.218,0.495,-0.135
8.220,0.530,-0.125
8.222,0.555,-0.120
8.224,0.645,-0.115
8.226,0.750,-0.110
8.228,0.840,-0.100
8.230,0.795,-0.095
8.232,0.715,-0.085
8.234,0.590,-0.075
8.236,0.470,-0.070
8.238,0.600,-0.060
8.240,0.600,-0.060
8.242,0.615,-0.060
8.244,0.685,-0.065
8.246,0.680,-0.075
8.248,0.830,-0.080
8.250,0.835,-0.090
8.252,0.730,-0.095
8.254,0.615,-0.095
8.256,0.410,-0.090
8.258,0.535,-0.085
8.260,0.600,-0.075
8.262,0.625,-0.070
8.264,0.740,-0.065
8.266,0.730,-0.060
8.268,0.890,-0.065
8.270,0.845,-0.065
8.272,0.695,-0.070
8.274,0.580,-0.075
8.276,0.420,-0.075
8.278,0.545,-0.080
8.280,0.610,-0.080
8.282,0.595,-0.075
8.284,0.705,-0.070
8.286,0.750,-0.065
8.288,0.890,-0.055
8.290,0.865,-0.045
8.292,0.760,-0.035
8.294,0.630,-0.030
8.296,0.450,-0.020
8.298,0.610,-0.020
8.300,0.640,-0.020
8.302,0.630,-0.020
8.304,0.740,-0.025
8.306,0.740,-0.030
8.308,0.930,-0.035
8.310,0.865,-0.040
8.312,0.745,-0.040
8.314,0.595,-0.035
8.316,0.480,-0.030
8.318,0.600,-0.025
8.320,0.575,-0.025
8.322,0.635,-0.025
8.324,0.730,-0.030
8.326,0.755,-0.035
8.328,0.915,-0.045
8.330,0.880,-0.050
8.332,0.720,-0.050
8.334,0.560,-0.055
8.336,0.395,-0.050
8.338,0.620,-0.050
8.340,0.570,-0.050
8.342,0.605,-0.050
8.344,0.660,-0.055
8.346,0.725,-0.060
8.348,0.920,-0.070
8.350,0.850,-0.075
8.352,0.695,-0.080
8.354,0.505,-0.080
8.356,0.415,-0.075
8.358,0.580,-0.070
8.360,0.565,-0.065
8.362,0.620,-0.060
8.364,0.670,-0.055
8.366,0.700,-0.055
8.368,0.900,-0.055
8.370,0.830,-0.060
8.372,0.730,-0.060
8.374,0.530,-0.055
8.376,0.430,-0.055
8.378,0.565,-0.050
8.380,0.575,-0.045
8.382,0.615,-0.040
8.384,0.720,-0.040
8.386,0.780,-0.040
8.388,0.920,-0.045
8.390,0.830,-0.050
8.392,0.760,-0.055
8.394,0.525,-0.055
8.396,0.450,-0.050
8.398,0.555,-0.050
8.400,0.565,-0.045
8.402,0.630,-0.040
8.404,0.710,-0.040
8.406,0.695,-0.045
8.408,0.890,-0.050
8.410,0.825,-0.055
8.412,0.705,-0.060
8.414,0.480,-0.065
8.416,0.470,-0.065
8.418,0.590,-0.060
8.420,0.550,-0.055
8.422,0.640,-0.050
8.424,0.705,-0.045
8.426,0.730,-0.045
8.428,0.900,-0.045
8.430,0.765,-0.050
8.432,0.720,-0.055
8.434,0.490,-0.055
8.436,0.500,-0.055
8.438,0.560,-0.055
8.440,0.625,-0.050
8.442,0.635,-0.045
8.444,0.720,-0.045
8.446,0.750,-0.045
8.448,0.850,-0.050
8.450,0.750,-0.055
8.452,0.695,-0.060
8.454,0.435,-0.065
8.456,0.495,-0.065
8.458,0.560,-0.060
8.460,0.635,-0.055
8.462,0.655,-0.045
8.464,0.690,-0.040
8.466,0.755,-0.030
8.468,0.870,-0.030
8.470,0.795,-0.030
8.472,0.695,-0.035
8.474,0.385,-0.040
8.476,0.465,-0.050
8.478,0.615,-0.055
8.480,0.595,-0.055
8.482,0.615,-0.060
8.484,0.725,-0.060
8.486,0.815,-0.055
8.488,0.850,-0.055
8.490,0.670,-0.055
8.492,0.645,-0.055
8.494,0.420,-0.050
8.496,0.520,-0.050
8.498,0.560,-0.050
8.500,0.605,-0.050
8.502,0.670,-0.045
8.504,0.745,-0.040
8.506,0.810,-0.035
8.508,0.870,-0.025
8.510,0.725,-0.020
8.512,0.675,-0.015
8.514,0.440,-0.005
8.516,0.540,0.000
8.518,0.640,0.010
8.520,0.650,0.020
8.522,0.740,0.030
8.524,0.800,0.045
8.526,0.905,0.055
8.528,0.930,0.070
8.530,0.830,0.080
8.532,0.725,0.085
8.534,0.500,0.090
8.536,0.685,0.095
8.538,0.720,0.095
8.540,0.700,0.095
8.542,0.820,0.095
8.544,0.840,0.095
8.546,0.940,0.095
8.548,0.980,0.100
8.550,0.850,0.100
8.552,0.685,0.105
8.554,0.520,0.105
8.556,0.670,0.100
8.558,0.705,0.095
8.560,0.715,0.085
8.562,0.755,0.080
8.564,0.780,0.070
8.566,0.920,0.060
8.568,0.925,0.060
8.570,0.775,0.060
8.572,0.690,0.065
8.574,0.520,0.070
8.576,0.650,0.075
8.578,0.665,0.080
8.580,0.700,0.075
8.582,0.740,0.070
8.584,0.770,0.060
8.586,0.890,0.045
8.588,0.845,0.030
8.590,0.700,0.015
8.592,0.555,0.010
8.594,0.450,0.005
8.596,0.585,0.000
8.598,0.555,0.005
8.600,0.615,0.005
8.602,0.710,0.005
8.604,0.735,0.005
8.606,0.850,0.005
8.608,0.830,0.005
8.610,0.670,0.005
8.612,0.550,0.005
8.614,0.410,0.005
8.616,0.565,0.005
8.618,0.590,0.005
8.620,0.590,0.005
8.622,0.675,0.000
8.624,0.705,0.000
8.626,0.835,0.000
8.628,0.795,0.000
8.630,0.685,0.000
8.632,0.550,0.000
8.634,0.425,0.000
8.636,0.560,-0.005
8.638,0.525,-0.015
8.640,0.540,-0.030
8.642,0.630,-0.055
8.644,0.610,-0.080
8.646,0.725,-0.110
8.648,0.725,-0.135
8.650,0.525,-0.150
8.652,0.355,-0.155
8.654,0.250,-0.145
8.656,0.450,-0.110
8.658,0.505,-0.060
8.660,0.600,0.015
8.662,0.770,0.115
8.664,0.895,0.230
8.666,1.245,0.360
8.668,1.355,0.500
8.670,1.405,0.645
8.672,1.295,0.785
8.674,1.350,0.900
8.676,1.600,0.995
8.678,1.625,1.055
8.680,1.675,1.075
8.682,1.765,1.050
8.684,1.685,0.990
8.686,1.725,0.900
8.688,1.630,0.790
8.690,1.290,0.665
8.692,1.030,0.540
8.694,0.845,0.420
8.696,0.785,0.315
8.698,0.680,0.220
8.700,0.700,0.145
8.702,0.700,0.080
8.704,0.680,0.025
8.706,0.830,-0.020
8.708,0.710,-0.050
8.710,0.595,-0.075
8.712,0.375,-0.085
8.714,0.320,-0.090
8.716,0.440,-0.085
8.718,0.510,-0.070
8.720,0.510,-0.055
8.722,0.600,-0.035
8.724,0.625,-0.020
8.726,0.855,-0.010
8.728,0.760,-0.005
8.730,0.640,-0.010
8.732,0.415,-0.015
8.734,0.405,-0.020
8.736,0.485,-0.025
8.738,0.490,-0.030
8.740,0.540,-0.030
8.742,0.630,-0.030
8.744,0.655,-0.025
8.746,0.790,-0.020
8.748,0.725,-0.015
8.750,0.615,-0.010
8.752,0.375,-0.010
8.754,0.440,-0.010
8.756,0.515,-0.010
8.758,0.495,-0.015
8.760,0.535,-0.020
8.762,0.625,-0.020
8.764,0.675,-0.025
8.766,0.780,-0.030
8.768,0.690,-0.030
8.770,0.625,-0.030
8.772,0.345,-0.025
8.774,0.405,-0.025
8.776,0.465,-0.020
8.778,0.525,-0.020
8.780,0.560,-0.015
8.782,0.695,-0.010
8.784,0.690,-0.005
8.786,0.795,0.000
8.788,0.665,0.010
8.790,0.565,0.015
8.792,0.350,0.015
8.794,0.430,0.020
8.796,0.580,0.020
8.798,0.540,0.020
8.800,0.595,0.015
8.802,0.625,0.015
8.804,0.755,0.010
8.806,0.805,0.010
8.808,0.665,0.015
8.810,0.495,0.020
8.812,0.345,0.030
8.814,0.520,0.040
8.816,0.585,0.050
8.818,0.565,0.055
8.820,0.610,0.060
8.822,0.710,0.060
8.824,0.800,0.060
8.826,0.820,0.060
8.828,0.730,0.055
8.830,0.650,0.050
8.832,0.345,0.050
8.834,0.475,0.050
8.836,0.485,0.050
8.838,0.535,0.050
8.840,0.620,0.055
8.842,0.700,0.060
8.844,0.795,0.065
8.846,0.830,0.070
8.848,0.700,0.075
8.850,0.595,0.080
8.852,0.390,0.090
8.854,0.510,0.095
8.856,0.575,0.095
8.858,0.605,0.095
8.860,0.675,0.095
8.862,0.645,0.095
8.864,0.820,0.090
8.866,0.835,0.090
8.868,0.735,0.090
8.870,0.560,0.095
8.872,0.400,0.105
8.874,0.545,0.120
8.876,0.610,0.130
8.878,0.625,0.145
8.880,0.705,0.155
8.882,0.740,0.160
8.884,0.895,0.165
8.886,0.870,0.165
8.888,0.750,0.165
8.890,0.625,0.165
8.892,0.435,0.170
8.894,0.615,0.175
8.896,0.650,0.185
8.898,0.670,0.190
8.900,0.810,0.200
8.902,0.810,0.205
8.904,0.940,0.205
8.906,0.845,0.205
8.908,0.810,0.210
8.910,0.635,0.210
8.912,0.490,0.210
8.914,0.640,0.215
8.916,0.685,0.220
8.918,0.710,0.225
8.920,0.760,0.230
8.922,0.795,0.230
8.924,0.945,0.225
8.926,0.935,0.220
8.928,0.775,0.210
8.930,0.625,0.200
8.932,0.445,0.190
8.934,0.600,0.175
8.936,0.605,0.165
8.938,0.580,0.150
8.940,0.670,0.130
8.942,0.590,0.115
8.944,0.815,0.095
8.946,0.770,0.075
8.948,0.645,0.055
8.950,0.465,0.040
8.952,0.285,0.025
8.954,0.380,0.010
8.956,0.420,0.000
8.958,0.440,-0.010
8.960,0.490,-0.020
8.962,0.475,-0.030
8.964,0.710,-0.040
8.966,0.675,-0.050
8.968,0.455,-0.060
8.970,0.265,-0.075
8.972,0.155,-0.085
8.974,0.290,-0.095
8.976,0.280,-0.105
8.978,0.345,-0.110
8.980,0.400,-0.120
8.982,0.380,-0.125
8.984,0.595,-0.130
8.986,0.490,-0.140
8.988,0.395,-0.145
8.990,0.210,-0.150
8.992,0.135,-0.150
8.994,0.210,-0.155
8.996,0.285,-0.155
8.998,0.305,-0.155
9.000,0.360,-0.150
9.002,0.340,-0.155
9.004,0.545,-0.155
9.006,0.445,-0.160
9.008,0.340,-0.165
9.010,0.150,-0.170
9.012,0.115,-0.170
9.014,0.225,-0.175
9.016,0.190,-0.175
9.018,0.265,-0.175
9.020,0.380,-0.180
9.022,0.380,-0.180
9.024,0.470,-0.180
9.026,0.380,-0.185
9.028,0.330,-0.190
9.030,0.080,-0.190
9.032,0.120,-0.190
9.034,0.210,-0.185
9.036,0.205,-0.175
9.038,0.255,-0.170
9.040,0.375,-0.160
9.042,0.405,-0.150
9.044,0.475,-0.145
9.046,0.395,-0.145
9.048,0.330,-0.145
9.050,0.155,-0.150
9.052,0.195,-0.150
9.054,0.240,-0.155
9.056,0.205,-0.155
9.058,0.270,-0.155
9.060,0.370,-0.150
9.062,0.390,-0.145
9.064,0.475,-0.145
9.066,0.395,-0.140
9.068,0.370,-0.135
9.070,0.090,-0.135
9.072,0.185,-0.130
9.074,0.235,-0.130
9.076,0.240,-0.130
9.078,0.285,-0.125
9.080,0.405,-0.120
9.082,0.450,-0.115
9.084,0.530,-0.110
9.086,0.400,-0.105
9.088,0.320,-0.105
9.090,0.110,-0.105
9.092,0.195,-0.110
9.094,0.240,-0.115
9.096,0.225,-0.120
9.098,0.235,-0.125
9.100,0.400,-0.130
9.102,0.485,-0.130
9.104,0.485,-0.130
9.106,0.440,-0.125
9.108,0.315,-0.125
9.110,0.015,-0.125
9.112,0.140,-0.125
9.114,0.200,-0.125
9.116,0.245,-0.125
9.118,0.280,-0.130
9.120,0.315,-0.135
9.122,0.420,-0.135
9.124,0.475,-0.135
9.126,0.405,-0.130
9.128,0.270,-0.130
9.130,0.010,-0.125
9.132,0.180,-0.120
9.134,0.180,-0.120
9.136,0.230,-0.120
9.138,0.350,-0.120
9.140,0.325,-0.125
9.142,0.430,-0.135
9.144,0.460,-0.140
9.146,0.355,-0.140
9.148,0.200,-0.145
9.150,-0.020,-0.140
9.152,0.150,-0.140
9.154,0.195,-0.135
9.156,0.195,-0.135
9.158,0.240,-0.140
9.160,0.295,-0.145
9.162,0.415,-0.150
9.164,0.410,-0.160
9.166,0.355,-0.165
9.168,0.155,-0.170
9.170,-0.040,-0.170
9.172,0.085,-0.170
9.174,0.125,-0.160
9.176,0.180,-0.155
9.178,0.300,-0.145
9.180,0.310,-0.135
9.182,0.455,-0.130
9.184,0.405,-0.130
9.186,0.310,-0.130
9.188,0.145,-0.130
9.190,-0.025,-0.130
9.192,0.130,-0.130
9.194,0.165,-0.125
9.196,0.240,-0.125
9.198,0.320,-0.120
9.200,0.285,-0.115
9.202,0.465,-0.105
9.204,0.420,-0.105
9.206,0.295,-0.100
9.208,0.165,-0.100
9.210,-0.020,-0.100
9.212,0.170,-0.105
9.214,0.185,-0.110
9.216,0.205,-0.115
9.218,0.255,-0.120
9.220,0.285,-0.125
9.222,0.425,-0.125
9.224,0.455,-0.125
9.226,0.305,-0.120
9.228,0.115,-0.115
9.230,-0.015,-0.110
9.232,0.165,-0.100
9.234,0.130,-0.095
9.236,0.195,-0.095
9.238,0.295,-0.095
9.240,0.320,-0.095
9.242,0.465,-0.100
9.244,0.400,-0.100
9.246,0.280,-0.105
9.248,0.140,-0.105
9.250,-0.020,-0.110
9.252,0.160,-0.110
9.254,0.125,-0.115
9.256,0.145,-0.120
9.258,0.255,-0.125
9.260,0.265,-0.130
9.262,0.460,-0.130
9.264,0.375,-0.130
9.266,0.315,-0.130
9.268,0.070,-0.125
9.270,-0.030,-0.120
9.272,0.170,-0.115
9.274,0.120,-0.110
9.276,0.165,-0.110
9.278,0.220,-0.110
9.280,0.260,-0.115
9.282,0.425,-0.125
9.284,0.325,-0.130
9.286,0.260,-0.130
9.288,0.090,-0.130
9.290,0.010,-0.130
9.292,0.100,-0.120
9.294,0.110,-0.115
9.296,0.160,-0.110
9.298,0.270,-0.110
9.300,0.270,-0.115
9.302,0.425,-0.125
9.304,0.330,-0.135
9.306,0.205,-0.145
9.308,-0.010,-0.150
9.310,-0.065,-0.155
9.312,0.110,-0.155
9.314,0.090,-0.150
9.316,0.130,-0.140
9.318,0.255,-0.135
9.320,0.225,-0.125
9.322,0.410,-0.120
9.324,0.325,-0.120
9.326,0.225,-0.120
9.328,-0.020,-0.120
9.330,0.020,-0.120
9.332,0.110,-0.120
9.334,0.100,-0.120
9.336,0.180,-0.120
9.338,0.255,-0.115
9.340,0.315,-0.110
9.342,0.435,-0.105
9.344,0.270,-0.100
9.346,0.225,-0.095
9.348,0.035,-0.095
9.350,0.055,-0.090
9.352,0.135,-0.085
9.354,0.140,-0.085
9.356,0.185,-0.080
9.358,0.270,-0.080
9.360,0.290,-0.075
9.362,0.445,-0.075
9.364,0.295,-0.075
9.366,0.250,-0.075
9.368,0.045,-0.075
9.370,0.090,-0.075
9.372,0.140,-0.075
9.374,0.130,-0.075
9.376,0.210,-0.070
9.378,0.295,-0.070
9.380,0.315,-0.065
9.382,0.385,-0.055
9.384,0.325,-0.045
9.386,0.320,-0.035
9.388,0.060,-0.020
9.390,0.140,-0.010
9.392,0.205,0.005
9.394,0.220,0.015
9.396,0.280,0.020
9.398,0.380,0.025
9.400,0.380,0.025
9.402,0.505,0.025
9.404,0.385,0.025
9.406,0.340,0.030
9.408,0.090,0.030
9.410,0.200,0.040
9.412,0.235,0.045
9.414,0.265,0.055
9.416,0.340,0.060
9.418,0.425,0.065
9.420,0.500,0.065
9.422,0.500,0.060
9.424,0.375,0.055
9.426,0.295,0.040
9.428,0.045,0.030
9.430,0.195,0.020
9.432,0.210,0.015
9.434,0.210,0.010
9.436,0.310,0.010
9.438,0.310,0.010
9.440,0.455,0.015
9.442,0.490,0.020
9.444,0.325,0.020
9.446,0.205,0.020
9.448,0.045,0.015
9.450,0.145,0.010
9.452,0.180,0.000
9.454,0.200,-0.010
9.456,0.265,-0.025
9.458,0.265,-0.035
9.460,0.375,-0.040
9.462,0.390,-0.040
9.464,0.285,-0.040
9.466,0.125,-0.040
9.468,-0.065,-0.035
9.470,0.115,-0.035
9.472,0.130,-0.035
9.474,0.140,-0.040
9.476,0.260,-0.045
9.478,0.245,-0.050
9.480,0.395,-0.055
9.482,0.340,-0.060
9.484,0.220,-0.055
9.486,0.100,-0.050
9.488,-0.075,-0.040
9.490,0.115,-0.030
9.492,0.130,-0.025
9.494,0.155,-0.020
9.496,0.240,-0.025
9.498,0.250,-0.030
9.500,0.390,-0.040
9.502,0.370,-0.055
9.504,0.280,-0.065
9.506,0.015,-0.080
9.508,-0.145,-0.090
9.510,0.010,-0.105
9.512,0.025,-0.115
9.514,0.055,-0.130
9.516,0.125,-0.145
9.518,0.115,-0.160
9.520,0.255,-0.170
9.522,0.200,-0.165
9.524,0.115,-0.145
9.526,-0.005,-0.105
9.528,-0.080,-0.040
9.530,0.175,0.055
9.532,0.320,0.170
9.534,0.510,0.310
9.536,0.750,0.455
9.538,0.900,0.605
9.540,1.285,0.750
9.542,1.360,0.875
9.544,1.275,0.970
9.546,1.200,1.030
9.548,1.020,1.050
9.550,1.170,1.025
9.552,1.080,0.960
9.554,1.050,0.860
9.556,0.995,0.735
9.558,0.870,0.595
9.560,0.935,0.450
9.562,0.710,0.320
9.564,0.400,0.200
9.566,0.150,0.110
9.568,-0.040,0.040
9.570,0.065,-0.010
9.572,0.045,-0.045
9.574,0.100,-0.070
9.576,0.185,-0.090
9.578,0.170,-0.105
9.580,0.305,-0.125
9.582,0.205,-0.135
9.584,0.125,-0.140
9.586,-0.095,-0.140
9.588,-0.155,-0.130
9.590,0.020,-0.115
9.592,0.020,-0.095
9.594,0.085,-0.075
9.596,0.175,-0.060
9.598,0.210,-0.050
9.600,0.365,-0.050
9.602,0.305,-0.050
9.604,0.195,-0.055
9.606,-0.010,-0.055
9.608,-0.055,-0.055
9.610,0.080,-0.045
9.612,0.080,-0.035
9.614,0.175,-0.020
9.616,0.260,-0.010
9.618,0.220,-0.005
9.620,0.400,-0.005
9.622,0.345,-0.010
9.624,0.180,-0.020
9.626,-0.005,-0.030
9.628,-0.020,-0.040
9.630,0.060,-0.040
9.632,0.090,-0.035
9.634,0.155,-0.025
9.636,0.215,-0.010
9.638,0.255,0.005
9.640,0.395,0.015
9.642,0.315,0.020
9.644,0.235,0.020
9.646,0.040,0.015
9.648,0.065,0.005
9.650,0.090,-0.005
9.652,0.150,-0.010
9.654,0.185,-0.015
9.656,0.245,-0.015
9.658,0.285,-0.010
9.660,0.370,0.000
9.662,0.295,0.010
9.664,0.245,0.020
9.666,0.015,0.025
9.668,0.070,0.030
9.670,0.140,0.035
9.672,0.170,0.035
9.674,0.205,0.035
9.676,0.255,0.030
9.678,0.320,0.030
9.680,0.390,0.025
9.682,0.300,0.025
9.684,0.250,0.020
9.686,0.005,0.025
9.688,0.095,0.025
9.690,0.150,0.030
9.692,0.125,0.035
9.694,0.220,0.040
9.696,0.300,0.040
9.698,0.385,0.040
9.700,0.435,0.040
9.702,0.285,0.035
9.704,0.215,0.035
9.706,-0.010,0.035
9.708,0.080,0.035
9.710,0.155,0.040
9.712,0.170,0.045
9.714,0.205,0.055
9.716,0.290,0.065
9.718,0.400,0.075
9.720,0.410,0.085
9.722,0.365,0.095
9.724,0.265,0.100
9.726,0.035,0.105
9.728,0.145,0.105
9.730,0.245,0.110
9.732,0.210,0.115
9.734,0.300,0.120
9.736,0.355,0.125
9.738,0.475,0.130
9.740,0.500,0.135
9.742,0.365,0.145
9.744,0.315,0.150
9.746,0.135,0.160
9.748,0.215,0.170
9.750,0.260,0.180
9.752,0.255,0.190
9.754,0.410,0.200
9.756,0.480,0.210
9.758,0.555,0.220
9.760,0.585,0.225
9.762,0.435,0.225
9.764,0.320,0.230
9.766,0.165,0.230
9.768,0.315,0.230
9.770,0.290,0.230
9.772,0.285,0.235
9.774,0.415,0.235
9.776,0.465,0.240
9.778,0.630,0.245
9.780,0.595,0.250
9.782,0.460,0.250
9.784,0.325,0.250
9.786,0.170,0.250
9.788,0.290,0.250
9.790,0.350,0.250
9.792,0.325,0.245
9.794,0.430,0.245
9.796,0.465,0.250
9.798,0.630,0.255
9.800,0.585,0.265
9.802,0.450,0.270
9.804,0.310,0.275
9.806,0.205,0.280
9.808,0.335,0.280
9.810,0.415,0.275
9.812,0.355,0.265
9.814,0.465,0.250
9.816,0.440,0.235
9.818,0.550,0.220
9.820,0.490,0.205
9.822,0.370,0.190
9.824,0.250,0.180
9.826,0.060,0.165
9.828,0.200,0.155
9.830,0.200,0.140
9.832,0.230,0.120
9.834,0.325,0.105
9.836,0.260,0.090
9.838,0.440,0.075
9.840,0.360,0.065
9.842,0.245,0.060
9.844,0.080,0.055
9.846,-0.055,0.055
9.848,0.105,0.055
9.850,0.125,0.055
9.852,0.160,0.050
9.854,0.210,0.045
9.856,0.235,0.035
9.858,0.395,0.025
9.860,0.330,0.020
9.862,0.190,0.015
9.864,0.080,0.015
9.866,-0.080,0.015
9.868,0.060,0.015
9.870,0.090,0.020
9.872,0.120,0.025
9.874,0.170,0.025
9.876,0.215,0.025
9.878,0.395,0.020
9.880,0.330,0.020
9.882,0.205,0.015
9.884,0.015,0.015
9.886,-0.090,0.015
9.888,0.075,0.015
9.890,0.055,0.020
9.892,0.120,0.020
9.894,0.215,0.020
9.896,0.190,0.020
9.898,0.380,0.015
9.900,0.295,0.010
9.902,0.215,0.005
9.904,0.000,0.000
9.906,-0.060,0.000
9.908,0.060,-0.005
9.910,0.025,-0.005
9.912,0.100,-0.005
9.914,0.190,-0.005
9.916,0.190,-0.010
9.918,0.370,-0.015
9.920,0.255,-0.020
9.922,0.190,-0.025
9.924,-0.045,-0.025
9.926,-0.065,-0.025
9.928,0.005,-0.025
9.930,0.035,-0.020
9.932,0.080,-0.015
9.934,0.175,-0.010
9.936,0.220,0.000
9.938,0.390,0.005
9.940,0.270,0.010
9.942,0.215,0.010
9.944,-0.020,0.010
9.946,-0.115,0.005
9.948,0.085,0.005
9.950,0.060,0.000
9.952,0.100,0.000
9.954,0.195,0.000
9.956,0.220,0.000
9.958,0.360,0.000
9.960,0.250,0.000
9.962,0.185,0.005
9.964,-0.045,0.005
9.966,0.005,0.010
9.968,0.075,0.010
9.970,0.095,0.010
9.972,0.090,0.010
9.974,0.170,0.010
9.976,0.295,0.005
9.978,0.370,0.005
9.980,0.215,0.000
9.982,0.130,0.000
9.984,-0.060,0.000
9.986,0.025,-0.005
9.988,0.040,-0.010
9.990,0.045,-0.015
9.992,0.055,-0.025
9.994,0.140,-0.030
9.996,0.210,-0.040
9.998,0.275,-0.045
