'Elapsed time','ECG I','ECG I filtered'
'seconds','mV','mV'
0.000,-0.030,0.085
0.002,-0.015,0.060
0.004,-0.015,0.035
0.006,-0.055,0.010
0.008,-0.120,-0.010
0.010,-0.230,-0.025
0.012,-0.255,-0.040
0.014,-0.245,-0.045
0.016,-0.215,-0.045
0.018,-0.120,-0.035
0.020,-0.040,-0.025
0.022,-0.005,-0.015
0.024,0.000,-0.005
0.026,-0.065,-0.005
0.028,-0.140,-0.005
0.030,-0.240,-0.010
0.032,-0.255,-0.020
0.034,-0.250,-0.030
0.036,-0.200,-0.040
0.038,-0.110,-0.045
0.040,-0.040,-0.050
0.042,0.000,-0.045
0.044,-0.015,-0.040
0.046,-0.060,-0.030
0.048,-0.135,-0.025
0.050,-0.225,-0.015
0.052,-0.260,-0.015
0.054,-0.245,-0.010
0.056,-0.195,-0.010
0.058,-0.105,-0.010
0.060,-0.030,-0.010
0.062,0.000,-0.010
0.064,-0.010,-0.010
0.066,-0.060,-0.010
0.068,-0.150,-0.010
0.070,-0.235,-0.010
0.072,-0.280,-0.010
0.074,-0.255,-0.010
0.076,-0.200,-0.015
0.078,-0.115,-0.020
0.080,-0.030,-0.020
0.082,0.010,-0.020
0.084,-0.010,-0.020
0.086,-0.065,-0.020
0.088,-0.165,-0.020
0.090,-0.230,-0.015
0.092,-0.265,-0.015
0.094,-0.235,-0.015
0.096,-0.195,-0.015
0.098,-0.100,-0.015
0.100,-0.030,-0.020
0.102,0.010,-0.020
0.104,-0.005,-0.025
0.106,-0.060,-0.025
0.108,-0.170,-0.020
0.110,-0.240,-0.020
0.112,-0.280,-0.020
0.114,-0.245,-0.015
0.116,-0.190,-0.015
0.118,-0.085,-0.015
0.120,-0.020,-0.020
0.122,0.000,-0.025
0.124,-0.020,-0.025
0.126,-0.070,-0.030
0.128,-0.185,-0.035
0.130,-0.245,-0.035
0.132,-0.280,-0.035
0.134,-0.245,-0.030
0.136,-0.180,-0.030
0.138,-0.075,-0.025
0.140,-0.015,-0.025
0.142,-0.015,-0.025
0.144,-0.030,-0.030
0.146,-0.090,-0.030
0.148,-0.195,-0.035
0.150,-0.255,-0.040
0.152,-0.285,-0.040
0.154,-0.245,-0.040
0.156,-0.195,-0.035
0.158,-0.080,-0.035
0.160,-0.040,-0.030
0.162,-0.010,-0.025
0.164,-0.030,-0.020
0.166,-0.100,-0.015
0.168,-0.190,-0.015
0.170,-0.260,-0.015
0.172,-0.260,-0.015
0.174,-0.240,-0.020
0.176,-0.180,-0.025
0.178,-0.080,-0.030
0.180,-0.025,-0.030
0.182,-0.015,-0.035
0.184,-0.055,-0.035
0.186,-0.100,-0.030
0.188,-0.210,-0.030
0.190,-0.255,-0.025
0.192,-0.265,-0.025
0.194,-0.235,-0.020
0.196,-0.180,-0.020
0.198,-0.070,-0.020
0.200,-0.020,-0.020
0.202,-0.005,-0.020
0.204,-0.025,-0.020
0.206,-0.095,-0.025
0.208,-0.200,-0.025
0.210,-0.270,-0.025
0.212,-0.270,-0.020
0.214,-0.240,-0.020
0.216,-0.180,-0.020
0.218,-0.045,-0.020
0.220,-0.025,-0.025
0.222,-0.010,-0.025
0.224,-0.030,-0.030
0.226,-0.100,-0.030
0.228,-0.210,-0.035
0.230,-0.260,-0.035
0.232,-0.265,-0.035
0.234,-0.215,-0.030
0.236,-0.160,-0.030
0.238,-0.050,-0.025
0.240,-0.005,-0.025
0.242,0.015,-0.020
0.244,-0.045,-0.020
0.246,-0.095,-0.020
0.248,-0.205,-0.020
0.250,-0.265,-0.020
0.252,-0.270,-0.020
0.254,-0.230,-0.020
0.256,-0.155,-0.020
0.258,-0.035,-0.020
0.260,0.005,-0.020
0.262,0.000,-0.020
0.264,-0.055,-0.020
0.266,-0.110,-0.020
0.268,-0.220,-0.020
0.270,-0.245,-0.020
0.272,-0.260,-0.015
0.274,-0.215,-0.015
0.276,-0.150,-0.015
0.278,-0.035,-0.015
0.280,0.025,-0.015
0.282,0.040,-0.015
0.284,-0.055,-0.020
0.286,-0.120,-0.025
0.288,-0.225,-0.030
0.290,-0.265,-0.035
0.292,-0.255,-0.035
0.294,-0.215,-0.035
0.296,-0.130,-0.030
0.298,-0.055,-0.025
0.300,0.010,-0.020
0.302,0.005,-0.015
0.304,-0.030,-0.010
0.306,-0.115,-0.010
0.308,-0.210,-0.005
0.310,-0.245,-0.005
0.312,-0.240,-0.010
0.314,-0.185,-0.015
0.316,-0.120,-0.015
0.318,-0.015,-0.015
0.320,0.020,-0.015
0.322,0.015,-0.010
0.324,-0.010,-0.005
0.326,-0.085,0.000
0.328,-0.185,0.005
0.330,-0.200,0.015
0.332,-0.215,0.015
0.334,-0.155,0.020
0.336,-0.070,0.020
0.338,0.020,0.015
0.340,0.035,0.015
0.342,0.050,0.010
0.344,-0.005,0.010
0.346,-0.090,0.010
0.348,-0.180,0.010
0.350,-0.220,0.010
0.352,-0.205,0.010
0.354,-0.170,0.010
0.356,-0.090,0.010
0.358,-0.010,0.005
0.360,0.020,0.000
0.362,0.025,-0.005
0.364,-0.030,-0.015
0.366,-0.130,-0.020
0.368,-0.210,-0.025
0.370,-0.250,-0.030
0.372,-0.240,-0.030
0.374,-0.185,-0.030
0.376,-0.110,-0.030
0.378,-0.015,-0.025
0.380,0.005,-0.025
0.382,-0.015,-0.025
0.384,-0.065,-0.030
0.386,-0.160,-0.035
0.388,-0.250,-0.035
0.390,-0.285,-0.040
0.392,-0.255,-0.050
0.394,-0.195,-0.055
0.396,-0.105,-0.055
0.398,-0.050,-0.060
0.400,-0.005,-0.060
0.402,-0.025,-0.060
0.404,-0.070,-0.060
0.406,-0.180,-0.055
0.408,-0.260,-0.055
0.410,-0.275,-0.050
0.412,-0.250,-0.045
0.414,-0.210,-0.045
0.416,-0.085,-0.040
0.418,-0.025,-0.040
0.420,-0.010,-0.040
0.422,-0.020,-0.045
0.424,-0.070,-0.050
0.426,-0.200,-0.055
0.428,-0.275,-0.065
0.430,-0.335,-0.075
0.432,-0.300,-0.085
0.434,-0.260,-0.095
0.436,-0.150,-0.100
0.438,-0.085,-0.095
0.440,-0.055,-0.080
0.442,-0.035,-0.050
0.444,-0.030,0.000
0.446,-0.070,0.065
0.448,-0.060,0.140
0.450,0.035,0.225
0.452,0.120,0.305
0.454,0.275,0.380
0.456,0.480,0.435
0.458,0.550,0.465
0.460,0.540,0.470
0.462,0.455,0.440
0.464,0.270,0.385
0.466,0.075,0.310
0.468,-0.010,0.220
0.470,-0.075,0.125
0.472,-0.135,0.035
0.474,-0.180,-0.045
0.476,-0.195,-0.110
0.478,-0.190,-0.160
0.480,-0.185,-0.190
0.482,-0.205,-0.210
0.484,-0.245,-0.220
0.486,-0.360,-0.215
0.488,-0.400,-0.210
0.490,-0.420,-0.195
0.492,-0.355,-0.180
0.494,-0.275,-0.160
0.496,-0.170,-0.140
0.498,-0.055,-0.120
0.500,-0.025,-0.105
0.502,-0.045,-0.085
0.504,-0.085,-0.070
0.506,-0.220,-0.055
0.508,-0.245,-0.045
0.510,-0.255,-0.035
0.512,-0.205,-0.030
0.514,-0.145,-0.025
0.516,-0.055,-0.020
0.518,0.010,-0.020
0.520,0.020,-0.015
0.522,-0.025,-0.015
0.524,-0.080,-0.015
0.526,-0.180,-0.020
0.528,-0.245,-0.020
0.530,-0.255,-0.020
0.532,-0.185,-0.020
0.534,-0.145,-0.015
0.536,-0.015,-0.015
0.538,0.030,-0.015
0.540,0.030,-0.010
0.542,-0.005,-0.010
0.544,-0.080,-0.015
0.546,-0.200,-0.020
0.548,-0.235,-0.020
0.550,-0.230,-0.025
0.552,-0.170,-0.030
0.554,-0.130,-0.035
0.556,-0.020,-0.035
0.558,0.040,-0.030
0.560,0.045,-0.025
0.562,0.005,-0.020
0.564,-0.075,-0.015
0.566,-0.170,-0.015
0.568,-0.220,-0.010
0.570,-0.225,-0.010
0.572,-0.170,-0.010
0.574,-0.105,-0.010
0.576,-0.005,-0.010
0.578,0.045,-0.010
0.580,0.050,-0.005
0.582,-0.010,-0.005
0.584,-0.065,0.000
0.586,-0.160,0.005
0.588,-0.200,0.010
0.590,-0.210,0.015
0.592,-0.160,0.015
0.594,-0.075,0.020
0.596,0.015,0.020
0.598,0.060,0.020
0.600,0.060,0.020
0.602,0.015,0.020
0.604,-0.060,0.020
0.606,-0.160,0.020
0.608,-0.195,0.020
0.610,-0.190,0.020
0.612,-0.115,0.020
0.614,-0.060,0.020
0.616,0.030,0.020
0.618,0.100,0.020
0.620,0.105,0.025
0.622,0.045,0.025
0.624,-0.045,0.035
0.626,-0.125,0.040
0.628,-0.155,0.050
0.630,-0.160,0.055
0.632,-0.075,0.065
0.634,0.000,0.070
0.636,0.080,0.075
0.638,0.115,0.075
0.640,0.130,0.075
0.642,0.080,0.075
0.644,0.005,0.080
0.646,-0.085,0.080
0.648,-0.110,0.085
0.650,-0.090,0.095
0.652,-0.030,0.100
0.654,0.050,0.110
0.656,0.150,0.115
0.658,0.165,0.120
0.660,0.160,0.120
0.662,0.120,0.120
0.664,0.035,0.120
0.666,-0.035,0.115
0.668,-0.070,0.120
0.670,-0.080,0.120
0.672,0.010,0.125
0.674,0.090,0.135
0.676,0.175,0.140
0.678,0.220,0.150
0.680,0.210,0.155
0.682,0.170,0.160
0.684,0.085,0.170
0.686,0.000,0.175
0.688,-0.020,0.180
0.690,-0.015,0.185
0.692,0.055,0.190
0.694,0.130,0.200
0.696,0.235,0.205
0.698,0.270,0.210
0.700,0.260,0.215
0.702,0.195,0.215
0.704,0.100,0.215
0.706,0.000,0.210
0.708,-0.005,0.210
0.710,0.000,0.205
0.712,0.065,0.205
0.714,0.190,0.200
0.716,0.240,0.200
0.718,0.265,0.205
0.720,0.235,0.200
0.722,0.180,0.200
0.724,0.075,0.195
0.726,-0.005,0.190
0.728,-0.025,0.180
0.730,-0.030,0.170
0.732,0.035,0.160
0.734,0.140,0.155
0.736,0.185,0.145
0.738,0.205,0.140
0.740,0.160,0.140
0.742,0.110,0.135
0.744,0.005,0.125
0.746,-0.085,0.120
0.748,-0.110,0.105
0.750,-0.105,0.090
0.752,-0.060,0.075
0.754,0.045,0.060
0.756,0.090,0.050
0.758,0.105,0.040
0.760,0.075,0.035
0.762,0.015,0.030
0.764,-0.095,0.030
0.766,-0.170,0.025
0.768,-0.205,0.025
0.770,-0.185,0.015
0.772,-0.135,0.005
0.774,-0.020,-0.005
0.776,0.030,-0.015
0.778,0.045,-0.025
0.780,0.020,-0.035
0.782,-0.045,-0.040
0.784,-0.160,-0.040
0.786,-0.210,-0.035
0.788,-0.245,-0.035
0.790,-0.205,-0.035
0.792,-0.150,-0.035
0.794,-0.050,-0.040
0.796,0.000,-0.045
0.798,0.015,-0.050
0.800,-0.030,-0.060
0.802,-0.075,-0.065
0.804,-0.180,-0.065
0.806,-0.240,-0.060
0.808,-0.250,-0.055
0.810,-0.215,-0.050
0.812,-0.165,-0.045
0.814,-0.020,-0.040
0.816,0.010,-0.040
0.818,0.035,-0.040
0.820,-0.010,-0.045
0.822,-0.065,-0.045
0.824,-0.165,-0.050
0.826,-0.250,-0.050
0.828,-0.240,-0.050
0.830,-0.190,-0.050
0.832,-0.155,-0.045
0.834,-0.020,-0.045
0.836,0.025,-0.045
0.838,0.010,-0.050
0.840,-0.015,-0.050
0.842,-0.080,-0.055
0.844,-0.175,-0.055
0.846,-0.220,-0.050
0.848,-0.240,-0.045
0.850,-0.180,-0.035
0.852,-0.125,-0.030
0.854,-0.005,-0.020
0.856,0.045,-0.015
0.858,0.045,-0.015
0.860,0.000,-0.015
0.862,-0.055,-0.020
0.864,-0.165,-0.025
0.866,-0.220,-0.030
0.868,-0.220,-0.035
0.870,-0.175,-0.035
0.872,-0.125,-0.030
0.874,0.005,-0.025
0.876,0.045,-0.020
0.878,0.040,-0.020
0.880,-0.015,-0.020
0.882,-0.080,-0.020
0.884,-0.145,-0.025
0.886,-0.230,-0.035
0.888,-0.220,-0.040
0.890,-0.175,-0.045
0.892,-0.100,-0.050
0.894,0.000,-0.050
0.896,0.035,-0.050
0.898,0.050,-0.045
0.900,-0.035,-0.045
0.902,-0.110,-0.040
0.904,-0.195,-0.040
0.906,-0.215,-0.040
0.908,-0.225,-0.045
0.910,-0.165,-0.045
0.912,-0.095,-0.045
0.914,-0.005,-0.050
0.916,0.030,-0.050
0.918,0.030,-0.045
0.920,-0.020,-0.045
0.922,-0.090,-0.045
0.924,-0.195,-0.045
0.926,-0.235,-0.045
0.928,-0.225,-0.045
0.930,-0.180,-0.045
0.932,-0.080,-0.045
0.934,0.005,-0.045
0.936,0.040,-0.050
0.938,0.045,-0.050
0.940,-0.030,-0.050
0.942,-0.105,-0.050
0.944,-0.180,-0.050
0.946,-0.230,-0.055
0.948,-0.215,-0.055
0.950,-0.165,-0.055
0.952,-0.070,-0.055
0.954,0.015,-0.050
0.956,0.050,-0.050
0.958,0.015,-0.050
0.960,-0.040,-0.050
0.962,-0.115,-0.050
0.964,-0.195,-0.050
0.966,-0.225,-0.050
0.968,-0.215,-0.050
0.970,-0.180,-0.050
0.972,-0.080,-0.055
0.974,0.015,-0.055
0.976,0.030,-0.055
0.978,0.015,-0.055
0.980,-0.030,-0.050
0.982,-0.125,-0.050
0.984,-0.205,-0.045
0.986,-0.225,-0.045
0.988,-0.225,-0.045
0.990,-0.145,-0.045
0.992,-0.075,-0.045
0.994,-0.005,-0.050
0.996,0.025,-0.050
0.998,0.035,-0.055
1.000,-0.020,-0.055
1.002,-0.120,-0.055
1.004,-0.190,-0.055
1.006,-0.240,-0.055
1.008,-0.205,-0.050
1.010,-0.170,-0.050
1.012,-0.060,-0.050
1.014,0.015,-0.050
1.016,0.045,-0.055
1.018,0.035,-0.060
1.020,-0.020,-0.065
1.022,-0.135,-0.070
1.024,-0.215,-0.070
1.026,-0.230,-0.065
1.028,-0.205,-0.065
1.030,-0.175,-0.055
1.032,-0.050,-0.050
1.034,0.035,-0.045
1.036,0.060,-0.040
1.038,0.005,-0.040
1.040,-0.030,-0.040
1.042,-0.120,-0.045
1.044,-0.175,-0.045
1.046,-0.235,-0.050
1.048,-0.205,-0.050
1.050,-0.125,-0.050
1.052,-0.015,-0.050
1.054,0.030,-0.045
1.056,0.060,-0.040
1.058,0.045,-0.035
1.060,0.000,-0.030
1.062,-0.060,-0.030
1.064,-0.185,-0.025
1.066,-0.210,-0.025
1.068,-0.170,-0.025
1.070,-0.100,-0.025
1.072,-0.015,-0.025
1.074,0.065,-0.020
1.076,0.075,-0.020
1.078,0.050,-0.020
1.080,0.015,-0.020
1.082,-0.105,-0.020
1.084,-0.170,-0.020
1.086,-0.180,-0.020
1.088,-0.140,-0.020
1.090,-0.105,-0.020
1.092,0.015,-0.015
1.094,0.095,-0.010
1.096,0.120,-0.005
1.098,0.060,0.005
1.100,0.010,0.010
1.102,-0.095,0.010
1.104,-0.165,0.010
1.106,-0.170,0.010
1.108,-0.140,0.005
1.110,-0.075,0.000
1.112,0.030,-0.005
1.114,0.065,-0.010
1.116,0.070,-0.015
1.118,0.030,-0.015
1.120,-0.020,-0.020
1.122,-0.115,-0.020
1.124,-0.180,-0.020
1.126,-0.195,-0.020
1.128,-0.165,-0.020
1.130,-0.120,-0.025
1.132,0.015,-0.030
1.134,0.050,-0.035
1.136,0.050,-0.035
1.138,0.005,-0.040
1.140,-0.030,-0.045
1.142,-0.160,-0.045
1.144,-0.235,-0.045
1.146,-0.210,-0.045
1.148,-0.170,-0.045
1.150,-0.120,-0.050
1.152,0.005,-0.050
1.154,0.025,-0.055
1.156,0.040,-0.055
1.158,0.005,-0.060
1.160,-0.055,-0.060
1.162,-0.165,-0.065
1.164,-0.215,-0.060
1.166,-0.230,-0.060
1.168,-0.185,-0.060
1.170,-0.105,-0.055
1.172,-0.015,-0.055
1.174,0.045,-0.060
1.176,0.045,-0.060
1.178,0.000,-0.065
1.180,-0.055,-0.065
1.182,-0.160,-0.065
1.184,-0.215,-0.065
1.186,-0.220,-0.065
1.188,-0.175,-0.065
1.190,-0.110,-0.065
1.192,-0.015,-0.065
1.194,0.020,-0.070
1.196,0.000,-0.075
1.198,-0.040,-0.075
1.200,-0.115,-0.075
1.202,-0.195,-0.060
1.204,-0.210,-0.035
1.206,-0.150,0.005
1.208,-0.030,0.060
1.210,0.130,0.125
1.212,0.285,0.200
1.214,0.405,0.280
1.216,0.470,0.345
1.218,0.535,0.400
1.220,0.455,0.425
1.222,0.325,0.425
1.224,0.230,0.400
1.226,0.090,0.345
1.228,0.090,0.270
1.230,0.160,0.185
1.232,0.180,0.090
1.234,0.145,0.005
1.236,0.015,-0.075
1.238,-0.150,-0.135
1.240,-0.280,-0.180
1.242,-0.340,-0.210
1.244,-0.380,-0.225
1.246,-0.355,-0.230
1.248,-0.300,-0.225
1.250,-0.215,-0.220
1.252,-0.140,-0.210
1.254,-0.080,-0.200
1.256,-0.075,-0.185
1.258,-0.110,-0.170
1.260,-0.165,-0.150
1.262,-0.215,-0.130
1.264,-0.240,-0.110
1.266,-0.215,-0.085
1.268,-0.155,-0.070
1.270,-0.040,-0.055
1.272,0.025,-0.045
1.274,0.030,-0.040
1.276,0.040,-0.040
1.278,-0.005,-0.045
1.280,-0.095,-0.045
1.282,-0.150,-0.050
1.284,-0.185,-0.045
1.286,-0.170,-0.045
1.288,-0.110,-0.035
1.290,-0.010,-0.030
1.292,0.045,-0.025
1.294,0.080,-0.020
1.296,0.075,-0.020
1.298,0.015,-0.020
1.300,-0.090,-0.025
1.302,-0.155,-0.030
1.304,-0.180,-0.030
1.306,-0.170,-0.030
1.308,-0.100,-0.030
1.310,0.010,-0.025
1.312,0.065,-0.015
1.314,0.110,-0.010
1.316,0.075,-0.005
1.318,0.020,0.000
1.320,-0.070,0.000
1.322,-0.125,-0.005
1.324,-0.180,-0.010
1.326,-0.140,-0.010
1.328,-0.090,-0.010
1.330,0.020,-0.010
1.332,0.100,-0.005
1.334,0.115,0.005
1.336,0.070,0.015
1.338,0.050,0.020
1.340,-0.045,0.025
1.342,-0.125,0.025
1.344,-0.145,0.025
1.346,-0.135,0.020
1.348,-0.075,0.015
1.350,0.045,0.010
1.352,0.095,0.010
1.354,0.145,0.010
1.356,0.110,0.015
1.358,0.050,0.020
1.360,-0.050,0.025
1.362,-0.115,0.030
1.364,-0.120,0.035
1.366,-0.090,0.035
1.368,-0.055,0.035
1.370,0.060,0.035
1.372,0.130,0.035
1.374,0.135,0.035
1.376,0.120,0.035
1.378,0.060,0.040
1.380,-0.025,0.040
1.382,-0.100,0.045
1.384,-0.110,0.045
1.386,-0.085,0.045
1.388,-0.015,0.045
1.390,0.080,0.045
1.392,0.160,0.050
1.394,0.175,0.050
1.396,0.155,0.055
1.398,0.105,0.060
1.400,-0.010,0.065
1.402,-0.080,0.070
1.404,-0.085,0.075
1.406,-0.060,0.075
1.408,0.015,0.080
1.410,0.135,0.085
1.412,0.190,0.085
1.414,0.225,0.090
1.416,0.165,0.095
1.418,0.125,0.100
1.420,0.040,0.105
1.422,-0.005,0.110
1.424,-0.025,0.115
1.426,0.000,0.120
1.428,0.075,0.125
1.430,0.180,0.130
1.432,0.245,0.135
1.434,0.270,0.140
1.436,0.235,0.150
1.438,0.180,0.160
1.440,0.080,0.170
1.442,0.030,0.180
1.444,0.025,0.185
1.446,0.065,0.190
1.448,0.135,0.195
1.450,0.245,0.195
1.452,0.285,0.190
1.454,0.310,0.190
1.456,0.285,0.185
1.458,0.205,0.190
1.460,0.090,0.190
1.462,0.055,0.195
1.464,0.050,0.200
1.466,0.095,0.210
1.468,0.165,0.210
1.470,0.245,0.215
1.472,0.320,0.215
1.474,0.320,0.210
1.476,0.290,0.205
1.478,0.225,0.205
1.480,0.120,0.200
1.482,0.040,0.195
1.484,0.030,0.195
1.486,0.085,0.195
1.488,0.140,0.190
1.490,0.250,0.190
1.492,0.290,0.185
1.494,0.280,0.180
1.496,0.215,0.170
1.498,0.125,0.165
1.500,0.030,0.155
1.502,-0.040,0.145
1.504,-0.045,0.135
1.506,-0.005,0.125
1.508,0.070,0.110
1.510,0.150,0.100
1.512,0.175,0.085
1.514,0.165,0.070
1.516,0.095,0.055
1.518,0.035,0.040
1.520,-0.075,0.025
1.522,-0.125,0.015
1.524,-0.145,0.010
1.526,-0.100,0.005
1.528,-0.030,0.000
1.530,0.055,-0.005
1.532,0.105,-0.005
1.534,0.080,-0.010
1.536,0.030,-0.015
1.538,-0.045,-0.020
1.540,-0.150,-0.025
1.542,-0.195,-0.030
1.544,-0.190,-0.035
1.546,-0.145,-0.040
1.548,-0.060,-0.045
1.550,0.035,-0.050
1.552,0.065,-0.050
1.554,0.045,-0.055
1.556,-0.005,-0.055
1.558,-0.080,-0.055
1.560,-0.165,-0.055
1.562,-0.200,-0.055
1.564,-0.205,-0.050
1.566,-0.140,-0.050
1.568,-0.045,-0.045
1.570,0.030,-0.045
1.572,0.050,-0.050
1.574,0.045,-0.050
1.576,-0.010,-0.055
1.578,-0.110,-0.060
1.580,-0.185,-0.060
1.582,-0.215,-0.060
1.584,-0.195,-0.060
1.586,-0.145,-0.060
1.588,-0.065,-0.055
1.590,0.040,-0.050
1.592,0.075,-0.045
1.594,0.060,-0.045
1.596,-0.005,-0.045
1.598,-0.105,-0.045
1.600,-0.185,-0.050
1.602,-0.190,-0.055
1.604,-0.210,-0.055
1.606,-0.135,-0.060
1.608,-0.030,-0.060
1.610,0.035,-0.060
1.612,0.070,-0.060
1.614,0.050,-0.055
1.616,0.005,-0.055
1.618,-0.095,-0.050
1.620,-0.175,-0.045
1.622,-0.195,-0.045
1.624,-0.175,-0.040
1.626,-0.120,-0.035
1.628,-0.015,-0.035
1.630,0.050,-0.035
1.632,0.065,-0.035
1.634,0.050,-0.035
1.636,0.010,-0.035
1.638,-0.090,-0.040
1.640,-0.180,-0.045
1.642,-0.205,-0.045
1.644,-0.180,-0.050
1.646,-0.125,-0.050
1.648,-0.020,-0.050
1.650,0.055,-0.050
1.652,0.070,-0.050
1.654,0.045,-0.050
1.656,-0.010,-0.045
1.658,-0.115,-0.045
1.660,-0.165,-0.040
1.662,-0.210,-0.040
1.664,-0.170,-0.040
1.666,-0.125,-0.040
1.668,-0.025,-0.045
1.670,0.035,-0.045
1.672,0.070,-0.050
1.674,0.045,-0.050
1.676,-0.010,-0.055
1.678,-0.125,-0.060
1.680,-0.195,-0.060
1.682,-0.210,-0.060
1.684,-0.180,-0.060
1.686,-0.115,-0.055
1.688,-0.025,-0.055
1.690,0.025,-0.055
1.692,0.065,-0.055
1.694,0.015,-0.055
1.696,-0.015,-0.055
1.698,-0.150,-0.060
1.700,-0.205,-0.065
1.702,-0.225,-0.065
1.704,-0.195,-0.070
1.706,-0.135,-0.070
1.708,-0.025,-0.070
1.710,0.040,-0.070
1.712,0.055,-0.070
1.714,0.020,-0.065
1.716,-0.040,-0.065
1.718,-0.140,-0.060
1.720,-0.200,-0.060
1.722,-0.235,-0.055
1.724,-0.175,-0.055
1.726,-0.115,-0.055
1.728,-0.010,-0.055
1.730,0.045,-0.055
1.732,0.030,-0.055
1.734,0.005,-0.060
1.736,-0.055,-0.060
1.738,-0.155,-0.065
1.740,-0.210,-0.065
1.742,-0.225,-0.065
1.744,-0.180,-0.070
1.746,-0.130,-0.070
1.748,-0.025,-0.070
1.750,0.030,-0.070
1.752,0.045,-0.070
1.754,-0.010,-0.070
1.756,-0.045,-0.070
1.758,-0.175,-0.070
1.760,-0.220,-0.070
1.762,-0.235,-0.070
1.764,-0.185,-0.070
1.766,-0.120,-0.070
1.768,-0.020,-0.070
1.770,0.045,-0.070
1.772,0.045,-0.070
1.774,-0.015,-0.065
1.776,-0.065,-0.065
1.778,-0.180,-0.065
1.780,-0.220,-0.070
1.782,-0.210,-0.070
1.784,-0.150,-0.070
1.786,-0.105,-0.065
1.788,0.000,-0.065
1.790,0.060,-0.060
1.792,0.065,-0.060
1.794,0.025,-0.055
1.796,-0.025,-0.050
1.798,-0.160,-0.045
1.800,-0.195,-0.040
1.802,-0.190,-0.035
1.804,-0.140,-0.030
1.806,-0.065,-0.030
1.808,0.030,-0.025
1.810,0.080,-0.025
1.812,0.090,-0.025
1.814,0.035,-0.025
1.816,-0.045,-0.025
1.818,-0.150,-0.030
1.820,-0.175,-0.030
1.822,-0.175,-0.035
1.824,-0.145,-0.035
1.826,-0.080,-0.035
1.828,0.015,-0.040
1.830,0.050,-0.040
1.832,0.045,-0.045
1.834,0.000,-0.045
1.836,-0.085,-0.050
1.838,-0.185,-0.055
1.840,-0.215,-0.060
1.842,-0.210,-0.065
1.844,-0.170,-0.070
1.846,-0.095,-0.075
1.848,-0.010,-0.075
1.850,0.025,-0.080
1.852,0.025,-0.080
1.854,-0.030,-0.080
1.856,-0.110,-0.080
1.858,-0.200,-0.080
1.860,-0.230,-0.080
1.862,-0.235,-0.080
1.864,-0.180,-0.080
1.866,-0.095,-0.085
1.868,-0.005,-0.085
1.870,0.040,-0.080
1.872,0.020,-0.075
1.874,-0.025,-0.075
1.876,-0.125,-0.070
1.878,-0.195,-0.065
1.880,-0.240,-0.060
1.882,-0.220,-0.060
1.884,-0.160,-0.065
1.886,-0.085,-0.065
1.888,0.015,-0.075
1.890,0.025,-0.080
1.892,0.020,-0.080
1.894,-0.025,-0.080
1.896,-0.110,-0.075
1.898,-0.215,-0.070
1.900,-0.230,-0.065
1.902,-0.235,-0.060
1.904,-0.180,-0.055
1.906,-0.100,-0.060
1.908,-0.025,-0.070
1.910,-0.005,-0.085
1.912,-0.025,-0.105
1.914,-0.090,-0.125
1.916,-0.195,-0.135
1.918,-0.265,-0.135
1.920,-0.285,-0.120
1.922,-0.225,-0.085
1.924,-0.110,-0.030
1.926,0.065,0.040
1.928,0.225,0.120
1.930,0.320,0.205
1.932,0.380,0.285
1.934,0.435,0.355
1.936,0.405,0.405
1.938,0.330,0.430
1.940,0.280,0.425
1.942,0.225,0.395
1.944,0.160,0.340
1.946,0.220,0.265
1.948,0.255,0.175
1.950,0.215,0.085
1.952,0.110,-0.005
1.954,-0.060,-0.085
1.956,-0.305,-0.145
1.958,-0.385,-0.195
1.960,-0.400,-0.220
1.962,-0.370,-0.235
1.964,-0.305,-0.235
1.966,-0.195,-0.220
1.968,-0.130,-0.205
1.970,-0.090,-0.190
1.972,-0.115,-0.170
1.974,-0.125,-0.155
1.976,-0.220,-0.145
1.978,-0.260,-0.130
1.980,-0.260,-0.120
1.982,-0.225,-0.110
1.984,-0.170,-0.100
1.986,-0.055,-0.090
1.988,0.005,-0.080
1.990,0.040,-0.070
1.992,0.010,-0.065
1.994,-0.020,-0.060
1.996,-0.145,-0.055
1.998,-0.200,-0.055
2.000,-0.230,-0.050
2.002,-0.200,-0.050
2.004,-0.135,-0.045
2.006,-0.015,-0.045
2.008,0.045,-0.045
2.010,0.065,-0.045
2.012,0.035,-0.045
2.014,-0.025,-0.050
2.016,-0.140,-0.055
2.018,-0.205,-0.060
2.020,-0.210,-0.060
2.022,-0.170,-0.060
2.024,-0.125,-0.055
2.026,-0.015,-0.050
2.028,0.050,-0.040
2.030,0.065,-0.035
2.032,0.020,-0.025
2.034,-0.030,-0.025
2.036,-0.130,-0.020
2.038,-0.195,-0.025
2.040,-0.190,-0.025
2.042,-0.160,-0.025
2.044,-0.100,-0.030
2.046,0.015,-0.025
2.048,0.080,-0.025
2.050,0.090,-0.025
2.052,0.060,-0.020
2.054,-0.010,-0.015
2.056,-0.110,-0.015
2.058,-0.170,-0.010
2.060,-0.165,-0.010
2.062,-0.135,-0.010
2.064,-0.065,-0.010
2.066,0.025,-0.010
2.068,0.090,-0.010
2.070,0.100,-0.010
2.072,0.050,-0.005
2.074,0.000,0.000
2.076,-0.120,0.005
2.078,-0.160,0.015
2.080,-0.165,0.015
2.082,-0.125,0.020
2.084,-0.055,0.020
2.086,0.065,0.020
2.088,0.095,0.015
2.090,0.105,0.010
2.092,0.060,0.010
2.094,-0.010,0.010
2.096,-0.075,0.010
2.098,-0.140,0.015
2.100,-0.145,0.020
2.102,-0.080,0.030
2.104,-0.010,0.035
2.106,0.090,0.045
2.108,0.135,0.050
2.110,0.130,0.055
2.112,0.090,0.055
2.114,0.015,0.055
2.116,-0.080,0.055
2.118,-0.105,0.050
2.120,-0.110,0.050
2.122,-0.045,0.050
2.124,0.025,0.050
2.126,0.095,0.055
2.128,0.165,0.060
2.130,0.160,0.065
2.132,0.105,0.070
2.134,0.055,0.075
2.136,-0.030,0.080
2.138,-0.080,0.085
2.140,-0.085,0.085
2.142,-0.025,0.090
2.144,0.065,0.095
2.146,0.170,0.095
2.148,0.215,0.100
2.150,0.210,0.110
2.152,0.175,0.115
2.154,0.080,0.125
2.156,0.010,0.130
2.158,-0.030,0.135
2.160,-0.010,0.140
2.162,0.035,0.145
2.164,0.125,0.145
2.166,0.215,0.150
2.168,0.255,0.150
2.170,0.255,0.150
2.172,0.200,0.150
2.174,0.125,0.155
2.176,0.035,0.160
2.178,-0.010,0.165
2.180,0.015,0.170
2.182,0.050,0.170
2.184,0.155,0.175
2.186,0.250,0.175
2.188,0.265,0.170
2.190,0.245,0.165
2.192,0.195,0.165
2.194,0.120,0.160
2.196,0.020,0.160
2.198,0.000,0.160
2.200,0.005,0.160
2.202,0.040,0.165
2.204,0.135,0.165
2.206,0.205,0.160
2.208,0.225,0.155
2.210,0.200,0.145
2.212,0.145,0.130
2.214,0.040,0.115
2.216,-0.045,0.100
2.218,-0.110,0.085
2.220,-0.090,0.070
2.222,-0.050,0.060
2.224,0.055,0.055
2.226,0.120,0.045
2.228,0.130,0.040
2.230,0.100,0.035
2.232,0.045,0.030
2.234,-0.065,0.025
2.236,-0.160,0.015
2.238,-0.190,0.010
2.240,-0.175,0.005
2.242,-0.120,-0.005
2.244,-0.030,-0.010
2.246,0.045,-0.015
2.248,0.055,-0.020
2.250,0.030,-0.020
2.252,-0.030,-0.030
2.254,-0.115,-0.035
2.256,-0.205,-0.040
2.258,-0.215,-0.050
2.260,-0.215,-0.055
2.262,-0.180,-0.060
2.264,-0.060,-0.065
2.266,0.010,-0.065
2.268,0.025,-0.065
2.270,0.015,-0.060
2.272,-0.050,-0.060
2.274,-0.165,-0.055
2.276,-0.205,-0.050
2.278,-0.240,-0.050
2.280,-0.215,-0.055
2.282,-0.165,-0.055
2.284,-0.065,-0.065
2.286,0.005,-0.070
2.288,0.010,-0.075
2.290,-0.005,-0.085
2.292,-0.055,-0.085
2.294,-0.165,-0.085
2.296,-0.225,-0.085
2.298,-0.240,-0.080
2.300,-0.200,-0.070
2.302,-0.165,-0.065
2.304,-0.040,-0.060
2.306,0.025,-0.055
2.308,0.055,-0.055
2.310,0.005,-0.060
2.312,-0.045,-0.060
2.314,-0.155,-0.065
2.316,-0.215,-0.065
2.318,-0.235,-0.065
2.320,-0.200,-0.065
2.322,-0.140,-0.060
2.324,-0.030,-0.055
2.326,0.020,-0.050
2.328,0.040,-0.050
2.330,0.020,-0.045
2.332,-0.040,-0.045
2.334,-0.150,-0.045
2.336,-0.210,-0.045
2.338,-0.220,-0.045
2.340,-0.165,-0.040
2.342,-0.105,-0.040
2.344,0.015,-0.035
2.346,0.055,-0.030
2.348,0.070,-0.025
2.350,0.005,-0.020
2.352,-0.035,-0.020
2.354,-0.145,-0.020
2.356,-0.200,-0.025
2.358,-0.220,-0.025
2.360,-0.165,-0.030
2.362,-0.105,-0.030
2.364,0.015,-0.030
2.366,0.055,-0.030
2.368,0.055,-0.030
2.370,0.020,-0.030
2.372,-0.035,-0.035
2.374,-0.150,-0.040
2.376,-0.200,-0.040
2.378,-0.205,-0.045
2.380,-0.160,-0.045
2.382,-0.105,-0.045
2.384,-0.005,-0.045
2.386,0.060,-0.040
2.388,0.070,-0.035
2.390,0.025,-0.030
2.392,-0.050,-0.025
2.394,-0.160,-0.020
2.396,-0.195,-0.020
2.398,-0.200,-0.025
2.400,-0.155,-0.030
2.402,-0.085,-0.035
2.404,0.005,-0.040
2.406,0.075,-0.045
2.408,0.040,-0.045
2.410,-0.010,-0.050
2.412,-0.060,-0.050
2.414,-0.165,-0.045
2.416,-0.200,-0.045
2.418,-0.200,-0.040
2.420,-0.155,-0.040
2.422,-0.095,-0.040
2.424,-0.005,-0.040
2.426,0.040,-0.040
2.428,0.035,-0.040
2.430,-0.010,-0.040
2.432,-0.065,-0.040
2.434,-0.165,-0.040
2.436,-0.225,-0.040
2.438,-0.200,-0.035
2.440,-0.160,-0.035
2.442,-0.075,-0.035
2.444,0.015,-0.035
2.446,0.060,-0.035
2.448,0.045,-0.035
2.450,0.005,-0.035
2.452,-0.095,-0.035
2.454,-0.175,-0.035
2.456,-0.195,-0.035
2.458,-0.190,-0.035
2.460,-0.150,-0.030
2.462,-0.070,-0.030
2.464,0.005,-0.030
2.466,0.040,-0.030
2.468,0.035,-0.030
2.470,-0.015,-0.030
2.472,-0.085,-0.035
2.474,-0.185,-0.035
2.476,-0.215,-0.040
2.478,-0.195,-0.040
2.480,-0.135,-0.045
2.482,-0.065,-0.040
2.484,0.005,-0.040
2.486,0.050,-0.035
2.488,0.040,-0.035
2.490,0.000,-0.030
2.492,-0.095,-0.030
2.494,-0.180,-0.030
2.496,-0.210,-0.025
2.498,-0.185,-0.030
2.500,-0.125,-0.030
2.502,-0.050,-0.030
2.504,0.030,-0.025
2.506,0.070,-0.025
2.508,0.060,-0.020
2.510,0.015,-0.015
2.512,-0.075,-0.005
2.514,-0.175,0.000
2.516,-0.170,0.000
2.518,-0.165,0.005
2.520,-0.100,0.005
2.522,-0.025,0.000
2.524,0.050,0.000
2.526,0.090,-0.005
2.528,0.060,-0.005
2.530,0.020,-0.005
2.532,-0.065,-0.005
2.534,-0.160,-0.005
2.536,-0.185,-0.005
2.538,-0.165,0.000
2.540,-0.110,0.000
2.542,-0.010,0.000
2.544,0.065,-0.005
2.546,0.070,-0.010
2.548,0.060,-0.015
2.550,0.005,-0.020
2.552,-0.095,-0.025
2.554,-0.185,-0.025
2.556,-0.200,-0.030
2.558,-0.180,-0.030
2.560,-0.150,-0.035
2.562,-0.045,-0.035
2.564,0.025,-0.040
2.566,0.040,-0.050
2.568,0.015,-0.055
2.570,-0.040,-0.065
2.572,-0.145,-0.070
2.574,-0.215,-0.075
2.576,-0.235,-0.075
2.578,-0.205,-0.070
2.580,-0.165,-0.065
2.582,-0.065,-0.060
2.584,0.030,-0.055
2.586,0.035,-0.055
2.588,0.010,-0.055
2.590,-0.035,-0.055
2.592,-0.145,-0.060
2.594,-0.235,-0.060
2.596,-0.235,-0.065
2.598,-0.205,-0.065
2.600,-0.160,-0.060
2.602,-0.045,-0.060
2.604,0.015,-0.055
2.606,0.030,-0.055
2.608,0.000,-0.055
2.610,-0.050,-0.055
2.612,-0.155,-0.060
2.614,-0.225,-0.065
2.616,-0.240,-0.065
2.618,-0.200,-0.070
2.620,-0.160,-0.070
2.622,-0.050,-0.070
2.624,0.030,-0.070
2.626,0.025,-0.065
2.628,-0.020,-0.070
2.630,-0.080,-0.070
2.632,-0.210,-0.080
2.634,-0.260,-0.085
2.636,-0.270,-0.090
2.638,-0.230,-0.090
2.640,-0.170,-0.075
2.642,-0.020,-0.050
2.644,0.080,-0.005
2.646,0.150,0.060
2.648,0.215,0.135
2.650,0.220,0.215
2.652,0.215,0.300
2.654,0.260,0.375
2.656,0.300,0.435
2.658,0.390,0.470
2.660,0.430,0.475
2.662,0.495,0.450
2.664,0.425,0.395
2.666,0.315,0.320
2.668,0.235,0.230
2.670,0.135,0.130
2.672,-0.070,0.040
2.674,-0.185,-0.045
2.676,-0.340,-0.115
2.678,-0.365,-0.165
2.680,-0.310,-0.195
2.682,-0.200,-0.210
2.684,-0.120,-0.215
2.686,-0.080,-0.205
2.688,-0.120,-0.195
2.690,-0.185,-0.180
2.692,-0.265,-0.160
2.694,-0.300,-0.140
2.696,-0.275,-0.120
2.698,-0.210,-0.100
2.700,-0.115,-0.080
2.702,-0.010,-0.065
2.704,0.025,-0.050
2.706,0.045,-0.040
2.708,-0.010,-0.030
2.710,-0.055,-0.030
2.712,-0.165,-0.030
2.714,-0.215,-0.035
2.716,-0.210,-0.040
2.718,-0.165,-0.040
2.720,-0.080,-0.045
2.722,0.005,-0.045
2.724,0.065,-0.040
2.726,0.065,-0.030
2.728,0.025,-0.025
2.730,-0.045,-0.015
2.732,-0.135,-0.010
2.734,-0.170,-0.005
2.736,-0.185,0.000
2.738,-0.135,0.000
2.740,-0.065,0.000
2.742,0.035,0.000
2.744,0.090,0.000
2.746,0.085,0.000
2.748,0.045,0.000
2.750,-0.045,0.000
2.752,-0.140,0.000
2.754,-0.180,0.000
2.756,-0.175,-0.005
2.758,-0.110,-0.010
2.760,-0.050,-0.010
2.762,0.045,-0.015
2.764,0.100,-0.015
2.766,0.095,-0.015
2.768,0.050,-0.010
2.770,-0.045,0.000
2.772,-0.135,0.005
2.774,-0.170,0.015
2.776,-0.170,0.020
2.778,-0.110,0.020
2.780,-0.025,0.020
2.782,0.055,0.020
2.784,0.090,0.015
2.786,0.095,0.010
2.788,0.030,0.005
2.790,-0.035,0.005
2.792,-0.135,0.005
2.794,-0.165,0.010
2.796,-0.130,0.015
2.798,-0.085,0.020
2.800,0.000,0.025
2.802,0.090,0.030
2.804,0.150,0.035
2.806,0.090,0.035
2.808,0.080,0.035
2.810,-0.030,0.040
2.812,-0.095,0.040
2.814,-0.125,0.045
2.816,-0.120,0.050
2.818,-0.060,0.050
2.820,0.050,0.055
2.822,0.110,0.055
2.824,0.150,0.055
2.826,0.130,0.055
2.828,0.080,0.055
2.830,0.000,0.060
2.832,-0.080,0.065
2.834,-0.110,0.070
2.836,-0.065,0.080
2.838,-0.035,0.085
2.840,0.085,0.095
2.842,0.155,0.100
2.844,0.185,0.105
2.846,0.175,0.110
2.848,0.130,0.110
2.850,0.025,0.110
2.852,-0.045,0.110
2.854,-0.050,0.110
2.856,-0.025,0.115
2.858,0.040,0.120
2.860,0.135,0.125
2.862,0.200,0.135
2.864,0.240,0.145
2.866,0.205,0.150
2.868,0.160,0.160
2.870,0.050,0.165
2.872,0.010,0.170
2.874,-0.010,0.170
2.876,0.045,0.170
2.878,0.070,0.175
2.880,0.190,0.175
2.882,0.265,0.175
2.884,0.295,0.180
2.886,0.285,0.185
2.888,0.220,0.190
2.890,0.110,0.200
2.892,0.045,0.205
2.894,0.020,0.210
2.896,0.060,0.215
2.898,0.115,0.220
2.900,0.235,0.220
2.902,0.295,0.220
2.904,0.325,0.220
2.906,0.285,0.220
2.908,0.230,0.220
2.910,0.110,0.220
2.912,0.065,0.220
2.914,0.030,0.220
2.916,0.080,0.220
2.918,0.120,0.220
2.920,0.215,0.215
2.922,0.270,0.215
2.924,0.295,0.205
2.926,0.255,0.200
2.928,0.195,0.195
2.930,0.070,0.185
2.932,0.020,0.175
2.934,-0.020,0.165
2.936,0.000,0.155
2.938,0.030,0.145
2.940,0.125,0.130
2.942,0.180,0.120
2.944,0.190,0.105
2.946,0.130,0.095
2.948,0.080,0.080
2.950,-0.045,0.070
2.952,-0.110,0.065
2.954,-0.135,0.055
2.956,-0.105,0.050
2.958,-0.055,0.040
2.960,0.045,0.030
2.962,0.085,0.015
2.964,0.090,0.005
2.966,0.055,-0.005
2.968,0.000,-0.015
2.970,-0.135,-0.025
2.972,-0.185,-0.025
2.974,-0.190,-0.025
2.976,-0.160,-0.020
2.978,-0.095,-0.020
2.980,0.015,-0.015
2.982,0.055,-0.010
2.984,0.050,-0.010
2.986,0.025,-0.015
2.988,-0.050,-0.020
2.990,-0.165,-0.025
2.992,-0.225,-0.030
2.994,-0.200,-0.030
2.996,-0.165,-0.030
2.998,-0.110,-0.025
3.000,0.015,-0.020
3.002,0.065,-0.020
3.004,0.045,-0.015
3.006,-0.005,-0.015
3.008,-0.040,-0.020
3.010,-0.155,-0.025
3.012,-0.230,-0.030
3.014,-0.210,-0.030
3.016,-0.160,-0.035
3.018,-0.095,-0.030
3.020,0.010,-0.025
3.022,0.055,-0.020
3.024,0.050,-0.015
3.026,0.015,-0.010
3.028,-0.050,-0.010
3.030,-0.155,-0.010
3.032,-0.215,-0.015
3.034,-0.195,-0.020
3.036,-0.130,-0.030
3.038,-0.065,-0.035
3.040,0.015,-0.040
3.042,0.060,-0.045
3.044,0.060,-0.045
3.046,0.010,-0.040
3.048,-0.065,-0.035
3.050,-0.155,-0.025
3.052,-0.195,-0.020
3.054,-0.190,-0.015
3.056,-0.160,-0.015
3.058,-0.060,-0.015
3.060,0.020,-0.015
3.062,0.080,-0.020
3.064,0.050,-0.020
3.066,0.000,-0.025
3.068,-0.075,-0.025
3.070,-0.165,-0.025
3.072,-0.210,-0.025
3.074,-0.170,-0.025
3.076,-0.135,-0.020
3.078,-0.055,-0.020
3.080,0.035,-0.020
3.082,0.065,-0.025
3.084,0.065,-0.025
3.086,0.010,-0.030
3.088,-0.085,-0.030
3.090,-0.160,-0.030
3.092,-0.205,-0.030
3.094,-0.180,-0.025
3.096,-0.135,-0.025
3.098,-0.055,-0.020
3.100,0.040,-0.020
3.102,0.070,-0.020
3.104,0.045,-0.020
3.106,-0.005,-0.025
3.108,-0.080,-0.025
3.110,-0.180,-0.030
3.112,-0.210,-0.035
3.114,-0.185,-0.035
3.116,-0.135,-0.030
3.118,-0.030,-0.030
3.120,0.040,-0.025
3.122,0.075,-0.020
3.124,0.055,-0.015
3.126,0.020,-0.015
3.128,-0.100,-0.015
3.130,-0.175,-0.020
3.132,-0.190,-0.025
3.134,-0.210,-0.035
3.136,-0.140,-0.040
3.138,-0.045,-0.045
3.140,0.040,-0.045
3.142,0.065,-0.040
3.144,0.040,-0.035
3.146,0.000,-0.030
3.148,-0.115,-0.020
3.150,-0.175,-0.015
3.152,-0.200,-0.015
3.154,-0.185,-0.010
3.156,-0.135,-0.015
3.158,-0.010,-0.015
3.160,0.040,-0.020
3.162,0.070,-0.025
3.164,0.030,-0.025
3.166,-0.005,-0.025
3.168,-0.105,-0.020
3.170,-0.195,-0.020
3.172,-0.210,-0.015
3.174,-0.190,-0.015
3.176,-0.140,-0.015
3.178,-0.025,-0.015
3.180,0.035,-0.020
3.182,0.060,-0.025
3.184,0.045,-0.030
3.186,0.010,-0.030
3.188,-0.115,-0.030
3.190,-0.200,-0.030
3.192,-0.210,-0.025
3.194,-0.175,-0.020
3.196,-0.135,-0.020
3.198,-0.025,-0.015
3.200,0.040,-0.015
3.202,0.055,-0.020
3.204,0.025,-0.020
3.206,-0.020,-0.030
3.208,-0.125,-0.035
3.210,-0.215,-0.040
3.212,-0.225,-0.040
3.214,-0.185,-0.045
3.216,-0.145,-0.045
3.218,-0.025,-0.040
3.220,0.030,-0.040
3.222,0.055,-0.040
3.224,0.010,-0.040
3.226,-0.035,-0.040
3.228,-0.160,-0.040
3.230,-0.215,-0.040
3.232,-0.230,-0.040
3.234,-0.190,-0.040
3.236,-0.140,-0.040
3.238,-0.025,-0.040
3.240,0.040,-0.040
3.242,0.045,-0.040
3.244,0.015,-0.040
3.246,-0.050,-0.040
3.248,-0.155,-0.045
3.250,-0.205,-0.045
3.252,-0.230,-0.045
3.254,-0.190,-0.050
3.256,-0.130,-0.050
3.258,-0.030,-0.045
3.260,0.030,-0.045
3.262,0.040,-0.045
3.264,-0.005,-0.045
3.266,-0.065,-0.045
3.268,-0.155,-0.045
3.270,-0.235,-0.050
3.272,-0.245,-0.050
3.274,-0.185,-0.055
3.276,-0.145,-0.060
3.278,-0.025,-0.065
3.280,0.020,-0.065
3.282,0.035,-0.060
3.284,0.000,-0.060
3.286,-0.050,-0.055
3.288,-0.190,-0.050
3.290,-0.195,-0.040
3.292,-0.220,-0.035
3.294,-0.185,-0.030
3.296,-0.130,-0.030
3.298,-0.015,-0.025
3.300,0.050,-0.025
3.302,0.055,-0.030
3.304,0.000,-0.030
3.306,-0.060,-0.030
3.308,-0.130,-0.035
3.310,-0.205,-0.035
3.312,-0.205,-0.035
3.314,-0.155,-0.030
3.316,-0.090,-0.030
3.318,0.015,-0.025
3.320,0.060,-0.020
3.322,0.070,-0.020
3.324,0.025,-0.020
3.326,-0.040,-0.015
3.328,-0.145,-0.015
3.330,-0.190,-0.015
3.332,-0.190,-0.015
3.334,-0.150,-0.015
3.336,-0.080,-0.010
3.338,0.020,-0.010
3.340,0.055,-0.015
3.342,0.035,-0.015
3.344,-0.010,-0.025
3.346,-0.080,-0.030
3.348,-0.170,-0.040
3.350,-0.235,-0.045
3.352,-0.220,-0.055
3.354,-0.180,-0.060
3.356,-0.100,-0.060
3.358,-0.010,-0.060
3.360,0.025,-0.060
3.362,0.000,-0.055
3.364,-0.035,-0.050
3.366,-0.115,-0.045
3.368,-0.200,-0.045
3.370,-0.245,-0.045
3.372,-0.230,-0.050
3.374,-0.180,-0.055
3.376,-0.115,-0.065
3.378,-0.025,-0.070
3.380,0.015,-0.075
3.382,0.015,-0.075
3.384,-0.045,-0.075
3.386,-0.130,-0.075
3.388,-0.235,-0.070
3.390,-0.260,-0.065
3.392,-0.250,-0.065
3.394,-0.200,-0.065
3.396,-0.105,-0.065
3.398,-0.035,-0.065
3.400,0.025,-0.070
3.402,0.010,-0.075
3.404,-0.050,-0.075
3.406,-0.155,-0.080
3.408,-0.240,-0.080
3.410,-0.270,-0.080
3.412,-0.260,-0.085
3.414,-0.215,-0.085
3.416,-0.120,-0.095
3.418,-0.055,-0.100
3.420,-0.045,-0.115
3.422,-0.055,-0.130
3.424,-0.095,-0.140
3.426,-0.215,-0.145
3.428,-0.290,-0.140
3.430,-0.315,-0.120
3.432,-0.240,-0.080
3.434,-0.130,-0.030
3.436,0.025,0.040
3.438,0.180,0.125
3.440,0.315,0.210
3.442,0.380,0.300
3.444,0.435,0.375
3.446,0.430,0.435
3.448,0.375,0.465
3.450,0.320,0.470
3.452,0.275,0.440
3.454,0.195,0.380
3.456,0.225,0.300
3.458,0.225,0.200
3.460,0.180,0.095
3.462,0.050,-0.010
3.464,-0.095,-0.100
3.466,-0.300,-0.170
3.468,-0.425,-0.220
3.470,-0.445,-0.250
3.472,-0.405,-0.260
3.474,-0.360,-0.250
3.476,-0.230,-0.235
3.478,-0.155,-0.215
3.480,-0.130,-0.195
3.482,-0.115,-0.180
3.484,-0.150,-0.165
3.486,-0.230,-0.155
3.488,-0.290,-0.145
3.490,-0.290,-0.135
3.492,-0.255,-0.120
3.494,-0.190,-0.110
3.496,-0.080,-0.095
3.498,0.000,-0.080
3.500,0.020,-0.065
3.502,-0.020,-0.050
3.504,-0.060,-0.045
3.506,-0.170,-0.040
3.508,-0.230,-0.040
3.510,-0.250,-0.045
3.512,-0.225,-0.050
3.514,-0.145,-0.060
3.516,-0.035,-0.065
3.518,0.005,-0.075
3.520,0.030,-0.075
3.522,0.015,-0.080
3.524,-0.055,-0.075
3.526,-0.155,-0.070
3.528,-0.225,-0.065
3.530,-0.250,-0.055
3.532,-0.200,-0.050
3.534,-0.135,-0.040
3.536,-0.035,-0.035
3.538,0.030,-0.030
3.540,0.055,-0.030
3.542,0.020,-0.030
3.544,-0.040,-0.030
3.546,-0.130,-0.035
3.548,-0.220,-0.035
3.550,-0.225,-0.035
3.552,-0.180,-0.035
3.554,-0.125,-0.035
3.556,-0.015,-0.035
3.558,0.040,-0.030
3.560,0.065,-0.030
3.562,0.005,-0.030
3.564,-0.050,-0.030
3.566,-0.145,-0.035
3.568,-0.210,-0.035
3.570,-0.205,-0.035
3.572,-0.155,-0.035
3.574,-0.100,-0.035
3.576,-0.005,-0.030
3.578,0.050,-0.025
3.580,0.070,-0.025
3.582,0.020,-0.020
3.584,-0.035,-0.020
3.586,-0.135,-0.015
3.588,-0.190,-0.015
3.590,-0.200,-0.015
3.592,-0.145,-0.010
3.594,-0.075,-0.010
3.596,0.030,-0.010
3.598,0.070,-0.005
3.600,0.090,-0.005
3.602,0.045,0.000
3.604,-0.020,0.000
3.606,-0.125,0.000
3.608,-0.165,0.000
3.610,-0.165,0.000
3.612,-0.120,0.000
3.614,-0.055,0.000
3.616,0.030,0.005
3.618,0.085,0.005
3.620,0.105,0.015
3.622,0.050,0.020
3.624,0.005,0.030
3.626,-0.095,0.040
3.628,-0.135,0.045
3.630,-0.145,0.050
3.632,-0.060,0.055
3.634,-0.025,0.055
3.636,0.080,0.055
3.638,0.135,0.055
3.640,0.150,0.055
3.642,0.110,0.060
3.644,0.020,0.060
3.646,-0.045,0.070
3.648,-0.075,0.075
3.650,-0.080,0.090
3.652,-0.030,0.100
3.654,0.040,0.115
3.656,0.160,0.125
3.658,0.205,0.135
3.660,0.200,0.145
3.662,0.165,0.150
3.664,0.090,0.155
3.666,0.015,0.160
3.668,-0.015,0.160
3.670,-0.020,0.160
3.672,0.030,0.160
3.674,0.110,0.160
3.676,0.205,0.160
3.678,0.245,0.160
3.680,0.255,0.160
3.682,0.205,0.165
3.684,0.120,0.170
3.686,0.040,0.175
3.688,0.000,0.180
3.690,0.015,0.185
3.692,0.050,0.190
3.694,0.170,0.195
3.696,0.240,0.200
3.698,0.265,0.205
3.700,0.250,0.205
3.702,0.205,0.200
3.704,0.120,0.200
3.706,0.030,0.195
3.708,0.000,0.195
3.710,0.010,0.185
3.712,0.035,0.180
3.714,0.135,0.175
3.716,0.215,0.165
3.718,0.230,0.160
3.720,0.205,0.150
3.722,0.155,0.145
3.724,0.060,0.135
3.726,-0.040,0.130
3.728,-0.090,0.125
3.730,-0.085,0.115
3.732,-0.035,0.105
3.734,0.045,0.095
3.736,0.115,0.085
3.738,0.125,0.070
3.740,0.105,0.055
3.742,0.030,0.040
3.744,-0.070,0.025
3.746,-0.140,0.015
3.748,-0.195,0.010
3.750,-0.165,0.005
3.752,-0.130,0.000
3.754,-0.015,0.000
3.756,0.040,-0.005
3.758,0.075,-0.010
3.760,0.035,-0.015
3.762,-0.020,-0.020
3.764,-0.120,-0.030
3.766,-0.210,-0.035
3.768,-0.240,-0.040
3.770,-0.220,-0.045
3.772,-0.165,-0.050
3.774,-0.065,-0.055
3.776,-0.005,-0.055
3.778,0.035,-0.055
3.780,0.005,-0.050
3.782,-0.030,-0.050
3.784,-0.130,-0.050
3.786,-0.215,-0.045
3.788,-0.245,-0.045
3.790,-0.230,-0.040
3.792,-0.175,-0.040
3.794,-0.060,-0.040
3.796,0.010,-0.045
3.798,0.030,-0.050
3.800,0.000,-0.055
3.802,-0.040,-0.055
3.804,-0.155,-0.060
3.806,-0.220,-0.060
3.808,-0.250,-0.060
3.810,-0.215,-0.055
3.812,-0.155,-0.050
3.814,-0.045,-0.045
3.816,0.010,-0.040
3.818,0.025,-0.040
3.820,-0.005,-0.045
3.822,-0.060,-0.050
3.824,-0.160,-0.055
3.826,-0.215,-0.065
3.828,-0.260,-0.075
3.830,-0.215,-0.080
3.832,-0.150,-0.080
3.834,-0.060,-0.080
3.836,0.025,-0.070
3.838,0.040,-0.060
3.840,0.000,-0.050
3.842,-0.055,-0.040
3.844,-0.165,-0.035
3.846,-0.210,-0.030
3.848,-0.225,-0.030
3.850,-0.210,-0.030
3.852,-0.135,-0.035
3.854,-0.030,-0.040
3.856,0.015,-0.045
3.858,0.050,-0.050
3.860,0.005,-0.050
3.862,-0.040,-0.050
3.864,-0.145,-0.045
3.866,-0.205,-0.035
3.868,-0.215,-0.030
3.870,-0.170,-0.020
3.872,-0.115,-0.015
3.874,0.015,-0.015
3.876,0.065,-0.010
3.878,0.055,-0.015
3.880,0.030,-0.015
3.882,-0.025,-0.020
3.884,-0.140,-0.020
3.886,-0.205,-0.025
3.888,-0.215,-0.025
3.890,-0.160,-0.025
3.892,-0.090,-0.020
3.894,0.010,-0.020
3.896,0.045,-0.020
3.898,0.060,-0.020
3.900,0.015,-0.025
3.902,-0.050,-0.030
3.904,-0.165,-0.035
3.906,-0.200,-0.035
3.908,-0.225,-0.040
3.910,-0.175,-0.035
3.912,-0.115,-0.035
3.914,-0.005,-0.030
3.916,0.045,-0.025
3.918,0.050,-0.020
3.920,0.000,-0.015
3.922,-0.060,-0.015
3.924,-0.160,-0.015
3.926,-0.205,-0.020
3.928,-0.210,-0.025
3.930,-0.155,-0.030
3.932,-0.095,-0.035
3.934,0.005,-0.035
3.936,0.035,-0.035
3.938,0.040,-0.035
3.940,0.020,-0.035
3.942,-0.060,-0.035
3.944,-0.170,-0.035
3.946,-0.220,-0.035
3.948,-0.225,-0.040
3.950,-0.170,-0.040
3.952,-0.095,-0.045
3.954,0.010,-0.045
3.956,0.045,-0.045
3.958,0.045,-0.045
3.960,-0.015,-0.040
3.962,-0.090,-0.040
3.964,-0.190,-0.035
3.966,-0.220,-0.035
3.968,-0.215,-0.035
3.970,-0.170,-0.035
3.972,-0.085,-0.035
3.974,-0.005,-0.040
3.976,0.025,-0.045
3.978,0.030,-0.050
3.980,-0.010,-0.050
3.982,-0.085,-0.050
3.984,-0.185,-0.050
3.986,-0.230,-0.045
3.988,-0.215,-0.045
3.990,-0.145,-0.040
3.992,-0.075,-0.040
3.994,0.015,-0.040
3.996,0.035,-0.040
3.998,0.035,-0.040
4.000,-0.010,-0.045
4.002,-0.095,-0.045
4.004,-0.185,-0.045
4.006,-0.240,-0.045
4.008,-0.215,-0.045
4.010,-0.165,-0.040
4.012,-0.075,-0.040
4.014,0.010,-0.040
4.016,0.060,-0.040
4.018,0.030,-0.045
4.020,-0.015,-0.045
4.022,-0.110,-0.050
4.024,-0.195,-0.050
4.026,-0.230,-0.050
4.028,-0.190,-0.050
4.030,-0.165,-0.050
4.032,-0.060,-0.050
4.034,0.020,-0.045
4.036,0.045,-0.045
4.038,0.030,-0.040
4.040,-0.020,-0.040
4.042,-0.115,-0.045
4.044,-0.180,-0.045
4.046,-0.215,-0.050
4.048,-0.220,-0.050
4.050,-0.150,-0.055
4.052,-0.060,-0.055
4.054,0.025,-0.050
4.056,0.040,-0.050
4.058,0.025,-0.050
4.060,-0.015,-0.050
4.062,-0.130,-0.050
4.064,-0.195,-0.050
4.066,-0.230,-0.055
4.068,-0.220,-0.055
4.070,-0.155,-0.055
4.072,-0.055,-0.055
4.074,0.010,-0.055
4.076,0.045,-0.050
4.078,0.015,-0.045
4.080,-0.025,-0.035
4.082,-0.120,-0.035
4.084,-0.200,-0.030
4.086,-0.245,-0.035
4.088,-0.200,-0.040
4.090,-0.170,-0.045
4.092,-0.045,-0.050
4.094,0.015,-0.055
4.096,0.060,-0.060
4.098,0.010,-0.060
4.100,-0.025,-0.060
4.102,-0.155,-0.055
4.104,-0.210,-0.050
4.106,-0.225,-0.045
4.108,-0.215,-0.040
4.110,-0.160,-0.040
4.112,-0.045,-0.045
4.114,0.020,-0.050
4.116,0.030,-0.050
4.118,0.025,-0.055
4.120,-0.035,-0.055
4.122,-0.135,-0.055
4.124,-0.225,-0.055
4.126,-0.235,-0.050
4.128,-0.185,-0.045
4.130,-0.155,-0.045
4.132,-0.030,-0.040
4.134,0.025,-0.040
4.136,0.060,-0.040
4.138,0.015,-0.045
4.140,-0.030,-0.045
4.142,-0.135,-0.045
4.144,-0.190,-0.040
4.146,-0.215,-0.040
4.148,-0.150,-0.035
4.150,-0.125,-0.030
4.152,-0.005,-0.025
4.154,0.065,-0.020
4.156,0.075,-0.015
4.158,0.025,-0.015
4.160,-0.010,-0.015
4.162,-0.125,-0.020
4.164,-0.190,-0.020
4.166,-0.195,-0.020
4.168,-0.160,-0.020
4.170,-0.110,-0.020
4.172,0.010,-0.020
4.174,0.075,-0.020
4.176,0.075,-0.020
4.178,0.045,-0.015
4.180,-0.010,-0.015
4.182,-0.115,-0.010
4.184,-0.185,-0.010
4.186,-0.200,-0.010
4.188,-0.140,-0.010
4.190,-0.090,-0.015
4.192,0.015,-0.020
4.194,0.050,-0.025
4.196,0.060,-0.030
4.198,0.020,-0.040
4.200,-0.040,-0.045
4.202,-0.165,-0.045
4.204,-0.205,-0.050
4.206,-0.205,-0.050
4.208,-0.165,-0.045
4.210,-0.100,-0.040
4.212,0.000,-0.035
4.214,0.045,-0.035
4.216,0.040,-0.030
4.218,-0.005,-0.030
4.220,-0.075,-0.030
4.222,-0.155,-0.035
4.224,-0.230,-0.040
4.226,-0.235,-0.045
4.228,-0.185,-0.055
4.230,-0.110,-0.060
4.232,-0.015,-0.060
4.234,0.040,-0.060
4.236,0.050,-0.060
4.238,-0.010,-0.055
4.240,-0.080,-0.050
4.242,-0.175,-0.045
4.244,-0.215,-0.040
4.246,-0.225,-0.035
4.248,-0.180,-0.035
4.250,-0.090,-0.040
4.252,-0.010,-0.045
4.254,0.025,-0.055
4.256,0.025,-0.060
4.258,-0.015,-0.065
4.260,-0.085,-0.070
4.262,-0.180,-0.070
4.264,-0.230,-0.070
4.266,-0.240,-0.070
4.268,-0.190,-0.065
4.270,-0.120,-0.070
4.272,-0.035,-0.075
4.274,-0.005,-0.080
4.276,0.005,-0.090
4.278,-0.055,-0.095
4.280,-0.145,-0.090
4.282,-0.205,-0.075
4.284,-0.205,-0.045
4.286,-0.160,0.005
4.288,-0.030,0.070
4.290,0.120,0.145
4.292,0.305,0.230
4.294,0.425,0.310
4.296,0.525,0.380
4.298,0.555,0.435
4.300,0.480,0.460
4.302,0.350,0.460
4.304,0.255,0.430
4.306,0.105,0.375
4.308,0.120,0.300
4.310,0.180,0.210
4.312,0.200,0.110
4.314,0.145,0.020
4.316,0.005,-0.060
4.318,-0.165,-0.130
4.320,-0.285,-0.175
4.322,-0.350,-0.205
4.324,-0.365,-0.220
4.326,-0.360,-0.220
4.328,-0.300,-0.210
4.330,-0.230,-0.195
4.332,-0.135,-0.180
4.334,-0.075,-0.170
4.336,-0.050,-0.155
4.338,-0.090,-0.145
4.340,-0.165,-0.135
4.342,-0.235,-0.125
4.344,-0.255,-0.110
4.346,-0.225,-0.095
4.348,-0.165,-0.085
4.350,-0.065,-0.070
4.352,0.025,-0.055
4.354,0.050,-0.050
4.356,0.030,-0.045
4.358,-0.005,-0.040
4.360,-0.110,-0.040
4.362,-0.185,-0.045
4.364,-0.210,-0.045
4.366,-0.180,-0.040
4.368,-0.135,-0.040
4.370,-0.020,-0.035
4.372,0.045,-0.025
4.374,0.075,-0.015
4.376,0.055,-0.010
4.378,0.025,-0.010
4.380,-0.070,-0.005
4.382,-0.160,-0.010
4.384,-0.180,-0.015
4.386,-0.150,-0.020
4.388,-0.115,-0.025
4.390,-0.015,-0.025
4.392,0.065,-0.025
4.394,0.080,-0.025
4.396,0.065,-0.020
4.398,0.025,-0.015
4.400,-0.070,-0.015
4.402,-0.150,-0.010
4.404,-0.180,-0.005
4.406,-0.140,-0.005
4.408,-0.085,-0.005
4.410,0.015,-0.005
4.412,0.090,-0.005
4.414,0.115,-0.005
4.416,0.090,0.000
4.418,0.035,0.005
4.420,-0.075,0.010
4.422,-0.130,0.015
4.424,-0.150,0.020
4.426,-0.125,0.020
4.428,-0.075,0.020
4.430,0.050,0.020
4.432,0.125,0.020
4.434,0.125,0.020
4.436,0.100,0.020
4.438,0.065,0.020
4.440,-0.045,0.025
4.442,-0.105,0.030
4.444,-0.120,0.035
4.446,-0.085,0.040
4.448,-0.035,0.045
4.450,0.070,0.045
4.452,0.155,0.045
4.454,0.140,0.050
4.456,0.125,0.050
4.458,0.060,0.050
4.460,-0.030,0.055
4.462,-0.095,0.060
4.464,-0.100,0.065
4.466,-0.065,0.070
4.468,-0.015,0.075
4.470,0.120,0.080
4.472,0.175,0.085
4.474,0.175,0.085
4.476,0.160,0.085
4.478,0.110,0.085
4.480,-0.005,0.080
4.482,-0.070,0.080
4.484,-0.075,0.080
4.486,-0.045,0.080
4.488,0.045,0.085
4.490,0.145,0.090
4.492,0.195,0.095
4.494,0.215,0.100
4.496,0.195,0.105
4.498,0.135,0.110
4.500,0.015,0.120
4.502,-0.015,0.125
4.504,-0.015,0.135
4.506,0.025,0.140
4.508,0.090,0.150
4.510,0.210,0.155
4.512,0.265,0.160
4.514,0.290,0.165
4.516,0.215,0.170
4.518,0.175,0.170
4.520,0.070,0.175
4.522,0.015,0.175
4.524,0.040,0.180
4.526,0.080,0.180
4.528,0.160,0.185
4.530,0.260,0.190
4.532,0.300,0.195
4.534,0.305,0.195
4.536,0.270,0.195
4.538,0.200,0.195
4.540,0.090,0.195
4.542,0.065,0.195
4.544,0.060,0.200
4.546,0.110,0.200
4.548,0.170,0.205
4.550,0.270,0.210
4.552,0.305,0.210
4.554,0.315,0.215
4.556,0.255,0.215
4.558,0.170,0.215
4.560,0.090,0.215
4.562,0.045,0.210
4.564,0.045,0.205
4.566,0.080,0.200
4.568,0.150,0.195
4.570,0.240,0.185
4.572,0.275,0.175
4.574,0.280,0.165
4.576,0.200,0.150
4.578,0.115,0.135
4.580,0.010,0.125
4.582,-0.035,0.115
4.584,-0.050,0.105
4.586,-0.005,0.100
4.588,0.055,0.095
4.590,0.145,0.095
4.592,0.175,0.090
4.594,0.145,0.080
4.596,0.090,0.065
4.598,0.020,0.045
4.600,0.010,0.020
4.602,-0.090,-0.010
4.604,-0.175,-0.035
4.606,-0.195,-0.055
4.608,-0.170,-0.070
4.610,-0.130,-0.075
4.612,-0.040,-0.070
4.614,0.050,-0.060
4.616,0.090,-0.045
4.618,0.065,-0.030
4.620,0.005,-0.020
4.622,-0.090,-0.015
4.624,-0.165,-0.020
4.626,-0.175,-0.025
4.628,-0.165,-0.035
4.630,-0.125,-0.045
4.632,-0.020,-0.055
4.634,0.050,-0.055
4.636,0.090,-0.050
4.638,0.060,-0.040
4.640,0.020,-0.030
4.642,-0.100,-0.020
4.644,-0.145,-0.010
4.646,-0.170,-0.005
4.648,-0.150,-0.005
4.650,-0.105,-0.005
4.652,0.010,-0.010
4.654,0.080,-0.015
4.656,0.090,-0.020
4.658,0.060,-0.020
4.660,0.030,-0.020
4.662,-0.060,-0.015
4.664,-0.155,-0.010
4.666,-0.170,-0.010
4.668,-0.150,-0.005
4.670,-0.095,-0.005
4.672,0.025,-0.005
4.674,0.075,-0.010
4.676,0.100,-0.010
4.678,0.065,-0.015
4.680,0.035,-0.020
4.682,-0.085,-0.020
4.684,-0.150,-0.020
4.686,-0.170,-0.020
4.688,-0.135,-0.020
4.690,-0.080,-0.015
4.692,0.020,-0.015
4.694,0.080,-0.015
4.696,0.110,-0.015
4.698,0.080,-0.015
4.700,0.015,-0.015
4.702,-0.085,-0.015
4.704,-0.145,-0.020
4.706,-0.165,-0.020
4.708,-0.130,-0.025
4.710,-0.090,-0.025
4.712,0.015,-0.025
4.714,0.085,-0.030
4.716,0.120,-0.030
4.718,0.060,-0.030
4.720,0.015,-0.035
4.722,-0.095,-0.035
4.724,-0.160,-0.035
4.726,-0.185,-0.035
4.728,-0.140,-0.035
4.730,-0.100,-0.035
4.732,0.015,-0.035
4.734,0.080,-0.035
4.736,0.085,-0.035
4.738,0.065,-0.035
4.740,0.000,-0.035
4.742,-0.115,-0.035
4.744,-0.185,-0.035
4.746,-0.180,-0.035
4.748,-0.145,-0.035
4.750,-0.090,-0.035
4.752,0.005,-0.035
4.754,0.090,-0.040
4.756,0.085,-0.040
4.758,0.050,-0.045
4.760,-0.010,-0.045
4.762,-0.130,-0.050
4.764,-0.190,-0.050
4.766,-0.190,-0.050
4.768,-0.125,-0.045
4.770,-0.070,-0.040
4.772,0.040,-0.040
4.774,0.070,-0.035
4.776,0.070,-0.035
4.778,0.035,-0.035
4.780,-0.020,-0.035
4.782,-0.120,-0.040
4.784,-0.190,-0.045
4.786,-0.175,-0.045
4.788,-0.130,-0.050
4.790,-0.065,-0.050
4.792,0.030,-0.050
4.794,0.090,-0.050
4.796,0.095,-0.045
4.798,0.035,-0.040
4.800,-0.035,-0.040
4.802,-0.130,-0.035
4.804,-0.165,-0.035
4.806,-0.185,-0.035
4.808,-0.150,-0.040
4.810,-0.065,-0.040
4.812,0.035,-0.040
4.814,0.090,-0.040
4.816,0.085,-0.040
4.818,0.030,-0.040
4.820,-0.035,-0.040
4.822,-0.130,-0.040
4.824,-0.175,-0.040
4.826,-0.165,-0.045
4.828,-0.145,-0.045
4.830,-0.050,-0.050
4.832,0.050,-0.055
4.834,0.080,-0.055
4.836,0.065,-0.055
4.838,0.025,-0.050
4.840,-0.050,-0.045
4.842,-0.145,-0.040
4.844,-0.165,-0.035
4.846,-0.180,-0.030
4.848,-0.130,-0.030
4.850,-0.055,-0.030
4.852,0.040,-0.035
4.854,0.090,-0.040
4.856,0.085,-0.040
4.858,0.040,-0.045
4.860,-0.055,-0.045
4.862,-0.130,-0.040
4.864,-0.175,-0.040
4.866,-0.165,-0.035
4.868,-0.125,-0.030
4.870,-0.010,-0.030
4.872,0.050,-0.030
4.874,0.080,-0.030
4.876,0.085,-0.035
4.878,0.045,-0.040
4.880,-0.035,-0.045
4.882,-0.150,-0.050
4.884,-0.200,-0.050
4.886,-0.170,-0.050
4.888,-0.120,-0.045
4.890,-0.010,-0.040
4.892,0.050,-0.040
4.894,0.095,-0.035
4.896,0.095,-0.040
4.898,0.025,-0.040
4.900,-0.045,-0.045
4.902,-0.115,-0.045
4.904,-0.155,-0.050
4.906,-0.150,-0.045
4.908,-0.085,-0.040
4.910,0.005,-0.035
4.912,0.090,-0.025
4.914,0.110,-0.020
4.916,0.100,-0.010
4.918,0.045,-0.010
4.920,-0.035,-0.005
4.922,-0.120,-0.010
4.924,-0.145,-0.010
4.926,-0.135,-0.010
4.928,-0.095,-0.015
4.930,0.030,-0.010
4.932,0.110,-0.010
4.934,0.140,0.000
4.936,0.110,0.005
4.938,0.075,0.010
4.940,-0.030,0.010
4.942,-0.115,0.015
4.944,-0.125,0.010
4.946,-0.115,0.005
4.948,-0.070,0.000
4.950,0.030,-0.005
4.952,0.090,-0.010
4.954,0.115,-0.015
4.956,0.115,-0.015
4.958,0.040,-0.015
4.960,-0.065,-0.015
4.962,-0.130,-0.015
4.964,-0.160,-0.020
4.966,-0.150,-0.020
4.968,-0.110,-0.025
4.970,0.015,-0.030
4.972,0.070,-0.040
4.974,0.075,-0.045
4.976,0.080,-0.050
4.978,0.015,-0.050
4.980,-0.095,-0.050
4.982,-0.150,-0.050
4.984,-0.190,-0.045
4.986,-0.155,-0.045
4.988,-0.120,-0.040
4.990,0.020,-0.040
4.992,0.075,-0.040
4.994,0.090,-0.040
4.996,0.060,-0.045
4.998,0.000,-0.045
5.000,-0.095,-0.045
5.002,-0.150,-0.050
5.004,-0.175,-0.050
5.006,-0.155,-0.050
5.008,-0.095,-0.050
5.010,0.010,-0.050
5.012,0.065,-0.050
5.014,0.080,-0.050
5.016,0.035,-0.050
5.018,0.020,-0.050
5.020,-0.120,-0.050
5.022,-0.160,-0.050
5.024,-0.180,-0.050
5.026,-0.160,-0.050
5.028,-0.110,-0.055
5.030,-0.005,-0.060
5.032,0.035,-0.075
5.034,0.045,-0.085
5.036,0.005,-0.095
5.038,-0.055,-0.100
5.040,-0.170,-0.095
5.042,-0.205,-0.075
5.044,-0.160,-0.040
5.046,-0.055,0.010
5.048,0.075,0.080
5.050,0.255,0.155
5.052,0.380,0.235
5.054,0.470,0.310
5.056,0.515,0.370
5.058,0.525,0.410
5.060,0.400,0.420
5.062,0.290,0.405
5.064,0.180,0.365
5.066,0.125,0.300
5.068,0.150,0.220
5.070,0.230,0.130
5.072,0.210,0.040
5.074,0.135,-0.040
5.076,-0.065,-0.110
5.078,-0.200,-0.160
5.080,-0.300,-0.195
5.082,-0.345,-0.215
5.084,-0.330,-0.225
5.086,-0.305,-0.225
5.088,-0.240,-0.220
5.090,-0.115,-0.210
5.092,-0.090,-0.205
5.094,-0.060,-0.195
5.096,-0.080,-0.190
5.098,-0.125,-0.180
5.100,-0.185,-0.165
5.102,-0.220,-0.145
5.104,-0.200,-0.120
5.106,-0.150,-0.095
5.108,-0.080,-0.070
5.110,0.045,-0.050
5.112,0.085,-0.030
5.114,0.105,-0.020
5.116,0.065,-0.015
5.118,-0.010,-0.015
5.120,-0.100,-0.025
5.122,-0.140,-0.030
5.124,-0.130,-0.035
5.126,-0.100,-0.035
5.128,-0.005,-0.035
5.130,0.090,-0.030
5.132,0.120,-0.020
5.134,0.120,-0.015
5.136,0.085,-0.005
5.138,0.005,0.000
5.140,-0.100,0.000
5.142,-0.130,0.000
5.144,-0.120,-0.005
5.146,-0.065,-0.005
5.148,0.010,-0.010
5.150,0.095,-0.015
5.152,0.135,-0.015
5.154,0.130,-0.015
5.156,0.085,-0.015
5.158,0.010,-0.015
5.160,-0.090,-0.015
5.162,-0.120,-0.015
5.164,-0.120,-0.015
5.166,-0.065,-0.015
5.168,0.025,-0.015
5.170,0.115,-0.010
5.172,0.135,-0.010
5.174,0.140,-0.005
5.176,0.090,-0.005
5.178,0.010,-0.005
5.180,-0.075,-0.005
5.182,-0.125,-0.005
5.184,-0.115,-0.005
5.186,-0.050,-0.010
5.188,0.045,-0.010
5.190,0.125,-0.010
5.192,0.165,-0.010
5.194,0.155,-0.010
5.196,0.105,-0.005
5.198,0.020,0.005
5.200,-0.070,0.010
5.202,-0.090,0.020
5.204,-0.080,0.025
5.206,-0.025,0.035
5.208,0.070,0.040
5.210,0.165,0.045
5.212,0.200,0.050
5.214,0.175,0.055
5.216,0.140,0.055
5.218,0.045,0.055
5.220,-0.025,0.055
5.222,-0.070,0.055
5.224,-0.055,0.055
5.226,0.000,0.050
5.228,0.100,0.050
5.230,0.185,0.050
5.232,0.195,0.050
5.234,0.195,0.050
5.236,0.150,0.055
5.238,0.055,0.060
5.240,-0.020,0.070
5.242,-0.035,0.080
5.244,-0.020,0.090
5.246,0.020,0.100
5.248,0.145,0.105
5.250,0.220,0.110
5.252,0.250,0.115
5.254,0.230,0.115
5.256,0.170,0.115
5.258,0.075,0.115
5.260,0.020,0.115
5.262,0.005,0.115
5.264,0.020,0.115
5.266,0.075,0.115
5.268,0.200,0.120
5.270,0.265,0.125
5.272,0.300,0.135
5.274,0.285,0.140
5.276,0.235,0.150
5.278,0.145,0.160
5.280,0.045,0.165
5.282,0.045,0.170
5.284,0.075,0.175
5.286,0.140,0.180
5.288,0.245,0.180
5.290,0.310,0.180
5.292,0.350,0.185
5.294,0.310,0.185
5.296,0.265,0.185
5.298,0.145,0.190
5.300,0.115,0.195
5.302,0.090,0.195
5.304,0.115,0.200
5.306,0.170,0.205
5.308,0.275,0.205
5.310,0.335,0.205
5.312,0.360,0.205
5.314,0.320,0.205
5.316,0.270,0.205
5.318,0.160,0.205
5.320,0.085,0.200
5.322,0.075,0.195
5.324,0.095,0.190
5.326,0.140,0.185
5.328,0.240,0.175
5.330,0.285,0.165
5.332,0.300,0.150
5.334,0.250,0.140
5.336,0.190,0.125
5.338,0.060,0.115
5.340,-0.015,0.105
5.342,-0.020,0.095
5.344,-0.005,0.085
5.346,0.035,0.080
5.348,0.140,0.070
5.350,0.190,0.060
5.352,0.190,0.050
5.354,0.145,0.040
5.356,0.090,0.035
5.358,-0.025,0.025
5.360,-0.105,0.015
5.362,-0.120,0.010
5.364,-0.085,0.005
5.366,-0.020,0.005
5.368,0.075,0.000
5.370,0.130,-0.005
5.372,0.125,-0.010
5.374,0.080,-0.015
5.376,0.020,-0.025
5.378,-0.100,-0.030
5.380,-0.155,-0.040
5.382,-0.160,-0.045
5.384,-0.135,-0.045
5.386,-0.065,-0.050
5.388,0.035,-0.045
5.390,0.090,-0.045
5.392,0.090,-0.040
5.394,0.050,-0.040
5.396,-0.010,-0.040
5.398,-0.110,-0.045
5.400,-0.170,-0.050
5.402,-0.190,-0.060
5.404,-0.140,-0.065
5.406,-0.055,-0.070
5.408,0.045,-0.075
5.410,0.085,-0.075
5.412,0.080,-0.070
5.414,0.030,-0.065
5.416,-0.025,-0.060
5.418,-0.135,-0.050
5.420,-0.165,-0.045
5.422,-0.170,-0.040
5.424,-0.125,-0.040
5.426,-0.050,-0.045
5.428,0.050,-0.045
5.430,0.085,-0.050
5.432,0.100,-0.055
5.434,0.050,-0.055
5.436,-0.025,-0.055
5.438,-0.110,-0.055
5.440,-0.145,-0.045
5.442,-0.160,-0.040
5.444,-0.110,-0.035
5.446,-0.025,-0.030
5.448,0.055,-0.030
5.450,0.105,-0.030
5.452,0.095,-0.035
5.454,0.060,-0.040
5.456,0.000,-0.045
5.458,-0.105,-0.045
5.460,-0.140,-0.045
5.462,-0.135,-0.040
5.464,-0.095,-0.030
5.466,-0.010,-0.020
5.468,0.100,-0.015
5.470,0.130,-0.010
5.472,0.115,-0.005
5.474,0.055,-0.005
5.476,-0.015,-0.010
5.478,-0.095,-0.020
5.480,-0.155,-0.025
5.482,-0.130,-0.035
5.484,-0.095,-0.040
5.486,0.005,-0.040
5.488,0.085,-0.040
5.490,0.120,-0.035
5.492,0.115,-0.030
5.494,0.065,-0.030
5.496,-0.025,-0.025
5.498,-0.105,-0.025
5.500,-0.140,-0.025
5.502,-0.135,-0.030
5.504,-0.095,-0.030
5.506,-0.005,-0.030
5.508,0.080,-0.030
5.510,0.125,-0.030
5.512,0.100,-0.025
5.514,0.055,-0.025
5.516,-0.035,-0.025
5.518,-0.115,-0.030
5.520,-0.155,-0.030
5.522,-0.130,-0.035
5.524,-0.095,-0.045
5.526,-0.005,-0.050
5.528,0.085,-0.055
5.530,0.100,-0.055
5.532,0.090,-0.060
5.534,0.035,-0.055
5.536,-0.050,-0.055
5.538,-0.135,-0.050
5.540,-0.170,-0.045
5.542,-0.145,-0.040
5.544,-0.100,-0.040
5.546,0.010,-0.035
5.548,0.080,-0.035
5.550,0.105,-0.035
5.552,0.080,-0.035
5.554,0.035,-0.035
5.556,-0.075,-0.035
5.558,-0.145,-0.035
5.560,-0.170,-0.035
5.562,-0.150,-0.035
5.564,-0.105,-0.040
5.566,-0.005,-0.045
5.568,0.070,-0.045
5.570,0.090,-0.050
5.572,0.065,-0.055
5.574,0.025,-0.055
5.576,-0.080,-0.055
5.578,-0.160,-0.050
5.580,-0.180,-0.050
5.582,-0.165,-0.045
5.584,-0.115,-0.045
5.586,0.010,-0.050
5.588,0.070,-0.050
5.590,0.090,-0.060
5.592,0.070,-0.065
5.594,0.015,-0.070
5.596,-0.100,-0.075
5.598,-0.165,-0.075
5.600,-0.185,-0.075
5.602,-0.155,-0.070
5.604,-0.105,-0.065
5.606,0.015,-0.055
5.608,0.080,-0.050
5.610,0.105,-0.045
5.612,0.045,-0.045
5.614,-0.005,-0.045
5.616,-0.100,-0.045
5.618,-0.160,-0.050
5.620,-0.185,-0.050
5.622,-0.140,-0.055
5.624,-0.095,-0.055
5.626,0.015,-0.060
5.628,0.070,-0.060
5.630,0.100,-0.060
5.632,0.035,-0.060
5.634,0.005,-0.060
5.636,-0.095,-0.060
5.638,-0.165,-0.060
5.640,-0.175,-0.060
5.642,-0.145,-0.060
5.644,-0.080,-0.055
5.646,0.040,-0.055
5.648,0.075,-0.050
5.650,0.100,-0.050
5.652,0.060,-0.045
5.654,0.000,-0.050
5.656,-0.110,-0.050
5.658,-0.170,-0.055
5.660,-0.165,-0.055
5.662,-0.135,-0.060
5.664,-0.060,-0.060
5.666,0.025,-0.060
5.668,0.095,-0.055
5.670,0.110,-0.050
5.672,0.060,-0.045
5.674,0.015,-0.040
5.676,-0.090,-0.035
5.678,-0.165,-0.030
5.680,-0.165,-0.030
5.682,-0.125,-0.035
5.684,-0.070,-0.035
5.686,0.040,-0.040
5.688,0.090,-0.040
5.690,0.110,-0.040
5.692,0.070,-0.040
5.694,0.015,-0.035
5.696,-0.105,-0.035
5.698,-0.145,-0.030
5.700,-0.160,-0.025
5.702,-0.120,-0.025
5.704,-0.055,-0.025
5.706,0.055,-0.030
5.708,0.100,-0.030
5.710,0.105,-0.035
5.712,0.065,-0.035
5.714,0.010,-0.035
5.716,-0.095,-0.030
5.718,-0.135,-0.025
5.720,-0.135,-0.025
5.722,-0.095,-0.020
5.724,-0.020,-0.015
5.726,0.080,-0.015
5.728,0.120,-0.010
5.730,0.125,-0.010
5.732,0.075,-0.010
5.734,0.010,-0.010
5.736,-0.085,-0.010
5.738,-0.125,-0.010
5.740,-0.140,-0.010
5.742,-0.075,-0.005
5.744,-0.020,-0.005
5.746,0.090,-0.005
5.748,0.120,-0.005
5.750,0.115,-0.010
5.752,0.050,-0.015
5.754,-0.020,-0.025
5.756,-0.120,-0.030
5.758,-0.160,-0.035
5.760,-0.160,-0.040
5.762,-0.115,-0.045
5.764,-0.035,-0.050
5.766,0.045,-0.055
5.768,0.080,-0.055
5.770,0.075,-0.055
5.772,0.035,-0.055
5.774,-0.055,-0.055
5.776,-0.145,-0.055
5.778,-0.175,-0.055
5.780,-0.165,-0.050
5.782,-0.125,-0.050
5.784,-0.035,-0.050
5.786,0.035,-0.050
5.788,0.070,-0.050
5.790,0.060,-0.050
5.792,0.015,-0.055
5.794,-0.085,-0.060
5.796,-0.160,-0.065
5.798,-0.195,-0.070
5.800,-0.160,-0.075
5.802,-0.140,-0.075
5.804,-0.050,-0.075
5.806,0.040,-0.075
5.808,0.070,-0.070
5.810,0.070,-0.070
5.812,0.010,-0.065
5.814,-0.090,-0.065
5.816,-0.160,-0.060
5.818,-0.185,-0.060
5.820,-0.175,-0.055
5.822,-0.120,-0.055
5.824,-0.020,-0.050
5.826,0.040,-0.050
5.828,0.070,-0.050
5.830,0.030,-0.055
5.832,-0.030,-0.060
5.834,-0.125,-0.075
5.836,-0.215,-0.090
5.838,-0.250,-0.100
5.840,-0.240,-0.105
5.842,-0.165,-0.095
5.844,-0.025,-0.070
5.846,0.115,-0.020
5.848,0.200,0.045
5.850,0.265,0.125
5.852,0.300,0.215
5.854,0.285,0.300
5.856,0.295,0.375
5.858,0.340,0.430
5.860,0.395,0.455
5.862,0.415,0.450
5.864,0.450,0.415
5.866,0.400,0.360
5.868,0.355,0.280
5.870,0.305,0.195
5.872,0.200,0.105
5.874,-0.015,0.025
5.876,-0.175,-0.050
5.878,-0.335,-0.110
5.880,-0.345,-0.155
5.882,-0.275,-0.190
5.884,-0.165,-0.210
5.886,-0.100,-0.225
5.888,-0.060,-0.225
5.890,-0.115,-0.225
5.892,-0.145,-0.215
5.894,-0.230,-0.200
5.896,-0.280,-0.175
5.898,-0.280,-0.155
5.900,-0.225,-0.130
5.902,-0.170,-0.110
5.904,-0.035,-0.090
5.906,0.050,-0.080
5.908,0.065,-0.070
5.910,0.045,-0.070
5.912,-0.010,-0.070
5.914,-0.130,-0.070
5.916,-0.180,-0.075
5.918,-0.180,-0.075
5.920,-0.160,-0.070
5.922,-0.100,-0.065
5.924,0.010,-0.060
5.926,0.065,-0.055
5.928,0.080,-0.050
5.930,0.050,-0.045
5.932,0.000,-0.045
5.934,-0.095,-0.040
5.936,-0.170,-0.040
5.938,-0.180,-0.040
5.940,-0.140,-0.040
5.942,-0.085,-0.040
5.944,0.025,-0.035
5.946,0.070,-0.035
5.948,0.085,-0.030
5.950,0.070,-0.030
5.952,0.010,-0.030
5.954,-0.095,-0.035
5.956,-0.150,-0.035
5.958,-0.170,-0.035
5.960,-0.130,-0.035
5.962,-0.055,-0.030
5.964,0.050,-0.020
5.966,0.100,-0.015
5.968,0.125,-0.005
5.970,0.085,0.000
5.972,0.025,0.005
5.974,-0.065,0.010
5.976,-0.130,0.010
5.978,-0.160,0.010
5.980,-0.115,0.005
5.982,-0.055,0.000
5.984,0.065,-0.005
5.986,0.130,-0.005
5.988,0.130,-0.005
5.990,0.070,-0.005
5.992,0.010,0.000
5.994,-0.100,0.000
5.996,-0.145,0.000
5.998,-0.125,0.005
6.000,-0.075,0.005
6.002,-0.035,0.005
6.004,0.080,0.005
6.006,0.120,0.010
6.008,0.130,0.010
6.010,0.085,0.015
6.012,0.035,0.020
6.014,-0.065,0.025
6.016,-0.095,0.030
6.018,-0.105,0.035
6.020,-0.060,0.035
6.022,0.010,0.035
6.024,0.080,0.040
6.026,0.155,0.040
6.028,0.170,0.040
6.030,0.115,0.040
6.032,0.055,0.040
6.034,-0.040,0.045
6.036,-0.070,0.050
6.038,-0.085,0.055
6.040,-0.045,0.060
6.042,0.050,0.065
6.044,0.140,0.070
6.046,0.200,0.070
6.048,0.200,0.070
6.050,0.145,0.070
6.052,0.065,0.070
6.054,-0.030,0.070
6.056,-0.055,0.075
6.058,-0.045,0.075
6.060,0.010,0.085
6.062,0.085,0.090
6.064,0.175,0.100
6.066,0.240,0.105
6.068,0.225,0.115
6.070,0.190,0.120
6.072,0.115,0.125
6.074,0.030,0.130
6.076,0.005,0.135
6.078,0.015,0.135
6.080,0.075,0.140
6.082,0.145,0.150
6.084,0.240,0.155
6.086,0.300,0.165
6.088,0.295,0.170
6.090,0.230,0.180
6.092,0.175,0.185
6.094,0.075,0.190
6.096,0.040,0.190
6.098,0.055,0.190
6.100,0.100,0.190
6.102,0.205,0.185
6.104,0.285,0.185
6.106,0.320,0.185
6.108,0.310,0.190
6.110,0.255,0.190
6.112,0.155,0.195
6.114,0.065,0.200
6.116,0.035,0.200
6.118,0.040,0.200
6.120,0.100,0.200
6.122,0.195,0.195
6.124,0.280,0.185
6.126,0.290,0.180
6.128,0.270,0.170
6.130,0.215,0.160
6.132,0.105,0.155
6.134,0.020,0.145
6.136,-0.020,0.135
6.138,-0.030,0.125
6.140,0.015,0.115
6.142,0.105,0.105
6.144,0.165,0.095
6.146,0.190,0.085
6.148,0.175,0.080
6.150,0.110,0.075
6.152,0.000,0.070
6.154,-0.085,0.060
6.156,-0.135,0.055
6.158,-0.125,0.045
6.160,-0.075,0.030
6.162,0.025,0.020
6.164,0.085,0.005
6.166,0.095,-0.010
6.168,0.085,-0.020
6.170,0.030,-0.030
6.172,-0.090,-0.035
6.174,-0.165,-0.040
6.176,-0.200,-0.045
6.178,-0.175,-0.045
6.180,-0.110,-0.045
6.182,-0.020,-0.045
6.184,0.040,-0.050
6.186,0.065,-0.050
6.188,0.025,-0.055
6.190,0.005,-0.055
6.192,-0.140,-0.060
6.194,-0.195,-0.060
6.196,-0.205,-0.060
6.198,-0.175,-0.060
6.200,-0.140,-0.060
6.202,-0.035,-0.060
6.204,0.030,-0.060
6.206,0.055,-0.065
6.208,0.035,-0.070
6.210,-0.025,-0.070
6.212,-0.120,-0.070
6.214,-0.190,-0.070
6.216,-0.210,-0.065
6.218,-0.185,-0.060
6.220,-0.130,-0.050
6.222,-0.005,-0.045
6.224,0.040,-0.045
6.226,0.055,-0.045
6.228,0.030,-0.045
6.230,-0.020,-0.050
6.232,-0.135,-0.055
6.234,-0.175,-0.060
6.236,-0.200,-0.060
6.238,-0.175,-0.060
6.240,-0.125,-0.055
6.242,-0.010,-0.050
6.244,0.045,-0.040
6.246,0.065,-0.035
6.248,0.050,-0.035
6.250,-0.015,-0.030
6.252,-0.120,-0.035
6.254,-0.175,-0.035
6.256,-0.195,-0.040
6.258,-0.155,-0.040
6.260,-0.110,-0.040
6.262,0.005,-0.040
6.264,0.075,-0.035
6.266,0.075,-0.035
6.268,0.030,-0.035
6.270,-0.025,-0.030
6.272,-0.120,-0.030
6.274,-0.175,-0.030
6.276,-0.190,-0.030
6.278,-0.145,-0.030
6.280,-0.095,-0.030
6.282,0.030,-0.030
6.284,0.065,-0.030
6.286,0.085,-0.030
6.288,0.045,-0.030
6.290,-0.020,-0.030
6.292,-0.125,-0.030
6.294,-0.185,-0.035
6.296,-0.200,-0.030
6.298,-0.135,-0.030
6.300,-0.090,-0.025
6.302,0.025,-0.020
6.304,0.075,-0.020
6.306,0.085,-0.015
6.308,0.050,-0.015
6.310,-0.030,-0.020
6.312,-0.130,-0.025
6.314,-0.185,-0.035
6.316,-0.180,-0.040
6.318,-0.155,-0.050
6.320,-0.075,-0.055
6.322,0.015,-0.055
6.324,0.070,-0.050
6.326,0.075,-0.045
6.328,0.020,-0.040
6.330,-0.040,-0.030
6.332,-0.135,-0.025
6.334,-0.180,-0.020
6.336,-0.175,-0.020
6.338,-0.130,-0.020
6.340,-0.075,-0.025
6.342,0.030,-0.030
6.344,0.070,-0.030
6.346,0.075,-0.035
6.348,0.025,-0.035
6.350,-0.045,-0.035
6.352,-0.145,-0.035
6.354,-0.175,-0.030
6.356,-0.200,-0.030
6.358,-0.145,-0.030
6.360,-0.080,-0.035
6.362,0.020,-0.035
6.364,0.070,-0.040
6.366,0.055,-0.040
6.368,0.010,-0.045
6.370,-0.050,-0.045
6.372,-0.155,-0.045
6.374,-0.200,-0.045
6.376,-0.205,-0.045
6.378,-0.140,-0.045
6.380,-0.060,-0.050
6.382,0.030,-0.050
6.384,0.045,-0.050
6.386,0.070,-0.050
6.388,0.020,-0.045
6.390,-0.070,-0.040
6.392,-0.175,-0.035
6.394,-0.200,-0.035
6.396,-0.190,-0.030
6.398,-0.140,-0.030
6.400,-0.045,-0.035
6.402,0.030,-0.040
6.404,0.060,-0.045
6.406,0.050,-0.050
6.408,0.000,-0.055
6.410,-0.070,-0.055
6.412,-0.170,-0.055
6.414,-0.205,-0.055
6.416,-0.190,-0.050
6.418,-0.130,-0.045
6.420,-0.060,-0.040
6.422,0.025,-0.040
6.424,0.060,-0.035
6.426,0.055,-0.035
6.428,0.000,-0.035
6.430,-0.100,-0.035
6.432,-0.180,-0.035
6.434,-0.190,-0.035
6.436,-0.200,-0.035
6.438,-0.140,-0.030
6.440,-0.040,-0.030
6.442,0.030,-0.035
6.444,0.065,-0.035
6.446,0.045,-0.040
6.448,0.010,-0.040
6.450,-0.110,-0.045
6.452,-0.180,-0.045
6.454,-0.200,-0.045
6.456,-0.180,-0.040
6.458,-0.130,-0.035
6.460,-0.025,-0.030
6.462,0.040,-0.025
6.464,0.060,-0.020
6.466,0.040,-0.020
6.468,-0.010,-0.020
6.470,-0.105,-0.025
6.472,-0.170,-0.035
6.474,-0.200,-0.040
6.476,-0.205,-0.045
6.478,-0.125,-0.050
6.480,-0.030,-0.050
6.482,0.030,-0.050
6.484,0.070,-0.050
6.486,0.030,-0.045
6.488,-0.015,-0.045
6.490,-0.115,-0.040
6.492,-0.175,-0.040
6.494,-0.215,-0.040
6.496,-0.180,-0.040
6.498,-0.130,-0.045
6.500,-0.020,-0.045
6.502,0.035,-0.045
6.504,0.070,-0.045
6.506,0.030,-0.045
6.508,-0.020,-0.045
6.510,-0.105,-0.040
6.512,-0.195,-0.035
6.514,-0.215,-0.035
6.516,-0.195,-0.035
6.518,-0.130,-0.040
6.520,-0.035,-0.045
6.522,0.030,-0.055
6.524,0.035,-0.060
6.526,0.020,-0.070
6.528,-0.025,-0.070
6.530,-0.135,-0.070
6.532,-0.195,-0.065
6.534,-0.200,-0.055
6.536,-0.185,-0.040
6.538,-0.140,-0.030
6.540,-0.015,-0.015
6.542,0.055,-0.010
6.544,0.085,-0.005
6.546,0.065,-0.010
6.548,-0.025,-0.015
6.550,-0.130,-0.025
6.552,-0.165,-0.035
6.554,-0.205,-0.045
6.556,-0.180,-0.045
6.558,-0.120,-0.050
6.560,0.000,-0.045
6.562,0.070,-0.035
6.564,0.075,-0.030
6.566,0.070,-0.020
6.568,-0.005,-0.010
6.570,-0.110,-0.005
6.572,-0.190,0.000
6.574,-0.180,0.000
6.576,-0.145,0.000
6.578,-0.075,-0.005
6.580,0.030,-0.010
6.582,0.075,-0.010
6.584,0.095,-0.015
6.586,0.050,-0.015
6.588,0.005,-0.015
6.590,-0.110,-0.010
6.592,-0.165,-0.005
6.594,-0.175,-0.005
6.596,-0.130,0.000
6.598,-0.060,0.000
6.600,0.045,0.000
6.602,0.090,0.000
6.604,0.110,0.000
6.606,0.060,0.000
6.608,0.005,0.000
6.610,-0.090,0.005
6.612,-0.160,0.010
6.614,-0.155,0.010
6.616,-0.125,0.015
6.618,-0.055,0.020
6.620,0.030,0.015
6.622,0.090,0.015
6.624,0.090,0.010
6.626,0.045,0.000
6.628,-0.035,-0.010
6.630,-0.130,-0.015
6.632,-0.170,-0.025
6.634,-0.185,-0.030
6.636,-0.150,-0.035
6.638,-0.075,-0.035
6.640,0.015,-0.035
6.642,0.060,-0.035
6.644,0.055,-0.040
6.646,0.020,-0.045
6.648,-0.045,-0.050
6.650,-0.170,-0.055
6.652,-0.215,-0.060
6.654,-0.195,-0.060
6.656,-0.165,-0.065
6.658,-0.075,-0.060
6.660,0.000,-0.055
6.662,0.030,-0.050
6.664,0.055,-0.045
6.666,0.000,-0.040
6.668,-0.065,-0.040
6.670,-0.140,-0.040
6.672,-0.215,-0.045
6.674,-0.215,-0.055
6.676,-0.155,-0.060
6.678,-0.090,-0.065
6.680,0.005,-0.070
6.682,0.060,-0.065
6.684,0.060,-0.060
6.686,0.025,-0.055
6.688,-0.070,-0.050
6.690,-0.175,-0.045
6.692,-0.220,-0.045
6.694,-0.220,-0.055
6.696,-0.190,-0.065
6.698,-0.125,-0.080
6.700,-0.030,-0.090
6.702,0.010,-0.095
6.704,0.000,-0.090
6.706,-0.015,-0.065
6.708,-0.045,-0.020
6.710,-0.080,0.040
6.712,-0.030,0.120
6.714,0.070,0.205
6.716,0.215,0.290
6.718,0.385,0.370
6.720,0.550,0.435
6.722,0.655,0.475
6.724,0.650,0.490
6.726,0.550,0.475
6.728,0.380,0.435
6.730,0.155,0.370
6.732,0.065,0.285
6.734,0.030,0.195
6.736,0.020,0.105
6.738,0.015,0.015
6.740,-0.005,-0.060
6.742,-0.085,-0.120
6.744,-0.120,-0.165
6.746,-0.180,-0.195
6.748,-0.245,-0.205
6.750,-0.300,-0.205
6.752,-0.315,-0.195
6.754,-0.300,-0.175
6.756,-0.220,-0.155
6.758,-0.110,-0.135
6.760,-0.030,-0.115
6.762,0.030,-0.095
6.764,0.030,-0.080
6.766,0.000,-0.065
6.768,-0.095,-0.050
6.770,-0.180,-0.045
6.772,-0.200,-0.035
6.774,-0.170,-0.035
6.776,-0.115,-0.030
6.778,-0.005,-0.030
6.780,0.055,-0.030
6.782,0.085,-0.030
6.784,0.065,-0.030
6.786,0.020,-0.025
6.788,-0.070,-0.020
6.790,-0.160,-0.015
6.792,-0.165,-0.005
6.794,-0.135,0.000
6.796,-0.090,0.005
6.798,0.010,0.005
6.800,0.085,0.005
6.802,0.110,0.000
6.804,0.080,0.000
6.806,0.015,-0.005
6.808,-0.080,-0.005
6.810,-0.140,-0.005
6.812,-0.165,0.000
6.814,-0.120,0.000
6.816,-0.075,0.010
6.818,0.040,0.010
6.820,0.090,0.015
6.822,0.110,0.015
6.824,0.100,0.010
6.826,0.050,0.005
6.828,-0.070,0.000
6.830,-0.135,-0.010
6.832,-0.155,-0.010
6.834,-0.120,-0.015
6.836,-0.080,-0.010
6.838,0.035,-0.005
6.840,0.095,0.000
6.842,0.125,0.005
6.844,0.085,0.010
6.846,0.045,0.015
6.848,-0.065,0.015
6.850,-0.120,0.015
6.852,-0.135,0.010
6.854,-0.095,0.010
6.856,-0.060,0.005
6.858,0.070,0.005
6.860,0.125,0.010
6.862,0.135,0.015
6.864,0.120,0.025
6.866,0.060,0.035
6.868,-0.045,0.045
6.870,-0.080,0.050
6.872,-0.105,0.055
6.874,-0.065,0.060
6.876,-0.025,0.065
6.878,0.100,0.060
6.880,0.150,0.060
6.882,0.185,0.060
6.884,0.140,0.055
6.886,0.065,0.055
6.888,-0.020,0.055
6.890,-0.090,0.060
6.892,-0.100,0.065
6.894,-0.055,0.070
6.896,0.005,0.075
6.898,0.135,0.080
6.900,0.195,0.080
6.902,0.215,0.085
6.904,0.160,0.090
6.906,0.105,0.090
6.908,0.005,0.095
6.910,-0.055,0.100
6.912,-0.050,0.105
6.914,-0.005,0.110
6.916,0.060,0.120
6.918,0.170,0.125
6.920,0.225,0.125
6.922,0.250,0.130
6.924,0.200,0.130
6.926,0.165,0.135
6.928,0.035,0.135
6.930,-0.020,0.135
6.932,-0.010,0.140
6.934,0.050,0.140
6.936,0.120,0.150
6.938,0.235,0.155
6.940,0.280,0.160
6.942,0.285,0.170
6.944,0.260,0.175
6.946,0.175,0.180
6.948,0.085,0.185
6.950,0.030,0.190
6.952,0.035,0.190
6.954,0.090,0.195
6.956,0.170,0.195
6.958,0.280,0.200
6.960,0.330,0.200
6.962,0.325,0.205
6.964,0.275,0.205
6.966,0.210,0.210
6.968,0.110,0.210
6.970,0.080,0.215
6.972,0.075,0.215
6.974,0.120,0.215
6.976,0.185,0.215
6.978,0.300,0.215
6.980,0.320,0.215
6.982,0.320,0.210
6.984,0.260,0.205
6.986,0.190,0.200
6.988,0.085,0.200
6.990,0.040,0.195
6.992,0.045,0.190
6.994,0.075,0.185
6.996,0.160,0.180
6.998,0.235,0.175
7.000,0.265,0.170
7.002,0.230,0.160
7.004,0.180,0.150
7.006,0.100,0.140
7.008,0.000,0.125
7.010,-0.060,0.115
7.012,-0.065,0.100
7.014,-0.015,0.090
7.016,0.055,0.080
7.018,0.145,0.065
7.020,0.170,0.055
7.022,0.145,0.045
7.024,0.080,0.040
7.026,0.000,0.030
7.028,-0.100,0.025
7.030,-0.140,0.015
7.032,-0.130,0.010
7.034,-0.090,0.010
7.036,0.010,0.005
7.038,0.095,0.005
7.040,0.120,0.005
7.042,0.090,0.005
7.044,0.065,0.005
7.046,-0.035,0.005
7.048,-0.125,0.005
7.050,-0.175,0.000
7.052,-0.165,0.000
7.054,-0.105,-0.005
7.056,-0.020,-0.010
7.058,0.070,-0.015
7.060,0.105,-0.025
7.062,0.085,-0.025
7.064,0.035,-0.030
7.066,-0.080,-0.035
7.068,-0.165,-0.035
7.070,-0.180,-0.035
7.072,-0.155,-0.035
7.074,-0.105,-0.035
7.076,-0.010,-0.035
7.078,0.065,-0.035
7.080,0.090,-0.035
7.082,0.070,-0.035
7.084,0.015,-0.035
7.086,-0.085,-0.035
7.088,-0.155,-0.035
7.090,-0.190,-0.035
7.092,-0.155,-0.030
7.094,-0.115,-0.030
7.096,-0.015,-0.030
7.098,0.060,-0.025
7.100,0.085,-0.025
7.102,0.060,-0.025
7.104,0.015,-0.020
7.106,-0.085,-0.020
7.108,-0.155,-0.020
7.110,-0.195,-0.025
7.112,-0.160,-0.025
7.114,-0.100,-0.025
7.116,0.020,-0.030
7.118,0.070,-0.030
7.120,0.105,-0.030
7.122,0.060,-0.030
7.124,0.020,-0.030
7.126,-0.095,-0.030
7.128,-0.155,-0.030
7.130,-0.175,-0.025
7.132,-0.150,-0.025
7.134,-0.100,-0.025
7.136,0.005,-0.020
7.138,0.065,-0.020
7.140,0.085,-0.020
7.142,0.080,-0.020
7.144,0.005,-0.020
7.146,-0.085,-0.020
7.148,-0.145,-0.020
7.150,-0.180,-0.025
7.152,-0.140,-0.025
7.154,-0.090,-0.025
7.156,0.015,-0.025
7.158,0.080,-0.025
7.160,0.100,-0.030
7.162,0.065,-0.025
7.164,0.010,-0.025
7.166,-0.100,-0.025
7.168,-0.170,-0.020
7.170,-0.170,-0.015
7.172,-0.150,-0.015
7.174,-0.080,-0.015
7.176,0.030,-0.015
7.178,0.085,-0.015
7.180,0.100,-0.020
7.182,0.075,-0.025
7.184,0.005,-0.030
7.186,-0.105,-0.035
7.188,-0.175,-0.035
7.190,-0.185,-0.035
7.192,-0.140,-0.035
7.194,-0.065,-0.035
7.196,0.040,-0.030
7.198,0.085,-0.030
7.200,0.095,-0.030
7.202,0.040,-0.030
7.204,-0.005,-0.030
7.206,-0.120,-0.030
7.208,-0.180,-0.025
7.210,-0.185,-0.025
7.212,-0.140,-0.025
7.214,-0.070,-0.025
7.216,0.035,-0.025
7.218,0.090,-0.025
7.220,0.095,-0.030
7.222,0.060,-0.030
7.224,-0.020,-0.035
7.226,-0.130,-0.035
7.228,-0.185,-0.040
7.230,-0.185,-0.040
7.232,-0.145,-0.040
7.234,-0.075,-0.040
7.236,0.030,-0.040
7.238,0.070,-0.040
7.240,0.070,-0.045
7.242,0.035,-0.045
7.244,-0.030,-0.050
7.246,-0.145,-0.055
7.248,-0.180,-0.055
7.250,-0.185,-0.055
7.252,-0.135,-0.050
7.254,-0.065,-0.050
7.256,0.040,-0.045
7.258,0.080,-0.040
7.260,0.070,-0.040
7.262,0.035,-0.040
7.264,-0.030,-0.045
7.266,-0.150,-0.050
7.268,-0.190,-0.060
7.270,-0.185,-0.065
7.272,-0.150,-0.070
7.274,-0.065,-0.070
7.276,0.015,-0.070
7.278,0.070,-0.065
7.280,0.060,-0.060
7.282,0.025,-0.050
7.284,-0.050,-0.045
7.286,-0.140,-0.040
7.288,-0.190,-0.040
7.290,-0.195,-0.045
7.292,-0.150,-0.045
7.294,-0.070,-0.050
7.296,0.025,-0.055
7.298,0.070,-0.060
7.300,0.060,-0.065
7.302,0.010,-0.065
7.304,-0.085,-0.070
7.306,-0.160,-0.070
7.308,-0.185,-0.065
7.310,-0.190,-0.065
7.312,-0.140,-0.060
7.314,-0.070,-0.060
7.316,0.015,-0.055
7.318,0.075,-0.055
7.320,0.065,-0.055
7.322,0.010,-0.055
7.324,-0.065,-0.055
7.326,-0.155,-0.055
7.328,-0.195,-0.055
7.330,-0.180,-0.055
7.332,-0.130,-0.055
7.334,-0.040,-0.055
7.336,0.030,-0.055
7.338,0.060,-0.055
7.340,0.050,-0.055
7.342,0.010,-0.055
7.344,-0.065,-0.055
7.346,-0.160,-0.060
7.348,-0.200,-0.060
7.350,-0.185,-0.065
7.352,-0.125,-0.065
7.354,-0.035,-0.065
7.356,0.040,-0.065
7.358,0.065,-0.065
7.360,0.055,-0.060
7.362,0.015,-0.055
7.364,-0.090,-0.055
7.366,-0.175,-0.055
7.368,-0.195,-0.060
7.370,-0.175,-0.060
7.372,-0.135,-0.065
7.374,-0.045,-0.070
7.376,0.045,-0.075
7.378,0.075,-0.075
7.380,0.055,-0.075
7.382,0.000,-0.070
7.384,-0.085,-0.065
7.386,-0.175,-0.060
7.388,-0.185,-0.055
7.390,-0.170,-0.050
7.392,-0.120,-0.050
7.394,-0.020,-0.045
7.396,0.050,-0.045
7.398,0.075,-0.045
7.400,0.045,-0.045
7.402,0.010,-0.045
7.404,-0.100,-0.050
7.406,-0.180,-0.050
7.408,-0.195,-0.055
7.410,-0.165,-0.060
7.412,-0.125,-0.060
7.414,-0.030,-0.065
7.416,0.065,-0.065
7.418,0.065,-0.065
7.420,0.025,-0.065
7.422,0.000,-0.060
7.424,-0.110,-0.055
7.426,-0.165,-0.050
7.428,-0.190,-0.045
7.430,-0.170,-0.040
7.432,-0.115,-0.040
7.434,-0.010,-0.040
7.436,0.070,-0.045
7.438,0.085,-0.050
7.440,0.030,-0.055
7.442,-0.005,-0.060
7.444,-0.105,-0.060
7.446,-0.170,-0.060
7.448,-0.200,-0.055
7.450,-0.160,-0.050
7.452,-0.100,-0.045
7.454,0.020,-0.040
7.456,0.070,-0.035
7.458,0.080,-0.035
7.460,0.055,-0.035
7.462,-0.005,-0.040
7.464,-0.105,-0.045
7.466,-0.165,-0.045
7.468,-0.190,-0.050
7.470,-0.135,-0.050
7.472,-0.100,-0.050
7.474,0.020,-0.045
7.476,0.075,-0.040
7.478,0.075,-0.040
7.480,0.035,-0.035
7.482,-0.010,-0.035
7.484,-0.115,-0.035
7.486,-0.165,-0.035
7.488,-0.185,-0.035
7.490,-0.150,-0.035
7.492,-0.085,-0.040
7.494,0.015,-0.040
7.496,0.080,-0.040
7.498,0.115,-0.040
7.500,0.060,-0.040
7.502,0.005,-0.035
7.504,-0.095,-0.035
7.506,-0.140,-0.030
7.508,-0.150,-0.030
7.510,-0.100,-0.025
7.512,-0.065,-0.020
7.514,0.060,-0.020
7.516,0.120,-0.020
7.518,0.110,-0.020
7.520,0.075,-0.020
7.522,0.015,-0.020
7.524,-0.075,-0.020
7.526,-0.120,-0.020
7.528,-0.135,-0.015
7.530,-0.095,-0.010
7.532,-0.030,-0.005
7.534,0.090,0.000
7.536,0.110,0.000
7.538,0.125,0.000
7.540,0.080,-0.005
7.542,0.020,-0.010
7.544,-0.090,-0.020
7.546,-0.160,-0.025
7.548,-0.165,-0.035
7.550,-0.110,-0.040
7.552,-0.045,-0.045
7.554,0.030,-0.045
7.556,0.100,-0.040
7.558,0.100,-0.040
7.560,0.040,-0.040
7.562,-0.040,-0.040
7.564,-0.125,-0.040
7.566,-0.165,-0.040
7.568,-0.190,-0.045
7.570,-0.140,-0.045
7.572,-0.070,-0.045
7.574,0.025,-0.045
7.576,0.080,-0.050
7.578,0.080,-0.050
7.580,0.030,-0.050
7.582,-0.040,-0.055
7.584,-0.155,-0.055
7.586,-0.195,-0.060
7.588,-0.190,-0.065
7.590,-0.135,-0.070
7.592,-0.070,-0.070
7.594,0.050,-0.065
7.596,0.065,-0.060
7.598,0.070,-0.055
7.600,0.015,-0.050
7.602,-0.065,-0.045
7.604,-0.155,-0.045
7.606,-0.190,-0.045
7.608,-0.185,-0.050
7.610,-0.130,-0.060
7.612,-0.075,-0.065
7.614,0.035,-0.075
7.616,0.070,-0.080
7.618,0.075,-0.080
7.620,-0.015,-0.080
7.622,-0.100,-0.085
7.624,-0.190,-0.085
7.626,-0.245,-0.090
7.628,-0.230,-0.100
7.630,-0.180,-0.105
7.632,-0.110,-0.105
7.634,-0.015,-0.100
7.636,0.065,-0.075
7.638,0.120,-0.030
7.640,0.135,0.035
7.642,0.140,0.120
7.644,0.135,0.210
7.646,0.190,0.305
7.648,0.295,0.385
7.650,0.430,0.450
7.652,0.560,0.485
7.654,0.640,0.490
7.656,0.605,0.460
7.658,0.470,0.405
7.660,0.320,0.325
7.662,0.205,0.235
7.664,0.060,0.140
7.666,-0.055,0.050
7.668,-0.135,-0.025
7.670,-0.215,-0.085
7.672,-0.185,-0.135
7.674,-0.115,-0.165
7.676,-0.060,-0.180
7.678,-0.055,-0.185
7.680,-0.105,-0.185
7.682,-0.195,-0.175
7.684,-0.260,-0.165
7.686,-0.275,-0.155
7.688,-0.230,-0.140
7.690,-0.155,-0.125
7.692,-0.050,-0.110
7.694,0.050,-0.095
7.696,0.080,-0.085
7.698,0.060,-0.070
7.700,0.025,-0.060
7.702,-0.070,-0.050
7.704,-0.140,-0.040
7.706,-0.170,-0.035
7.708,-0.135,-0.030
7.710,-0.085,-0.025
7.712,0.030,-0.025
7.714,0.090,-0.025
7.716,0.125,-0.030
7.718,0.090,-0.030
7.720,0.035,-0.030
7.722,-0.070,-0.030
7.724,-0.135,-0.025
7.726,-0.150,-0.025
7.728,-0.135,-0.020
7.730,-0.075,-0.020
7.732,0.035,-0.015
7.734,0.095,-0.015
7.736,0.135,-0.020
7.738,0.085,-0.020
7.740,0.035,-0.025
7.742,-0.065,-0.030
7.744,-0.125,-0.030
7.746,-0.145,-0.030
7.748,-0.125,-0.025
7.750,-0.070,-0.020
7.752,0.055,-0.015
7.754,0.105,-0.010
7.756,0.135,-0.005
7.758,0.110,0.000
7.760,0.065,0.000
7.762,-0.050,0.000
7.764,-0.115,0.000
7.766,-0.140,0.000
7.768,-0.100,0.000
7.770,-0.035,0.000
7.772,0.075,0.000
7.774,0.145,0.005
7.776,0.160,0.010
7.778,0.130,0.015
7.780,0.055,0.020
7.782,-0.050,0.025
7.784,-0.070,0.025
7.786,-0.125,0.025
7.788,-0.085,0.020
7.790,-0.030,0.015
7.792,0.090,0.010
7.794,0.140,0.010
7.796,0.175,0.005
7.798,0.145,0.010
7.800,0.085,0.015
7.802,-0.020,0.020
7.804,-0.085,0.030
7.806,-0.090,0.040
7.808,-0.045,0.045
7.810,0.010,0.050
7.812,0.125,0.055
7.814,0.185,0.055
7.816,0.190,0.050
7.818,0.155,0.045
7.820,0.100,0.040
7.822,-0.010,0.040
7.824,-0.070,0.040
7.826,-0.075,0.040
7.828,-0.025,0.045
7.830,0.040,0.055
7.832,0.155,0.060
7.834,0.205,0.065
7.836,0.220,0.075
7.838,0.190,0.075
7.840,0.120,0.080
7.842,0.000,0.080
7.844,-0.030,0.085
7.846,-0.015,0.085
7.848,0.005,0.090
7.850,0.085,0.095
7.852,0.205,0.100
7.854,0.250,0.110
7.856,0.260,0.115
7.858,0.205,0.120
7.860,0.160,0.130
7.862,0.065,0.135
7.864,0.020,0.140
7.866,0.015,0.150
7.868,0.080,0.155
7.870,0.160,0.160
7.872,0.265,0.165
7.874,0.305,0.170
7.876,0.315,0.170
7.878,0.265,0.175
7.880,0.200,0.175
7.882,0.110,0.180
7.884,0.075,0.185
7.886,0.085,0.190
7.888,0.115,0.195
7.890,0.215,0.200
7.892,0.290,0.210
7.894,0.345,0.210
7.896,0.345,0.215
7.898,0.295,0.215
7.900,0.230,0.210
7.902,0.130,0.205
7.904,0.095,0.200
7.906,0.070,0.200
7.908,0.130,0.195
7.910,0.200,0.190
7.912,0.300,0.190
7.914,0.330,0.190
7.916,0.320,0.185
7.918,0.260,0.180
7.920,0.195,0.175
7.922,0.080,0.170
7.924,0.045,0.160
7.926,0.040,0.155
7.928,0.095,0.150
7.930,0.165,0.145
7.932,0.235,0.140
7.934,0.270,0.135
7.936,0.255,0.130
7.938,0.185,0.120
7.940,0.105,0.110
7.942,-0.005,0.100
7.944,-0.040,0.090
7.946,-0.045,0.075
7.948,-0.010,0.065
7.950,0.075,0.055
7.952,0.155,0.050
7.954,0.185,0.045
7.956,0.160,0.040
7.958,0.090,0.035
7.960,-0.010,0.030
7.962,-0.095,0.025
7.964,-0.130,0.015
7.966,-0.115,0.005
7.968,-0.075,-0.005
7.970,0.030,-0.020
7.972,0.100,-0.030
7.974,0.100,-0.040
7.976,0.095,-0.045
7.978,0.040,-0.050
7.980,-0.055,-0.050
7.982,-0.130,-0.045
7.984,-0.150,-0.045
7.986,-0.130,-0.040
7.988,-0.085,-0.035
7.990,0.010,-0.035
7.992,0.075,-0.035
7.994,0.105,-0.035
7.996,0.090,-0.035
7.998,0.030,-0.035
8.000,-0.055,-0.035
8.002,-0.130,-0.035
8.004,-0.155,-0.035
8.006,-0.140,-0.030
8.008,-0.095,-0.030
8.010,0.010,-0.030
8.012,0.080,-0.035
8.014,0.100,-0.035
8.016,0.090,-0.040
8.018,0.035,-0.045
8.020,-0.075,-0.050
8.022,-0.150,-0.050
8.024,-0.165,-0.055
8.026,-0.135,-0.055
8.028,-0.070,-0.050
8.030,0.020,-0.050
8.032,0.085,-0.045
8.034,0.125,-0.045
8.036,0.085,-0.040
8.038,0.030,-0.035
8.040,-0.070,-0.030
8.042,-0.130,-0.030
8.044,-0.155,-0.025
8.046,-0.125,-0.025
8.048,-0.075,-0.025
8.050,0.045,-0.025
8.052,0.110,-0.025
8.054,0.120,-0.030
8.056,0.090,-0.030
8.058,0.050,-0.030
8.060,-0.060,-0.030
8.062,-0.145,-0.030
8.064,-0.150,-0.025
8.066,-0.130,-0.025
8.068,-0.080,-0.025
8.070,0.025,-0.020
8.072,0.100,-0.025
8.074,0.125,-0.025
8.076,0.085,-0.030
8.078,0.035,-0.035
8.080,-0.075,-0.040
8.082,-0.135,-0.045
8.084,-0.150,-0.045
8.086,-0.115,-0.040
8.088,-0.055,-0.035
8.090,0.070,-0.030
8.092,0.095,-0.025
8.094,0.120,-0.015
8.096,0.080,-0.015
8.098,0.040,-0.010
8.100,-0.055,-0.010
8.102,-0.125,-0.010
8.104,-0.140,-0.015
8.106,-0.095,-0.015
8.108,-0.050,-0.020
8.110,0.060,-0.020
8.112,0.120,-0.020
8.114,0.125,-0.020
8.116,0.090,-0.025
8.118,0.035,-0.025
8.120,-0.070,-0.025
8.122,-0.135,-0.025
8.124,-0.140,-0.025
8.126,-0.095,-0.025
8.128,-0.040,-0.025
8.130,0.070,-0.020
8.132,0.120,-0.020
8.134,0.120,-0.025
8.136,0.080,-0.025
8.138,0.020,-0.025
8.140,-0.085,-0.030
8.142,-0.130,-0.035
8.144,-0.140,-0.035
8.146,-0.095,-0.040
8.148,-0.025,-0.040
8.150,0.065,-0.040
8.152,0.120,-0.035
8.154,0.120,-0.035
8.156,0.080,-0.030
8.158,0.025,-0.025
8.160,-0.090,-0.025
8.162,-0.125,-0.020
8.164,-0.140,-0.020
8.166,-0.095,-0.020
8.168,-0.010,-0.025
8.170,0.070,-0.025
8.172,0.120,-0.025
8.174,0.120,-0.025
8.176,0.070,-0.025
8.178,0.010,-0.020
8.180,-0.080,-0.020
8.182,-0.140,-0.020
8.184,-0.145,-0.020
8.186,-0.095,-0.020
8.188,-0.010,-0.020
8.190,0.075,-0.020
8.192,0.120,-0.025
8.194,0.130,-0.025
8.196,0.075,-0.020
8.198,-0.010,-0.020
8.200,-0.090,-0.020
8.202,-0.135,-0.015
8.204,-0.135,-0.015
8.206,-0.080,-0.010
8.208,-0.005,-0.010
8.210,0.080,-0.010
8.212,0.120,-0.015
8.214,0.115,-0.015
8.216,0.095,-0.020
8.218,-0.035,-0.025
8.220,-0.090,-0.030
8.222,-0.145,-0.035
8.224,-0.150,-0.040
8.226,-0.100,-0.040
8.228,0.005,-0.040
8.230,0.095,-0.035
8.232,0.120,-0.035
8.234,0.125,-0.030
8.236,0.060,-0.025
8.238,-0.005,-0.025
8.240,-0.110,-0.025
8.242,-0.145,-0.025
8.244,-0.140,-0.025
8.246,-0.075,-0.025
8.248,0.000,-0.030
8.250,0.095,-0.030
8.252,0.125,-0.025
8.254,0.105,-0.025
8.256,0.075,-0.020
8.258,-0.020,-0.020
8.260,-0.115,-0.015
8.262,-0.145,-0.015
8.264,-0.140,-0.020
8.266,-0.080,-0.020
8.268,0.020,-0.025
8.270,0.095,-0.030
8.272,0.115,-0.035
8.274,0.105,-0.040
8.276,0.050,-0.040
8.278,-0.040,-0.040
8.280,-0.125,-0.040
8.282,-0.145,-0.035
8.284,-0.120,-0.030
8.286,-0.090,-0.025
8.288,0.030,-0.025
8.290,0.090,-0.020
8.292,0.125,-0.015
8.294,0.105,-0.015
8.296,0.075,-0.015
8.298,-0.030,-0.015
8.300,-0.115,-0.020
8.302,-0.140,-0.020
8.304,-0.125,-0.025
8.306,-0.090,-0.030
8.308,0.020,-0.035
8.310,0.085,-0.040
8.312,0.100,-0.045
8.314,0.100,-0.045
8.316,0.045,-0.045
8.318,-0.050,-0.040
8.320,-0.135,-0.040
8.322,-0.145,-0.035
8.324,-0.130,-0.030
8.326,-0.095,-0.030
8.328,0.020,-0.030
8.330,0.080,-0.030
8.332,0.105,-0.035
8.334,0.115,-0.040
8.336,0.045,-0.040
8.338,-0.070,-0.045
8.340,-0.130,-0.045
8.342,-0.165,-0.040
8.344,-0.125,-0.040
8.346,-0.080,-0.035
8.348,0.035,-0.035
8.350,0.090,-0.030
8.352,0.110,-0.030
8.354,0.080,-0.030
8.356,0.040,-0.030
8.358,-0.060,-0.035
8.360,-0.130,-0.035
8.362,-0.160,-0.035
8.364,-0.130,-0.035
8.366,-0.075,-0.035
8.368,0.045,-0.035
8.370,0.105,-0.035
8.372,0.115,-0.035
8.374,0.095,-0.035
8.376,0.030,-0.040
8.378,-0.080,-0.040
8.380,-0.145,-0.045
8.382,-0.160,-0.045
8.384,-0.115,-0.045
8.386,-0.045,-0.040
8.388,0.060,-0.040
8.390,0.115,-0.035
8.392,0.135,-0.030
8.394,0.100,-0.030
8.396,0.050,-0.030
8.398,-0.080,-0.030
8.400,-0.120,-0.030
8.402,-0.140,-0.025
8.404,-0.105,-0.025
8.406,-0.055,-0.020
8.408,0.080,-0.015
8.410,0.120,-0.010
8.412,0.135,-0.010
8.414,0.095,-0.005
8.416,0.045,-0.005
8.418,-0.050,0.000
8.420,-0.110,0.000
8.422,-0.125,-0.005
8.424,-0.085,-0.005
8.426,-0.020,-0.005
8.428,0.095,-0.005
8.430,0.135,-0.010
8.432,0.165,-0.010
8.434,0.110,-0.010
8.436,0.050,-0.010
8.438,-0.065,-0.010
8.440,-0.120,-0.010
8.442,-0.140,-0.010
8.444,-0.080,-0.005
8.446,-0.005,0.000
8.448,0.105,0.005
8.450,0.170,0.010
8.452,0.150,0.010
8.454,0.105,0.015
8.456,0.055,0.015
8.458,-0.050,0.015
8.460,-0.115,0.010
8.462,-0.125,0.005
8.464,-0.085,0.000
8.466,-0.020,-0.005
8.468,0.085,-0.015
8.470,0.120,-0.020
8.472,0.120,-0.025
8.474,0.075,-0.025
8.476,0.025,-0.030
8.478,-0.090,-0.030
8.480,-0.150,-0.035
8.482,-0.145,-0.035
8.484,-0.120,-0.035
8.486,-0.045,-0.040
8.488,0.055,-0.040
8.490,0.105,-0.040
8.492,0.100,-0.040
8.494,0.050,-0.045
8.496,-0.030,-0.045
8.498,-0.110,-0.050
8.500,-0.155,-0.050
8.502,-0.175,-0.050
8.504,-0.115,-0.055
8.506,-0.040,-0.055
8.508,0.050,-0.055
8.510,0.105,-0.050
8.512,0.105,-0.050
8.514,0.045,-0.045
8.516,-0.035,-0.045
8.518,-0.120,-0.045
8.520,-0.160,-0.050
8.522,-0.165,-0.055
8.524,-0.130,-0.065
8.526,-0.035,-0.070
8.528,0.050,-0.075
8.530,0.085,-0.075
8.532,0.105,-0.075
8.534,0.055,-0.070
8.536,-0.040,-0.060
8.538,-0.140,-0.055
8.540,-0.180,-0.050
8.542,-0.185,-0.050
8.544,-0.145,-0.060
8.546,-0.065,-0.070
8.548,0.005,-0.085
8.550,0.045,-0.100
8.552,0.015,-0.100
8.554,0.020,-0.090
8.556,-0.025,-0.055
8.558,-0.050,0.000
8.560,-0.010,0.070
8.562,0.075,0.160
8.564,0.210,0.250
8.566,0.370,0.335
8.568,0.570,0.405
8.570,0.675,0.450
8.572,0.660,0.470
8.574,0.565,0.455
8.576,0.405,0.415
8.578,0.180,0.345
8.580,0.090,0.265
8.582,0.090,0.175
8.584,0.060,0.085
8.586,0.065,0.000
8.588,0.020,-0.075
8.590,-0.055,-0.135
8.592,-0.095,-0.180
8.594,-0.135,-0.210
8.596,-0.225,-0.230
8.598,-0.290,-0.235
8.600,-0.310,-0.230
8.602,-0.305,-0.220
8.604,-0.240,-0.200
8.606,-0.130,-0.185
8.608,-0.025,-0.165
8.610,0.030,-0.145
8.612,0.035,-0.130
8.614,0.000,-0.115
8.616,-0.090,-0.095
8.618,-0.150,-0.085
8.620,-0.175,-0.070
8.622,-0.150,-0.060
8.624,-0.100,-0.050
8.626,0.020,-0.045
8.628,0.075,-0.045
8.630,0.110,-0.045
8.632,0.095,-0.045
8.634,0.045,-0.050
8.636,-0.055,-0.050
8.638,-0.120,-0.050
8.640,-0.150,-0.050
8.642,-0.135,-0.045
8.644,-0.060,-0.035
8.646,0.045,-0.030
8.648,0.115,-0.025
8.650,0.145,-0.020
8.652,0.110,-0.015
8.654,0.045,-0.015
8.656,-0.040,-0.015
8.658,-0.115,-0.015
8.660,-0.140,-0.015
8.662,-0.110,-0.015
8.664,-0.060,-0.010
8.666,0.060,-0.010
8.668,0.130,-0.005
8.670,0.155,-0.005
8.672,0.115,-0.005
8.674,0.070,-0.005
8.676,-0.045,-0.010
8.678,-0.105,-0.015
8.680,-0.120,-0.015
8.682,-0.090,-0.015
8.684,-0.055,-0.015
8.686,0.080,-0.010
8.688,0.130,-0.010
8.690,0.150,-0.005
8.692,0.120,0.000
8.694,0.070,0.000
8.696,-0.025,0.000
8.698,-0.105,0.000
8.700,-0.115,-0.005
8.702,-0.100,-0.005
8.704,-0.020,-0.005
8.706,0.090,-0.005
8.708,0.160,0.000
8.710,0.180,0.005
8.712,0.130,0.010
8.714,0.080,0.010
8.716,-0.030,0.010
8.718,-0.095,0.010
8.720,-0.100,0.010
8.722,-0.050,0.010
8.724,0.000,0.010
8.726,0.110,0.010
8.728,0.195,0.020
8.730,0.195,0.030
8.732,0.165,0.040
8.734,0.100,0.045
8.736,0.005,0.055
8.738,-0.065,0.060
8.740,-0.085,0.060
8.742,-0.025,0.060
8.744,0.030,0.055
8.746,0.155,0.055
8.748,0.220,0.050
8.750,0.220,0.050
8.752,0.180,0.055
8.754,0.125,0.060
8.756,0.020,0.065
8.758,-0.030,0.070
8.760,-0.025,0.075
8.762,0.000,0.080
8.764,0.080,0.080
8.766,0.180,0.080
8.768,0.245,0.080
8.770,0.255,0.080
8.772,0.215,0.085
8.774,0.150,0.090
8.776,0.050,0.095
8.778,0.020,0.100
8.780,0.005,0.110
8.782,0.050,0.120
8.784,0.145,0.130
8.786,0.255,0.135
8.788,0.310,0.145
8.790,0.305,0.150
8.792,0.265,0.155
8.794,0.190,0.160
8.796,0.100,0.160
8.798,0.060,0.165
8.800,0.080,0.165
8.802,0.095,0.165
8.804,0.195,0.165
8.806,0.290,0.165
8.808,0.350,0.165
8.810,0.350,0.165
8.812,0.295,0.170
8.814,0.230,0.175
8.816,0.140,0.180
8.818,0.090,0.185
8.820,0.085,0.190
8.822,0.145,0.190
8.824,0.235,0.195
8.826,0.300,0.195
8.828,0.345,0.195
8.830,0.340,0.195
8.832,0.290,0.190
8.834,0.210,0.185
8.836,0.105,0.185
8.838,0.060,0.180
8.840,0.055,0.180
8.842,0.105,0.175
8.844,0.185,0.175
8.846,0.260,0.170
8.848,0.290,0.160
8.850,0.280,0.150
8.852,0.215,0.140
8.854,0.125,0.125
8.856,0.015,0.110
8.858,-0.025,0.095
8.860,-0.010,0.080
8.862,0.010,0.065
8.864,0.095,0.055
8.866,0.170,0.050
8.868,0.195,0.045
8.870,0.160,0.040
8.872,0.110,0.040
8.874,0.025,0.035
8.876,-0.055,0.035
8.878,-0.110,0.030
8.880,-0.095,0.020
8.882,-0.060,0.015
8.884,0.060,0.005
8.886,0.125,-0.005
8.888,0.150,-0.010
8.890,0.105,-0.015
8.892,0.070,-0.020
8.894,-0.030,-0.020
8.896,-0.120,-0.020
8.898,-0.165,-0.020
8.900,-0.125,-0.015
8.902,-0.070,-0.020
8.904,0.020,-0.020
8.906,0.090,-0.025
8.908,0.115,-0.035
8.910,0.100,-0.040
8.912,0.055,-0.050
8.914,-0.060,-0.050
8.916,-0.140,-0.055
8.918,-0.145,-0.050
8.920,-0.135,-0.045
8.922,-0.110,-0.040
8.924,0.025,-0.035
8.926,0.090,-0.030
8.928,0.120,-0.030
8.930,0.080,-0.030
8.932,0.035,-0.035
8.934,-0.060,-0.040
8.936,-0.135,-0.045
8.938,-0.145,-0.050
8.940,-0.160,-0.055
8.942,-0.065,-0.055
8.944,0.025,-0.050
8.946,0.105,-0.050
8.948,0.120,-0.045
8.950,0.100,-0.040
8.952,0.050,-0.040
8.954,-0.060,-0.040
8.956,-0.135,-0.040
8.958,-0.155,-0.040
8.960,-0.120,-0.040
8.962,-0.060,-0.045
8.964,0.045,-0.040
8.966,0.110,-0.040
8.968,0.125,-0.035
8.970,0.100,-0.030
8.972,0.055,-0.030
8.974,-0.055,-0.025
8.976,-0.125,-0.025
8.978,-0.150,-0.030
8.980,-0.120,-0.030
8.982,-0.060,-0.030
8.984,0.045,-0.030
8.986,0.120,-0.030
8.988,0.135,-0.025
8.990,0.095,-0.020
8.992,0.080,-0.015
8.994,-0.045,-0.005
8.996,-0.110,0.000
8.998,-0.135,0.000
9.000,-0.105,0.000
9.002,-0.055,-0.005
9.004,0.065,-0.010
9.006,0.115,-0.015
9.008,0.135,-0.025
9.010,0.110,-0.030
9.012,0.065,-0.030
9.014,-0.050,-0.030
9.016,-0.115,-0.030
9.018,-0.130,-0.025
9.020,-0.100,-0.015
9.022,-0.035,-0.010
9.024,0.075,-0.010
9.026,0.140,-0.010
9.028,0.145,-0.010
9.030,0.105,-0.010
9.032,0.040,-0.015
9.034,-0.060,-0.015
9.036,-0.120,-0.020
9.038,-0.120,-0.020
9.040,-0.090,-0.020
9.042,-0.050,-0.015
9.044,0.075,-0.015
9.046,0.150,-0.015
9.048,0.135,-0.015
9.050,0.095,-0.015
9.052,0.020,-0.020
9.054,-0.085,-0.020
9.056,-0.125,-0.025
9.058,-0.140,-0.025
9.060,-0.090,-0.025
9.062,-0.035,-0.025
9.064,0.070,-0.025
9.066,0.125,-0.025
9.068,0.130,-0.025
9.070,0.070,-0.025
9.072,0.020,-0.030
9.074,-0.085,-0.030
9.076,-0.140,-0.035
9.078,-0.155,-0.035
9.080,-0.100,-0.040
9.082,-0.020,-0.040
9.084,0.080,-0.040
9.086,0.120,-0.040
9.088,0.120,-0.040
9.090,0.075,-0.040
9.092,0.025,-0.035
9.094,-0.090,-0.035
9.096,-0.155,-0.030
9.098,-0.130,-0.030
9.100,-0.090,-0.025
9.102,-0.030,-0.020
9.104,0.070,-0.020
9.106,0.115,-0.020
9.108,0.115,-0.015
9.110,0.080,-0.020
9.112,0.015,-0.020
9.114,-0.080,-0.025
9.116,-0.145,-0.025
9.118,-0.150,-0.030
9.120,-0.100,-0.035
9.122,-0.005,-0.040
9.124,0.080,-0.040
9.126,0.120,-0.040
9.128,0.110,-0.040
9.130,0.065,-0.035
9.132,-0.005,-0.035
9.134,-0.100,-0.035
9.136,-0.140,-0.035
9.138,-0.135,-0.035
9.140,-0.090,-0.040
9.142,0.000,-0.040
9.144,0.075,-0.040
9.146,0.100,-0.040
9.148,0.105,-0.040
9.150,0.080,-0.035
9.152,-0.025,-0.030
9.154,-0.115,-0.025
9.156,-0.130,-0.020
9.158,-0.130,-0.015
9.160,-0.085,-0.015
9.162,-0.010,-0.015
9.164,0.080,-0.020
9.166,0.115,-0.020
9.168,0.105,-0.025
9.170,0.055,-0.025
9.172,-0.030,-0.030
9.174,-0.115,-0.030
9.176,-0.150,-0.030
9.178,-0.140,-0.030
9.180,-0.080,-0.030
9.182,0.000,-0.030
9.184,0.090,-0.030
9.186,0.130,-0.030
9.188,0.130,-0.030
9.190,0.065,-0.030
9.192,-0.040,-0.030
9.194,-0.130,-0.025
9.196,-0.145,-0.025
9.198,-0.140,-0.025
9.200,-0.080,-0.025
9.202,0.005,-0.025
9.204,0.090,-0.025
9.206,0.110,-0.030
9.208,0.115,-0.030
9.210,0.060,-0.030
9.212,-0.035,-0.030
9.214,-0.105,-0.030
9.216,-0.140,-0.035
9.218,-0.115,-0.035
9.220,-0.085,-0.035
9.222,0.015,-0.040
9.224,0.090,-0.045
9.226,0.110,-0.045
9.228,0.095,-0.050
9.230,0.040,-0.050
9.232,-0.025,-0.045
9.234,-0.125,-0.045
9.236,-0.155,-0.040
9.238,-0.135,-0.035
9.240,-0.085,-0.035
9.242,0.025,-0.035
9.244,0.085,-0.035
9.246,0.120,-0.040
9.248,0.080,-0.040
9.250,0.045,-0.045
9.252,-0.060,-0.045
9.254,-0.120,-0.040
9.256,-0.160,-0.035
9.258,-0.125,-0.030
9.260,-0.075,-0.025
9.262,0.035,-0.025
9.264,0.100,-0.025
9.266,0.105,-0.030
9.268,0.090,-0.035
9.270,0.030,-0.040
9.272,-0.075,-0.040
9.274,-0.125,-0.040
9.276,-0.145,-0.040
9.278,-0.120,-0.035
9.280,-0.070,-0.025
9.282,0.040,-0.020
9.284,0.100,-0.015
9.286,0.115,-0.015
9.288,0.085,-0.020
9.290,0.040,-0.025
9.292,-0.075,-0.035
9.294,-0.140,-0.040
9.296,-0.145,-0.045
9.298,-0.135,-0.050
9.300,-0.075,-0.045
9.302,0.055,-0.040
9.304,0.110,-0.035
9.306,0.125,-0.030
9.308,0.100,-0.030
9.310,0.045,-0.025
9.312,-0.050,-0.025
9.314,-0.110,-0.025
9.316,-0.130,-0.025
9.318,-0.080,-0.020
9.320,-0.045,-0.015
9.322,0.080,-0.005
9.324,0.150,0.005
9.326,0.160,0.010
9.328,0.110,0.015
9.330,0.060,0.015
9.332,-0.045,0.010
9.334,-0.115,0.000
9.336,-0.120,-0.005
9.338,-0.075,-0.010
9.340,-0.015,-0.015
9.342,0.100,-0.015
9.344,0.150,-0.010
9.346,0.170,-0.005
9.348,0.105,0.005
9.350,0.070,0.010
9.352,-0.050,0.015
9.354,-0.120,0.015
9.356,-0.115,0.010
9.358,-0.090,0.000
9.360,-0.040,-0.010
9.362,0.075,-0.020
9.364,0.115,-0.030
9.366,0.120,-0.040
9.368,0.075,-0.040
9.370,0.025,-0.040
9.372,-0.085,-0.040
9.374,-0.145,-0.035
9.376,-0.135,-0.035
9.378,-0.115,-0.030
9.380,-0.030,-0.030
9.382,0.065,-0.035
9.384,0.110,-0.040
9.386,0.105,-0.045
9.388,0.060,-0.050
9.390,0.005,-0.050
9.392,-0.115,-0.055
9.394,-0.160,-0.050
9.396,-0.145,-0.050
9.398,-0.105,-0.045
9.400,-0.050,-0.040
9.402,0.065,-0.035
9.404,0.090,-0.030
9.406,0.095,-0.035
9.408,0.060,-0.035
9.410,-0.010,-0.045
9.412,-0.120,-0.055
9.414,-0.165,-0.060
9.416,-0.160,-0.070
9.418,-0.120,-0.075
9.420,-0.045,-0.080
9.422,0.045,-0.075
9.424,0.095,-0.070
9.426,0.095,-0.065
9.428,0.055,-0.060
9.430,-0.035,-0.060
9.432,-0.140,-0.060
9.434,-0.190,-0.065
9.436,-0.205,-0.075
9.438,-0.155,-0.085
9.440,-0.075,-0.095
9.442,0.015,-0.095
9.444,0.055,-0.080
9.446,0.115,-0.050
9.448,0.105,-0.005
9.450,0.090,0.060
9.452,0.095,0.135
9.454,0.120,0.220
9.456,0.200,0.305
9.458,0.350,0.375
9.460,0.520,0.430
9.462,0.640,0.460
9.464,0.660,0.465
9.466,0.590,0.440
9.468,0.410,0.385
9.470,0.255,0.315
9.472,0.130,0.230
9.474,0.055,0.140
9.476,-0.045,0.050
9.478,-0.095,-0.035
9.480,-0.135,-0.105
9.482,-0.105,-0.160
9.484,-0.080,-0.200
9.486,-0.075,-0.220
9.488,-0.110,-0.230
9.490,-0.200,-0.230
9.492,-0.270,-0.220
9.494,-0.315,-0.205
9.496,-0.285,-0.185
9.498,-0.200,-0.170
9.500,-0.075,-0.150
9.502,0.020,-0.135
9.504,0.060,-0.115
9.506,0.065,-0.100
9.508,0.025,-0.085
9.510,-0.050,-0.070
9.512,-0.145,-0.055
9.514,-0.150,-0.045
9.516,-0.125,-0.035
9.518,-0.080,-0.025
9.520,0.035,-0.020
9.522,0.110,-0.020
9.524,0.120,-0.020
9.526,0.110,-0.020
9.528,0.060,-0.020
9.530,-0.035,-0.020
9.532,-0.090,-0.020
9.534,-0.140,-0.020
9.536,-0.105,-0.020
9.538,-0.060,-0.015
9.540,0.050,-0.010
9.542,0.115,-0.010
9.544,0.145,-0.005
9.546,0.125,-0.005
9.548,0.065,-0.005
9.550,-0.025,0.000
9.552,-0.100,0.000
9.554,-0.120,0.000
9.556,-0.100,0.000
9.558,-0.045,0.000
9.560,0.070,0.000
9.562,0.145,0.000
9.564,0.150,0.000
9.566,0.120,0.000
9.568,0.070,0.000
9.570,-0.030,0.000
9.572,-0.090,-0.005
9.574,-0.120,-0.005
9.576,-0.060,-0.005
9.578,-0.030,-0.005
9.580,0.075,-0.005
9.582,0.145,-0.005
9.584,0.175,-0.005
9.586,0.145,0.000
9.588,0.085,0.000
9.590,-0.020,0.005
9.592,-0.085,0.005
9.594,-0.125,0.010
9.596,-0.085,0.010
9.598,-0.025,0.015
9.600,0.095,0.015
9.602,0.165,0.015
9.604,0.185,0.015
9.606,0.155,0.015
9.608,0.105,0.015
9.610,-0.005,0.015
9.612,-0.065,0.015
9.614,-0.085,0.020
9.616,-0.045,0.020
9.618,0.015,0.025
9.620,0.115,0.030
9.622,0.180,0.030
9.624,0.195,0.030
9.626,0.175,0.030
9.628,0.120,0.035
9.630,0.005,0.035
9.632,-0.040,0.040
9.634,-0.060,0.045
9.636,-0.030,0.050
9.638,0.035,0.055
9.640,0.170,0.060
9.642,0.215,0.065
9.644,0.225,0.070
9.646,0.205,0.075
9.648,0.130,0.080
9.650,0.035,0.080
9.652,-0.015,0.085
9.654,-0.045,0.085
9.656,0.035,0.090
9.658,0.085,0.090
9.660,0.205,0.090
9.662,0.260,0.095
9.664,0.270,0.095
9.666,0.235,0.095
9.668,0.175,0.100
9.670,0.075,0.105
9.672,0.020,0.115
9.674,0.030,0.125
9.676,0.090,0.140
9.678,0.145,0.150
9.680,0.270,0.160
9.682,0.320,0.165
9.684,0.340,0.170
9.686,0.290,0.170
9.688,0.220,0.165
9.690,0.115,0.165
9.692,0.075,0.165
9.694,0.075,0.165
9.696,0.135,0.170
9.698,0.200,0.180
9.700,0.315,0.190
9.702,0.350,0.200
9.704,0.365,0.210
9.706,0.330,0.215
9.708,0.260,0.215
9.710,0.145,0.210
9.712,0.085,0.205
9.714,0.105,0.200
9.716,0.130,0.195
9.718,0.220,0.190
9.720,0.300,0.190
9.722,0.345,0.190
9.724,0.355,0.195
9.726,0.305,0.195
9.728,0.220,0.195
9.730,0.115,0.190
9.732,0.070,0.180
9.734,0.060,0.170
9.736,0.100,0.155
9.738,0.175,0.145
9.740,0.255,0.135
9.742,0.275,0.125
9.744,0.265,0.115
9.746,0.205,0.110
9.748,0.115,0.100
9.750,0.000,0.095
9.752,-0.050,0.085
9.754,-0.045,0.075
9.756,0.015,0.065
9.758,0.085,0.055
9.760,0.150,0.045
9.762,0.185,0.035
9.764,0.175,0.030
9.766,0.120,0.025
9.768,0.030,0.025
9.770,-0.050,0.020
9.772,-0.110,0.020
9.774,-0.100,0.015
9.776,-0.060,0.005
9.778,0.020,0.000
9.780,0.105,-0.010
9.782,0.135,-0.015
9.784,0.135,-0.020
9.786,0.075,-0.025
9.788,0.000,-0.030
9.790,-0.100,-0.035
9.792,-0.125,-0.035
9.794,-0.130,-0.040
9.796,-0.085,-0.045
9.798,0.005,-0.045
9.800,0.095,-0.050
9.802,0.115,-0.050
9.804,0.095,-0.050
9.806,0.055,-0.050
9.808,-0.035,-0.045
9.810,-0.115,-0.040
9.812,-0.140,-0.035
9.814,-0.125,-0.035
9.816,-0.080,-0.035
9.818,0.030,-0.035
9.820,0.090,-0.040
9.822,0.115,-0.050
9.824,0.110,-0.060
9.826,0.070,-0.065
9.828,-0.065,-0.070
9.830,-0.125,-0.070
9.832,-0.140,-0.070
9.834,-0.120,-0.070
9.836,-0.065,-0.065
9.838,0.015,-0.060
9.840,0.080,-0.055
9.842,0.135,-0.050
9.844,0.115,-0.050
9.846,0.060,-0.050
9.848,-0.035,-0.050
9.850,-0.110,-0.050
9.852,-0.125,-0.045
9.854,-0.110,-0.040
9.856,-0.050,-0.035
9.858,0.065,-0.030
9.860,0.120,-0.025
9.862,0.130,-0.020
9.864,0.100,-0.020
9.866,0.070,-0.020
9.868,-0.025,-0.020
9.870,-0.105,-0.020
9.872,-0.130,-0.020
9.874,-0.110,-0.025
9.876,-0.050,-0.025
9.878,0.060,-0.025
9.880,0.145,-0.025
9.882,0.165,-0.025
9.884,0.120,-0.030
9.886,0.070,-0.030
9.888,-0.040,-0.035
9.890,-0.110,-0.040
9.892,-0.135,-0.045
9.894,-0.095,-0.045
9.896,-0.040,-0.040
9.898,0.065,-0.035
9.900,0.145,-0.030
9.902,0.155,-0.020
9.904,0.115,-0.015
9.906,0.090,-0.010
9.908,-0.035,-0.010
9.910,-0.110,-0.010
9.912,-0.115,-0.020
9.914,-0.105,-0.025
9.916,-0.035,-0.035
9.918,0.065,-0.045
9.920,0.120,-0.045
9.922,0.145,-0.050
9.924,0.125,-0.045
9.926,0.050,-0.040
9.928,-0.050,-0.035
9.930,-0.125,-0.030
9.932,-0.120,-0.025
9.934,-0.095,-0.025
9.936,-0.035,-0.025
9.938,0.075,-0.030
9.940,0.140,-0.035
9.942,0.140,-0.035
9.944,0.125,-0.040
9.946,0.020,-0.040
9.948,-0.080,-0.045
9.950,-0.120,-0.045
9.952,-0.140,-0.045
9.954,-0.090,-0.045
9.956,-0.045,-0.050
9.958,0.060,-0.050
9.960,0.120,-0.055
9.962,0.145,-0.055
9.964,0.095,-0.055
9.966,0.045,-0.050
9.968,-0.075,-0.050
9.970,-0.130,-0.045
9.972,-0.145,-0.040
9.974,-0.095,-0.040
9.976,-0.025,-0.040
9.978,0.065,-0.040
9.980,0.110,-0.045
9.982,0.135,-0.050
9.984,0.080,-0.060
9.986,0.025,-0.065
9.988,-0.070,-0.065
9.990,-0.130,-0.065
9.992,-0.140,-0.060
9.994,-0.105,-0.055
9.996,-0.005,-0.050
9.998,0.060,-0.045
