'Elapsed time','ECG I','ECG I filtered'
'seconds','mV','mV'
0.000,-0.135,-0.075
0.002,-0.090,-0.060
0.004,-0.075,-0.045
0.006,-0.085,-0.035
0.008,-0.115,-0.025
0.010,-0.075,-0.015
0.012,-0.060,-0.015
0.014,-0.050,-0.015
0.016,-0.070,-0.015
0.018,-0.075,-0.020
0.020,-0.105,-0.025
0.022,-0.110,-0.030
0.024,-0.095,-0.030
0.026,-0.095,-0.030
0.028,-0.100,-0.025
0.030,-0.055,-0.015
0.032,-0.030,-0.005
0.034,-0.045,0.000
0.036,-0.055,0.005
0.038,-0.020,0.010
0.040,-0.110,0.010
0.042,-0.120,0.005
0.044,-0.045,-0.005
0.046,-0.055,-0.010
0.048,-0.090,-0.015
0.050,-0.065,-0.020
0.052,-0.080,-0.020
0.054,-0.055,-0.020
0.056,-0.045,-0.015
0.058,-0.070,-0.010
0.060,-0.050,-0.005
0.062,-0.070,0.000
0.064,-0.055,0.000
0.066,-0.035,-0.005
0.068,-0.080,-0.005
0.070,-0.070,-0.005
0.072,-0.035,-0.010
0.074,-0.070,-0.005
0.076,-0.065,-0.005
0.078,0.035,-0.005
0.080,-0.045,0.000
0.082,-0.050,0.000
0.084,-0.120,-0.005
0.086,-0.100,-0.005
0.088,-0.115,-0.010
0.090,-0.040,-0.015
0.092,-0.025,-0.020
0.094,-0.065,-0.020
0.096,-0.095,-0.015
0.098,-0.065,-0.010
0.100,-0.050,-0.005
0.102,-0.065,0.000
0.104,-0.085,0.005
0.106,-0.065,0.010
0.108,0.025,0.010
0.110,-0.025,0.005
0.112,-0.065,0.000
0.114,-0.050,0.000
0.116,-0.040,-0.005
0.118,-0.075,-0.005
0.120,-0.120,0.000
0.122,-0.020,0.000
0.124,-0.040,0.000
0.126,-0.085,0.000
0.128,-0.060,0.000
0.130,-0.025,-0.005
0.132,-0.070,-0.010
0.134,-0.035,-0.010
0.136,-0.025,-0.010
0.138,-0.010,-0.010
0.140,-0.050,-0.005
0.142,-0.075,0.005
0.144,-0.025,0.015
0.146,-0.075,0.020
0.148,-0.035,0.025
0.150,-0.020,0.020
0.152,-0.050,0.015
0.154,-0.055,0.005
0.156,-0.025,-0.005
0.158,-0.015,-0.015
0.160,-0.120,-0.020
0.162,-0.045,-0.025
0.164,-0.040,-0.020
0.166,-0.075,-0.015
0.168,-0.055,-0.005
0.170,-0.030,0.005
0.172,-0.005,0.015
0.174,-0.040,0.015
0.176,-0.050,0.015
0.178,-0.035,0.010
0.180,-0.055,0.005
0.182,-0.055,0.000
0.184,0.005,-0.005
0.186,-0.075,-0.010
0.188,-0.055,-0.010
0.190,-0.020,-0.010
0.192,-0.070,-0.005
0.194,-0.040,-0.005
0.196,-0.050,-0.005
0.198,-0.070,-0.005
0.200,-0.115,-0.005
0.202,-0.060,-0.010
0.204,-0.030,-0.010
0.206,-0.065,-0.015
0.208,-0.065,-0.015
0.210,-0.040,-0.010
0.212,-0.030,-0.010
0.214,0.020,-0.005
0.216,0.025,0.000
0.218,-0.035,0.005
0.220,-0.135,0.010
0.222,-0.070,0.010
0.224,-0.075,0.010
0.226,-0.070,0.010
0.228,-0.015,0.005
0.230,-0.015,0.005
0.232,-0.020,0.000
0.234,-0.010,0.000
0.236,-0.040,0.000
0.238,-0.085,0.000
0.240,-0.045,0.000
0.242,-0.045,-0.005
0.244,-0.030,-0.010
0.246,-0.070,-0.015
0.248,-0.075,-0.020
0.250,-0.055,-0.025
0.252,-0.040,-0.030
0.254,-0.085,-0.030
0.256,-0.035,-0.030
0.258,-0.045,-0.025
0.260,-0.055,-0.020
0.262,-0.060,-0.015
0.264,-0.085,-0.010
0.266,-0.115,-0.005
0.268,-0.030,0.000
0.270,0.010,0.000
0.272,-0.030,0.000
0.274,-0.030,0.000
0.276,-0.045,-0.005
0.278,-0.085,-0.005
0.280,-0.055,-0.010
0.282,-0.050,-0.010
0.284,-0.060,-0.010
0.286,-0.035,-0.010
0.288,-0.035,-0.005
0.290,-0.030,0.000
0.292,-0.050,0.005
0.294,0.025,0.010
0.296,0.010,0.010
0.298,-0.030,0.015
0.300,-0.060,0.015
0.302,-0.040,0.020
0.304,-0.055,0.015
0.306,-0.075,0.015
0.308,-0.060,0.015
0.310,0.025,0.015
0.312,0.020,0.010
0.314,-0.010,0.010
0.316,0.000,0.010
0.318,-0.070,0.010
0.320,-0.045,0.010
0.322,-0.065,0.005
0.324,-0.005,0.005
0.326,-0.055,0.005
0.328,-0.015,0.010
0.330,0.040,0.010
0.332,-0.040,0.015
0.334,0.025,0.015
0.336,0.015,0.020
0.338,-0.035,0.025
0.340,0.000,0.030
0.342,0.000,0.035
0.344,0.000,0.040
0.346,-0.035,0.040
0.348,0.015,0.040
0.350,-0.020,0.040
0.352,0.050,0.040
0.354,0.020,0.040
0.356,0.000,0.040
0.358,0.020,0.035
0.360,-0.040,0.035
0.362,0.000,0.025
0.364,-0.025,0.020
0.366,-0.005,0.015
0.368,-0.025,0.005
0.370,-0.010,0.000
0.372,-0.040,-0.005
0.374,-0.075,-0.005
0.376,-0.030,-0.005
0.378,-0.040,-0.005
0.380,-0.025,0.000
0.382,-0.040,0.005
0.384,-0.045,0.005
0.386,-0.030,0.005
0.388,0.010,0.005
0.390,-0.020,0.000
0.392,-0.040,-0.010
0.394,-0.035,-0.015
0.396,-0.020,-0.020
0.398,-0.065,-0.025
0.400,-0.105,-0.030
0.402,-0.095,-0.035
0.404,-0.090,-0.035
0.406,-0.025,-0.035
0.408,-0.055,-0.035
0.410,-0.085,-0.035
0.412,-0.045,-0.035
0.414,-0.030,-0.035
0.416,-0.070,-0.030
0.418,-0.085,-0.030
0.420,-0.070,-0.025
0.422,-0.040,-0.015
0.424,-0.035,-0.005
0.426,0.010,0.000
0.428,0.035,0.010
0.430,0.030,0.020
0.432,-0.065,0.025
0.434,-0.020,0.035
0.436,0.010,0.050
0.438,-0.010,0.065
0.440,0.105,0.100
0.442,0.170,0.145
0.444,0.200,0.215
0.446,0.295,0.295
0.448,0.405,0.395
0.450,0.475,0.505
0.452,0.580,0.610
0.454,0.715,0.700
0.456,0.840,0.765
0.458,0.805,0.795
0.460,0.770,0.780
0.462,0.735,0.730
0.464,0.550,0.640
0.466,0.450,0.525
0.468,0.380,0.400
0.470,0.245,0.280
0.472,0.105,0.170
0.474,0.050,0.090
0.476,-0.015,0.035
0.478,-0.070,0.005
0.480,-0.030,-0.005
0.482,-0.040,0.000
0.484,-0.035,0.005
0.486,-0.040,0.005
0.488,-0.005,-0.005
0.490,-0.050,-0.020
0.492,-0.070,-0.045
0.494,-0.050,-0.065
0.496,-0.095,-0.090
0.498,-0.145,-0.105
0.500,-0.160,-0.115
0.502,-0.155,-0.120
0.504,-0.180,-0.115
0.506,-0.105,-0.110
0.508,-0.090,-0.100
0.510,-0.110,-0.095
0.512,-0.105,-0.090
0.514,-0.110,-0.090
0.516,-0.090,-0.095
0.518,-0.135,-0.095
0.520,-0.175,-0.100
0.522,-0.135,-0.105
0.524,-0.135,-0.105
0.526,-0.085,-0.105
0.528,-0.100,-0.105
0.530,-0.130,-0.105
0.532,-0.120,-0.105
0.534,-0.095,-0.105
0.536,-0.145,-0.105
0.538,-0.105,-0.100
0.540,-0.100,-0.100
0.542,-0.090,-0.100
0.544,-0.120,-0.100
0.546,-0.135,-0.100
0.548,-0.120,-0.100
0.550,-0.135,-0.100
0.552,-0.120,-0.100
0.554,-0.080,-0.095
0.556,-0.100,-0.090
0.558,-0.120,-0.085
0.560,-0.085,-0.080
0.562,-0.100,-0.075
0.564,-0.120,-0.070
0.566,-0.050,-0.070
0.568,-0.095,-0.070
0.570,-0.155,-0.075
0.572,-0.105,-0.080
0.574,-0.040,-0.085
0.576,-0.050,-0.095
0.578,-0.115,-0.100
0.580,-0.125,-0.105
0.582,-0.130,-0.105
0.584,-0.130,-0.105
0.586,-0.090,-0.100
0.588,-0.050,-0.090
0.590,-0.040,-0.080
0.592,-0.100,-0.070
0.594,-0.060,-0.065
0.596,-0.075,-0.055
0.598,-0.090,-0.050
0.600,-0.060,-0.050
0.602,-0.045,-0.050
0.604,-0.040,-0.055
0.606,-0.080,-0.060
0.608,-0.080,-0.070
0.610,-0.070,-0.080
0.612,-0.065,-0.085
0.614,-0.040,-0.090
0.616,-0.110,-0.090
0.618,-0.115,-0.090
0.620,-0.100,-0.080
0.622,-0.075,-0.070
0.624,-0.045,-0.060
0.626,-0.010,-0.045
0.628,-0.025,-0.035
0.630,-0.070,-0.025
0.632,-0.030,-0.020
0.634,0.005,-0.020
0.636,-0.040,-0.015
0.638,-0.005,-0.015
0.640,-0.050,-0.010
0.642,-0.050,-0.005
0.644,0.005,-0.005
0.646,0.025,0.005
0.648,0.015,0.010
0.650,0.005,0.010
0.652,0.010,0.015
0.654,0.050,0.015
0.656,-0.035,0.015
0.658,0.025,0.020
0.660,0.010,0.020
0.662,0.010,0.025
0.664,0.055,0.035
0.666,0.040,0.045
0.668,0.090,0.055
0.670,0.060,0.060
0.672,0.000,0.070
0.674,0.105,0.075
0.676,0.015,0.080
0.678,0.105,0.085
0.680,0.080,0.085
0.682,0.120,0.085
0.684,0.070,0.085
0.686,0.060,0.090
0.688,0.105,0.090
0.690,0.105,0.095
0.692,0.115,0.105
0.694,0.175,0.110
0.696,0.110,0.115
0.698,0.130,0.120
0.700,0.085,0.125
0.702,0.105,0.125
0.704,0.095,0.130
0.706,0.150,0.130
0.708,0.185,0.130
0.710,0.145,0.130
0.712,0.105,0.125
0.714,0.095,0.125
0.716,0.100,0.120
0.718,0.100,0.120
0.720,0.090,0.120
0.722,0.135,0.120
0.724,0.120,0.120
0.726,0.145,0.120
0.728,0.160,0.120
0.730,0.135,0.120
0.732,0.105,0.110
0.734,0.070,0.105
0.736,0.075,0.090
0.738,0.085,0.080
0.740,0.065,0.070
0.742,0.020,0.060
0.744,0.090,0.055
0.746,0.090,0.050
0.748,0.000,0.055
0.750,0.080,0.055
0.752,0.045,0.055
0.754,0.065,0.055
0.756,0.050,0.045
0.758,0.030,0.035
0.760,0.035,0.020
0.762,0.025,0.005
0.764,-0.065,-0.010
0.766,-0.035,-0.020
0.768,-0.055,-0.025
0.770,0.015,-0.025
0.772,0.045,-0.020
0.774,0.030,-0.015
0.776,-0.015,-0.010
0.778,-0.025,-0.010
0.780,-0.050,-0.015
0.782,-0.070,-0.020
0.784,-0.050,-0.035
0.786,0.005,-0.045
0.788,-0.010,-0.055
0.790,-0.060,-0.065
0.792,-0.055,-0.065
0.794,0.020,-0.060
0.796,-0.090,-0.050
0.798,-0.040,-0.040
0.800,-0.010,-0.030
0.802,-0.050,-0.025
0.804,0.000,-0.025
0.806,0.015,-0.030
0.808,-0.070,-0.040
0.810,-0.055,-0.050
0.812,-0.060,-0.055
0.814,-0.030,-0.055
0.816,0.010,-0.055
0.818,-0.020,-0.045
0.820,-0.050,-0.035
0.822,-0.075,-0.025
0.824,-0.090,-0.020
0.826,-0.005,-0.020
0.828,-0.020,-0.025
0.830,0.000,-0.035
0.832,-0.020,-0.045
0.834,-0.090,-0.055
0.836,-0.015,-0.060
0.838,-0.050,-0.060
0.840,-0.040,-0.060
0.842,-0.075,-0.050
0.844,-0.035,-0.045
0.846,-0.010,-0.035
0.848,-0.005,-0.035
0.850,-0.005,-0.035
0.852,-0.060,-0.040
0.854,-0.040,-0.045
0.856,-0.015,-0.050
0.858,-0.070,-0.060
0.860,-0.035,-0.065
0.862,-0.075,-0.065
0.864,0.000,-0.065
0.866,-0.045,-0.060
0.868,-0.050,-0.060
0.870,-0.060,-0.060
0.872,-0.020,-0.060
0.874,-0.095,-0.060
0.876,-0.050,-0.060
0.878,-0.040,-0.055
0.880,-0.025,-0.050
0.882,0.000,-0.045
0.884,0.020,-0.035
0.886,0.035,-0.025
0.888,0.045,-0.020
0.890,0.000,-0.015
0.892,-0.025,-0.015
0.894,-0.010,-0.020
0.896,-0.010,-0.035
0.898,-0.090,-0.050
0.900,-0.090,-0.065
0.902,-0.070,-0.080
0.904,-0.040,-0.085
0.906,-0.045,-0.090
0.908,-0.040,-0.085
0.910,-0.010,-0.075
0.912,-0.040,-0.065
0.914,-0.020,-0.050
0.916,-0.030,-0.040
0.918,-0.035,-0.035
0.920,-0.035,-0.035
0.922,-0.060,-0.035
0.924,0.015,-0.040
0.926,-0.030,-0.045
0.928,-0.015,-0.050
0.930,-0.020,-0.055
0.932,-0.010,-0.060
0.934,-0.060,-0.065
0.936,-0.050,-0.065
0.938,-0.040,-0.070
0.940,-0.065,-0.070
0.942,-0.080,-0.070
0.944,-0.050,-0.065
0.946,-0.020,-0.060
0.948,-0.035,-0.055
0.950,-0.085,-0.045
0.952,0.045,-0.035
0.954,0.020,-0.025
0.956,-0.030,-0.020
0.958,0.005,-0.020
0.960,-0.045,-0.025
0.962,-0.015,-0.035
0.964,-0.025,-0.045
0.966,-0.045,-0.055
0.968,-0.030,-0.065
0.970,-0.040,-0.070
0.972,-0.020,-0.070
0.974,-0.025,-0.070
0.976,-0.055,-0.060
0.978,-0.060,-0.050
0.980,-0.005,-0.040
0.982,-0.015,-0.035
0.984,0.045,-0.035
0.986,-0.025,-0.040
0.988,-0.065,-0.050
0.990,-0.040,-0.060
0.992,-0.025,-0.075
0.994,-0.080,-0.085
0.996,-0.080,-0.090
0.998,-0.075,-0.095
1.000,-0.060,-0.090
1.002,-0.040,-0.085
1.004,0.020,-0.075
1.006,-0.025,-0.060
1.008,-0.065,-0.050
1.010,-0.025,-0.040
1.012,-0.005,-0.035
1.014,-0.005,-0.030
1.016,-0.025,-0.035
1.018,-0.045,-0.040
1.020,-0.115,-0.045
1.022,0.015,-0.055
1.024,-0.005,-0.060
1.026,-0.035,-0.065
1.028,-0.015,-0.070
1.030,-0.065,-0.070
1.032,-0.060,-0.070
1.034,-0.025,-0.065
1.036,-0.035,-0.065
1.038,-0.045,-0.060
1.040,-0.050,-0.055
1.042,-0.060,-0.050
1.044,0.005,-0.045
1.046,0.030,-0.040
1.048,0.015,-0.040
1.050,0.005,-0.045
1.052,-0.040,-0.045
1.054,-0.125,-0.050
1.056,-0.050,-0.055
1.058,-0.035,-0.060
1.060,-0.005,-0.060
1.062,0.000,-0.060
1.064,0.050,-0.060
1.066,-0.015,-0.055
1.068,-0.065,-0.050
1.070,-0.055,-0.045
1.072,0.005,-0.040
1.074,-0.065,-0.040
1.076,-0.015,-0.035
1.078,-0.005,-0.040
1.080,-0.020,-0.040
1.082,0.010,-0.040
1.084,0.025,-0.040
1.086,0.030,-0.040
1.088,0.040,-0.035
1.090,0.035,-0.025
1.092,0.035,-0.015
1.094,0.020,-0.005
1.096,0.040,0.005
1.098,0.015,0.015
1.100,0.000,0.025
1.102,0.045,0.025
1.104,0.055,0.025
1.106,0.060,0.020
1.108,0.045,0.015
1.110,0.025,0.010
1.112,0.045,0.005
1.114,0.025,0.000
1.116,-0.020,0.000
1.118,0.030,0.000
1.120,0.030,0.005
1.122,0.030,0.010
1.124,0.045,0.015
1.126,0.085,0.015
1.128,0.070,0.015
1.130,0.075,0.015
1.132,0.040,0.015
1.134,0.020,0.010
1.136,0.015,0.005
1.138,0.035,0.000
1.140,0.005,-0.010
1.142,-0.005,-0.025
1.144,-0.020,-0.035
1.146,-0.020,-0.045
1.148,0.015,-0.055
1.150,-0.070,-0.060
1.152,-0.050,-0.065
1.154,-0.045,-0.065
1.156,0.015,-0.060
1.158,0.035,-0.055
1.160,-0.040,-0.055
1.162,-0.015,-0.055
1.164,-0.035,-0.055
1.166,-0.010,-0.065
1.168,-0.095,-0.070
1.170,-0.050,-0.080
1.172,-0.020,-0.085
1.174,-0.045,-0.085
1.176,-0.035,-0.085
1.178,0.020,-0.080
1.180,-0.055,-0.075
1.182,-0.045,-0.070
1.184,-0.005,-0.070
1.186,-0.070,-0.070
1.188,-0.050,-0.075
1.190,-0.025,-0.075
1.192,-0.040,-0.075
1.194,-0.090,-0.075
1.196,-0.035,-0.065
1.198,0.050,-0.050
1.200,0.050,-0.030
1.202,0.055,-0.015
1.204,0.035,0.000
1.206,0.010,0.010
1.208,0.015,0.010
1.210,0.000,0.010
1.212,0.005,0.015
1.214,0.065,0.025
1.216,0.145,0.055
1.218,0.225,0.110
1.220,0.260,0.190
1.222,0.340,0.290
1.224,0.420,0.410
1.226,0.535,0.525
1.228,0.655,0.635
1.230,0.780,0.720
1.232,0.905,0.765
1.234,0.950,0.775
1.236,0.830,0.740
1.238,0.695,0.675
1.240,0.555,0.580
1.242,0.485,0.470
1.244,0.340,0.360
1.246,0.235,0.255
1.248,0.135,0.170
1.250,0.085,0.105
1.252,0.090,0.055
1.254,0.050,0.030
1.256,0.045,0.015
1.258,0.065,0.005
1.260,0.085,0.005
1.262,0.075,0.005
1.264,0.030,0.000
1.266,0.015,-0.005
1.268,0.045,-0.015
1.270,0.055,-0.025
1.272,0.000,-0.040
1.274,-0.085,-0.055
1.276,-0.140,-0.070
1.278,-0.030,-0.085
1.280,-0.020,-0.095
1.282,-0.050,-0.100
1.284,-0.110,-0.100
1.286,-0.080,-0.100
1.288,-0.005,-0.095
1.290,-0.045,-0.095
1.292,-0.065,-0.090
1.294,-0.055,-0.085
1.296,-0.105,-0.085
1.298,-0.105,-0.085
1.300,-0.030,-0.085
1.302,0.025,-0.085
1.304,-0.015,-0.080
1.306,-0.050,-0.080
1.308,-0.040,-0.075
1.310,-0.055,-0.075
1.312,-0.060,-0.070
1.314,-0.055,-0.070
1.316,-0.065,-0.070
1.318,-0.085,-0.075
1.320,-0.020,-0.075
1.322,0.045,-0.075
1.324,-0.020,-0.080
1.326,-0.090,-0.080
1.328,-0.020,-0.075
1.330,-0.025,-0.075
1.332,-0.015,-0.070
1.334,-0.010,-0.070
1.336,-0.040,-0.070
1.338,-0.045,-0.075
1.340,-0.025,-0.080
1.342,-0.050,-0.085
1.344,-0.045,-0.090
1.346,-0.020,-0.090
1.348,-0.015,-0.085
1.350,-0.060,-0.080
1.352,-0.100,-0.070
1.354,-0.010,-0.060
1.356,-0.015,-0.055
1.358,-0.005,-0.050
1.360,0.000,-0.050
1.362,0.050,-0.060
1.364,-0.010,-0.070
1.366,-0.090,-0.080
1.368,-0.100,-0.095
1.370,-0.090,-0.100
1.372,-0.045,-0.100
1.374,0.010,-0.095
1.376,-0.055,-0.085
1.378,-0.040,-0.070
1.380,0.030,-0.055
1.382,0.010,-0.045
1.384,0.010,-0.035
1.386,-0.035,-0.030
1.388,-0.015,-0.030
1.390,-0.020,-0.035
1.392,-0.020,-0.040
1.394,0.015,-0.045
1.396,-0.045,-0.050
1.398,-0.050,-0.050
1.400,0.050,-0.050
1.402,0.000,-0.045
1.404,-0.005,-0.045
1.406,-0.005,-0.040
1.408,0.020,-0.035
1.410,0.030,-0.035
1.412,0.055,-0.030
1.414,0.005,-0.025
1.416,0.035,-0.015
1.418,-0.030,-0.005
1.420,0.030,0.005
1.422,0.100,0.015
1.424,0.060,0.020
1.426,-0.020,0.025
1.428,0.090,0.030
1.430,0.100,0.030
1.432,0.065,0.030
1.434,0.080,0.030
1.436,0.055,0.035
1.438,0.045,0.035
1.440,0.080,0.045
1.442,0.130,0.050
1.444,0.140,0.065
1.446,0.140,0.075
1.448,0.140,0.090
1.450,0.150,0.100
1.452,0.125,0.110
1.454,0.110,0.120
1.456,0.185,0.125
1.458,0.155,0.130
1.460,0.190,0.135
1.462,0.205,0.135
1.464,0.185,0.135
1.466,0.165,0.135
1.468,0.185,0.135
1.470,0.145,0.135
1.472,0.155,0.135
1.474,0.185,0.140
1.476,0.200,0.145
1.478,0.120,0.145
1.480,0.195,0.150
1.482,0.195,0.155
1.484,0.250,0.155
1.486,0.195,0.155
1.488,0.205,0.155
1.490,0.140,0.150
1.492,0.140,0.140
1.494,0.205,0.130
1.496,0.195,0.120
1.498,0.130,0.115
1.500,0.130,0.105
1.502,0.145,0.105
1.504,0.140,0.100
1.506,0.120,0.100
1.508,0.090,0.100
1.510,0.105,0.100
1.512,0.170,0.095
1.514,0.155,0.090
1.516,0.130,0.085
1.518,0.090,0.075
1.520,0.085,0.065
1.522,0.060,0.060
1.524,0.030,0.050
1.526,0.120,0.050
1.528,0.075,0.045
1.530,0.050,0.045
1.532,0.085,0.040
1.534,0.095,0.040
1.536,0.040,0.030
1.538,0.090,0.025
1.540,0.015,0.010
1.542,0.025,0.000
1.544,0.025,-0.010
1.546,0.010,-0.020
1.548,0.010,-0.025
1.550,-0.025,-0.030
1.552,-0.045,-0.030
1.554,0.025,-0.030
1.556,0.010,-0.025
1.558,0.005,-0.020
1.560,-0.015,-0.015
1.562,-0.005,-0.015
1.564,0.080,-0.015
1.566,0.070,-0.015
1.568,-0.005,-0.020
1.570,-0.085,-0.025
1.572,-0.020,-0.030
1.574,0.055,-0.040
1.576,0.020,-0.045
1.578,-0.055,-0.050
1.580,-0.025,-0.050
1.582,-0.035,-0.055
1.584,0.010,-0.055
1.586,-0.065,-0.055
1.588,-0.020,-0.055
1.590,0.015,-0.055
1.592,0.020,-0.050
1.594,-0.040,-0.050
1.596,-0.070,-0.050
1.598,-0.045,-0.050
1.600,-0.020,-0.055
1.602,-0.025,-0.055
1.604,-0.005,-0.055
1.606,-0.005,-0.060
1.608,-0.010,-0.060
1.610,-0.020,-0.060
1.612,-0.065,-0.055
1.614,-0.065,-0.050
1.616,0.005,-0.045
1.618,0.030,-0.035
1.620,0.015,-0.030
1.622,0.030,-0.025
1.624,0.020,-0.020
1.626,-0.015,-0.025
1.628,-0.005,-0.030
1.630,-0.035,-0.035
1.632,0.005,-0.045
1.634,-0.070,-0.055
1.636,-0.060,-0.065
1.638,-0.030,-0.070
1.640,-0.045,-0.075
1.642,-0.025,-0.070
1.644,0.010,-0.070
1.646,-0.005,-0.060
1.648,-0.010,-0.055
1.650,-0.070,-0.045
1.652,-0.030,-0.040
1.654,-0.030,-0.040
1.656,0.000,-0.040
1.658,-0.025,-0.040
1.660,-0.035,-0.045
1.662,0.025,-0.055
1.664,-0.045,-0.060
1.666,-0.030,-0.065
1.668,-0.020,-0.075
1.670,-0.045,-0.075
1.672,-0.035,-0.075
1.674,-0.030,-0.070
1.676,-0.025,-0.065
1.678,-0.050,-0.055
1.680,-0.030,-0.045
1.682,0.020,-0.035
1.684,0.000,-0.030
1.686,-0.015,-0.025
1.688,0.020,-0.030
1.690,0.025,-0.035
1.692,-0.035,-0.045
1.694,-0.020,-0.060
1.696,-0.060,-0.070
1.698,-0.050,-0.080
1.700,-0.035,-0.080
1.702,-0.095,-0.080
1.704,-0.025,-0.075
1.706,-0.005,-0.070
1.708,-0.035,-0.060
1.710,-0.025,-0.055
1.712,0.000,-0.050
1.714,-0.005,-0.045
1.716,-0.065,-0.050
1.718,-0.050,-0.055
1.720,-0.035,-0.060
1.722,-0.060,-0.070
1.724,-0.065,-0.075
1.726,-0.005,-0.080
1.728,0.030,-0.080
1.730,-0.080,-0.075
1.732,-0.125,-0.070
1.734,-0.035,-0.065
1.736,-0.065,-0.060
1.738,-0.070,-0.055
1.740,-0.015,-0.050
1.742,-0.025,-0.050
1.744,0.030,-0.050
1.746,-0.020,-0.055
1.748,-0.030,-0.055
1.750,-0.075,-0.055
1.752,-0.085,-0.060
1.754,-0.005,-0.055
1.756,-0.040,-0.050
1.758,-0.030,-0.045
1.760,-0.010,-0.040
1.762,-0.015,-0.035
1.764,0.020,-0.030
1.766,0.015,-0.030
1.768,-0.030,-0.035
1.770,-0.060,-0.040
1.772,-0.030,-0.050
1.774,-0.080,-0.065
1.776,-0.070,-0.075
1.778,-0.040,-0.080
1.780,-0.085,-0.085
1.782,-0.055,-0.085
1.784,0.000,-0.080
1.786,0.005,-0.075
1.788,-0.015,-0.070
1.790,-0.100,-0.060
1.792,-0.085,-0.055
1.794,-0.030,-0.055
1.796,-0.065,-0.050
1.798,0.005,-0.050
1.800,-0.010,-0.050
1.802,-0.060,-0.050
1.804,-0.070,-0.045
1.806,0.030,-0.045
1.808,-0.050,-0.045
1.810,0.000,-0.045
1.812,0.020,-0.045
1.814,-0.040,-0.045
1.816,-0.085,-0.050
1.818,-0.040,-0.050
1.820,-0.010,-0.050
1.822,-0.005,-0.045
1.824,-0.065,-0.045
1.826,-0.015,-0.040
1.828,0.015,-0.040
1.830,0.010,-0.035
1.832,0.005,-0.030
1.834,-0.085,-0.030
1.836,-0.040,-0.025
1.838,0.035,-0.020
1.840,0.065,-0.010
1.842,0.075,0.005
1.844,0.065,0.020
1.846,0.000,0.035
1.848,0.060,0.045
1.850,0.035,0.055
1.852,0.015,0.055
1.854,0.025,0.055
1.856,0.045,0.045
1.858,0.060,0.030
1.860,0.030,0.015
1.862,0.020,0.005
1.864,-0.010,-0.005
1.866,0.015,-0.010
1.868,0.005,-0.005
1.870,-0.040,0.000
1.872,0.015,0.005
1.874,0.050,0.015
1.876,0.065,0.015
1.878,0.030,0.015
1.880,0.000,0.010
1.882,0.010,-0.005
1.884,-0.030,-0.020
1.886,-0.045,-0.035
1.888,-0.015,-0.050
1.890,-0.065,-0.060
1.892,-0.085,-0.065
1.894,-0.050,-0.065
1.896,-0.030,-0.060
1.898,0.015,-0.055
1.900,-0.015,-0.045
1.902,0.005,-0.040
1.904,-0.020,-0.035
1.906,-0.090,-0.035
1.908,-0.085,-0.035
1.910,-0.010,-0.040
1.912,0.045,-0.050
1.914,-0.065,-0.060
1.916,-0.080,-0.065
1.918,-0.025,-0.065
1.920,-0.005,-0.065
1.922,-0.055,-0.060
1.924,-0.035,-0.055
1.926,-0.080,-0.045
1.928,-0.045,-0.040
1.930,-0.060,-0.035
1.932,-0.015,-0.035
1.934,-0.020,-0.035
1.936,0.010,-0.035
1.938,0.030,-0.035
1.940,0.000,-0.035
1.942,-0.060,-0.030
1.944,-0.020,-0.030
1.946,-0.015,-0.020
1.948,0.005,-0.015
1.950,-0.015,-0.010
1.952,-0.055,0.000
1.954,0.010,0.015
1.956,0.040,0.040
1.958,0.155,0.075
1.960,0.215,0.130
1.962,0.240,0.200
1.964,0.255,0.290
1.966,0.460,0.395
1.968,0.465,0.505
1.970,0.560,0.610
1.972,0.735,0.700
1.974,0.840,0.760
1.976,0.940,0.790
1.978,0.870,0.780
1.980,0.750,0.730
1.982,0.605,0.650
1.984,0.495,0.545
1.986,0.430,0.425
1.988,0.265,0.310
1.990,0.130,0.205
1.992,0.015,0.120
1.994,0.030,0.060
1.996,0.030,0.020
1.998,0.035,0.005
2.000,0.055,0.000
2.002,0.075,0.010
2.004,0.000,0.020
2.006,0.015,0.025
2.008,0.015,0.025
2.010,0.015,0.020
2.012,0.005,0.005
2.014,-0.025,-0.010
2.016,-0.045,-0.030
2.018,-0.005,-0.045
2.020,-0.050,-0.055
2.022,-0.070,-0.065
2.024,-0.120,-0.065
2.026,-0.080,-0.065
2.028,-0.080,-0.060
2.030,-0.080,-0.060
2.032,-0.080,-0.065
2.034,-0.050,-0.065
2.036,0.000,-0.075
2.038,-0.050,-0.080
2.040,-0.125,-0.085
2.042,-0.085,-0.085
2.044,-0.090,-0.085
2.046,-0.095,-0.075
2.048,-0.060,-0.060
2.050,0.045,-0.045
2.052,0.030,-0.035
2.054,-0.050,-0.025
2.056,-0.035,-0.020
2.058,-0.095,-0.025
2.060,-0.050,-0.035
2.062,-0.070,-0.045
2.064,-0.075,-0.060
2.066,-0.040,-0.070
2.068,-0.010,-0.070
2.070,-0.040,-0.070
2.072,-0.045,-0.060
2.074,-0.100,-0.055
2.076,-0.035,-0.045
2.078,-0.095,-0.035
2.080,-0.050,-0.030
2.082,-0.045,-0.035
2.084,-0.030,-0.040
2.086,-0.035,-0.045
2.088,-0.055,-0.050
2.090,-0.120,-0.055
2.092,-0.085,-0.055
2.094,-0.080,-0.050
2.096,-0.005,-0.040
2.098,0.005,-0.035
2.100,0.005,-0.025
2.102,0.000,-0.020
2.104,-0.015,-0.020
2.106,-0.055,-0.025
2.108,-0.055,-0.030
2.110,-0.140,-0.040
2.112,-0.060,-0.050
2.114,-0.045,-0.055
2.116,-0.060,-0.060
2.118,-0.040,-0.060
2.120,-0.005,-0.055
2.122,-0.030,-0.045
2.124,-0.035,-0.035
2.126,-0.065,-0.025
2.128,-0.030,-0.015
2.130,-0.040,-0.010
2.132,-0.070,-0.005
2.134,-0.015,-0.005
2.136,0.005,-0.005
2.138,0.020,-0.010
2.140,-0.035,-0.010
2.142,-0.045,-0.015
2.144,-0.030,-0.015
2.146,-0.055,-0.015
2.148,-0.005,-0.010
2.150,0.045,-0.010
2.152,-0.015,-0.005
2.154,0.000,0.005
2.156,0.015,0.010
2.158,-0.010,0.015
2.160,0.035,0.020
2.162,0.055,0.025
2.164,0.015,0.030
2.166,0.010,0.030
2.168,0.015,0.030
2.170,0.015,0.035
2.172,0.040,0.035
2.174,0.070,0.040
2.176,0.055,0.045
2.178,0.045,0.050
2.180,0.015,0.060
2.182,0.055,0.070
2.184,0.095,0.075
2.186,0.055,0.085
2.188,0.090,0.090
2.190,0.105,0.090
2.192,0.100,0.095
2.194,0.060,0.100
2.196,0.095,0.105
2.198,0.115,0.110
2.200,0.120,0.115
2.202,0.120,0.125
2.204,0.110,0.135
2.206,0.085,0.145
2.208,0.145,0.155
2.210,0.145,0.155
2.212,0.095,0.160
2.214,0.150,0.155
2.216,0.150,0.155
2.218,0.190,0.150
2.220,0.160,0.145
2.222,0.110,0.145
2.224,0.120,0.145
2.226,0.115,0.150
2.228,0.110,0.150
2.230,0.105,0.155
2.232,0.195,0.160
2.234,0.145,0.160
2.236,0.125,0.160
2.238,0.115,0.155
2.240,0.145,0.145
2.242,0.125,0.135
2.244,0.140,0.125
2.246,0.070,0.110
2.248,0.080,0.100
2.250,0.065,0.085
2.252,0.040,0.075
2.254,0.040,0.070
2.256,0.065,0.065
2.258,0.095,0.060
2.260,0.075,0.060
2.262,0.075,0.065
2.264,0.015,0.065
2.266,-0.020,0.065
2.268,0.055,0.065
2.270,0.045,0.060
2.272,0.005,0.050
2.274,0.025,0.040
2.276,0.030,0.025
2.278,-0.020,0.010
2.280,-0.060,-0.005
2.282,0.015,-0.015
2.284,-0.030,-0.020
2.286,-0.115,-0.020
2.288,-0.030,-0.020
2.290,-0.025,-0.015
2.292,-0.030,-0.010
2.294,-0.030,-0.010
2.296,0.000,-0.010
2.298,-0.040,-0.015
2.300,-0.030,-0.025
2.302,-0.060,-0.035
2.304,-0.100,-0.040
2.306,-0.070,-0.045
2.308,-0.050,-0.050
2.310,-0.070,-0.050
2.312,-0.080,-0.045
2.314,-0.085,-0.040
2.316,-0.055,-0.035
2.318,-0.035,-0.030
2.320,-0.035,-0.030
2.322,-0.030,-0.030
2.324,-0.055,-0.035
2.326,-0.030,-0.040
2.328,-0.075,-0.045
2.330,-0.100,-0.050
2.332,-0.120,-0.055
2.334,-0.115,-0.060
2.336,-0.100,-0.060
2.338,-0.105,-0.060
2.340,-0.050,-0.060
2.342,-0.055,-0.060
2.344,-0.045,-0.055
2.346,-0.085,-0.055
2.348,-0.035,-0.050
2.350,-0.035,-0.050
2.352,-0.100,-0.050
2.354,-0.160,-0.050
2.356,-0.075,-0.050
2.358,-0.110,-0.055
2.360,-0.090,-0.060
2.362,-0.050,-0.070
2.364,-0.090,-0.070
2.366,-0.130,-0.070
2.368,-0.050,-0.065
2.370,-0.065,-0.060
2.372,-0.065,-0.050
2.374,-0.120,-0.040
2.376,-0.065,-0.030
2.378,-0.060,-0.020
2.380,-0.055,-0.020
2.382,-0.050,-0.025
2.384,-0.060,-0.035
2.386,-0.085,-0.050
2.388,-0.135,-0.060
2.390,-0.090,-0.070
2.392,-0.110,-0.080
2.394,-0.100,-0.080
2.396,-0.060,-0.075
2.398,-0.075,-0.065
2.400,-0.045,-0.055
2.402,-0.085,-0.045
2.404,-0.115,-0.040
2.406,-0.070,-0.040
2.408,-0.075,-0.045
2.410,-0.135,-0.055
2.412,-0.105,-0.060
2.414,-0.045,-0.070
2.416,-0.065,-0.070
2.418,-0.100,-0.070
2.420,-0.055,-0.065
2.422,-0.040,-0.055
2.424,-0.110,-0.045
2.426,-0.120,-0.040
2.428,-0.050,-0.040
2.430,-0.045,-0.050
2.432,-0.130,-0.060
2.434,-0.095,-0.075
2.436,-0.065,-0.085
2.438,-0.135,-0.095
2.440,-0.130,-0.100
2.442,-0.055,-0.090
2.444,-0.075,-0.075
2.446,-0.090,-0.055
2.448,-0.045,-0.035
2.450,-0.075,-0.015
2.452,-0.020,-0.005
2.454,-0.035,-0.005
2.456,-0.065,-0.010
2.458,-0.070,-0.025
2.460,-0.095,-0.045
2.462,-0.085,-0.065
2.464,-0.110,-0.080
2.466,-0.095,-0.090
2.468,-0.145,-0.095
2.470,-0.130,-0.090
2.472,-0.090,-0.085
2.474,-0.045,-0.075
2.476,-0.035,-0.065
2.478,-0.090,-0.060
2.480,-0.090,-0.060
2.482,-0.095,-0.060
2.484,-0.160,-0.060
2.486,-0.100,-0.065
2.488,-0.100,-0.070
2.490,-0.110,-0.075
2.492,-0.075,-0.075
2.494,-0.060,-0.075
2.496,-0.095,-0.065
2.498,-0.095,-0.060
2.500,-0.105,-0.055
2.502,-0.050,-0.045
2.504,-0.095,-0.040
2.506,-0.080,-0.035
2.508,-0.080,-0.035
2.510,-0.095,-0.035
2.512,0.010,-0.040
2.514,-0.075,-0.050
2.516,-0.140,-0.060
2.518,-0.155,-0.070
2.520,-0.105,-0.075
2.522,-0.075,-0.085
2.524,-0.125,-0.090
2.526,-0.080,-0.085
2.528,-0.075,-0.085
2.530,-0.130,-0.075
2.532,-0.090,-0.065
2.534,-0.075,-0.060
2.536,-0.110,-0.050
2.538,-0.075,-0.050
2.540,-0.080,-0.050
2.542,-0.105,-0.050
2.544,-0.100,-0.060
2.546,-0.100,-0.065
2.548,-0.075,-0.075
2.550,-0.110,-0.075
2.552,-0.120,-0.075
2.554,-0.120,-0.075
2.556,-0.115,-0.070
2.558,-0.040,-0.060
2.560,-0.065,-0.050
2.562,-0.095,-0.040
2.564,-0.085,-0.030
2.566,-0.040,-0.025
2.568,-0.020,-0.015
2.570,-0.050,-0.010
2.572,-0.010,0.000
2.574,0.010,0.005
2.576,-0.015,0.015
2.578,-0.050,0.015
2.580,-0.025,0.020
2.582,-0.035,0.015
2.584,-0.035,0.010
2.586,-0.085,0.000
2.588,-0.040,-0.010
2.590,-0.070,-0.020
2.592,-0.035,-0.030
2.594,0.010,-0.030
2.596,-0.050,-0.035
2.598,-0.055,-0.035
2.600,-0.050,-0.030
2.602,-0.055,-0.030
2.604,-0.095,-0.035
2.606,-0.090,-0.045
2.608,-0.100,-0.055
2.610,-0.160,-0.070
2.612,-0.100,-0.085
2.614,-0.135,-0.095
2.616,-0.120,-0.100
2.618,-0.085,-0.100
2.620,-0.090,-0.095
2.622,-0.110,-0.085
2.624,-0.105,-0.075
2.626,-0.085,-0.070
2.628,-0.080,-0.065
2.630,-0.140,-0.070
2.632,-0.175,-0.075
2.634,-0.115,-0.085
2.636,-0.160,-0.100
2.638,-0.120,-0.110
2.640,-0.115,-0.115
2.642,-0.115,-0.115
2.644,-0.105,-0.110
2.646,-0.165,-0.105
2.648,-0.145,-0.090
2.650,-0.160,-0.080
2.652,-0.115,-0.070
2.654,-0.065,-0.065
2.656,-0.105,-0.070
2.658,-0.125,-0.070
2.660,-0.090,-0.075
2.662,-0.105,-0.080
2.664,-0.140,-0.080
2.666,-0.145,-0.080
2.668,-0.075,-0.070
2.670,-0.105,-0.060
2.672,-0.075,-0.045
2.674,-0.085,-0.030
2.676,-0.025,-0.010
2.678,-0.065,0.010
2.680,-0.040,0.040
2.682,0.060,0.075
2.684,0.170,0.130
2.686,0.165,0.205
2.688,0.260,0.290
2.690,0.320,0.390
2.692,0.460,0.500
2.694,0.535,0.600
2.696,0.665,0.680
2.698,0.845,0.730
2.700,0.870,0.745
2.702,0.715,0.715
2.704,0.590,0.645
2.706,0.445,0.545
2.708,0.345,0.425
2.710,0.175,0.300
2.712,0.060,0.185
2.714,0.000,0.095
2.716,-0.025,0.030
2.718,-0.045,-0.010
2.720,-0.045,-0.020
2.722,-0.040,-0.020
2.724,-0.020,-0.005
2.726,0.020,0.000
2.728,-0.015,0.005
2.730,-0.120,-0.005
2.732,-0.065,-0.020
2.734,-0.135,-0.045
2.736,-0.115,-0.065
2.738,-0.120,-0.085
2.740,-0.110,-0.100
2.742,-0.160,-0.105
2.744,-0.190,-0.100
2.746,-0.135,-0.095
2.748,-0.065,-0.090
2.750,-0.140,-0.080
2.752,-0.130,-0.080
2.754,-0.130,-0.085
2.756,-0.105,-0.090
2.758,-0.130,-0.095
2.760,-0.125,-0.105
2.762,-0.185,-0.110
2.764,-0.195,-0.115
2.766,-0.140,-0.115
2.768,-0.155,-0.110
2.770,-0.175,-0.105
2.772,-0.160,-0.100
2.774,-0.155,-0.100
2.776,-0.125,-0.100
2.778,-0.050,-0.095
2.780,-0.105,-0.100
2.782,-0.145,-0.100
2.784,-0.165,-0.100
2.786,-0.165,-0.100
2.788,-0.195,-0.095
2.790,-0.145,-0.095
2.792,-0.095,-0.095
2.794,-0.090,-0.095
2.796,-0.125,-0.095
2.798,-0.125,-0.100
2.800,-0.130,-0.100
2.802,-0.175,-0.100
2.804,-0.145,-0.095
2.806,-0.125,-0.095
2.808,-0.145,-0.090
2.810,-0.125,-0.080
2.812,-0.130,-0.075
2.814,-0.085,-0.070
2.816,-0.035,-0.065
2.818,-0.105,-0.065
2.820,-0.125,-0.065
2.822,-0.135,-0.070
2.824,-0.150,-0.070
2.826,-0.140,-0.075
2.828,-0.150,-0.080
2.830,-0.090,-0.080
2.832,-0.070,-0.080
2.834,-0.095,-0.075
2.836,-0.085,-0.070
2.838,-0.095,-0.065
2.840,-0.090,-0.055
2.842,-0.070,-0.050
2.844,-0.105,-0.045
2.846,-0.095,-0.040
2.848,-0.060,-0.040
2.850,-0.105,-0.040
2.852,-0.110,-0.045
2.854,-0.110,-0.050
2.856,-0.100,-0.050
2.858,-0.095,-0.055
2.860,-0.095,-0.050
2.862,-0.085,-0.045
2.864,-0.055,-0.040
2.866,-0.060,-0.030
2.868,-0.145,-0.020
2.870,-0.035,-0.010
2.872,-0.035,-0.005
2.874,-0.010,0.000
2.876,0.030,0.000
2.878,-0.030,0.000
2.880,-0.080,0.000
2.882,-0.080,0.000
2.884,-0.030,0.005
2.886,-0.010,0.010
2.888,-0.015,0.015
2.890,-0.065,0.020
2.892,-0.050,0.030
2.894,0.030,0.040
2.896,0.065,0.050
2.898,0.050,0.060
2.900,0.040,0.070
2.902,-0.010,0.080
2.904,0.025,0.090
2.906,0.125,0.100
2.908,0.015,0.105
2.910,0.000,0.115
2.912,0.085,0.120
2.914,0.085,0.120
2.916,0.080,0.120
2.918,0.065,0.120
2.920,0.040,0.115
2.922,0.065,0.115
2.924,0.105,0.115
2.926,0.080,0.115
2.928,0.035,0.125
2.930,0.055,0.135
2.932,0.145,0.150
2.934,0.140,0.160
2.936,0.130,0.170
2.938,0.130,0.175
2.940,0.115,0.180
2.942,0.135,0.175
2.944,0.105,0.170
2.946,0.100,0.165
2.948,0.095,0.160
2.950,0.095,0.155
2.952,0.130,0.155
2.954,0.140,0.155
2.956,0.190,0.155
2.958,0.120,0.155
2.960,0.120,0.155
2.962,0.125,0.150
2.964,0.110,0.140
2.966,0.030,0.125
2.968,0.065,0.110
2.970,0.000,0.100
2.972,0.045,0.090
2.974,0.065,0.080
2.976,0.050,0.080
2.978,0.045,0.080
2.980,0.060,0.080
2.982,0.075,0.085
2.984,0.010,0.085
2.986,-0.015,0.085
2.988,-0.040,0.075
2.990,-0.015,0.065
2.992,0.030,0.055
2.994,0.050,0.040
2.996,0.015,0.025
2.998,0.045,0.015
3.000,-0.075,0.005
3.002,-0.085,0.000
3.004,-0.130,0.000
3.006,-0.055,-0.005
3.008,-0.060,-0.005
3.010,-0.025,-0.010
3.012,-0.060,-0.010
3.014,-0.050,-0.015
3.016,-0.065,-0.025
3.018,-0.055,-0.030
3.020,-0.165,-0.035
3.022,-0.075,-0.045
3.024,-0.070,-0.050
3.026,-0.095,-0.055
3.028,-0.155,-0.060
3.030,-0.085,-0.060
3.032,-0.080,-0.060
3.034,-0.070,-0.060
3.036,-0.095,-0.060
3.038,-0.090,-0.050
3.040,-0.130,-0.045
3.042,-0.100,-0.035
3.044,-0.110,-0.030
3.046,-0.055,-0.025
3.048,-0.065,-0.030
3.050,-0.075,-0.040
3.052,-0.135,-0.055
3.054,-0.165,-0.070
3.056,-0.145,-0.090
3.058,-0.120,-0.100
3.060,-0.160,-0.110
3.062,-0.130,-0.110
3.064,-0.120,-0.100
3.066,-0.120,-0.090
3.068,-0.110,-0.075
3.070,-0.045,-0.060
3.072,-0.110,-0.045
3.074,-0.140,-0.040
3.076,-0.115,-0.040
3.078,-0.095,-0.040
3.080,-0.090,-0.045
3.082,-0.095,-0.050
3.084,-0.120,-0.055
3.086,-0.100,-0.055
3.088,-0.115,-0.055
3.090,-0.070,-0.050
3.092,-0.105,-0.050
3.094,-0.080,-0.050
3.096,-0.135,-0.055
3.098,-0.130,-0.055
3.100,-0.115,-0.060
3.102,-0.125,-0.060
3.104,-0.130,-0.060
3.106,-0.085,-0.055
3.108,-0.110,-0.050
3.110,-0.080,-0.045
3.112,-0.125,-0.040
3.114,-0.025,-0.040
3.116,-0.080,-0.045
3.118,-0.110,-0.050
3.120,-0.175,-0.060
3.122,-0.145,-0.070
3.124,-0.130,-0.080
3.126,-0.125,-0.080
3.128,-0.120,-0.080
3.130,-0.115,-0.070
3.132,-0.075,-0.060
3.134,-0.065,-0.045
3.136,-0.075,-0.035
3.138,-0.065,-0.030
3.140,-0.075,-0.030
3.142,-0.080,-0.030
3.144,-0.090,-0.040
3.146,-0.200,-0.050
3.148,-0.165,-0.055
3.150,-0.055,-0.060
3.152,-0.070,-0.060
3.154,-0.090,-0.060
3.156,-0.080,-0.050
3.158,-0.095,-0.045
3.160,-0.115,-0.040
3.162,-0.075,-0.035
3.164,-0.080,-0.030
3.166,-0.110,-0.030
3.168,-0.125,-0.030
3.170,-0.075,-0.035
3.172,-0.095,-0.035
3.174,-0.125,-0.035
3.176,-0.040,-0.035
3.178,-0.060,-0.035
3.180,-0.095,-0.035
3.182,-0.120,-0.035
3.184,-0.095,-0.040
3.186,-0.130,-0.045
3.188,-0.105,-0.050
3.190,-0.065,-0.055
3.192,-0.125,-0.060
3.194,-0.065,-0.060
3.196,-0.100,-0.060
3.198,-0.085,-0.055
3.200,-0.120,-0.055
3.202,-0.145,-0.050
3.204,-0.135,-0.050
3.206,-0.145,-0.055
3.208,-0.130,-0.060
3.210,-0.110,-0.065
3.212,-0.130,-0.070
3.214,-0.105,-0.070
3.216,-0.135,-0.070
3.218,-0.075,-0.065
3.220,-0.090,-0.060
3.222,-0.135,-0.055
3.224,-0.125,-0.050
3.226,-0.085,-0.045
3.228,-0.140,-0.050
3.230,-0.085,-0.055
3.232,-0.040,-0.060
3.234,-0.125,-0.070
3.236,-0.120,-0.075
3.238,-0.140,-0.075
3.240,-0.130,-0.070
3.242,-0.075,-0.060
3.244,-0.080,-0.045
3.246,-0.135,-0.030
3.248,-0.055,-0.010
3.250,-0.055,0.000
3.252,-0.050,0.005
3.254,-0.060,0.000
3.256,-0.070,-0.010
3.258,-0.130,-0.025
3.260,-0.100,-0.040
3.262,-0.060,-0.055
3.264,-0.090,-0.070
3.266,-0.160,-0.075
3.268,-0.125,-0.075
3.270,-0.125,-0.070
3.272,-0.090,-0.055
3.274,-0.065,-0.040
3.276,-0.045,-0.020
3.278,0.000,0.000
3.280,-0.010,0.015
3.282,-0.025,0.025
3.284,-0.030,0.030
3.286,-0.025,0.035
3.288,-0.020,0.030
3.290,-0.075,0.025
3.292,-0.090,0.015
3.294,-0.015,0.005
3.296,-0.040,-0.005
3.298,-0.070,-0.015
3.300,-0.065,-0.020
3.302,-0.080,-0.025
3.304,-0.120,-0.030
3.306,-0.080,-0.035
3.308,-0.035,-0.035
3.310,-0.080,-0.035
3.312,-0.150,-0.040
3.314,-0.160,-0.040
3.316,-0.080,-0.050
3.318,-0.105,-0.055
3.320,-0.085,-0.065
3.322,-0.060,-0.070
3.324,-0.150,-0.075
3.326,-0.180,-0.075
3.328,-0.095,-0.075
3.330,-0.130,-0.070
3.332,-0.135,-0.065
3.334,-0.120,-0.060
3.336,-0.110,-0.055
3.338,-0.110,-0.055
3.340,-0.120,-0.055
3.342,-0.100,-0.060
3.344,-0.125,-0.065
3.346,-0.115,-0.065
3.348,-0.070,-0.070
3.350,-0.130,-0.070
3.352,-0.145,-0.065
3.354,-0.120,-0.055
3.356,-0.080,-0.050
3.358,-0.120,-0.045
3.360,-0.070,-0.040
3.362,-0.090,-0.040
3.364,-0.090,-0.040
3.366,-0.130,-0.045
3.368,-0.150,-0.050
3.370,-0.120,-0.050
3.372,-0.125,-0.050
3.374,-0.095,-0.050
3.376,-0.025,-0.045
3.378,-0.050,-0.035
3.380,-0.080,-0.030
3.382,-0.080,-0.020
3.384,-0.090,-0.010
3.386,-0.070,0.005
3.388,-0.065,0.030
3.390,0.060,0.065
3.392,0.140,0.120
3.394,0.125,0.195
3.396,0.230,0.285
3.398,0.360,0.390
3.400,0.470,0.495
3.402,0.440,0.595
3.404,0.620,0.680
3.406,0.780,0.735
3.408,0.805,0.750
3.410,0.775,0.730
3.412,0.625,0.665
3.414,0.460,0.575
3.416,0.475,0.460
3.418,0.255,0.345
3.420,0.085,0.230
3.422,0.025,0.135
3.424,-0.095,0.060
3.426,-0.110,0.010
3.428,-0.030,-0.015
3.430,-0.040,-0.020
3.432,-0.005,-0.015
3.434,0.000,-0.005
3.436,-0.050,0.005
3.438,-0.055,0.005
3.440,-0.050,0.000
3.442,-0.060,-0.015
3.444,-0.120,-0.035
3.446,-0.150,-0.050
3.448,-0.130,-0.070
3.450,-0.115,-0.080
3.452,-0.150,-0.090
3.454,-0.160,-0.090
3.456,-0.140,-0.090
3.458,-0.125,-0.090
3.460,-0.145,-0.085
3.462,-0.125,-0.085
3.464,-0.105,-0.085
3.466,-0.150,-0.090
3.468,-0.110,-0.095
3.470,-0.195,-0.100
3.472,-0.175,-0.105
3.474,-0.165,-0.110
3.476,-0.155,-0.110
3.478,-0.145,-0.105
3.480,-0.120,-0.100
3.482,-0.130,-0.090
3.484,-0.130,-0.080
3.486,-0.140,-0.075
3.488,-0.070,-0.070
3.490,-0.125,-0.065
3.492,-0.125,-0.065
3.494,-0.140,-0.070
3.496,-0.135,-0.070
3.498,-0.080,-0.075
3.500,-0.140,-0.075
3.502,-0.155,-0.080
3.504,-0.140,-0.080
3.506,-0.160,-0.075
3.508,-0.120,-0.075
3.510,-0.065,-0.075
3.512,-0.125,-0.075
3.514,-0.110,-0.080
3.516,-0.160,-0.080
3.518,-0.165,-0.085
3.520,-0.160,-0.085
3.522,-0.155,-0.080
3.524,-0.145,-0.075
3.526,-0.075,-0.070
3.528,-0.080,-0.060
3.530,-0.110,-0.050
3.532,-0.115,-0.040
3.534,-0.070,-0.030
3.536,-0.075,-0.025
3.538,-0.085,-0.020
3.540,-0.145,-0.025
3.542,-0.085,-0.025
3.544,-0.085,-0.035
3.546,-0.100,-0.040
3.548,-0.090,-0.045
3.550,-0.090,-0.050
3.552,-0.080,-0.055
3.554,-0.120,-0.055
3.556,-0.110,-0.050
3.558,-0.115,-0.040
3.560,-0.085,-0.035
3.562,-0.065,-0.025
3.564,-0.065,-0.015
3.566,-0.075,-0.010
3.568,-0.085,-0.005
3.570,-0.105,-0.005
3.572,-0.050,-0.005
3.574,-0.015,-0.005
3.576,-0.065,-0.010
3.578,-0.065,-0.010
3.580,-0.035,-0.005
3.582,-0.075,0.000
3.584,-0.105,0.005
3.586,-0.050,0.015
3.588,0.035,0.025
3.590,-0.050,0.035
3.592,-0.005,0.040
3.594,0.000,0.045
3.596,-0.015,0.050
3.598,-0.005,0.055
3.600,0.040,0.055
3.602,0.005,0.060
3.604,-0.035,0.060
3.606,0.010,0.065
3.608,0.040,0.065
3.610,-0.010,0.070
3.612,0.030,0.075
3.614,0.055,0.080
3.616,0.045,0.085
3.618,0.070,0.090
3.620,0.010,0.100
3.622,0.060,0.110
3.624,0.070,0.120
3.626,0.060,0.135
3.628,0.105,0.140
3.630,0.095,0.150
3.632,0.070,0.155
3.634,0.105,0.155
3.636,0.115,0.155
3.638,0.135,0.155
3.640,0.085,0.155
3.642,0.075,0.160
3.644,0.080,0.160
3.646,0.135,0.165
3.648,0.150,0.170
3.650,0.165,0.175
3.652,0.165,0.180
3.654,0.125,0.185
3.656,0.110,0.190
3.658,0.080,0.185
3.660,0.125,0.185
3.662,0.130,0.180
3.664,0.075,0.170
3.666,0.130,0.160
3.668,0.155,0.150
3.670,0.095,0.145
3.672,0.055,0.135
3.674,0.085,0.130
3.676,0.080,0.120
3.678,0.050,0.115
3.680,0.115,0.115
3.682,0.000,0.110
3.684,0.040,0.110
3.686,0.060,0.105
3.688,0.050,0.100
3.690,0.035,0.095
3.692,0.020,0.085
3.694,0.070,0.075
3.696,-0.015,0.065
3.698,-0.010,0.050
3.700,-0.045,0.040
3.702,-0.025,0.035
3.704,-0.030,0.030
3.706,0.000,0.025
3.708,-0.040,0.025
3.710,0.005,0.025
3.712,-0.015,0.020
3.714,-0.095,0.010
3.716,-0.035,0.000
3.718,-0.110,-0.015
3.720,-0.095,-0.030
3.722,-0.075,-0.045
3.724,-0.140,-0.055
3.726,-0.110,-0.060
3.728,-0.085,-0.060
3.730,-0.075,-0.055
3.732,-0.060,-0.045
3.734,-0.060,-0.035
3.736,-0.020,-0.025
3.738,-0.080,-0.025
3.740,-0.120,-0.025
3.742,-0.115,-0.035
3.744,-0.185,-0.050
3.746,-0.140,-0.060
3.748,-0.115,-0.075
3.750,-0.100,-0.080
3.752,-0.075,-0.080
3.754,-0.115,-0.075
3.756,-0.115,-0.060
3.758,-0.085,-0.050
3.760,-0.115,-0.040
3.762,-0.150,-0.035
3.764,-0.095,-0.030
3.766,-0.060,-0.035
3.768,-0.130,-0.045
3.770,-0.025,-0.050
3.772,-0.105,-0.055
3.774,-0.075,-0.055
3.776,-0.115,-0.055
3.778,-0.115,-0.045
3.780,-0.090,-0.040
3.782,-0.110,-0.035
3.784,-0.085,-0.030
3.786,-0.075,-0.035
3.788,-0.125,-0.040
3.790,-0.125,-0.050
3.792,-0.115,-0.060
3.794,-0.090,-0.070
3.796,-0.095,-0.075
3.798,-0.105,-0.070
3.800,-0.095,-0.065
3.802,-0.130,-0.055
3.804,-0.100,-0.045
3.806,-0.105,-0.035
3.808,-0.110,-0.035
3.810,-0.100,-0.040
3.812,-0.070,-0.050
3.814,-0.125,-0.065
3.816,-0.120,-0.075
3.818,-0.090,-0.085
3.820,-0.155,-0.090
3.822,-0.170,-0.085
3.824,-0.120,-0.080
3.826,-0.120,-0.065
3.828,-0.050,-0.055
3.830,-0.070,-0.040
3.832,-0.095,-0.035
3.834,-0.140,-0.030
3.836,-0.115,-0.035
3.838,-0.075,-0.035
3.840,-0.080,-0.040
3.842,-0.100,-0.040
3.844,-0.080,-0.045
3.846,-0.035,-0.040
3.848,-0.095,-0.040
3.850,-0.130,-0.040
3.852,-0.090,-0.040
3.854,-0.120,-0.040
3.856,-0.130,-0.050
3.858,-0.100,-0.055
3.860,-0.075,-0.065
3.862,-0.135,-0.070
3.864,-0.095,-0.070
3.866,-0.120,-0.065
3.868,-0.090,-0.055
3.870,-0.050,-0.045
3.872,-0.085,-0.035
3.874,-0.130,-0.025
3.876,-0.090,-0.025
3.878,-0.105,-0.030
3.880,-0.130,-0.040
3.882,-0.135,-0.055
3.884,-0.085,-0.065
3.886,-0.055,-0.075
3.888,-0.120,-0.080
3.890,-0.110,-0.075
3.892,-0.085,-0.065
3.894,-0.100,-0.055
3.896,-0.135,-0.045
3.898,-0.085,-0.035
3.900,-0.095,-0.035
3.902,-0.060,-0.040
3.904,-0.145,-0.050
3.906,-0.135,-0.060
3.908,-0.105,-0.075
3.910,-0.075,-0.080
3.912,-0.130,-0.085
3.914,-0.135,-0.075
3.916,-0.065,-0.065
3.918,-0.125,-0.050
3.920,-0.065,-0.030
3.922,-0.105,-0.020
3.924,-0.105,-0.015
3.926,-0.110,-0.020
3.928,-0.060,-0.025
3.930,-0.090,-0.040
3.932,-0.085,-0.050
3.934,-0.135,-0.065
3.936,-0.090,-0.075
3.938,-0.075,-0.075
3.940,-0.140,-0.075
3.942,-0.175,-0.070
3.944,-0.130,-0.065
3.946,-0.160,-0.060
3.948,-0.080,-0.050
3.950,-0.075,-0.050
3.952,-0.080,-0.050
3.954,-0.120,-0.050
3.956,-0.140,-0.055
3.958,-0.115,-0.060
3.960,-0.105,-0.065
3.962,-0.090,-0.065
3.964,-0.060,-0.065
3.966,-0.085,-0.065
3.968,-0.095,-0.060
3.970,-0.095,-0.050
3.972,-0.070,-0.045
3.974,-0.080,-0.040
3.976,-0.070,-0.035
3.978,-0.080,-0.030
3.980,-0.120,-0.035
3.982,-0.100,-0.035
3.984,-0.065,-0.040
3.986,-0.040,-0.040
3.988,-0.055,-0.045
3.990,-0.135,-0.045
3.992,-0.105,-0.040
3.994,-0.055,-0.030
3.996,-0.070,-0.020
3.998,-0.060,-0.010
4.000,-0.035,0.000
4.002,0.005,0.010
4.004,-0.035,0.020
4.006,-0.005,0.025
4.008,-0.015,0.030
4.010,-0.045,0.030
4.012,0.010,0.030
4.014,-0.020,0.030
4.016,-0.070,0.025
4.018,-0.080,0.025
4.020,-0.050,0.020
4.022,-0.020,0.015
4.024,-0.025,0.005
4.026,-0.035,0.000
4.028,-0.060,-0.005
4.030,-0.070,-0.015
4.032,-0.050,-0.020
4.034,-0.020,-0.025
4.036,-0.060,-0.030
4.038,-0.135,-0.035
4.040,-0.140,-0.040
4.042,-0.100,-0.045
4.044,-0.040,-0.050
4.046,-0.060,-0.055
4.048,-0.100,-0.060
4.050,-0.115,-0.060
4.052,-0.085,-0.060
4.054,-0.130,-0.055
4.056,-0.155,-0.050
4.058,-0.085,-0.045
4.060,-0.130,-0.040
4.062,-0.060,-0.040
4.064,-0.060,-0.040
4.066,-0.065,-0.040
4.068,-0.100,-0.045
4.070,-0.090,-0.050
4.072,-0.135,-0.055
4.074,-0.125,-0.060
4.076,-0.095,-0.065
4.078,-0.100,-0.065
4.080,-0.080,-0.065
4.082,-0.065,-0.065
4.084,-0.115,-0.065
4.086,-0.140,-0.070
4.088,-0.130,-0.070
4.090,-0.120,-0.075
4.092,-0.095,-0.080
4.094,-0.135,-0.075
4.096,-0.130,-0.070
4.098,-0.090,-0.055
4.100,-0.095,-0.035
4.102,-0.105,-0.020
4.104,-0.015,0.000
4.106,-0.020,0.015
4.108,-0.045,0.025
4.110,-0.030,0.030
4.112,0.000,0.040
4.114,-0.010,0.055
4.116,0.085,0.085
4.118,0.130,0.135
4.120,0.145,0.210
4.122,0.265,0.310
4.124,0.430,0.425
4.126,0.520,0.545
4.128,0.565,0.660
4.130,0.720,0.750
4.132,0.910,0.800
4.134,0.855,0.805
4.136,0.755,0.765
4.138,0.620,0.685
4.140,0.440,0.575
4.142,0.420,0.445
4.144,0.265,0.315
4.146,0.045,0.200
4.148,0.015,0.110
4.150,-0.040,0.050
4.152,-0.080,0.015
4.154,0.005,0.000
4.156,0.005,0.005
4.158,0.000,0.015
4.160,-0.020,0.025
4.162,-0.025,0.030
4.164,0.020,0.030
4.166,-0.025,0.015
4.168,-0.110,0.000
4.170,-0.060,-0.020
4.172,-0.080,-0.040
4.174,-0.105,-0.055
4.176,-0.120,-0.070
4.178,-0.155,-0.080
4.180,-0.140,-0.085
4.182,-0.140,-0.085
4.184,-0.085,-0.085
4.186,-0.125,-0.085
4.188,-0.140,-0.080
4.190,-0.100,-0.075
4.192,-0.140,-0.070
4.194,-0.095,-0.065
4.196,-0.100,-0.060
4.198,-0.125,-0.055
4.200,-0.115,-0.060
4.202,-0.105,-0.060
4.204,-0.115,-0.070
4.206,-0.115,-0.080
4.208,-0.115,-0.085
4.210,-0.095,-0.090
4.212,-0.160,-0.095
4.214,-0.175,-0.090
4.216,-0.110,-0.085
4.218,-0.135,-0.075
4.220,-0.145,-0.070
4.222,-0.085,-0.065
4.224,-0.065,-0.065
4.226,-0.105,-0.070
4.228,-0.090,-0.080
4.230,-0.085,-0.095
4.232,-0.205,-0.105
4.234,-0.220,-0.110
4.236,-0.155,-0.110
4.238,-0.120,-0.105
4.240,-0.085,-0.095
4.242,-0.055,-0.075
4.244,-0.040,-0.060
4.246,-0.105,-0.045
4.248,-0.070,-0.035
4.250,-0.050,-0.035
4.252,-0.130,-0.040
4.254,-0.100,-0.045
4.256,-0.065,-0.060
4.258,-0.105,-0.070
4.260,-0.145,-0.075
4.262,-0.090,-0.080
4.264,-0.135,-0.080
4.266,-0.155,-0.070
4.268,-0.085,-0.060
4.270,-0.095,-0.050
4.272,-0.080,-0.040
4.274,-0.045,-0.035
4.276,-0.065,-0.035
4.278,-0.035,-0.035
4.280,-0.090,-0.040
4.282,-0.115,-0.045
4.284,-0.095,-0.050
4.286,-0.085,-0.055
4.288,-0.105,-0.055
4.290,-0.095,-0.055
4.292,-0.065,-0.050
4.294,-0.040,-0.040
4.296,-0.045,-0.030
4.298,-0.030,-0.020
4.300,-0.045,-0.010
4.302,-0.055,-0.005
4.304,-0.030,0.000
4.306,-0.010,0.005
4.308,-0.025,0.005
4.310,-0.010,0.005
4.312,-0.060,0.000
4.314,-0.040,0.000
4.316,-0.030,0.005
4.318,-0.060,0.010
4.320,0.005,0.020
4.322,0.055,0.030
4.324,0.000,0.045
4.326,0.020,0.055
4.328,-0.020,0.065
4.330,0.070,0.075
4.332,0.030,0.080
4.334,0.040,0.080
4.336,0.050,0.080
4.338,0.005,0.080
4.340,0.010,0.080
4.342,0.085,0.080
4.344,0.115,0.085
4.346,0.040,0.090
4.348,0.085,0.100
4.350,0.115,0.110
4.352,0.080,0.120
4.354,0.070,0.130
4.356,0.080,0.140
4.358,0.090,0.145
4.360,0.110,0.150
4.362,0.160,0.155
4.364,0.145,0.155
4.366,0.155,0.160
4.368,0.185,0.165
4.370,0.115,0.170
4.372,0.085,0.175
4.374,0.100,0.180
4.376,0.165,0.185
4.378,0.140,0.190
4.380,0.095,0.190
4.382,0.205,0.185
4.384,0.170,0.180
4.386,0.135,0.175
4.388,0.160,0.165
4.390,0.155,0.160
4.392,0.075,0.150
4.394,0.105,0.145
4.396,0.110,0.135
4.398,0.080,0.135
4.400,0.065,0.130
4.402,0.105,0.125
4.404,0.110,0.120
4.406,0.100,0.115
4.408,0.065,0.110
4.410,0.055,0.100
4.412,0.035,0.095
4.414,0.065,0.085
4.416,0.030,0.080
4.418,0.000,0.075
4.420,0.030,0.070
4.422,0.020,0.065
4.424,0.010,0.060
4.426,0.050,0.055
4.428,0.055,0.045
4.430,0.010,0.035
4.432,-0.045,0.020
4.434,-0.045,0.010
4.436,-0.035,0.000
4.438,-0.030,-0.010
4.440,-0.040,-0.020
4.442,0.005,-0.020
4.444,-0.090,-0.020
4.446,-0.090,-0.020
4.448,-0.025,-0.020
4.450,-0.050,-0.025
4.452,-0.095,-0.025
4.454,-0.080,-0.030
4.456,-0.040,-0.035
4.458,-0.075,-0.040
4.460,-0.050,-0.040
4.462,-0.045,-0.045
4.464,-0.065,-0.045
4.466,-0.105,-0.045
4.468,-0.065,-0.045
4.470,-0.165,-0.045
4.472,-0.075,-0.050
4.474,-0.100,-0.055
4.476,-0.115,-0.065
4.478,-0.080,-0.070
4.480,-0.045,-0.080
4.482,-0.120,-0.085
4.484,-0.140,-0.085
4.486,-0.140,-0.085
4.488,-0.125,-0.075
4.490,-0.060,-0.065
4.492,-0.080,-0.055
4.494,-0.085,-0.045
4.496,-0.100,-0.040
4.498,-0.135,-0.045
4.500,-0.115,-0.055
4.502,-0.095,-0.065
4.504,-0.100,-0.080
4.506,-0.065,-0.090
4.508,-0.135,-0.100
4.510,-0.130,-0.100
4.512,-0.125,-0.100
4.514,-0.125,-0.090
4.516,-0.130,-0.085
4.518,-0.095,-0.075
4.520,-0.070,-0.065
4.522,-0.105,-0.060
4.524,-0.090,-0.060
4.526,-0.095,-0.060
4.528,-0.065,-0.065
4.530,-0.140,-0.070
4.532,-0.105,-0.075
4.534,-0.090,-0.075
4.536,-0.105,-0.075
4.538,-0.135,-0.070
4.540,-0.090,-0.070
4.542,-0.065,-0.070
4.544,-0.085,-0.070
4.546,-0.140,-0.070
4.548,-0.110,-0.075
4.550,-0.145,-0.080
4.552,-0.125,-0.085
4.554,-0.100,-0.090
4.556,-0.095,-0.090
4.558,-0.140,-0.090
4.560,-0.105,-0.085
4.562,-0.105,-0.075
4.564,-0.080,-0.070
4.566,-0.055,-0.065
4.568,-0.060,-0.060
4.570,-0.120,-0.055
4.572,-0.170,-0.055
4.574,-0.090,-0.055
4.576,-0.090,-0.060
4.578,-0.130,-0.065
4.580,-0.105,-0.070
4.582,-0.095,-0.070
4.584,-0.055,-0.070
4.586,-0.095,-0.070
4.588,-0.100,-0.065
4.590,-0.050,-0.055
4.592,-0.045,-0.050
4.594,-0.085,-0.040
4.596,-0.065,-0.035
4.598,-0.115,-0.035
4.600,-0.085,-0.040
4.602,-0.095,-0.045
4.604,-0.115,-0.055
4.606,-0.065,-0.065
4.608,-0.095,-0.075
4.610,-0.090,-0.080
4.612,-0.075,-0.080
4.614,-0.090,-0.075
4.616,-0.165,-0.065
4.618,-0.110,-0.050
4.620,-0.035,-0.040
4.622,-0.090,-0.030
4.624,-0.080,-0.030
4.626,-0.070,-0.030
4.628,-0.060,-0.040
4.630,-0.120,-0.045
4.632,-0.090,-0.055
4.634,-0.090,-0.065
4.636,-0.080,-0.070
4.638,-0.075,-0.075
4.640,-0.090,-0.075
4.642,-0.120,-0.070
4.644,-0.160,-0.070
4.646,-0.105,-0.075
4.648,-0.085,-0.075
4.650,-0.145,-0.080
4.652,-0.125,-0.085
4.654,-0.120,-0.090
4.656,-0.110,-0.090
4.658,-0.100,-0.085
4.660,-0.090,-0.080
4.662,-0.035,-0.075
4.664,-0.110,-0.070
4.666,-0.100,-0.065
4.668,-0.090,-0.065
4.670,-0.065,-0.065
4.672,-0.095,-0.070
4.674,-0.170,-0.075
4.676,-0.135,-0.080
4.678,-0.075,-0.080
4.680,-0.080,-0.075
4.682,-0.130,-0.070
4.684,-0.075,-0.065
4.686,-0.105,-0.055
4.688,-0.075,-0.050
4.690,-0.085,-0.045
4.692,-0.055,-0.045
4.694,-0.070,-0.045
4.696,-0.090,-0.050
4.698,-0.150,-0.050
4.700,-0.105,-0.050
4.702,-0.050,-0.045
4.704,-0.055,-0.045
4.706,-0.025,-0.040
4.708,-0.040,-0.035
4.710,-0.075,-0.035
4.712,-0.090,-0.040
4.714,-0.070,-0.045
4.716,-0.120,-0.050
4.718,-0.090,-0.055
4.720,-0.085,-0.060
4.722,-0.075,-0.055
4.724,-0.100,-0.045
4.726,-0.030,-0.035
4.728,-0.005,-0.015
4.730,-0.020,0.000
4.732,-0.010,0.020
4.734,0.005,0.030
4.736,0.000,0.035
4.738,-0.030,0.035
4.740,-0.025,0.030
4.742,0.040,0.025
4.744,0.030,0.010
4.746,-0.040,0.000
4.748,-0.080,-0.010
4.750,-0.060,-0.020
4.752,-0.080,-0.025
4.754,-0.085,-0.030
4.756,-0.080,-0.035
4.758,-0.095,-0.040
4.760,-0.105,-0.040
4.762,-0.065,-0.040
4.764,-0.065,-0.040
4.766,-0.035,-0.040
4.768,-0.055,-0.040
4.770,-0.030,-0.045
4.772,-0.070,-0.045
4.774,-0.115,-0.050
4.776,-0.170,-0.055
4.778,-0.130,-0.065
4.780,-0.080,-0.070
4.782,-0.100,-0.080
4.784,-0.105,-0.085
4.786,-0.100,-0.085
4.788,-0.115,-0.090
4.790,-0.115,-0.085
4.792,-0.120,-0.085
4.794,-0.105,-0.080
4.796,-0.135,-0.075
4.798,-0.085,-0.070
4.800,-0.030,-0.070
4.802,-0.115,-0.070
4.804,-0.075,-0.070
4.806,-0.030,-0.075
4.808,-0.170,-0.075
4.810,-0.125,-0.080
4.812,-0.105,-0.085
4.814,-0.080,-0.090
4.816,-0.135,-0.090
4.818,-0.150,-0.095
4.820,-0.115,-0.090
4.822,-0.110,-0.085
4.824,-0.090,-0.075
4.826,-0.025,-0.065
4.828,-0.010,-0.050
4.830,-0.060,-0.035
4.832,-0.060,-0.025
4.834,-0.070,-0.015
4.836,-0.105,-0.005
4.838,-0.075,0.005
4.840,0.015,0.025
4.842,0.080,0.065
4.844,0.160,0.120
4.846,0.260,0.205
4.848,0.300,0.310
4.850,0.365,0.430
4.852,0.490,0.555
4.854,0.590,0.670
4.856,0.755,0.765
4.858,0.925,0.815
4.860,0.930,0.820
4.862,0.795,0.770
4.864,0.670,0.680
4.866,0.455,0.560
4.868,0.335,0.425
4.870,0.195,0.290
4.872,0.050,0.170
4.874,0.020,0.080
4.876,-0.025,0.025
4.878,-0.015,0.000
4.880,-0.015,-0.005
4.882,0.010,0.005
4.884,-0.015,0.020
4.886,-0.050,0.030
4.888,0.015,0.030
4.890,0.005,0.020
4.892,-0.045,0.005
4.894,-0.050,-0.020
4.896,-0.115,-0.045
4.898,-0.075,-0.070
4.900,-0.095,-0.085
4.902,-0.140,-0.100
4.904,-0.160,-0.110
4.906,-0.135,-0.115
4.908,-0.150,-0.115
4.910,-0.155,-0.115
4.912,-0.150,-0.110
4.914,-0.095,-0.110
4.916,-0.085,-0.100
4.918,-0.110,-0.095
4.920,-0.080,-0.085
4.922,-0.095,-0.080
4.924,-0.090,-0.080
4.926,-0.115,-0.080
4.928,-0.150,-0.085
4.930,-0.135,-0.095
4.932,-0.170,-0.100
4.934,-0.145,-0.110
4.936,-0.110,-0.110
4.938,-0.090,-0.110
4.940,-0.090,-0.100
4.942,-0.065,-0.090
4.944,-0.100,-0.075
4.946,-0.095,-0.065
4.948,-0.150,-0.055
4.950,-0.105,-0.055
4.952,-0.110,-0.060
4.954,-0.110,-0.070
4.956,-0.065,-0.080
4.958,-0.115,-0.090
4.960,-0.095,-0.095
4.962,-0.085,-0.095
4.964,-0.100,-0.095
4.966,-0.095,-0.090
4.968,-0.145,-0.085
4.970,-0.145,-0.080
4.972,-0.095,-0.080
4.974,-0.135,-0.085
4.976,-0.170,-0.095
4.978,-0.120,-0.105
4.980,-0.060,-0.110
4.982,-0.030,-0.110
4.984,-0.145,-0.105
4.986,-0.165,-0.090
4.988,-0.095,-0.070
4.990,-0.040,-0.050
4.992,-0.075,-0.035
4.994,-0.090,-0.025
4.996,-0.100,-0.020
4.998,-0.050,-0.025
5.000,-0.060,-0.035
5.002,-0.065,-0.050
5.004,-0.055,-0.065
5.006,-0.055,-0.075
5.008,-0.140,-0.075
5.010,-0.050,-0.070
5.012,-0.075,-0.055
5.014,-0.075,-0.040
5.016,-0.040,-0.020
5.018,-0.035,-0.005
5.020,-0.045,0.005
5.022,-0.060,0.005
5.024,-0.010,0.005
5.026,-0.025,0.000
5.028,-0.035,-0.005
5.030,-0.050,-0.010
5.032,-0.055,-0.010
5.034,-0.045,-0.010
5.036,-0.025,-0.005
5.038,0.015,0.005
5.040,0.000,0.010
5.042,0.020,0.015
5.044,0.000,0.015
5.046,-0.040,0.015
5.048,-0.010,0.015
5.050,0.010,0.015
5.052,-0.050,0.015
5.054,-0.110,0.020
5.056,-0.005,0.030
5.058,0.095,0.045
5.060,0.090,0.060
5.062,0.050,0.080
5.064,0.105,0.095
5.066,0.055,0.105
5.068,0.060,0.110
5.070,0.065,0.115
5.072,0.085,0.110
5.074,0.070,0.105
5.076,0.055,0.100
5.078,0.095,0.100
5.080,0.055,0.100
5.082,0.125,0.105
5.084,0.105,0.115
5.086,0.065,0.125
5.088,0.090,0.135
5.090,0.135,0.150
5.092,0.115,0.155
5.094,0.165,0.165
5.096,0.155,0.175
5.098,0.175,0.180
5.100,0.165,0.185
5.102,0.175,0.190
5.104,0.140,0.190
5.106,0.170,0.185
5.108,0.160,0.180
5.110,0.090,0.170
5.112,0.155,0.155
5.114,0.090,0.145
5.116,0.075,0.135
5.118,0.120,0.130
5.120,0.120,0.130
5.122,0.115,0.130
5.124,0.135,0.140
5.126,0.165,0.145
5.128,0.140,0.150
5.130,0.120,0.150
5.132,0.095,0.145
5.134,0.035,0.130
5.136,0.010,0.110
5.138,0.045,0.090
5.140,0.075,0.070
5.142,0.080,0.050
5.144,0.010,0.040
5.146,-0.020,0.035
5.148,0.000,0.030
5.150,0.035,0.035
5.152,0.035,0.035
5.154,0.000,0.035
5.156,0.020,0.035
5.158,0.030,0.030
5.160,0.010,0.020
5.162,-0.040,0.010
5.164,-0.045,-0.005
5.166,-0.050,-0.010
5.168,-0.080,-0.020
5.170,-0.035,-0.025
5.172,-0.040,-0.025
5.174,-0.080,-0.025
5.176,-0.085,-0.030
5.178,-0.060,-0.035
5.180,-0.030,-0.035
5.182,-0.045,-0.040
5.184,-0.010,-0.045
5.186,-0.070,-0.050
5.188,-0.070,-0.050
5.190,-0.140,-0.050
5.192,-0.090,-0.050
5.194,-0.120,-0.050
5.196,-0.040,-0.045
5.198,-0.025,-0.050
5.200,-0.080,-0.050
5.202,-0.070,-0.055
5.204,-0.090,-0.060
5.206,-0.120,-0.065
5.208,-0.095,-0.070
5.210,-0.070,-0.070
5.212,-0.060,-0.075
5.214,-0.105,-0.080
5.216,-0.095,-0.080
5.218,-0.090,-0.085
5.220,-0.115,-0.090
5.222,-0.105,-0.090
5.224,-0.105,-0.090
5.226,-0.095,-0.095
5.228,-0.070,-0.090
5.230,-0.125,-0.090
5.232,-0.120,-0.085
5.234,-0.095,-0.080
5.236,-0.075,-0.075
5.238,-0.080,-0.065
5.240,-0.070,-0.060
5.242,-0.085,-0.055
5.244,-0.110,-0.050
5.246,-0.065,-0.050
5.248,-0.060,-0.045
5.250,-0.095,-0.050
5.252,-0.135,-0.050
5.254,-0.090,-0.060
5.256,-0.080,-0.065
5.258,-0.075,-0.075
5.260,-0.100,-0.085
5.262,-0.100,-0.090
5.264,-0.090,-0.095
5.266,-0.155,-0.100
5.268,-0.125,-0.095
5.270,-0.100,-0.090
5.272,-0.080,-0.080
5.274,-0.050,-0.070
5.276,-0.060,-0.060
5.278,-0.025,-0.055
5.280,-0.100,-0.050
5.282,-0.110,-0.055
5.284,-0.105,-0.060
5.286,-0.060,-0.070
5.288,-0.070,-0.075
5.290,-0.090,-0.080
5.292,-0.140,-0.080
5.294,-0.155,-0.075
5.296,-0.060,-0.065
5.298,-0.115,-0.055
5.300,-0.075,-0.045
5.302,-0.070,-0.035
5.304,0.000,-0.035
5.306,-0.030,-0.040
5.308,0.005,-0.045
5.310,-0.095,-0.060
5.312,-0.115,-0.075
5.314,-0.125,-0.085
5.316,-0.115,-0.095
5.318,-0.085,-0.095
5.320,-0.140,-0.095
5.322,-0.085,-0.085
5.324,-0.055,-0.075
5.326,-0.065,-0.060
5.328,-0.115,-0.050
5.330,-0.040,-0.040
5.332,-0.080,-0.030
5.334,-0.070,-0.030
5.336,-0.065,-0.030
5.338,-0.035,-0.035
5.340,-0.040,-0.040
5.342,-0.015,-0.045
5.344,-0.095,-0.055
5.346,-0.055,-0.065
5.348,-0.045,-0.070
5.350,-0.140,-0.075
5.352,-0.125,-0.080
5.354,-0.080,-0.080
5.356,-0.105,-0.080
5.358,-0.115,-0.075
5.360,-0.095,-0.070
5.362,-0.055,-0.060
5.364,-0.050,-0.055
5.366,-0.060,-0.050
5.368,-0.050,-0.045
5.370,-0.095,-0.040
5.372,-0.115,-0.040
5.374,-0.035,-0.045
5.376,-0.085,-0.045
5.378,-0.080,-0.050
5.380,-0.075,-0.055
5.382,-0.095,-0.055
5.384,-0.145,-0.060
5.386,-0.055,-0.060
5.388,-0.015,-0.060
5.390,-0.070,-0.060
5.392,-0.095,-0.060
5.394,-0.075,-0.060
5.396,-0.070,-0.060
5.398,-0.075,-0.060
5.400,-0.075,-0.060
5.402,-0.090,-0.060
5.404,-0.070,-0.060
5.406,-0.090,-0.055
5.408,-0.110,-0.055
5.410,-0.115,-0.055
5.412,-0.050,-0.050
5.414,-0.035,-0.050
5.416,0.010,-0.045
5.418,-0.030,-0.045
5.420,-0.125,-0.040
5.422,-0.045,-0.035
5.424,-0.040,-0.030
5.426,-0.030,-0.030
5.428,-0.035,-0.025
5.430,-0.075,-0.025
5.432,-0.035,-0.030
5.434,-0.010,-0.035
5.436,-0.080,-0.045
5.438,-0.110,-0.055
5.440,-0.080,-0.060
5.442,-0.045,-0.065
5.444,-0.040,-0.065
5.446,-0.015,-0.060
5.448,-0.060,-0.045
5.450,-0.070,-0.030
5.452,-0.065,-0.015
5.454,-0.005,0.000
5.456,-0.020,0.015
5.458,0.080,0.030
5.460,0.050,0.035
5.462,-0.020,0.040
5.464,-0.035,0.040
5.466,0.010,0.035
5.468,0.025,0.035
5.470,0.025,0.030
5.472,-0.025,0.025
5.474,0.025,0.020
5.476,-0.005,0.015
5.478,-0.030,0.005
5.480,-0.040,-0.005
5.482,-0.010,-0.015
5.484,-0.055,-0.030
5.486,-0.040,-0.040
5.488,-0.020,-0.055
5.490,-0.120,-0.060
5.492,-0.060,-0.065
5.494,-0.085,-0.065
5.496,-0.065,-0.060
5.498,-0.095,-0.055
5.500,-0.045,-0.045
5.502,-0.075,-0.040
5.504,-0.030,-0.035
5.506,-0.030,-0.030
5.508,-0.065,-0.030
5.510,-0.060,-0.030
5.512,-0.070,-0.030
5.514,-0.045,-0.035
5.516,-0.075,-0.040
5.518,-0.095,-0.045
5.520,-0.030,-0.050
5.522,-0.040,-0.055
5.524,-0.060,-0.055
5.526,-0.060,-0.060
5.528,-0.090,-0.060
5.530,-0.085,-0.060
5.532,-0.090,-0.055
5.534,-0.095,-0.050
5.536,-0.110,-0.045
5.538,-0.035,-0.045
5.540,-0.020,-0.045
5.542,-0.015,-0.050
5.544,-0.065,-0.060
5.546,-0.115,-0.065
5.548,-0.100,-0.070
5.550,-0.085,-0.075
5.552,-0.120,-0.075
5.554,-0.080,-0.065
5.556,-0.020,-0.060
5.558,-0.025,-0.045
5.560,-0.060,-0.035
5.562,-0.035,-0.020
5.564,-0.025,-0.005
5.566,-0.005,0.010
5.568,0.025,0.040
5.570,0.070,0.085
5.572,0.200,0.145
5.574,0.245,0.225
5.576,0.355,0.325
5.578,0.435,0.435
5.580,0.515,0.550
5.582,0.605,0.660
5.584,0.740,0.740
5.586,0.930,0.795
5.588,0.930,0.805
5.590,0.750,0.775
5.592,0.680,0.705
5.594,0.545,0.605
5.596,0.455,0.485
5.598,0.350,0.360
5.600,0.170,0.245
5.602,0.040,0.145
5.604,0.025,0.065
5.606,0.005,0.010
5.608,-0.045,-0.020
5.610,-0.040,-0.030
5.612,-0.035,-0.030
5.614,0.020,-0.025
5.616,0.030,-0.015
5.618,0.045,-0.010
5.620,-0.050,-0.010
5.622,-0.010,-0.015
5.624,-0.090,-0.025
5.626,-0.100,-0.035
5.628,-0.145,-0.045
5.630,-0.050,-0.050
5.632,0.020,-0.060
5.634,-0.030,-0.060
5.636,-0.010,-0.060
5.638,-0.090,-0.060
5.640,-0.045,-0.060
5.642,-0.065,-0.060
5.644,-0.055,-0.060
5.646,-0.075,-0.065
5.648,-0.150,-0.070
5.650,-0.130,-0.080
5.652,-0.110,-0.090
5.654,-0.025,-0.095
5.656,-0.105,-0.105
5.658,-0.135,-0.110
5.660,-0.080,-0.110
5.662,-0.090,-0.110
5.664,-0.100,-0.105
5.666,-0.085,-0.100
5.668,-0.085,-0.090
5.670,-0.130,-0.085
5.672,-0.095,-0.075
5.674,-0.020,-0.070
5.676,-0.050,-0.065
5.678,-0.080,-0.065
5.680,-0.080,-0.060
5.682,-0.060,-0.065
5.684,-0.105,-0.065
5.686,-0.030,-0.070
5.688,-0.070,-0.075
5.690,-0.145,-0.080
5.692,-0.070,-0.085
5.694,-0.060,-0.085
5.696,-0.130,-0.085
5.698,-0.055,-0.085
5.700,-0.050,-0.080
5.702,-0.100,-0.070
5.704,-0.065,-0.065
5.706,0.000,-0.055
5.708,-0.070,-0.050
5.710,-0.075,-0.045
5.712,-0.030,-0.045
5.714,-0.025,-0.040
5.716,-0.085,-0.045
5.718,-0.050,-0.045
5.720,-0.055,-0.045
5.722,-0.055,-0.045
5.724,-0.055,-0.040
5.726,-0.005,-0.040
5.728,-0.040,-0.035
5.730,-0.065,-0.035
5.732,-0.020,-0.035
5.734,-0.035,-0.035
5.736,-0.055,-0.035
5.738,-0.060,-0.035
5.740,-0.030,-0.035
5.742,-0.035,-0.035
5.744,-0.020,-0.030
5.746,0.010,-0.025
5.748,0.005,-0.020
5.750,0.020,-0.015
5.752,-0.045,-0.010
5.754,-0.045,-0.010
5.756,-0.010,-0.010
5.758,0.010,-0.015
5.760,0.030,-0.020
5.762,-0.010,-0.020
5.764,-0.045,-0.020
5.766,-0.025,-0.015
5.768,-0.010,-0.005
5.770,0.005,0.010
5.772,0.085,0.025
5.774,0.070,0.040
5.776,0.000,0.050
5.778,0.035,0.060
5.780,0.100,0.065
5.782,0.065,0.065
5.784,0.060,0.060
5.786,0.095,0.060
5.788,0.020,0.065
5.790,0.000,0.070
5.792,0.085,0.085
5.794,0.130,0.095
5.796,0.125,0.110
5.798,0.155,0.125
5.800,0.200,0.135
5.802,0.175,0.145
5.804,0.115,0.150
5.806,0.110,0.150
5.808,0.100,0.155
5.810,0.140,0.155
5.812,0.140,0.155
5.814,0.205,0.160
5.816,0.210,0.170
5.818,0.190,0.180
5.820,0.190,0.185
5.822,0.180,0.195
5.824,0.165,0.200
5.826,0.220,0.205
5.828,0.165,0.200
5.830,0.170,0.195
5.832,0.195,0.190
5.834,0.195,0.180
5.836,0.175,0.175
5.838,0.185,0.170
5.840,0.205,0.165
5.842,0.180,0.165
5.844,0.180,0.165
5.846,0.170,0.170
5.848,0.200,0.170
5.850,0.150,0.170
5.852,0.135,0.170
5.854,0.185,0.165
5.856,0.125,0.155
5.858,0.125,0.145
5.860,0.180,0.130
5.862,0.115,0.120
5.864,0.110,0.110
5.866,0.085,0.105
5.868,0.085,0.105
5.870,0.130,0.105
5.872,0.105,0.105
5.874,0.125,0.100
5.876,0.120,0.100
5.878,0.085,0.090
5.880,0.055,0.075
5.882,0.085,0.060
5.884,0.035,0.040
5.886,-0.065,0.020
5.888,-0.055,0.005
5.890,0.030,-0.005
5.892,0.020,-0.015
5.894,0.030,-0.015
5.896,0.040,-0.010
5.898,0.050,-0.005
5.900,0.010,0.000
5.902,-0.005,0.000
5.904,0.000,0.000
5.906,-0.045,-0.005
5.908,-0.045,-0.015
5.910,0.005,-0.030
5.912,-0.005,-0.045
5.914,0.025,-0.060
5.916,-0.075,-0.070
5.918,-0.075,-0.075
5.920,-0.065,-0.080
5.922,-0.070,-0.075
5.924,-0.095,-0.070
5.926,-0.070,-0.060
5.928,-0.005,-0.050
5.930,-0.020,-0.045
5.932,-0.020,-0.040
5.934,0.000,-0.040
5.936,-0.025,-0.045
5.938,-0.080,-0.050
5.940,-0.105,-0.060
5.942,-0.070,-0.065
5.944,-0.075,-0.070
5.946,-0.065,-0.075
5.948,-0.085,-0.070
5.950,-0.025,-0.065
5.952,-0.020,-0.055
5.954,-0.020,-0.050
5.956,-0.025,-0.040
5.958,-0.060,-0.040
5.960,-0.020,-0.035
5.962,-0.075,-0.040
5.964,-0.085,-0.045
5.966,-0.085,-0.050
5.968,-0.050,-0.060
5.970,-0.040,-0.065
5.972,-0.015,-0.070
5.974,-0.040,-0.070
5.976,-0.015,-0.065
5.978,-0.015,-0.060
5.980,-0.080,-0.055
5.982,-0.065,-0.050
5.984,-0.025,-0.045
5.986,-0.065,-0.045
5.988,-0.065,-0.050
5.990,-0.055,-0.060
5.992,-0.095,-0.065
5.994,-0.050,-0.075
5.996,-0.060,-0.080
5.998,-0.040,-0.085
6.000,-0.075,-0.085
6.002,-0.075,-0.080
6.004,-0.040,-0.075
6.006,-0.055,-0.070
6.008,-0.095,-0.065
6.010,-0.045,-0.060
6.012,-0.060,-0.060
6.014,-0.100,-0.065
6.016,-0.110,-0.065
6.018,-0.030,-0.065
6.020,-0.010,-0.065
6.022,-0.045,-0.060
6.024,-0.075,-0.055
6.026,-0.060,-0.050
6.028,-0.080,-0.045
6.030,0.005,-0.045
6.032,0.040,-0.045
6.034,-0.055,-0.045
6.036,-0.030,-0.050
6.038,-0.040,-0.055
6.040,-0.035,-0.055
6.042,-0.030,-0.055
6.044,-0.060,-0.055
6.046,-0.025,-0.050
6.048,-0.045,-0.040
6.050,-0.015,-0.035
6.052,-0.030,-0.030
6.054,-0.055,-0.030
6.056,0.025,-0.030
6.058,-0.015,-0.030
6.060,-0.065,-0.035
6.062,-0.040,-0.040
6.064,0.005,-0.045
6.066,-0.005,-0.050
6.068,-0.055,-0.055
6.070,-0.055,-0.060
6.072,-0.040,-0.060
6.074,-0.025,-0.065
6.076,-0.060,-0.070
6.078,-0.095,-0.075
6.080,-0.055,-0.080
6.082,-0.070,-0.080
6.084,-0.075,-0.080
6.086,-0.085,-0.075
6.088,-0.050,-0.070
6.090,-0.015,-0.060
6.092,0.005,-0.050
6.094,-0.030,-0.045
6.096,-0.005,-0.045
6.098,-0.020,-0.045
6.100,-0.040,-0.050
6.102,-0.030,-0.060
6.104,-0.070,-0.070
6.106,-0.140,-0.080
6.108,-0.085,-0.085
6.110,-0.050,-0.085
6.112,-0.045,-0.085
6.114,-0.060,-0.080
6.116,-0.015,-0.070
6.118,-0.010,-0.060
6.120,-0.075,-0.050
6.122,-0.035,-0.045
6.124,-0.005,-0.040
6.126,-0.010,-0.040
6.128,-0.100,-0.045
6.130,-0.030,-0.050
6.132,-0.005,-0.050
6.134,0.005,-0.055
6.136,-0.060,-0.060
6.138,-0.030,-0.060
6.140,-0.090,-0.060
6.142,-0.025,-0.060
6.144,-0.070,-0.055
6.146,-0.035,-0.055
6.148,-0.005,-0.055
6.150,-0.015,-0.050
6.152,-0.010,-0.050
6.154,-0.070,-0.045
6.156,0.005,-0.040
6.158,0.005,-0.035
6.160,0.035,-0.030
6.162,-0.045,-0.025
6.164,-0.020,-0.015
6.166,-0.035,-0.010
6.168,0.030,-0.005
6.170,0.070,0.000
6.172,0.095,0.005
6.174,0.025,0.010
6.176,0.025,0.010
6.178,0.000,0.010
6.180,0.005,0.010
6.182,0.055,0.005
6.184,0.025,0.005
6.186,0.025,0.000
6.188,-0.025,-0.010
6.190,0.040,-0.015
6.192,-0.025,-0.020
6.194,0.020,-0.025
6.196,-0.020,-0.035
6.198,0.000,-0.040
6.200,-0.035,-0.040
6.202,-0.035,-0.045
6.204,-0.045,-0.050
6.206,-0.050,-0.050
6.208,-0.100,-0.055
6.210,-0.010,-0.060
6.212,-0.070,-0.060
6.214,-0.020,-0.060
6.216,-0.010,-0.060
6.218,0.010,-0.060
6.220,-0.005,-0.055
6.222,-0.125,-0.055
6.224,-0.055,-0.060
6.226,-0.070,-0.060
6.228,-0.040,-0.070
6.230,-0.040,-0.075
6.232,-0.105,-0.080
6.234,-0.050,-0.085
6.236,-0.050,-0.085
6.238,-0.030,-0.085
6.240,-0.025,-0.080
6.242,-0.065,-0.075
6.244,-0.035,-0.070
6.246,-0.070,-0.065
6.248,-0.080,-0.065
6.250,-0.020,-0.070
6.252,-0.080,-0.080
6.254,-0.020,-0.085
6.256,-0.045,-0.090
6.258,-0.100,-0.090
6.260,-0.095,-0.085
6.262,-0.045,-0.070
6.264,0.010,-0.050
6.266,-0.025,-0.030
6.268,0.050,-0.010
6.270,0.095,0.005
6.272,0.010,0.010
6.274,-0.005,0.010
6.276,-0.050,0.015
6.278,-0.010,0.025
6.280,0.095,0.050
6.282,0.165,0.100
6.284,0.250,0.180
6.286,0.350,0.285
6.288,0.460,0.405
6.290,0.530,0.535
6.292,0.655,0.655
6.294,0.835,0.745
6.296,0.945,0.800
6.298,0.885,0.805
6.300,0.750,0.765
6.302,0.685,0.675
6.304,0.565,0.560
6.306,0.485,0.425
6.308,0.250,0.290
6.310,0.145,0.175
6.312,0.025,0.080
6.314,-0.045,0.020
6.316,0.020,-0.010
6.318,0.065,-0.020
6.320,0.100,-0.015
6.322,0.035,0.000
6.324,0.015,0.010
6.326,-0.025,0.015
6.328,-0.015,0.005
6.330,0.020,-0.010
6.332,-0.005,-0.030
6.334,-0.020,-0.050
6.336,-0.060,-0.070
6.338,-0.085,-0.085
6.340,-0.055,-0.095
6.342,-0.025,-0.095
6.344,-0.085,-0.095
6.346,-0.080,-0.090
6.348,-0.015,-0.080
6.350,-0.070,-0.080
6.352,-0.050,-0.075
6.354,-0.065,-0.080
6.356,-0.060,-0.085
6.358,-0.050,-0.095
6.360,-0.010,-0.105
6.362,-0.090,-0.110
6.364,-0.125,-0.120
6.366,-0.125,-0.125
6.368,-0.100,-0.125
6.370,-0.090,-0.125
6.372,-0.060,-0.125
6.374,-0.040,-0.120
6.376,-0.040,-0.115
6.378,-0.075,-0.115
6.380,-0.090,-0.110
6.382,-0.100,-0.105
6.384,-0.125,-0.100
6.386,-0.100,-0.095
6.388,-0.035,-0.090
6.390,-0.035,-0.085
6.392,-0.005,-0.085
6.394,-0.060,-0.080
6.396,-0.085,-0.080
6.398,-0.070,-0.080
6.400,0.010,-0.085
6.402,-0.105,-0.085
6.404,-0.085,-0.085
6.406,-0.095,-0.085
6.408,-0.010,-0.080
6.410,-0.025,-0.075
6.412,-0.015,-0.070
6.414,-0.050,-0.065
6.416,-0.065,-0.065
6.418,-0.090,-0.065
6.420,-0.065,-0.065
6.422,-0.050,-0.070
6.424,-0.060,-0.075
6.426,-0.055,-0.080
6.428,-0.090,-0.085
6.430,-0.045,-0.085
6.432,-0.015,-0.080
6.434,-0.030,-0.075
6.436,-0.045,-0.065
6.438,-0.045,-0.060
6.440,-0.010,-0.055
6.442,-0.030,-0.050
6.444,-0.080,-0.050
6.446,-0.060,-0.055
6.448,0.075,-0.060
6.450,-0.015,-0.065
6.452,-0.110,-0.065
6.454,-0.065,-0.065
6.456,0.040,-0.060
6.458,-0.025,-0.055
6.460,-0.015,-0.045
6.462,-0.040,-0.030
6.464,0.015,-0.020
6.466,0.000,-0.010
6.468,0.050,0.000
6.470,0.035,0.000
6.472,-0.005,0.000
6.474,0.035,0.000
6.476,0.065,-0.005
6.478,0.030,-0.005
6.480,0.010,-0.010
6.482,0.015,-0.005
6.484,0.030,-0.005
6.486,0.010,0.005
6.488,0.040,0.010
6.490,0.085,0.020
6.492,0.060,0.030
6.494,0.050,0.040
6.496,0.100,0.045
6.498,0.115,0.050
6.500,0.050,0.055
6.502,0.060,0.060
6.504,0.120,0.065
6.506,0.105,0.070
6.508,0.135,0.075
6.510,0.160,0.080
6.512,0.070,0.085
6.514,0.125,0.090
6.516,0.105,0.095
6.518,0.145,0.100
6.520,0.110,0.105
6.522,0.160,0.110
6.524,0.125,0.110
6.526,0.165,0.115
6.528,0.140,0.115
6.530,0.085,0.115
6.532,0.180,0.120
6.534,0.185,0.120
6.536,0.210,0.125
6.538,0.140,0.130
6.540,0.140,0.135
6.542,0.205,0.140
6.544,0.215,0.145
6.546,0.135,0.150
6.548,0.205,0.155
6.550,0.185,0.160
6.552,0.170,0.160
6.554,0.180,0.155
6.556,0.195,0.150
6.558,0.165,0.140
6.560,0.150,0.130
6.562,0.130,0.120
6.564,0.125,0.110
6.566,0.180,0.100
6.568,0.085,0.085
6.570,0.045,0.075
6.572,0.070,0.060
6.574,0.110,0.050
6.576,0.095,0.040
6.578,0.095,0.030
6.580,0.095,0.025
6.582,0.035,0.020
6.584,-0.045,0.020
6.586,0.025,0.025
6.588,0.075,0.030
6.590,0.070,0.035
6.592,0.075,0.030
6.594,0.075,0.025
6.596,0.025,0.015
6.598,0.000,0.000
6.600,0.020,-0.020
6.602,-0.020,-0.045
6.604,-0.100,-0.060
6.606,-0.045,-0.075
6.608,-0.005,-0.080
6.610,-0.025,-0.080
6.612,-0.065,-0.075
6.614,-0.045,-0.060
6.616,-0.010,-0.050
6.618,0.045,-0.040
6.620,0.025,-0.035
6.622,-0.035,-0.035
6.624,-0.035,-0.045
6.626,-0.050,-0.055
6.628,-0.065,-0.065
6.630,-0.050,-0.075
6.632,-0.050,-0.085
6.634,-0.025,-0.085
6.636,-0.025,-0.085
6.638,-0.055,-0.080
6.640,-0.090,-0.075
6.642,-0.070,-0.070
6.644,-0.035,-0.070
6.646,-0.040,-0.065
6.648,-0.010,-0.065
6.650,-0.015,-0.070
6.652,-0.030,-0.070
6.654,-0.055,-0.070
6.656,-0.070,-0.070
6.658,-0.095,-0.070
6.660,-0.005,-0.070
6.662,-0.045,-0.070
6.664,-0.100,-0.070
6.666,0.050,-0.070
6.668,-0.040,-0.075
6.670,-0.100,-0.080
6.672,-0.045,-0.080
6.674,-0.020,-0.085
6.676,-0.045,-0.085
6.678,-0.065,-0.085
6.680,-0.060,-0.085
6.682,-0.085,-0.080
6.684,-0.085,-0.075
6.686,-0.035,-0.070
6.688,-0.040,-0.070
6.690,-0.035,-0.070
6.692,0.000,-0.070
6.694,-0.030,-0.070
6.696,-0.035,-0.075
6.698,-0.045,-0.075
6.700,-0.035,-0.075
6.702,-0.090,-0.075
6.704,-0.060,-0.075
6.706,-0.025,-0.080
6.708,-0.020,-0.080
6.710,-0.045,-0.080
6.712,-0.040,-0.080
6.714,-0.055,-0.080
6.716,-0.060,-0.080
6.718,-0.055,-0.075
6.720,0.010,-0.070
6.722,-0.020,-0.065
6.724,-0.065,-0.060
6.726,0.000,-0.055
6.728,-0.040,-0.055
6.730,-0.020,-0.055
6.732,-0.035,-0.055
6.734,-0.005,-0.060
6.736,-0.045,-0.065
6.738,-0.055,-0.070
6.740,-0.035,-0.070
6.742,-0.050,-0.070
6.744,-0.045,-0.060
6.746,0.015,-0.055
6.748,0.045,-0.045
6.750,0.050,-0.035
6.752,0.015,-0.025
6.754,0.010,-0.025
6.756,0.010,-0.030
6.758,-0.030,-0.040
6.760,-0.075,-0.050
6.762,-0.050,-0.065
6.764,-0.030,-0.075
6.766,0.010,-0.080
6.768,-0.025,-0.080
6.770,-0.015,-0.075
6.772,0.005,-0.070
6.774,-0.030,-0.055
6.776,-0.075,-0.045
6.778,-0.025,-0.040
6.780,-0.010,-0.040
6.782,-0.010,-0.040
6.784,-0.035,-0.045
6.786,0.005,-0.050
6.788,-0.005,-0.055
6.790,0.005,-0.055
6.792,0.035,-0.055
6.794,-0.010,-0.050
6.796,-0.065,-0.040
6.798,-0.010,-0.030
6.800,0.020,-0.025
6.802,-0.010,-0.020
6.804,-0.025,-0.020
6.806,-0.005,-0.025
6.808,0.010,-0.035
6.810,-0.020,-0.045
6.812,0.010,-0.055
6.814,-0.040,-0.065
6.816,-0.035,-0.065
6.818,-0.040,-0.065
6.820,-0.005,-0.065
6.822,-0.075,-0.055
6.824,-0.015,-0.045
6.826,0.070,-0.035
6.828,0.020,-0.025
6.830,-0.005,-0.020
6.832,0.005,-0.020
6.834,-0.020,-0.025
6.836,-0.030,-0.030
6.838,0.025,-0.035
6.840,0.010,-0.045
6.842,-0.060,-0.050
6.844,-0.040,-0.055
6.846,0.040,-0.055
6.848,-0.010,-0.055
6.850,-0.015,-0.045
6.852,0.010,-0.040
6.854,-0.025,-0.030
6.856,0.000,-0.020
6.858,0.025,-0.010
6.860,0.005,-0.010
6.862,0.065,-0.010
6.864,0.075,-0.015
6.866,-0.005,-0.025
6.868,0.020,-0.030
6.870,-0.055,-0.040
6.872,-0.025,-0.045
6.874,-0.045,-0.045
6.876,0.025,-0.040
6.878,0.045,-0.030
6.880,0.005,-0.020
6.882,0.035,-0.010
6.884,0.075,0.000
6.886,0.070,0.010
6.888,0.090,0.015
6.890,0.095,0.020
6.892,0.115,0.025
6.894,0.030,0.025
6.896,-0.045,0.025
6.898,0.025,0.020
6.900,0.100,0.015
6.902,0.040,0.005
6.904,0.030,-0.005
6.906,0.060,-0.015
6.908,0.020,-0.030
6.910,-0.035,-0.045
6.912,-0.005,-0.055
6.914,-0.065,-0.060
6.916,-0.045,-0.065
6.918,-0.060,-0.065
6.920,-0.020,-0.065
6.922,0.020,-0.060
6.924,-0.015,-0.055
6.926,0.045,-0.055
6.928,-0.025,-0.050
6.930,-0.015,-0.050
6.932,-0.015,-0.050
6.934,0.000,-0.050
6.936,-0.020,-0.050
6.938,0.005,-0.045
6.940,-0.055,-0.040
6.942,-0.005,-0.035
6.944,0.080,-0.030
6.946,0.035,-0.025
6.948,0.000,-0.020
6.950,-0.025,-0.020
6.952,0.005,-0.020
6.954,-0.010,-0.030
6.956,-0.005,-0.035
6.958,0.020,-0.045
6.960,-0.065,-0.050
6.962,-0.055,-0.060
6.964,0.020,-0.060
6.966,0.045,-0.065
6.968,-0.020,-0.060
6.970,-0.065,-0.060
6.972,-0.020,-0.055
6.974,-0.050,-0.050
6.976,-0.015,-0.045
6.978,0.020,-0.040
6.980,0.015,-0.035
6.982,-0.020,-0.030
6.984,0.060,-0.020
6.986,0.000,-0.015
6.988,0.025,0.000
6.990,0.080,0.025
6.992,0.100,0.055
6.994,0.145,0.105
6.996,0.220,0.170
6.998,0.345,0.250
7.000,0.400,0.340
7.002,0.460,0.445
7.004,0.595,0.550
7.006,0.665,0.645
7.008,0.835,0.715
7.010,0.910,0.760
7.012,0.910,0.770
7.014,0.770,0.740
7.016,0.700,0.675
7.018,0.605,0.585
7.020,0.510,0.470
7.022,0.345,0.355
7.024,0.215,0.245
7.026,0.090,0.150
7.028,0.060,0.080
7.030,0.050,0.030
7.032,0.125,0.005
7.034,0.135,-0.005
7.036,0.045,-0.005
7.038,0.010,0.000
7.040,-0.005,0.000
7.042,-0.030,0.000
7.044,0.030,-0.010
7.046,-0.010,-0.025
7.048,-0.020,-0.040
7.050,-0.005,-0.055
7.052,0.020,-0.070
7.054,-0.065,-0.075
7.056,-0.005,-0.075
7.058,0.010,-0.070
7.060,-0.060,-0.065
7.062,-0.005,-0.060
7.064,-0.005,-0.060
7.066,-0.040,-0.060
7.068,-0.040,-0.065
7.070,-0.005,-0.070
7.072,-0.020,-0.080
7.074,-0.055,-0.085
7.076,-0.050,-0.085
7.078,-0.025,-0.080
7.080,-0.065,-0.070
7.082,0.005,-0.060
7.084,0.035,-0.050
7.086,0.010,-0.040
7.088,-0.025,-0.040
7.090,0.005,-0.040
7.092,-0.010,-0.045
7.094,-0.070,-0.055
7.096,-0.045,-0.065
7.098,-0.005,-0.075
7.100,-0.020,-0.075
7.102,0.000,-0.075
7.104,0.000,-0.070
7.106,0.035,-0.060
7.108,-0.015,-0.050
7.110,-0.010,-0.040
7.112,0.020,-0.035
7.114,-0.025,-0.030
7.116,-0.030,-0.030
7.118,-0.020,-0.035
7.120,-0.045,-0.045
7.122,-0.005,-0.050
7.124,0.020,-0.055
7.126,0.035,-0.055
7.128,-0.015,-0.055
7.130,0.030,-0.050
7.132,0.025,-0.040
7.134,-0.020,-0.030
7.136,-0.015,-0.025
7.138,0.015,-0.020
7.140,-0.005,-0.015
7.142,0.005,-0.010
7.144,0.080,-0.010
7.146,0.050,-0.010
7.148,0.080,-0.010
7.150,0.040,-0.010
7.152,0.030,-0.005
7.154,0.005,-0.005
7.156,0.025,0.000
7.158,0.020,0.000
7.160,0.005,0.000
7.162,0.050,0.000
7.164,0.040,-0.005
7.166,0.090,-0.005
7.168,0.125,-0.010
7.170,0.015,-0.010
7.172,0.015,-0.005
7.174,0.000,0.005
7.176,0.060,0.015
7.178,0.090,0.030
7.180,0.065,0.040
7.182,0.105,0.050
7.184,0.115,0.055
7.186,0.090,0.055
7.188,0.110,0.055
7.190,0.080,0.050
7.192,0.075,0.050
7.194,0.100,0.050
7.196,0.085,0.055
7.198,0.065,0.060
7.200,0.090,0.070
7.202,0.145,0.080
7.204,0.160,0.090
7.206,0.150,0.095
7.208,0.165,0.105
7.210,0.175,0.110
7.212,0.180,0.110
7.214,0.190,0.115
7.216,0.160,0.120
7.218,0.115,0.125
7.220,0.165,0.130
7.222,0.160,0.135
7.224,0.185,0.140
7.226,0.185,0.145
7.228,0.205,0.150
7.230,0.260,0.150
7.232,0.220,0.150
7.234,0.180,0.150
7.236,0.190,0.155
7.238,0.215,0.165
7.240,0.210,0.170
7.242,0.235,0.180
7.244,0.275,0.195
7.246,0.260,0.205
7.248,0.240,0.210
7.250,0.285,0.215
7.252,0.255,0.215
7.254,0.255,0.215
7.256,0.260,0.210
7.258,0.235,0.205
7.260,0.230,0.200
7.262,0.290,0.200
7.264,0.210,0.195
7.266,0.195,0.195
7.268,0.260,0.195
7.270,0.250,0.190
7.272,0.225,0.185
7.274,0.230,0.175
7.276,0.190,0.165
7.278,0.215,0.155
7.280,0.175,0.150
7.282,0.180,0.140
7.284,0.240,0.135
7.286,0.220,0.130
7.288,0.140,0.125
7.290,0.150,0.125
7.292,0.145,0.120
7.294,0.140,0.110
7.296,0.110,0.105
7.298,0.130,0.095
7.300,0.105,0.085
7.302,0.160,0.075
7.304,0.155,0.065
7.306,0.170,0.050
7.308,0.075,0.040
7.310,0.090,0.030
7.312,0.015,0.020
7.314,0.025,0.010
7.316,0.040,0.005
7.318,0.075,0.000
7.320,0.050,0.000
7.322,0.105,0.000
7.324,0.105,0.005
7.326,0.050,0.010
7.328,0.080,0.015
7.330,0.070,0.015
7.332,0.030,0.015
7.334,0.005,0.010
7.336,0.075,0.005
7.338,-0.010,-0.010
7.340,0.015,-0.020
7.342,0.040,-0.035
7.344,0.065,-0.040
7.346,0.035,-0.045
7.348,0.025,-0.045
7.350,0.025,-0.040
7.352,0.045,-0.030
7.354,0.040,-0.025
7.356,0.000,-0.020
7.358,0.030,-0.020
7.360,-0.025,-0.020
7.362,0.045,-0.030
7.364,-0.025,-0.040
7.366,0.070,-0.045
7.368,0.010,-0.055
7.370,0.060,-0.060
7.372,-0.045,-0.060
7.374,-0.020,-0.055
7.376,-0.015,-0.050
7.378,-0.065,-0.045
7.380,0.040,-0.045
7.382,0.030,-0.040
7.384,0.040,-0.045
7.386,0.020,-0.050
7.388,-0.015,-0.055
7.390,-0.015,-0.060
7.392,-0.010,-0.065
7.394,-0.025,-0.070
7.396,-0.010,-0.070
7.398,-0.050,-0.065
7.400,-0.055,-0.060
7.402,0.045,-0.050
7.404,0.015,-0.040
7.406,0.030,-0.035
7.408,0.090,-0.030
7.410,0.030,-0.030
7.412,-0.050,-0.030
7.414,0.010,-0.035
7.416,0.065,-0.045
7.418,-0.020,-0.050
7.420,-0.005,-0.060
7.422,-0.010,-0.065
7.424,-0.030,-0.070
7.426,-0.030,-0.070
7.428,0.015,-0.065
7.430,-0.020,-0.060
7.432,0.000,-0.050
7.434,0.060,-0.040
7.436,0.055,-0.025
7.438,0.035,-0.020
7.440,-0.015,-0.015
7.442,0.010,-0.020
7.444,0.000,-0.025
7.446,-0.015,-0.035
7.448,0.025,-0.050
7.450,0.030,-0.065
7.452,-0.030,-0.075
7.454,-0.020,-0.075
7.456,0.015,-0.075
7.458,0.020,-0.065
7.460,0.015,-0.055
7.462,0.040,-0.045
7.464,0.010,-0.040
7.466,0.000,-0.035
7.468,0.005,-0.040
7.470,0.040,-0.045
7.472,0.020,-0.055
7.474,0.050,-0.060
7.476,-0.045,-0.065
7.478,-0.030,-0.070
7.480,0.015,-0.065
7.482,0.025,-0.055
7.484,0.005,-0.045
7.486,0.030,-0.035
7.488,0.015,-0.030
7.490,0.035,-0.030
7.492,0.010,-0.030
7.494,0.015,-0.040
7.496,0.025,-0.045
7.498,-0.020,-0.050
7.500,-0.055,-0.055
7.502,0.030,-0.050
7.504,0.025,-0.050
7.506,0.015,-0.045
7.508,0.005,-0.040
7.510,-0.030,-0.035
7.512,0.020,-0.040
7.514,0.025,-0.045
7.516,-0.020,-0.055
7.518,-0.035,-0.065
7.520,-0.025,-0.075
7.522,0.050,-0.080
7.524,-0.025,-0.080
7.526,-0.010,-0.075
7.528,0.020,-0.065
7.530,0.035,-0.055
7.532,0.035,-0.040
7.534,0.030,-0.035
7.536,-0.005,-0.030
7.538,0.025,-0.035
7.540,-0.025,-0.040
7.542,0.015,-0.055
7.544,-0.010,-0.065
7.546,0.015,-0.070
7.548,0.005,-0.070
7.550,-0.025,-0.065
7.552,-0.005,-0.055
7.554,0.065,-0.035
7.556,0.050,-0.020
7.558,0.010,-0.005
7.560,0.060,0.000
7.562,0.040,0.000
7.564,0.030,-0.010
7.566,0.015,-0.030
7.568,0.020,-0.050
7.570,-0.035,-0.075
7.572,0.005,-0.090
7.574,-0.085,-0.100
7.576,-0.035,-0.100
7.578,-0.010,-0.090
7.580,0.050,-0.075
7.582,-0.010,-0.050
7.584,0.050,-0.030
7.586,0.075,-0.010
7.588,0.105,0.005
7.590,0.105,0.010
7.592,0.065,0.015
7.594,0.045,0.015
7.596,0.030,0.010
7.598,0.035,0.010
7.600,0.095,0.010
7.602,0.105,0.010
7.604,0.075,0.010
7.606,0.105,0.015
7.608,0.125,0.015
7.610,0.070,0.010
7.612,0.050,0.005
7.614,0.050,-0.005
7.616,0.005,-0.010
7.618,0.010,-0.020
7.620,0.070,-0.025
7.622,0.070,-0.025
7.624,0.045,-0.025
7.626,0.050,-0.020
7.628,0.095,-0.015
7.630,0.090,-0.010
7.632,0.055,-0.005
7.634,0.030,-0.005
7.636,0.035,-0.010
7.638,0.010,-0.020
7.640,0.040,-0.035
7.642,-0.020,-0.055
7.644,0.040,-0.070
7.646,0.055,-0.085
7.648,-0.020,-0.095
7.650,-0.040,-0.105
7.652,-0.030,-0.110
7.654,-0.100,-0.110
7.656,-0.085,-0.105
7.658,-0.050,-0.100
7.660,-0.005,-0.095
7.662,0.010,-0.090
7.664,0.015,-0.085
7.666,0.005,-0.080
7.668,-0.015,-0.080
7.670,-0.005,-0.080
7.672,-0.010,-0.080
7.674,-0.005,-0.080
7.676,-0.020,-0.075
7.678,0.005,-0.070
7.680,0.040,-0.065
7.682,0.020,-0.055
7.684,0.040,-0.045
7.686,0.045,-0.030
7.688,0.065,-0.020
7.690,0.060,-0.015
7.692,0.125,-0.010
7.694,0.045,-0.010
7.696,-0.025,-0.010
7.698,-0.045,-0.005
7.700,0.060,0.010
7.702,0.100,0.040
7.704,0.275,0.095
7.706,0.310,0.170
7.708,0.405,0.265
7.710,0.430,0.380
7.712,0.555,0.495
7.714,0.645,0.610
7.716,0.765,0.700
7.718,0.940,0.760
7.720,0.960,0.775
7.722,0.865,0.750
7.724,0.785,0.680
7.726,0.600,0.580
7.728,0.485,0.460
7.730,0.400,0.335
7.732,0.250,0.220
7.734,0.155,0.120
7.736,0.015,0.050
7.738,0.030,0.005
7.740,0.100,-0.015
7.742,0.140,-0.020
7.744,0.110,-0.015
7.746,0.090,-0.010
7.748,0.030,-0.010
7.750,-0.030,-0.020
7.752,-0.035,-0.035
7.754,0.005,-0.060
7.756,0.005,-0.090
7.758,-0.030,-0.115
7.760,-0.070,-0.135
7.762,-0.035,-0.150
7.764,-0.045,-0.150
7.766,-0.055,-0.150
7.768,-0.125,-0.140
7.770,-0.065,-0.130
7.772,-0.045,-0.125
7.774,-0.045,-0.120
7.776,-0.075,-0.120
7.778,-0.035,-0.120
7.780,-0.070,-0.125
7.782,-0.055,-0.130
7.784,-0.020,-0.130
7.786,-0.050,-0.130
7.788,-0.035,-0.130
7.790,-0.045,-0.125
7.792,0.005,-0.120
7.794,-0.050,-0.120
7.796,-0.115,-0.125
7.798,-0.060,-0.125
7.800,-0.025,-0.130
7.802,0.000,-0.135
7.804,-0.075,-0.135
7.806,-0.035,-0.135
7.808,-0.055,-0.135
7.810,-0.040,-0.130
7.812,-0.050,-0.120
7.814,-0.025,-0.115
7.816,-0.045,-0.115
7.818,-0.050,-0.115
7.820,-0.015,-0.115
7.822,-0.065,-0.120
7.824,-0.050,-0.125
7.826,-0.065,-0.125
7.828,-0.005,-0.125
7.830,0.000,-0.125
7.832,-0.045,-0.120
7.834,-0.060,-0.115
7.836,-0.100,-0.115
7.838,-0.055,-0.110
7.840,0.010,-0.110
7.842,-0.040,-0.115
7.844,-0.035,-0.115
7.846,-0.005,-0.115
7.848,0.005,-0.110
7.850,-0.050,-0.110
7.852,-0.005,-0.105
7.854,-0.005,-0.100
7.856,0.040,-0.095
7.858,-0.060,-0.095
7.860,-0.005,-0.095
7.862,0.020,-0.095
7.864,-0.045,-0.100
7.866,0.000,-0.100
7.868,0.020,-0.095
7.870,-0.010,-0.090
7.872,-0.010,-0.080
7.874,0.030,-0.070
7.876,0.005,-0.060
7.878,0.065,-0.050
7.880,0.070,-0.045
7.882,0.045,-0.045
7.884,0.010,-0.050
7.886,-0.035,-0.055
7.888,0.010,-0.060
7.890,0.040,-0.060
7.892,0.035,-0.060
7.894,0.030,-0.050
7.896,0.060,-0.040
7.898,0.090,-0.025
7.900,0.090,-0.015
7.902,0.080,-0.005
7.904,0.100,0.000
7.906,0.115,0.000
7.908,0.060,-0.005
7.910,0.065,-0.010
7.912,0.085,-0.010
7.914,0.070,-0.010
7.916,0.095,-0.005
7.918,0.085,0.005
7.920,0.110,0.015
7.922,0.100,0.025
7.924,0.110,0.030
7.926,0.115,0.035
7.928,0.130,0.035
7.930,0.145,0.040
7.932,0.140,0.040
7.934,0.165,0.045
7.936,0.165,0.055
7.938,0.165,0.070
7.940,0.135,0.090
7.942,0.180,0.110
7.944,0.235,0.130
7.946,0.310,0.145
7.948,0.220,0.150
7.950,0.255,0.150
7.952,0.245,0.145
7.954,0.185,0.135
7.956,0.195,0.125
7.958,0.205,0.120
7.960,0.230,0.115
7.962,0.255,0.115
7.964,0.225,0.125
7.966,0.235,0.130
7.968,0.215,0.140
7.970,0.230,0.145
7.972,0.245,0.145
7.974,0.270,0.140
7.976,0.180,0.130
7.978,0.205,0.120
7.980,0.245,0.110
7.982,0.250,0.095
7.984,0.190,0.090
7.986,0.145,0.080
7.988,0.120,0.075
7.990,0.170,0.070
7.992,0.150,0.065
7.994,0.115,0.060
7.996,0.130,0.055
7.998,0.185,0.050
8.000,0.165,0.045
8.002,0.135,0.040
8.004,0.110,0.030
8.006,0.100,0.025
8.008,0.110,0.020
8.010,0.125,0.010
8.012,0.105,0.000
8.014,0.055,-0.010
8.016,0.000,-0.025
8.018,0.075,-0.040
8.020,0.095,-0.050
8.022,0.025,-0.060
8.024,0.050,-0.070
8.026,-0.015,-0.075
8.028,-0.005,-0.075
8.030,0.050,-0.070
8.032,0.115,-0.065
8.034,0.025,-0.060
8.036,-0.020,-0.055
8.038,0.040,-0.050
8.040,0.020,-0.055
8.042,0.030,-0.055
8.044,0.040,-0.065
8.046,0.065,-0.075
8.048,0.005,-0.085
8.050,0.010,-0.090
8.052,-0.005,-0.095
8.054,-0.005,-0.100
8.056,-0.005,-0.100
8.058,0.015,-0.095
8.060,0.010,-0.085
8.062,0.020,-0.075
8.064,0.095,-0.070
8.066,0.020,-0.060
8.068,0.005,-0.055
8.070,0.030,-0.055
8.072,0.015,-0.055
8.074,0.005,-0.060
8.076,0.040,-0.065
8.078,0.035,-0.070
8.080,0.005,-0.080
8.082,0.025,-0.085
8.084,0.065,-0.095
8.086,-0.015,-0.095
8.088,-0.010,-0.095
8.090,0.025,-0.095
8.092,0.005,-0.095
8.094,-0.035,-0.090
8.096,-0.015,-0.090
8.098,0.015,-0.085
8.100,0.020,-0.085
8.102,0.040,-0.085
8.104,0.025,-0.085
8.106,0.035,-0.090
8.108,0.020,-0.095
8.110,0.000,-0.100
8.112,-0.055,-0.100
8.114,-0.025,-0.105
8.116,-0.015,-0.110
8.118,-0.005,-0.110
8.120,0.010,-0.110
8.122,0.025,-0.110
8.124,0.045,-0.105
8.126,0.000,-0.095
8.128,0.080,-0.090
8.130,-0.040,-0.080
8.132,-0.060,-0.075
8.134,0.035,-0.070
8.136,0.040,-0.065
8.138,0.055,-0.065
8.140,0.015,-0.060
8.142,0.025,-0.060
8.144,0.055,-0.060
8.146,0.020,-0.060
8.148,0.015,-0.060
8.150,0.055,-0.060
8.152,0.080,-0.060
8.154,0.015,-0.065
8.156,0.060,-0.070
8.158,0.040,-0.080
8.160,-0.050,-0.090
8.162,-0.010,-0.095
8.164,-0.010,-0.100
8.166,0.000,-0.095
8.168,0.005,-0.090
8.170,0.045,-0.075
8.172,0.045,-0.060
8.174,0.025,-0.045
8.176,0.085,-0.035
8.178,0.080,-0.030
8.180,0.030,-0.030
8.182,0.065,-0.040
8.184,0.095,-0.050
8.186,0.030,-0.060
8.188,0.050,-0.070
8.190,0.005,-0.075
8.192,0.045,-0.075
8.194,0.045,-0.070
8.196,0.075,-0.060
8.198,0.055,-0.050
8.200,0.060,-0.040
8.202,0.060,-0.040
8.204,0.025,-0.045
8.206,-0.005,-0.055
8.208,0.000,-0.065
8.210,0.080,-0.070
8.212,-0.030,-0.075
8.214,0.025,-0.080
8.216,0.120,-0.075
8.218,0.035,-0.070
8.220,0.085,-0.060
8.222,0.100,-0.060
8.224,0.045,-0.060
8.226,-0.050,-0.065
8.228,-0.025,-0.075
8.230,-0.020,-0.085
8.232,-0.035,-0.100
8.234,-0.025,-0.110
8.236,0.060,-0.115
8.238,0.025,-0.110
8.240,0.030,-0.105
8.242,0.030,-0.095
8.244,0.015,-0.085
8.246,-0.020,-0.075
8.248,0.050,-0.070
8.250,0.015,-0.070
8.252,-0.060,-0.070
8.254,-0.015,-0.075
8.256,0.105,-0.075
8.258,0.080,-0.075
8.260,0.045,-0.075
8.262,0.065,-0.065
8.264,0.090,-0.055
8.266,0.025,-0.045
8.268,0.030,-0.035
8.270,0.065,-0.030
8.272,0.070,-0.035
8.274,0.055,-0.040
8.276,0.090,-0.055
8.278,0.010,-0.065
8.280,0.030,-0.080
8.282,0.065,-0.090
8.284,0.020,-0.095
8.286,0.035,-0.095
8.288,0.030,-0.095
8.290,0.015,-0.085
8.292,-0.020,-0.080
8.294,0.035,-0.070
8.296,0.055,-0.060
8.298,0.050,-0.055
8.300,0.055,-0.050
8.302,0.065,-0.045
8.304,0.095,-0.035
8.306,0.115,-0.025
8.308,0.120,-0.015
8.310,0.130,-0.005
8.312,0.130,0.010
8.314,0.110,0.020
8.316,0.140,0.025
8.318,0.160,0.025
8.320,0.115,0.025
8.322,0.125,0.015
8.324,0.095,0.005
8.326,0.080,-0.010
8.328,0.050,-0.020
8.330,0.045,-0.035
8.332,0.045,-0.045
8.334,0.055,-0.055
8.336,0.050,-0.060
8.338,0.045,-0.060
8.340,0.020,-0.060
8.342,0.065,-0.060
8.344,0.035,-0.065
8.346,0.015,-0.065
8.348,0.060,-0.065
8.350,-0.010,-0.065
8.352,0.050,-0.065
8.354,0.080,-0.065
8.356,0.100,-0.070
8.358,0.085,-0.070
8.360,0.020,-0.070
8.362,0.000,-0.075
8.364,0.005,-0.075
8.366,0.030,-0.080
8.368,0.025,-0.090
8.370,-0.010,-0.095
8.372,0.015,-0.100
8.374,0.030,-0.105
8.376,0.020,-0.105
8.378,0.020,-0.095
8.380,0.030,-0.085
8.382,0.060,-0.075
8.384,0.045,-0.055
8.386,0.080,-0.045
8.388,0.065,-0.030
8.390,0.065,-0.025
8.392,0.050,-0.025
8.394,0.055,-0.025
8.396,0.080,-0.030
8.398,0.085,-0.030
8.400,0.125,-0.030
8.402,0.090,-0.025
8.404,0.125,-0.015
8.406,0.125,-0.005
8.408,0.130,0.015
8.410,0.125,0.030
8.412,0.060,0.055
8.414,0.190,0.085
8.416,0.305,0.120
8.418,0.325,0.175
8.420,0.360,0.245
8.422,0.470,0.330
8.424,0.555,0.430
8.426,0.640,0.535
8.428,0.695,0.630
8.430,0.865,0.710
8.432,0.965,0.760
8.434,0.930,0.770
8.436,0.900,0.735
8.438,0.755,0.660
8.440,0.630,0.550
8.442,0.530,0.425
8.444,0.315,0.300
8.446,0.220,0.190
8.448,0.170,0.100
8.450,0.115,0.045
8.452,0.095,0.015
8.454,0.170,0.005
8.456,0.130,0.010
8.458,0.130,0.020
8.460,0.160,0.025
8.462,0.140,0.025
8.464,0.085,0.015
8.466,0.065,-0.005
8.468,0.045,-0.025
8.470,0.045,-0.040
8.472,0.055,-0.050
8.474,0.100,-0.055
8.476,0.120,-0.055
8.478,0.090,-0.055
8.480,0.025,-0.050
8.482,0.020,-0.050
8.484,0.040,-0.055
8.486,-0.020,-0.065
8.488,0.060,-0.070
8.490,0.030,-0.080
8.492,0.060,-0.080
8.494,0.095,-0.075
8.496,0.050,-0.070
8.498,0.040,-0.060
8.500,0.020,-0.050
8.502,0.065,-0.040
8.504,0.045,-0.040
8.506,0.135,-0.045
8.508,0.050,-0.055
8.510,-0.045,-0.065
8.512,0.020,-0.080
8.514,0.050,-0.090
8.516,0.080,-0.090
8.518,0.085,-0.090
8.520,0.020,-0.080
8.522,0.050,-0.070
8.524,0.030,-0.060
8.526,0.075,-0.050
8.528,0.095,-0.045
8.530,0.045,-0.045
8.532,-0.010,-0.055
8.534,0.050,-0.060
8.536,0.040,-0.070
8.538,0.055,-0.080
8.540,0.040,-0.080
8.542,0.020,-0.080
8.544,0.000,-0.075
8.546,0.025,-0.065
8.548,0.030,-0.060
8.550,0.020,-0.050
8.552,0.005,-0.045
8.554,0.105,-0.045
8.556,0.075,-0.045
8.558,0.075,-0.045
8.560,0.045,-0.050
8.562,0.060,-0.050
8.564,0.040,-0.050
8.566,0.050,-0.050
8.568,0.085,-0.050
8.570,0.055,-0.045
8.572,0.050,-0.045
8.574,0.060,-0.040
8.576,0.060,-0.040
8.578,0.070,-0.035
8.580,0.065,-0.035
8.582,0.105,-0.035
8.584,0.110,-0.030
8.586,0.080,-0.030
8.588,0.085,-0.025
8.590,0.105,-0.020
8.592,0.055,-0.015
8.594,0.115,-0.010
8.596,0.080,-0.005
8.598,0.125,0.000
8.600,0.130,0.000
8.602,0.115,-0.005
8.604,0.075,-0.010
8.606,0.090,-0.010
8.608,0.115,-0.015
8.610,0.075,-0.015
8.612,0.090,-0.010
8.614,0.125,-0.005
8.616,0.145,0.005
8.618,0.125,0.020
8.620,0.135,0.035
8.622,0.175,0.050
8.624,0.210,0.065
8.626,0.230,0.080
8.628,0.180,0.090
8.630,0.175,0.095
8.632,0.150,0.100
8.634,0.140,0.100
8.636,0.180,0.095
8.638,0.220,0.095
8.640,0.280,0.100
8.642,0.260,0.100
8.644,0.250,0.110
8.646,0.230,0.120
8.648,0.230,0.130
8.650,0.225,0.145
8.652,0.190,0.155
8.654,0.280,0.165
8.656,0.265,0.165
8.658,0.270,0.165
8.660,0.315,0.165
8.662,0.310,0.160
8.664,0.205,0.155
8.666,0.225,0.155
8.668,0.295,0.155
8.670,0.260,0.160
8.672,0.245,0.165
8.674,0.285,0.175
8.676,0.280,0.180
8.678,0.290,0.180
8.680,0.290,0.175
8.682,0.250,0.170
8.684,0.200,0.160
8.686,0.290,0.155
8.688,0.300,0.155
8.690,0.240,0.155
8.692,0.285,0.155
8.694,0.300,0.160
8.696,0.270,0.160
8.698,0.275,0.160
8.700,0.220,0.150
8.702,0.245,0.135
8.704,0.185,0.115
8.706,0.185,0.095
8.708,0.200,0.075
8.710,0.125,0.060
8.712,0.150,0.050
8.714,0.190,0.050
8.716,0.195,0.055
8.718,0.225,0.065
8.720,0.205,0.075
8.722,0.135,0.080
8.724,0.150,0.075
8.726,0.145,0.070
8.728,0.195,0.055
8.730,0.150,0.040
8.732,0.065,0.025
8.734,0.160,0.010
8.736,0.140,0.005
8.738,0.095,0.000
8.740,0.095,0.000
8.742,0.050,0.000
8.744,0.085,0.005
8.746,0.115,0.005
8.748,0.135,0.005
8.750,0.095,0.000
8.752,0.115,-0.005
8.754,0.130,-0.005
8.756,0.105,-0.005
8.758,0.105,-0.005
8.760,0.080,0.000
8.762,0.050,0.005
8.764,0.090,0.005
8.766,0.105,0.000
8.768,0.055,-0.005
8.770,0.055,-0.015
8.772,0.090,-0.030
8.774,0.115,-0.040
8.776,0.105,-0.050
8.778,0.095,-0.055
8.780,-0.010,-0.050
8.782,0.015,-0.040
8.784,0.085,-0.025
8.786,0.050,-0.010
8.788,0.120,0.005
8.790,0.105,0.010
8.792,0.100,0.010
8.794,0.105,0.005
8.796,0.080,-0.005
8.798,0.095,-0.020
8.800,0.105,-0.030
8.802,0.030,-0.040
8.804,0.080,-0.040
8.806,0.060,-0.035
8.808,0.030,-0.030
8.810,0.015,-0.020
8.812,0.085,-0.010
8.814,0.060,-0.010
8.816,0.175,-0.010
8.818,0.120,-0.020
8.820,0.045,-0.030
8.822,0.045,-0.045
8.824,0.045,-0.055
8.826,0.000,-0.060
8.828,0.055,-0.055
8.830,0.085,-0.050
8.832,0.105,-0.040
8.834,0.065,-0.025
8.836,0.090,-0.015
8.838,0.075,-0.005
8.840,0.065,0.000
8.842,0.050,-0.005
8.844,0.045,-0.010
8.846,0.105,-0.020
8.848,0.070,-0.030
8.850,0.055,-0.035
8.852,0.050,-0.040
8.854,0.045,-0.040
8.856,0.020,-0.040
8.858,0.005,-0.035
8.860,0.070,-0.030
8.862,0.070,-0.030
8.864,0.070,-0.030
8.866,0.085,-0.030
8.868,0.075,-0.035
8.870,0.025,-0.040
8.872,0.040,-0.045
8.874,0.065,-0.050
8.876,0.070,-0.055
8.878,0.080,-0.055
8.880,0.120,-0.050
8.882,0.000,-0.045
8.884,0.055,-0.040
8.886,0.055,-0.035
8.888,0.100,-0.025
8.890,0.065,-0.020
8.892,0.075,-0.015
8.894,0.080,-0.010
8.896,0.075,-0.010
8.898,0.070,-0.010
8.900,0.070,-0.010
8.902,0.070,-0.015
8.904,0.115,-0.020
8.906,0.080,-0.025
8.908,0.025,-0.025
8.910,0.045,-0.030
8.912,0.020,-0.030
8.914,0.100,-0.030
8.916,0.095,-0.030
8.918,0.045,-0.030
8.920,0.080,-0.035
8.922,0.035,-0.035
8.924,0.000,-0.040
8.926,0.045,-0.045
8.928,0.030,-0.045
8.930,0.050,-0.050
8.932,0.115,-0.050
8.934,0.045,-0.050
8.936,0.045,-0.045
8.938,0.085,-0.040
8.940,0.100,-0.035
8.942,0.045,-0.030
8.944,-0.010,-0.025
8.946,0.065,-0.025
8.948,0.085,-0.025
8.950,0.055,-0.025
8.952,0.065,-0.025
8.954,0.045,-0.025
8.956,0.015,-0.025
8.958,0.105,-0.020
8.960,0.090,-0.020
8.962,0.075,-0.015
8.964,0.075,-0.015
8.966,0.060,-0.015
8.968,0.025,-0.015
8.970,0.025,-0.020
8.972,0.080,-0.025
8.974,0.085,-0.030
8.976,0.045,-0.035
8.978,0.075,-0.035
8.980,0.080,-0.035
8.982,0.050,-0.030
8.984,0.085,-0.020
8.986,0.065,-0.015
8.988,0.060,-0.010
8.990,0.035,-0.005
8.992,0.160,-0.010
8.994,0.070,-0.015
8.996,0.040,-0.020
8.998,0.005,-0.030
9.000,0.000,-0.040
9.002,0.055,-0.040
9.004,0.080,-0.040
9.006,0.110,-0.035
9.008,0.070,-0.025
9.010,0.090,-0.015
9.012,0.110,0.000
9.014,0.095,0.010
9.016,0.155,0.015
9.018,0.145,0.020
9.020,0.070,0.020
9.022,0.065,0.015
9.024,0.110,0.010
9.026,0.075,0.005
9.028,0.120,0.005
9.030,0.145,0.005
9.032,0.100,0.010
9.034,0.095,0.015
9.036,0.130,0.020
9.038,0.110,0.020
9.040,0.085,0.025
9.042,0.060,0.020
9.044,0.065,0.015
9.046,0.075,0.005
9.048,0.070,-0.005
9.050,0.070,-0.020
9.052,0.055,-0.030
9.054,0.045,-0.035
9.056,0.010,-0.040
9.058,0.035,-0.045
9.060,0.020,-0.045
9.062,0.050,-0.040
9.064,0.055,-0.035
9.066,0.055,-0.030
9.068,0.060,-0.025
9.070,0.030,-0.020
9.072,0.100,-0.015
9.074,0.075,-0.015
9.076,0.075,-0.015
9.078,0.075,-0.020
9.080,0.025,-0.030
9.082,0.030,-0.035
9.084,0.010,-0.045
9.086,0.035,-0.050
9.088,0.045,-0.055
9.090,0.055,-0.055
9.092,0.045,-0.055
9.094,0.005,-0.055
9.096,0.025,-0.050
9.098,0.005,-0.050
9.100,-0.010,-0.050
9.102,0.045,-0.050
9.104,0.045,-0.050
9.106,0.000,-0.050
9.108,-0.010,-0.050
9.110,0.055,-0.045
9.112,0.045,-0.040
9.114,0.090,-0.035
9.116,0.095,-0.025
9.118,0.105,-0.010
9.120,0.065,0.005
9.122,0.055,0.020
9.124,0.115,0.045
9.126,0.130,0.075
9.128,0.235,0.120
9.130,0.315,0.185
9.132,0.375,0.265
9.134,0.500,0.360
9.136,0.540,0.465
9.138,0.620,0.580
9.140,0.730,0.680
9.142,0.905,0.765
9.144,1.000,0.820
9.146,0.995,0.830
9.148,0.905,0.800
9.150,0.805,0.730
9.152,0.675,0.630
9.154,0.530,0.505
9.156,0.405,0.380
9.158,0.320,0.260
9.160,0.170,0.165
9.162,0.150,0.090
9.164,0.115,0.050
9.166,0.070,0.030
9.168,0.110,0.025
9.170,0.155,0.030
9.172,0.115,0.035
9.174,0.080,0.035
9.176,0.115,0.030
9.178,0.095,0.010
9.180,0.050,-0.015
9.182,0.000,-0.040
9.184,0.025,-0.060
9.186,-0.035,-0.075
9.188,-0.055,-0.085
9.190,0.005,-0.085
9.192,0.015,-0.080
9.194,0.050,-0.070
9.196,0.060,-0.065
9.198,0.020,-0.060
9.200,0.000,-0.060
9.202,-0.050,-0.065
9.204,-0.045,-0.070
9.206,0.000,-0.075
9.208,0.000,-0.080
9.210,-0.005,-0.085
9.212,0.020,-0.085
9.214,0.020,-0.080
9.216,0.020,-0.080
9.218,-0.010,-0.075
9.220,-0.020,-0.075
9.222,0.015,-0.075
9.224,0.030,-0.080
9.226,-0.030,-0.080
9.228,-0.025,-0.085
9.230,0.000,-0.085
9.232,-0.005,-0.085
9.234,0.020,-0.080
9.236,0.065,-0.075
9.238,-0.010,-0.070
9.240,-0.020,-0.065
9.242,0.035,-0.060
9.244,0.020,-0.060
9.246,-0.060,-0.065
9.248,-0.010,-0.075
9.250,0.050,-0.085
9.252,-0.015,-0.095
9.254,-0.010,-0.100
9.256,-0.005,-0.105
9.258,-0.005,-0.100
9.260,-0.015,-0.095
9.262,0.030,-0.085
9.264,0.020,-0.075
9.266,0.020,-0.065
9.268,0.025,-0.055
9.270,0.015,-0.050
9.272,0.005,-0.050
9.274,-0.025,-0.055
9.276,-0.005,-0.060
9.278,-0.020,-0.065
9.280,-0.015,-0.065
9.282,0.030,-0.065
9.284,0.035,-0.065
9.286,0.015,-0.055
9.288,0.035,-0.045
9.290,0.055,-0.040
9.292,0.030,-0.030
9.294,0.025,-0.025
9.296,0.055,-0.025
9.298,0.055,-0.030
9.300,0.035,-0.035
9.302,0.040,-0.045
9.304,-0.020,-0.050
9.306,-0.005,-0.055
9.308,0.040,-0.055
9.310,0.065,-0.050
9.312,0.085,-0.040
9.314,0.050,-0.030
9.316,0.070,-0.015
9.318,0.025,-0.005
9.320,0.065,0.000
9.322,0.035,0.000
9.324,0.020,0.000
9.326,0.050,-0.005
9.328,0.080,-0.010
9.330,0.045,-0.010
9.332,0.100,-0.005
9.334,0.090,0.005
9.336,0.080,0.015
9.338,0.145,0.030
9.340,0.130,0.045
9.342,0.100,0.055
9.344,0.125,0.060
9.346,0.120,0.065
9.348,0.140,0.060
9.350,0.080,0.060
9.352,0.130,0.055
9.354,0.165,0.055
9.356,0.185,0.065
9.358,0.170,0.075
9.360,0.130,0.090
9.362,0.165,0.105
9.364,0.140,0.120
9.366,0.160,0.130
9.368,0.210,0.140
9.370,0.215,0.140
9.372,0.235,0.135
9.374,0.190,0.130
9.376,0.215,0.125
9.378,0.200,0.120
9.380,0.135,0.120
9.382,0.150,0.125
9.384,0.205,0.135
9.386,0.230,0.145
9.388,0.250,0.155
9.390,0.245,0.160
9.392,0.210,0.160
9.394,0.215,0.155
9.396,0.190,0.150
9.398,0.205,0.140
9.400,0.220,0.130
9.402,0.155,0.120
9.404,0.210,0.115
9.406,0.180,0.110
9.408,0.185,0.105
9.410,0.200,0.105
9.412,0.160,0.100
9.414,0.160,0.095
9.416,0.125,0.090
9.418,0.170,0.080
9.420,0.130,0.070
9.422,0.100,0.065
9.424,0.070,0.055
9.426,0.090,0.050
9.428,0.100,0.050
9.430,0.145,0.045
9.432,0.145,0.045
9.434,0.160,0.045
9.436,0.110,0.045
9.438,0.100,0.040
9.440,0.095,0.035
9.442,0.105,0.020
9.444,0.055,0.010
9.446,0.010,-0.005
9.448,0.060,-0.020
9.450,0.020,-0.035
9.452,0.035,-0.045
9.454,0.000,-0.050
9.456,0.035,-0.050
9.458,0.010,-0.050
9.460,0.005,-0.045
9.462,0.005,-0.040
9.464,-0.005,-0.035
9.466,0.045,-0.035
9.468,0.020,-0.040
9.470,0.040,-0.050
9.472,0.015,-0.060
9.474,-0.025,-0.070
9.476,-0.060,-0.075
9.478,-0.020,-0.080
9.480,0.005,-0.075
9.482,0.020,-0.065
9.484,0.000,-0.055
9.486,-0.020,-0.040
9.488,0.070,-0.030
9.490,0.050,-0.025
9.492,0.020,-0.025
9.494,-0.015,-0.030
9.496,0.025,-0.040
9.498,-0.010,-0.055
9.500,-0.040,-0.065
9.502,-0.050,-0.075
9.504,0.000,-0.080
9.506,0.005,-0.080
9.508,0.000,-0.075
9.510,0.040,-0.070
9.512,0.010,-0.065
9.514,-0.010,-0.060
9.516,-0.020,-0.065
9.518,-0.070,-0.065
9.520,-0.035,-0.070
9.522,-0.010,-0.070
9.524,0.055,-0.070
9.526,0.045,-0.070
9.528,0.040,-0.065
9.530,-0.010,-0.055
9.532,0.020,-0.050
9.534,0.035,-0.050
9.536,-0.040,-0.050
9.538,-0.035,-0.055
9.540,-0.015,-0.065
9.542,-0.065,-0.075
9.544,-0.005,-0.090
9.546,-0.010,-0.095
9.548,0.015,-0.100
9.550,-0.020,-0.100
9.552,-0.035,-0.095
9.554,-0.035,-0.090
9.556,-0.025,-0.080
9.558,-0.055,-0.075
9.560,-0.060,-0.075
9.562,0.025,-0.075
9.564,0.005,-0.080
9.566,-0.040,-0.085
9.568,-0.080,-0.090
9.570,-0.050,-0.095
9.572,-0.010,-0.095
9.574,0.030,-0.090
9.576,0.000,-0.085
9.578,-0.035,-0.075
9.580,-0.045,-0.070
9.582,-0.005,-0.070
9.584,-0.010,-0.065
9.586,0.000,-0.070
9.588,0.030,-0.070
9.590,-0.030,-0.075
9.592,-0.015,-0.075
9.594,-0.020,-0.075
9.596,-0.010,-0.075
9.598,-0.025,-0.070
9.600,0.010,-0.070
9.602,-0.020,-0.065
9.604,-0.020,-0.070
9.606,-0.015,-0.070
9.608,-0.050,-0.075
9.610,-0.035,-0.080
9.612,0.010,-0.085
9.614,0.035,-0.085
9.616,-0.005,-0.080
9.618,-0.040,-0.075
9.620,-0.035,-0.065
9.622,0.000,-0.055
9.624,-0.005,-0.050
9.626,0.010,-0.050
9.628,0.000,-0.050
9.630,0.015,-0.060
9.632,-0.005,-0.070
9.634,-0.075,-0.080
9.636,-0.030,-0.090
9.638,-0.070,-0.095
9.640,-0.045,-0.095
9.642,-0.005,-0.095
9.644,-0.020,-0.085
9.646,0.035,-0.080
9.648,-0.005,-0.070
9.650,-0.010,-0.065
9.652,-0.010,-0.065
9.654,-0.035,-0.070
9.656,-0.030,-0.080
9.658,-0.030,-0.085
9.660,-0.050,-0.095
9.662,-0.055,-0.100
9.664,-0.085,-0.105
9.666,-0.010,-0.105
9.668,0.005,-0.105
9.670,-0.045,-0.100
9.672,-0.035,-0.095
9.674,-0.015,-0.090
9.676,-0.030,-0.085
9.678,-0.060,-0.085
9.680,-0.060,-0.085
9.682,-0.020,-0.085
9.684,-0.025,-0.085
9.686,-0.005,-0.085
9.688,-0.025,-0.085
9.690,-0.010,-0.085
9.692,-0.015,-0.080
9.694,0.020,-0.075
9.696,-0.065,-0.070
9.698,-0.020,-0.065
9.700,-0.030,-0.060
9.702,0.020,-0.060
9.704,-0.010,-0.060
9.706,-0.020,-0.065
9.708,-0.030,-0.075
9.710,-0.005,-0.085
9.712,-0.060,-0.095
9.714,-0.055,-0.105
9.716,-0.055,-0.110
9.718,-0.030,-0.110
9.720,-0.040,-0.100
9.722,-0.035,-0.090
9.724,-0.060,-0.080
9.726,-0.010,-0.070
9.728,0.000,-0.060
9.730,0.000,-0.050
9.732,-0.035,-0.045
9.734,0.010,-0.040
9.736,0.045,-0.035
9.738,0.050,-0.035
9.740,0.040,-0.030
9.742,0.050,-0.025
9.744,0.055,-0.015
9.746,0.015,-0.010
9.748,0.045,-0.010
9.750,0.065,-0.005
9.752,0.045,-0.010
9.754,0.030,-0.015
9.756,0.010,-0.025
9.758,0.045,-0.035
9.760,-0.020,-0.045
9.762,0.005,-0.055
9.764,-0.010,-0.060
9.766,-0.010,-0.065
9.768,-0.060,-0.065
9.770,0.015,-0.070
9.772,0.000,-0.070
9.774,-0.060,-0.075
9.776,-0.075,-0.080
9.778,-0.005,-0.085
9.780,-0.035,-0.090
9.782,-0.065,-0.095
9.784,-0.025,-0.095
9.786,0.005,-0.090
9.788,-0.020,-0.085
9.790,-0.045,-0.080
9.792,-0.020,-0.075
9.794,-0.015,-0.075
9.796,-0.025,-0.080
9.798,-0.040,-0.090
9.800,-0.030,-0.105
9.802,-0.095,-0.115
9.804,-0.120,-0.125
9.806,-0.075,-0.125
9.808,-0.080,-0.120
9.810,-0.030,-0.105
9.812,0.040,-0.090
9.814,-0.010,-0.075
9.816,-0.030,-0.065
9.818,0.015,-0.060
9.820,-0.060,-0.060
9.822,-0.065,-0.070
9.824,-0.045,-0.085
9.826,-0.030,-0.095
9.828,-0.050,-0.100
9.830,-0.045,-0.095
9.832,0.005,-0.085
9.834,0.025,-0.065
9.836,0.020,-0.045
9.838,-0.010,-0.025
9.840,-0.035,-0.010
9.842,0.040,0.005
9.844,0.040,0.015
9.846,0.095,0.030
9.848,0.180,0.060
9.850,0.230,0.110
9.852,0.255,0.190
9.854,0.345,0.295
9.856,0.505,0.415
9.858,0.565,0.540
9.860,0.655,0.660
9.862,0.820,0.755
9.864,1.000,0.810
9.866,1.060,0.820
9.868,0.915,0.785
9.870,0.760,0.705
9.872,0.520,0.595
9.874,0.500,0.465
9.876,0.360,0.340
9.878,0.235,0.230
9.880,0.100,0.140
9.882,0.065,0.080
9.884,0.125,0.040
9.886,0.105,0.020
9.888,0.075,0.010
9.890,0.115,0.010
9.892,0.095,0.005
9.894,-0.020,0.000
9.896,-0.010,-0.010
9.898,0.060,-0.025
9.900,0.000,-0.045
9.902,-0.060,-0.060
9.904,-0.005,-0.075
9.906,0.010,-0.090
9.908,-0.060,-0.095
9.910,-0.060,-0.100
9.912,-0.035,-0.100
9.914,-0.070,-0.095
9.916,-0.065,-0.090
9.918,0.015,-0.085
9.920,0.000,-0.085
9.922,-0.065,-0.080
9.924,-0.085,-0.080
9.926,-0.040,-0.085
9.928,0.020,-0.085
9.930,0.010,-0.090
9.932,-0.055,-0.095
9.934,-0.040,-0.095
9.936,-0.090,-0.095
9.938,-0.025,-0.100
9.940,-0.025,-0.100
9.942,-0.050,-0.100
9.944,-0.035,-0.100
9.946,-0.025,-0.100
9.948,-0.055,-0.100
9.950,-0.035,-0.100
9.952,-0.010,-0.100
9.954,0.005,-0.100
9.956,-0.075,-0.095
9.958,-0.025,-0.090
9.960,-0.100,-0.085
9.962,0.005,-0.080
9.964,-0.015,-0.075
9.966,-0.070,-0.075
9.968,-0.030,-0.075
9.970,-0.030,-0.080
9.972,0.025,-0.085
9.974,-0.030,-0.090
9.976,-0.020,-0.090
9.978,-0.025,-0.085
9.980,0.010,-0.080
9.982,0.005,-0.070
9.984,0.015,-0.060
9.986,-0.005,-0.055
9.988,-0.030,-0.050
9.990,-0.050,-0.050
9.992,-0.010,-0.055
9.994,0.020,-0.065
9.996,-0.025,-0.070
9.998,-0.010,-0.075
