'Elapsed time','ECG I','ECG I filtered'
'seconds','mV','mV'
0.000,0.285,0.125
0.002,0.305,0.055
0.004,0.185,0.000
0.006,0.185,-0.045
0.008,0.155,-0.070
0.010,0.010,-0.080
0.012,-0.100,-0.075
0.014,-0.065,-0.060
0.016,0.135,-0.040
0.018,0.210,-0.020
0.020,0.230,-0.010
0.022,0.250,-0.005
0.024,0.265,-0.005
0.026,0.200,-0.015
0.028,0.075,-0.020
0.030,0.060,-0.030
0.032,-0.025,-0.030
0.034,0.005,-0.030
0.036,0.160,-0.020
0.038,0.235,-0.010
0.040,0.255,0.000
0.042,0.325,0.005
0.044,0.205,0.010
0.046,0.145,0.005
0.048,0.085,0.000
0.050,0.070,-0.005
0.052,0.000,-0.010
0.054,0.035,-0.015
0.056,0.150,-0.015
0.058,0.235,-0.015
0.060,0.260,-0.015
0.062,0.245,-0.015
0.064,0.225,-0.020
0.066,0.165,-0.025
0.068,0.055,-0.030
0.070,0.020,-0.035
0.072,0.085,-0.030
0.074,-0.055,-0.025
0.076,0.165,-0.015
0.078,0.265,0.000
0.080,0.280,0.015
0.082,0.320,0.025
0.084,0.275,0.030
0.086,0.160,0.030
0.088,0.085,0.015
0.090,0.060,0.000
0.092,0.005,-0.015
0.094,-0.015,-0.025
0.096,0.165,-0.030
0.098,0.250,-0.030
0.100,0.230,-0.025
0.102,0.310,-0.015
0.104,0.225,-0.010
0.106,0.125,-0.005
0.108,0.030,-0.010
0.110,0.005,-0.020
0.112,-0.005,-0.030
0.114,0.010,-0.045
0.116,0.080,-0.055
0.118,0.190,-0.060
0.120,0.190,-0.065
0.122,0.300,-0.060
0.124,0.195,-0.055
0.126,0.105,-0.050
0.128,0.020,-0.045
0.130,-0.025,-0.045
0.132,-0.050,-0.050
0.134,0.035,-0.055
0.136,0.135,-0.065
0.138,0.190,-0.065
0.140,0.235,-0.065
0.142,0.210,-0.065
0.144,0.125,-0.055
0.146,0.100,-0.045
0.148,0.100,-0.040
0.150,-0.030,-0.030
0.152,-0.025,-0.030
0.154,0.055,-0.030
0.156,0.155,-0.035
0.158,0.205,-0.040
0.160,0.285,-0.045
0.162,0.245,-0.050
0.164,0.185,-0.050
0.166,0.085,-0.050
0.168,-0.030,-0.050
0.170,-0.105,-0.045
0.172,0.000,-0.040
0.174,0.065,-0.040
0.176,0.115,-0.035
0.178,0.180,-0.035
0.180,0.315,-0.035
0.182,0.290,-0.035
0.184,0.165,-0.035
0.186,0.110,-0.035
0.188,0.055,-0.040
0.190,-0.080,-0.040
0.192,-0.020,-0.045
0.194,0.065,-0.050
0.196,0.165,-0.050
0.198,0.205,-0.050
0.200,0.230,-0.045
0.202,0.235,-0.040
0.204,0.180,-0.035
0.206,0.090,-0.030
0.208,0.015,-0.025
0.210,0.015,-0.020
0.212,0.030,-0.020
0.214,0.070,-0.025
0.216,0.135,-0.030
0.218,0.210,-0.030
0.220,0.270,-0.030
0.222,0.260,-0.020
0.224,0.185,-0.005
0.226,0.160,0.020
0.228,0.125,0.050
0.230,0.125,0.080
0.232,0.200,0.110
0.234,0.265,0.140
0.236,0.330,0.165
0.238,0.455,0.185
0.240,0.555,0.200
0.242,0.550,0.205
0.244,0.405,0.205
0.246,0.240,0.200
0.248,0.205,0.190
0.250,0.175,0.170
0.252,0.245,0.145
0.254,0.235,0.115
0.256,0.335,0.075
0.258,0.300,0.035
0.260,0.335,-0.010
0.262,0.155,-0.055
0.264,0.045,-0.090
0.266,-0.020,-0.115
0.268,-0.045,-0.130
0.270,-0.135,-0.130
0.272,-0.090,-0.125
0.274,0.055,-0.115
0.276,0.130,-0.100
0.278,0.200,-0.085
0.280,0.285,-0.075
0.282,0.165,-0.065
0.284,0.095,-0.060
0.286,0.080,-0.055
0.288,0.025,-0.050
0.290,-0.040,-0.040
0.292,0.060,-0.035
0.294,0.110,-0.025
0.296,0.200,-0.020
0.298,0.220,-0.015
0.300,0.270,-0.010
0.302,0.240,-0.015
0.304,0.205,-0.020
0.306,0.070,-0.030
0.308,0.025,-0.040
0.310,-0.040,-0.050
0.312,0.010,-0.055
0.314,0.100,-0.050
0.316,0.185,-0.045
0.318,0.235,-0.040
0.320,0.265,-0.030
0.322,0.250,-0.020
0.324,0.170,-0.010
0.326,0.070,-0.010
0.328,0.085,-0.010
0.330,-0.030,-0.010
0.332,0.050,-0.010
0.334,0.155,-0.010
0.336,0.190,-0.010
0.338,0.250,-0.010
0.340,0.320,-0.010
0.342,0.230,-0.010
0.344,0.130,-0.010
0.346,0.085,-0.015
0.348,0.095,-0.020
0.350,-0.015,-0.025
0.352,0.040,-0.035
0.354,0.060,-0.040
0.356,0.195,-0.040
0.358,0.240,-0.035
0.360,0.250,-0.030
0.362,0.265,-0.020
0.364,0.185,-0.015
0.366,0.060,-0.005
0.368,0.045,-0.005
0.370,-0.010,-0.005
0.372,0.055,-0.005
0.374,0.130,-0.010
0.376,0.230,-0.015
0.378,0.250,-0.020
0.380,0.300,-0.015
0.382,0.240,-0.010
0.384,0.180,-0.005
0.386,0.065,0.005
0.388,0.095,0.010
0.390,0.000,0.020
0.392,0.025,0.020
0.394,0.185,0.020
0.396,0.275,0.020
0.398,0.270,0.015
0.400,0.300,0.015
0.402,0.310,0.010
0.404,0.185,0.015
0.406,0.120,0.015
0.408,0.100,0.025
0.410,0.035,0.030
0.412,0.100,0.040
0.414,0.205,0.045
0.416,0.280,0.050
0.418,0.280,0.055
0.420,0.355,0.055
0.422,0.345,0.055
0.424,0.255,0.055
0.426,0.125,0.055
0.428,0.070,0.055
0.430,0.080,0.055
0.432,0.205,0.060
0.434,0.190,0.070
0.436,0.290,0.075
0.438,0.400,0.085
0.440,0.450,0.090
0.442,0.325,0.095
0.444,0.225,0.095
0.446,0.205,0.095
0.448,0.075,0.095
0.450,0.100,0.090
0.452,0.170,0.090
0.454,0.265,0.090
0.456,0.370,0.100
0.458,0.415,0.110
0.460,0.430,0.120
0.462,0.385,0.135
0.464,0.280,0.150
0.466,0.175,0.160
0.468,0.210,0.160
0.470,0.245,0.160
0.472,0.200,0.155
0.474,0.310,0.150
0.476,0.385,0.145
0.478,0.430,0.140
0.480,0.470,0.145
0.482,0.390,0.155
0.484,0.245,0.170
0.486,0.250,0.180
0.488,0.195,0.190
0.490,0.205,0.195
0.492,0.270,0.190
0.494,0.380,0.180
0.496,0.420,0.165
0.498,0.440,0.150
0.500,0.450,0.140
0.502,0.345,0.130
0.504,0.270,0.125
0.506,0.195,0.130
0.508,0.135,0.130
0.510,0.200,0.135
0.512,0.205,0.135
0.514,0.305,0.125
0.516,0.350,0.110
0.518,0.395,0.090
0.520,0.420,0.070
0.522,0.320,0.045
0.524,0.120,0.030
0.526,0.035,0.020
0.528,0.000,0.015
0.530,0.070,0.020
0.532,0.180,0.025
0.534,0.240,0.030
0.536,0.280,0.035
0.538,0.335,0.030
0.540,0.295,0.020
0.542,0.170,0.010
0.544,0.120,-0.005
0.546,0.075,-0.020
0.548,-0.030,-0.030
0.550,-0.015,-0.035
0.552,0.085,-0.035
0.554,0.150,-0.035
0.556,0.170,-0.030
0.558,0.320,-0.030
0.560,0.240,-0.035
0.562,0.120,-0.035
0.564,0.050,-0.045
0.566,0.075,-0.050
0.568,-0.045,-0.055
0.570,0.025,-0.055
0.572,0.020,-0.055
0.574,0.155,-0.045
0.576,0.250,-0.040
0.578,0.295,-0.035
0.580,0.235,-0.030
0.582,0.135,-0.030
0.584,0.055,-0.035
0.586,0.050,-0.045
0.588,-0.040,-0.060
0.590,-0.010,-0.065
0.592,0.055,-0.070
0.594,0.155,-0.070
0.596,0.235,-0.065
0.598,0.285,-0.055
0.600,0.220,-0.040
0.602,0.160,-0.025
0.604,0.060,-0.015
0.606,0.035,-0.010
0.608,0.000,-0.010
0.610,0.010,-0.010
0.612,0.090,-0.015
0.614,0.190,-0.025
0.616,0.285,-0.030
0.618,0.315,-0.030
0.620,0.240,-0.030
0.622,0.160,-0.025
0.624,0.120,-0.020
0.626,0.055,-0.020
0.628,-0.055,-0.015
0.630,0.015,-0.020
0.632,0.085,-0.025
0.634,0.155,-0.030
0.636,0.250,-0.040
0.638,0.290,-0.045
0.640,0.255,-0.050
0.642,0.095,-0.045
0.644,0.015,-0.040
0.646,0.005,-0.035
0.648,0.045,-0.025
0.650,0.100,-0.015
0.652,0.150,-0.005
0.654,0.225,0.000
0.656,0.205,0.000
0.658,0.285,0.000
0.660,0.270,-0.005
0.662,0.170,-0.010
0.664,0.060,-0.015
0.666,0.060,-0.020
0.668,0.000,-0.025
0.670,0.030,-0.030
0.672,0.075,-0.030
0.674,0.185,-0.030
0.676,0.250,-0.030
0.678,0.270,-0.025
0.680,0.225,-0.025
0.682,0.160,-0.020
0.684,0.065,-0.015
0.686,0.045,-0.015
0.688,0.010,-0.015
0.690,0.035,-0.015
0.692,0.110,-0.020
0.694,0.205,-0.025
0.696,0.230,-0.030
0.698,0.280,-0.030
0.700,0.230,-0.030
0.702,0.135,-0.030
0.704,0.035,-0.025
0.706,0.020,-0.015
0.708,-0.020,-0.010
0.710,0.025,-0.005
0.712,0.185,-0.005
0.714,0.260,-0.010
0.716,0.260,-0.020
0.718,0.240,-0.030
0.720,0.155,-0.045
0.722,0.100,-0.055
0.724,0.045,-0.060
0.726,0.015,-0.055
0.728,-0.085,-0.050
0.730,0.050,-0.035
0.732,0.175,-0.020
0.734,0.240,-0.010
0.736,0.275,0.005
0.738,0.300,0.010
0.740,0.225,0.010
0.742,0.165,0.005
0.744,0.060,0.000
0.746,-0.075,-0.010
0.748,0.065,-0.015
0.750,0.060,-0.020
0.752,0.155,-0.025
0.754,0.240,-0.020
0.756,0.315,-0.020
0.758,0.325,-0.015
0.760,0.225,-0.010
0.762,0.145,-0.005
0.764,-0.030,-0.010
0.766,0.000,-0.010
0.768,-0.025,-0.015
0.770,0.075,-0.015
0.772,0.220,-0.015
0.774,0.235,-0.010
0.776,0.340,-0.005
0.778,0.320,0.005
0.780,0.185,0.010
0.782,0.055,0.020
0.784,0.085,0.025
0.786,0.015,0.020
0.788,0.020,0.015
0.790,0.140,0.005
0.792,0.215,-0.005
0.794,0.180,-0.015
0.796,0.280,-0.030
0.798,0.285,-0.035
0.800,0.175,-0.040
0.802,0.100,-0.045
0.804,0.040,-0.045
0.806,-0.010,-0.040
0.808,-0.045,-0.040
0.810,0.035,-0.040
0.812,0.115,-0.040
0.814,0.190,-0.045
0.816,0.270,-0.045
0.818,0.280,-0.050
0.820,0.165,-0.050
0.822,0.100,-0.055
0.824,0.025,-0.055
0.826,-0.075,-0.055
0.828,-0.025,-0.055
0.830,0.060,-0.060
0.832,0.095,-0.065
0.834,0.190,-0.070
0.836,0.255,-0.075
0.838,0.175,-0.075
0.840,0.130,-0.080
0.842,0.100,-0.075
0.844,0.040,-0.075
0.846,-0.100,-0.070
0.848,-0.045,-0.065
0.850,0.040,-0.060
0.852,0.120,-0.055
0.854,0.230,-0.055
0.856,0.300,-0.050
0.858,0.185,-0.045
0.860,0.115,-0.045
0.862,0.015,-0.040
0.864,0.070,-0.040
0.866,-0.045,-0.040
0.868,0.035,-0.035
0.870,0.045,-0.040
0.872,0.200,-0.045
0.874,0.165,-0.050
0.876,0.280,-0.055
0.878,0.155,-0.060
0.880,0.075,-0.065
0.882,0.085,-0.070
0.884,0.020,-0.070
0.886,-0.060,-0.070
0.888,-0.035,-0.070
0.890,0.100,-0.065
0.892,0.155,-0.060
0.894,0.080,-0.060
0.896,0.240,-0.060
0.898,0.190,-0.055
0.900,0.175,-0.055
0.902,0.055,-0.055
0.904,0.025,-0.055
0.906,-0.040,-0.050
0.908,0.005,-0.045
0.910,0.040,-0.040
0.912,0.120,-0.035
0.914,0.180,-0.030
0.916,0.300,-0.020
0.918,0.240,-0.015
0.920,0.180,-0.010
0.922,0.095,0.000
0.924,0.025,0.005
0.926,-0.035,0.015
0.928,0.065,0.030
0.930,0.195,0.045
0.932,0.295,0.070
0.934,0.395,0.095
0.936,0.455,0.125
0.938,0.385,0.155
0.940,0.360,0.185
0.942,0.360,0.210
0.944,0.305,0.225
0.946,0.225,0.235
0.948,0.285,0.230
0.950,0.340,0.220
0.952,0.355,0.200
0.954,0.435,0.175
0.956,0.510,0.145
0.958,0.380,0.115
0.960,0.290,0.085
0.962,0.110,0.060
0.964,0.010,0.030
0.966,-0.055,0.000
0.968,-0.040,-0.025
0.970,0.035,-0.050
0.972,0.205,-0.075
0.974,0.140,-0.090
0.976,0.245,-0.100
0.978,0.180,-0.100
0.980,0.065,-0.090
0.982,0.035,-0.075
0.984,-0.040,-0.055
0.986,-0.065,-0.035
0.988,0.060,-0.020
0.990,0.130,-0.010
0.992,0.215,-0.010
0.994,0.220,-0.015
0.996,0.270,-0.030
0.998,0.255,-0.050
1.000,0.090,-0.060
1.002,0.005,-0.070
1.004,-0.025,-0.070
1.006,-0.015,-0.065
1.008,0.020,-0.050
1.010,0.090,-0.035
1.012,0.240,-0.020
1.014,0.275,-0.010
1.016,0.285,-0.005
1.018,0.220,-0.010
1.020,0.105,-0.015
1.022,0.075,-0.025
1.024,-0.070,-0.035
1.026,-0.060,-0.045
1.028,0.085,-0.055
1.030,0.120,-0.055
1.032,0.195,-0.055
1.034,0.215,-0.050
1.036,0.225,-0.045
1.038,0.200,-0.035
1.040,0.145,-0.030
1.042,0.045,-0.025
1.044,0.010,-0.015
1.046,-0.050,-0.010
1.048,0.075,-0.010
1.050,0.200,-0.005
1.052,0.270,-0.005
1.054,0.245,-0.010
1.056,0.220,-0.010
1.058,0.180,-0.015
1.060,0.080,-0.020
1.062,0.045,-0.025
1.064,0.035,-0.025
1.066,0.105,-0.025
1.068,0.060,-0.025
1.070,0.140,-0.020
1.072,0.210,-0.015
1.074,0.245,-0.010
1.076,0.315,0.000
1.078,0.235,0.005
1.080,0.110,0.010
1.082,0.090,0.015
1.084,-0.015,0.020
1.086,0.000,0.025
1.088,0.165,0.030
1.090,0.190,0.025
1.092,0.255,0.025
1.094,0.320,0.020
1.096,0.300,0.015
1.098,0.170,0.010
1.100,0.120,0.005
1.102,0.095,0.000
1.104,-0.015,0.005
1.106,0.075,0.010
1.108,0.090,0.020
1.110,0.220,0.030
1.112,0.230,0.035
1.114,0.370,0.045
1.116,0.300,0.050
1.118,0.220,0.050
1.120,0.135,0.045
1.122,0.120,0.040
1.124,0.020,0.035
1.126,0.080,0.035
1.128,0.135,0.035
1.130,0.245,0.045
1.132,0.255,0.050
1.134,0.375,0.060
1.136,0.345,0.070
1.138,0.255,0.080
1.140,0.145,0.085
1.142,0.120,0.085
1.144,0.065,0.085
1.146,0.150,0.085
1.148,0.220,0.090
1.150,0.265,0.095
1.152,0.340,0.105
1.154,0.455,0.120
1.156,0.395,0.130
1.158,0.340,0.140
1.160,0.240,0.150
1.162,0.155,0.150
1.164,0.110,0.145
1.166,0.190,0.140
1.168,0.190,0.135
1.170,0.350,0.125
1.172,0.395,0.125
1.174,0.475,0.125
1.176,0.360,0.130
1.178,0.330,0.140
1.180,0.210,0.150
1.182,0.230,0.160
1.184,0.135,0.170
1.186,0.205,0.175
1.188,0.285,0.175
1.190,0.395,0.175
1.192,0.405,0.175
1.194,0.490,0.170
1.196,0.460,0.170
1.198,0.370,0.165
1.200,0.275,0.165
1.202,0.210,0.160
1.204,0.120,0.150
1.206,0.170,0.140
1.208,0.255,0.130
1.210,0.285,0.115
1.212,0.370,0.105
1.214,0.450,0.095
1.216,0.355,0.090
1.218,0.230,0.085
1.220,0.160,0.080
1.222,0.105,0.070
1.224,0.120,0.065
1.226,0.060,0.055
1.228,0.170,0.045
1.230,0.255,0.035
1.232,0.225,0.025
1.234,0.305,0.020
1.236,0.285,0.015
1.238,0.205,0.010
1.240,0.090,0.010
1.242,0.065,0.005
1.244,-0.015,0.005
1.246,-0.045,0.000
1.248,0.105,-0.005
1.250,0.195,-0.015
1.252,0.240,-0.025
1.254,0.195,-0.035
1.256,0.265,-0.040
1.258,0.205,-0.040
1.260,0.010,-0.040
1.262,-0.005,-0.035
1.264,-0.085,-0.030
1.266,0.035,-0.025
1.268,0.125,-0.025
1.270,0.185,-0.025
1.272,0.255,-0.035
1.274,0.275,-0.040
1.276,0.135,-0.050
1.278,0.085,-0.055
1.280,-0.005,-0.060
1.282,-0.040,-0.055
1.284,-0.020,-0.055
1.286,-0.005,-0.050
1.288,0.140,-0.045
1.290,0.265,-0.040
1.292,0.175,-0.040
1.294,0.200,-0.045
1.296,0.215,-0.050
1.298,0.065,-0.060
1.300,-0.005,-0.070
1.302,-0.030,-0.075
1.304,-0.025,-0.080
1.306,0.020,-0.075
1.308,0.100,-0.070
1.310,0.180,-0.065
1.312,0.190,-0.055
1.314,0.210,-0.045
1.316,0.190,-0.035
1.318,0.060,-0.030
1.320,0.090,-0.025
1.322,0.065,-0.025
1.324,-0.045,-0.025
1.326,0.055,-0.030
1.328,0.080,-0.035
1.330,0.150,-0.040
1.332,0.240,-0.045
1.334,0.190,-0.045
1.336,0.180,-0.050
1.338,0.105,-0.050
1.340,-0.010,-0.055
1.342,-0.105,-0.055
1.344,-0.015,-0.055
1.346,0.050,-0.050
1.348,0.115,-0.050
1.350,0.155,-0.045
1.352,0.200,-0.040
1.354,0.270,-0.035
1.356,0.185,-0.035
1.358,0.095,-0.030
1.360,0.015,-0.030
1.362,-0.005,-0.030
1.364,0.015,-0.030
1.366,0.045,-0.025
1.368,0.100,-0.025
1.370,0.205,-0.025
1.372,0.265,-0.020
1.374,0.280,-0.020
1.376,0.200,-0.020
1.378,0.130,-0.015
1.380,0.040,-0.020
1.382,-0.045,-0.020
1.384,-0.095,-0.025
1.386,0.020,-0.030
1.388,0.110,-0.035
1.390,0.220,-0.040
1.392,0.305,-0.040
1.394,0.245,-0.035
1.396,0.195,-0.030
1.398,0.100,-0.020
1.400,0.055,-0.015
1.402,-0.045,-0.010
1.404,-0.015,-0.005
1.406,0.040,-0.010
1.408,0.145,-0.015
1.410,0.185,-0.025
1.412,0.240,-0.040
1.414,0.230,-0.050
1.416,0.175,-0.055
1.418,0.070,-0.060
1.420,-0.015,-0.060
1.422,-0.120,-0.055
1.424,-0.040,-0.045
1.426,0.100,-0.035
1.428,0.115,-0.030
1.430,0.175,-0.030
1.432,0.280,-0.030
1.434,0.255,-0.030
1.436,0.120,-0.035
1.438,0.070,-0.040
1.440,0.040,-0.045
1.442,-0.100,-0.050
1.444,-0.015,-0.050
1.446,0.085,-0.050
1.448,0.130,-0.045
1.450,0.145,-0.045
1.452,0.250,-0.045
1.454,0.220,-0.045
1.456,0.065,-0.045
1.458,0.045,-0.050
1.460,0.030,-0.050
1.462,-0.055,-0.045
1.464,0.055,-0.040
1.466,0.050,-0.035
1.468,0.135,-0.030
1.470,0.210,-0.020
1.472,0.315,-0.015
1.474,0.250,-0.010
1.476,0.080,-0.010
1.478,0.125,-0.005
1.480,0.070,-0.005
1.482,-0.015,0.000
1.484,0.000,0.000
1.486,0.100,0.000
1.488,0.175,0.000
1.490,0.220,0.000
1.492,0.295,-0.005
1.494,0.215,-0.015
1.496,0.145,-0.020
1.498,0.030,-0.030
1.500,-0.010,-0.040
1.502,-0.055,-0.045
1.504,0.025,-0.045
1.506,0.030,-0.040
1.508,0.095,-0.035
1.510,0.250,-0.030
1.512,0.285,-0.025
1.514,0.220,-0.020
1.516,0.165,-0.020
1.518,0.080,-0.020
1.520,0.030,-0.025
1.522,-0.065,-0.030
1.524,-0.035,-0.040
1.526,0.085,-0.040
1.528,0.155,-0.045
1.530,0.160,-0.045
1.532,0.260,-0.040
1.534,0.165,-0.040
1.536,0.145,-0.035
1.538,0.065,-0.035
1.540,-0.005,-0.030
1.542,-0.080,-0.030
1.544,-0.020,-0.035
1.546,0.095,-0.035
1.548,0.155,-0.040
1.550,0.195,-0.040
1.552,0.245,-0.045
1.554,0.180,-0.050
1.556,0.115,-0.055
1.558,0.080,-0.060
1.560,-0.010,-0.060
1.562,-0.155,-0.060
1.564,-0.075,-0.060
1.566,0.100,-0.060
1.568,0.130,-0.060
1.570,0.155,-0.055
1.572,0.280,-0.050
1.574,0.200,-0.050
1.576,0.050,-0.050
1.578,0.030,-0.050
1.580,-0.040,-0.050
1.582,-0.080,-0.050
1.584,-0.015,-0.050
1.586,0.090,-0.045
1.588,0.170,-0.045
1.590,0.205,-0.040
1.592,0.275,-0.040
1.594,0.145,-0.040
1.596,0.095,-0.045
1.598,-0.015,-0.050
1.600,0.025,-0.055
1.602,-0.090,-0.055
1.604,0.000,-0.055
1.606,0.085,-0.055
1.608,0.140,-0.050
1.610,0.180,-0.045
1.612,0.265,-0.040
1.614,0.185,-0.035
1.616,0.095,-0.035
1.618,0.000,-0.035
1.620,-0.090,-0.045
1.622,-0.140,-0.050
1.624,0.005,-0.055
1.626,0.105,-0.060
1.628,0.200,-0.060
1.630,0.205,-0.055
1.632,0.250,-0.050
1.634,0.230,-0.040
1.636,0.055,-0.030
1.638,-0.005,-0.025
1.640,0.015,-0.020
1.642,-0.050,-0.020
1.644,-0.010,-0.020
1.646,0.120,-0.015
1.648,0.225,-0.005
1.650,0.325,0.015
1.652,0.365,0.040
1.654,0.365,0.075
1.656,0.200,0.115
1.658,0.165,0.155
1.660,0.175,0.190
1.662,0.255,0.220
1.664,0.360,0.235
1.666,0.395,0.245
1.668,0.385,0.245
1.670,0.510,0.240
1.672,0.495,0.230
1.674,0.475,0.220
1.676,0.300,0.205
1.678,0.275,0.190
1.680,0.190,0.165
1.682,0.105,0.140
1.684,0.110,0.105
1.686,0.195,0.065
1.688,0.185,0.020
1.690,0.190,-0.020
1.692,0.150,-0.060
1.694,0.120,-0.090
1.696,0.055,-0.110
1.698,0.000,-0.115
1.700,-0.130,-0.105
1.702,-0.060,-0.085
1.704,-0.020,-0.065
1.706,0.105,-0.045
1.708,0.165,-0.030
1.710,0.280,-0.020
1.712,0.220,-0.020
1.714,0.145,-0.025
1.716,0.065,-0.035
1.718,-0.030,-0.045
1.720,-0.045,-0.055
1.722,-0.010,-0.055
1.724,-0.045,-0.060
1.726,0.105,-0.055
1.728,0.240,-0.055
1.730,0.260,-0.055
1.732,0.140,-0.050
1.734,0.095,-0.055
1.736,0.060,-0.055
1.738,0.030,-0.055
1.740,-0.100,-0.050
1.742,-0.010,-0.045
1.744,0.045,-0.035
1.746,0.155,-0.020
1.748,0.215,-0.010
1.750,0.215,0.000
1.752,0.250,0.005
1.754,0.185,0.000
1.756,0.075,-0.010
1.758,0.010,-0.025
1.760,-0.115,-0.040
1.762,-0.050,-0.050
1.764,0.055,-0.055
1.766,0.155,-0.055
1.768,0.220,-0.050
1.770,0.225,-0.040
1.772,0.125,-0.025
1.774,0.190,-0.015
1.776,0.035,-0.010
1.778,-0.010,-0.005
1.780,-0.020,-0.005
1.782,0.010,-0.015
1.784,0.105,-0.020
1.786,0.190,-0.030
1.788,0.145,-0.035
1.790,0.205,-0.035
1.792,0.230,-0.035
1.794,0.085,-0.035
1.796,0.100,-0.030
1.798,0.040,-0.025
1.800,-0.100,-0.020
1.802,0.010,-0.015
1.804,0.035,-0.010
1.806,0.170,-0.010
1.808,0.230,-0.005
1.810,0.305,-0.005
1.812,0.245,-0.005
1.814,0.185,-0.005
1.816,0.070,-0.005
1.818,0.025,-0.005
1.820,-0.110,-0.005
1.822,-0.025,-0.005
1.824,0.165,-0.005
1.826,0.215,0.000
1.828,0.205,0.000
1.830,0.295,0.005
1.832,0.235,0.010
1.834,0.115,0.015
1.836,0.065,0.020
1.838,0.100,0.020
1.840,-0.005,0.020
1.842,0.055,0.020
1.844,0.110,0.015
1.846,0.245,0.015
1.848,0.235,0.015
1.850,0.275,0.020
1.852,0.210,0.030
1.854,0.195,0.035
1.856,0.140,0.045
1.858,0.130,0.055
1.860,0.045,0.065
1.862,0.065,0.065
1.864,0.150,0.070
1.866,0.290,0.070
1.868,0.290,0.070
1.870,0.335,0.070
1.872,0.335,0.075
1.874,0.280,0.080
1.876,0.140,0.085
1.878,0.110,0.090
1.880,0.000,0.095
1.882,0.145,0.100
1.884,0.200,0.100
1.886,0.325,0.100
1.888,0.345,0.100
1.890,0.390,0.100
1.892,0.235,0.105
1.894,0.260,0.115
1.896,0.235,0.125
1.898,0.155,0.140
1.900,0.160,0.155
1.902,0.240,0.165
1.904,0.280,0.175
1.906,0.355,0.175
1.908,0.385,0.170
1.910,0.405,0.165
1.912,0.355,0.150
1.914,0.225,0.140
1.916,0.230,0.135
1.918,0.225,0.130
1.920,0.095,0.130
1.922,0.140,0.135
1.924,0.260,0.140
1.926,0.380,0.145
1.928,0.405,0.150
1.930,0.445,0.140
1.932,0.290,0.130
1.934,0.250,0.115
1.936,0.110,0.095
1.938,0.050,0.080
1.940,0.050,0.060
1.942,0.125,0.045
1.944,0.150,0.035
1.946,0.275,0.030
1.948,0.255,0.025
1.950,0.225,0.015
1.952,0.220,0.010
1.954,0.085,0.005
1.956,0.045,-0.005
1.958,0.030,-0.010
1.960,-0.035,-0.020
1.962,0.005,-0.025
1.964,0.110,-0.030
1.966,0.150,-0.035
1.968,0.175,-0.040
1.970,0.205,-0.040
1.972,0.165,-0.045
1.974,0.075,-0.050
1.976,-0.025,-0.055
1.978,-0.065,-0.060
1.980,-0.100,-0.070
1.982,-0.005,-0.075
1.984,0.050,-0.075
1.986,0.130,-0.075
1.988,0.175,-0.075
1.990,0.160,-0.075
1.992,0.135,-0.070
1.994,0.080,-0.070
1.996,0.020,-0.070
1.998,-0.075,-0.070
2.000,-0.125,-0.070
2.002,-0.045,-0.075
2.004,0.010,-0.075
2.006,0.080,-0.070
2.008,0.260,-0.070
2.010,0.225,-0.060
2.012,0.140,-0.055
2.014,0.025,-0.045
2.016,-0.060,-0.040
2.018,-0.065,-0.035
2.020,-0.065,-0.035
2.022,-0.015,-0.035
2.024,0.165,-0.045
2.026,0.145,-0.050
2.028,0.165,-0.060
2.030,0.220,-0.065
2.032,0.095,-0.065
2.034,-0.025,-0.065
2.036,-0.015,-0.060
2.038,-0.095,-0.055
2.040,-0.050,-0.050
2.042,-0.015,-0.050
2.044,0.125,-0.050
2.046,0.170,-0.055
2.048,0.245,-0.060
2.050,0.110,-0.070
2.052,0.090,-0.080
2.054,0.020,-0.085
2.056,-0.015,-0.085
2.058,-0.100,-0.080
2.060,-0.065,-0.075
2.062,0.000,-0.065
2.064,0.100,-0.055
2.066,0.200,-0.045
2.068,0.250,-0.040
2.070,0.185,-0.035
2.072,0.110,-0.035
2.074,0.015,-0.040
2.076,0.040,-0.045
2.078,-0.085,-0.050
2.080,-0.060,-0.055
2.082,-0.025,-0.055
2.084,0.085,-0.060
2.086,0.165,-0.055
2.088,0.220,-0.055
2.090,0.175,-0.050
2.092,0.155,-0.045
2.094,-0.015,-0.040
2.096,0.005,-0.035
2.098,-0.075,-0.035
2.100,-0.025,-0.030
2.102,0.055,-0.030
2.104,0.140,-0.025
2.106,0.150,-0.025
2.108,0.240,-0.025
2.110,0.185,-0.025
2.112,0.165,-0.020
2.114,0.055,-0.020
2.116,0.005,-0.020
2.118,-0.070,-0.015
2.120,-0.055,-0.015
2.122,0.060,-0.015
2.124,0.145,-0.020
2.126,0.185,-0.025
2.128,0.250,-0.035
2.130,0.140,-0.040
2.132,0.075,-0.045
2.134,-0.010,-0.045
2.136,-0.010,-0.045
2.138,-0.085,-0.040
2.140,0.005,-0.030
2.142,0.070,-0.025
2.144,0.120,-0.020
2.146,0.135,-0.020
2.148,0.220,-0.020
2.150,0.185,-0.025
2.152,0.120,-0.035
2.154,0.005,-0.040
2.156,-0.010,-0.045
2.158,-0.090,-0.050
2.160,-0.040,-0.050
2.162,0.035,-0.050
2.164,0.135,-0.045
2.166,0.190,-0.045
2.168,0.260,-0.040
2.170,0.155,-0.040
2.172,0.075,-0.045
2.174,0.035,-0.045
2.176,-0.065,-0.050
2.178,-0.135,-0.055
2.180,-0.060,-0.060
2.182,0.065,-0.060
2.184,0.130,-0.055
2.186,0.140,-0.050
2.188,0.220,-0.040
2.190,0.215,-0.035
2.192,0.100,-0.025
2.194,0.010,-0.020
2.196,-0.025,-0.020
2.198,-0.070,-0.020
2.200,-0.030,-0.025
2.202,0.105,-0.025
2.204,0.150,-0.030
2.206,0.185,-0.035
2.208,0.215,-0.035
2.210,0.195,-0.040
2.212,0.080,-0.040
2.214,-0.025,-0.040
2.216,-0.045,-0.040
2.218,-0.050,-0.040
2.220,-0.045,-0.040
2.222,0.035,-0.040
2.224,0.140,-0.040
2.226,0.220,-0.040
2.228,0.195,-0.040
2.230,0.190,-0.035
2.232,0.110,-0.030
2.234,0.060,-0.025
2.236,0.030,-0.020
2.238,-0.105,-0.015
2.240,-0.005,-0.010
2.242,0.100,-0.005
2.244,0.180,0.000
2.246,0.200,0.000
2.248,0.260,0.000
2.250,0.185,0.000
2.252,0.095,0.000
2.254,0.015,-0.005
2.256,-0.030,-0.010
2.258,-0.050,-0.010
2.260,0.015,-0.015
2.262,0.155,-0.015
2.264,0.150,-0.015
2.266,0.225,-0.015
2.268,0.205,-0.015
2.270,0.200,-0.015
2.272,0.055,-0.015
2.274,0.000,-0.015
2.276,0.000,-0.015
2.278,-0.040,-0.015
2.280,-0.010,-0.020
2.282,0.080,-0.025
2.284,0.215,-0.035
2.286,0.170,-0.040
2.288,0.185,-0.045
2.290,0.120,-0.055
2.292,0.040,-0.060
2.294,-0.050,-0.060
2.296,-0.090,-0.065
2.298,-0.075,-0.065
2.300,0.055,-0.060
2.302,0.090,-0.055
2.304,0.005,-0.050
2.306,0.170,-0.045
2.308,0.255,-0.040
2.310,0.185,-0.035
2.312,0.045,-0.030
2.314,-0.110,-0.030
2.316,-0.055,-0.030
2.318,-0.045,-0.035
2.320,-0.030,-0.040
2.322,0.120,-0.045
2.324,0.130,-0.045
2.326,0.170,-0.050
2.328,0.170,-0.050
2.330,0.140,-0.050
2.332,0.035,-0.050
2.334,0.030,-0.050
2.336,-0.125,-0.045
2.338,-0.105,-0.045
2.340,0.035,-0.040
2.342,0.085,-0.040
2.344,0.185,-0.040
2.346,0.235,-0.040
2.348,0.190,-0.045
2.350,0.085,-0.045
2.352,-0.070,-0.050
2.354,-0.040,-0.050
2.356,-0.025,-0.050
2.358,-0.075,-0.055
2.360,0.010,-0.050
2.362,0.075,-0.050
2.364,0.165,-0.050
2.366,0.225,-0.045
2.368,0.170,-0.045
2.370,0.050,-0.040
2.372,0.055,-0.040
2.374,0.000,-0.045
2.376,-0.110,-0.045
2.378,-0.090,-0.050
2.380,-0.035,-0.050
2.382,0.085,-0.055
2.384,0.105,-0.055
2.386,0.220,-0.055
2.388,0.225,-0.050
2.390,0.125,-0.045
2.392,0.045,-0.040
2.394,0.000,-0.035
2.396,-0.115,-0.035
2.398,-0.100,-0.030
2.400,0.050,-0.025
2.402,0.105,-0.015
2.404,0.210,0.000
2.406,0.345,0.025
2.408,0.205,0.060
2.410,0.225,0.100
2.412,0.260,0.150
2.414,0.280,0.195
2.416,0.160,0.240
2.418,0.240,0.275
2.420,0.365,0.300
2.422,0.525,0.310
2.424,0.535,0.310
2.426,0.555,0.295
2.428,0.380,0.270
2.430,0.340,0.240
2.432,0.290,0.205
2.434,0.245,0.175
2.436,0.130,0.140
2.438,0.100,0.105
2.440,0.150,0.070
2.442,0.140,0.040
2.444,0.130,0.010
2.446,0.175,-0.015
2.448,0.150,-0.035
2.450,0.080,-0.050
2.452,-0.010,-0.055
2.454,-0.005,-0.055
2.456,-0.100,-0.050
2.458,-0.085,-0.040
2.460,0.040,-0.030
2.462,0.130,-0.025
2.464,0.195,-0.025
2.466,0.225,-0.025
2.468,0.135,-0.035
2.470,0.110,-0.045
2.472,-0.020,-0.055
2.474,-0.085,-0.060
2.476,-0.085,-0.065
2.478,-0.030,-0.060
2.480,0.055,-0.055
2.482,0.140,-0.040
2.484,0.210,-0.025
2.486,0.200,-0.010
2.488,0.095,0.000
2.490,0.150,0.005
2.492,0.035,0.005
2.494,0.035,0.000
2.496,-0.065,-0.010
2.498,-0.070,-0.025
2.500,0.000,-0.030
2.502,0.115,-0.040
2.504,0.220,-0.040
2.506,0.205,-0.040
2.508,0.175,-0.035
2.510,0.100,-0.030
2.512,-0.015,-0.020
2.514,-0.015,-0.015
2.516,-0.055,-0.010
2.518,-0.055,-0.005
2.520,0.060,0.000
2.522,0.190,0.000
2.524,0.195,0.005
2.526,0.215,0.005
2.528,0.205,0.005
2.530,0.170,0.005
2.532,0.100,0.000
2.534,0.035,0.000
2.536,-0.090,-0.005
2.538,-0.060,-0.010
2.540,0.060,-0.015
2.542,0.175,-0.020
2.544,0.170,-0.020
2.546,0.220,-0.020
2.548,0.175,-0.015
2.550,0.080,-0.010
2.552,0.035,0.000
2.554,-0.055,0.000
2.556,-0.060,0.005
2.558,0.070,0.005
2.560,0.160,0.005
2.562,0.120,0.000
2.564,0.215,-0.005
2.566,0.235,-0.005
2.568,0.165,-0.005
2.570,0.105,-0.005
2.572,0.005,-0.005
2.574,-0.030,0.000
2.576,-0.085,0.005
2.578,0.005,0.010
2.580,0.110,0.010
2.582,0.255,0.015
2.584,0.240,0.015
2.586,0.270,0.020
2.588,0.240,0.025
2.590,0.115,0.030
2.592,0.030,0.035
2.594,-0.030,0.040
2.596,0.000,0.045
2.598,0.085,0.050
2.600,0.175,0.050
2.602,0.235,0.045
2.604,0.255,0.045
2.606,0.195,0.040
2.608,0.155,0.035
2.610,0.130,0.035
2.612,0.085,0.040
2.614,0.060,0.050
2.616,0.045,0.060
2.618,0.045,0.080
2.620,0.220,0.095
2.622,0.295,0.115
2.624,0.330,0.125
2.626,0.345,0.130
2.628,0.275,0.135
2.630,0.175,0.130
2.632,0.125,0.125
2.634,0.070,0.115
2.636,0.115,0.110
2.638,0.175,0.110
2.640,0.205,0.115
2.642,0.310,0.120
2.644,0.370,0.135
2.646,0.375,0.145
2.648,0.230,0.160
2.650,0.245,0.165
2.652,0.260,0.170
2.654,0.105,0.165
2.656,0.110,0.160
2.658,0.180,0.155
2.660,0.290,0.145
2.662,0.265,0.140
2.664,0.325,0.140
2.666,0.385,0.140
2.668,0.320,0.150
2.670,0.265,0.160
2.672,0.210,0.170
2.674,0.065,0.180
2.676,0.165,0.190
2.678,0.210,0.190
2.680,0.315,0.190
2.682,0.310,0.185
2.684,0.445,0.180
2.686,0.390,0.170
2.688,0.285,0.165
2.690,0.210,0.155
2.692,0.125,0.145
2.694,0.040,0.140
2.696,0.125,0.130
2.698,0.175,0.120
2.700,0.175,0.110
2.702,0.280,0.100
2.704,0.310,0.085
2.706,0.245,0.075
2.708,0.185,0.065
2.710,0.095,0.060
2.712,0.035,0.050
2.714,-0.025,0.045
2.716,0.035,0.035
2.718,0.055,0.025
2.720,0.195,0.020
2.722,0.125,0.010
2.724,0.225,0.005
2.726,0.230,0.000
2.728,0.145,0.000
2.730,0.015,0.000
2.732,-0.015,0.005
2.734,-0.035,0.010
2.736,-0.005,0.010
2.738,0.045,0.010
2.740,0.170,0.005
2.742,0.145,0.000
2.744,0.230,-0.010
2.746,0.175,-0.020
2.748,0.105,-0.030
2.750,0.025,-0.040
2.752,-0.035,-0.045
2.754,-0.115,-0.045
2.756,-0.160,-0.045
2.758,0.020,-0.045
2.760,0.060,-0.045
2.762,0.110,-0.045
2.764,0.210,-0.045
2.766,0.125,-0.045
2.768,0.090,-0.040
2.770,0.025,-0.035
2.772,0.035,-0.030
2.774,-0.100,-0.020
2.776,-0.115,-0.010
2.778,0.080,0.000
2.780,0.115,0.000
2.782,0.160,0.000
2.784,0.210,0.000
2.786,0.130,-0.010
2.788,0.075,-0.015
2.790,0.020,-0.025
2.792,-0.025,-0.030
2.794,-0.070,-0.030
2.796,-0.030,-0.025
2.798,0.050,-0.020
2.800,0.110,-0.015
2.802,0.155,-0.010
2.804,0.210,-0.010
2.806,0.145,-0.015
2.808,0.090,-0.015
2.810,-0.015,-0.020
2.812,-0.035,-0.025
2.814,-0.105,-0.030
2.816,-0.040,-0.025
2.818,0.010,-0.020
2.820,0.080,-0.015
2.822,0.235,-0.010
2.824,0.185,-0.005
2.826,0.150,-0.005
2.828,0.065,-0.010
2.830,-0.005,-0.020
2.832,-0.020,-0.025
2.834,-0.085,-0.035
2.836,-0.095,-0.035
2.838,0.030,-0.035
2.840,0.145,-0.035
2.842,0.175,-0.025
2.844,0.160,-0.020
2.846,0.085,-0.015
2.848,0.060,-0.015
2.850,0.030,-0.015
2.852,-0.010,-0.015
2.854,-0.110,-0.020
2.856,-0.015,-0.025
2.858,0.080,-0.025
2.860,0.115,-0.025
2.862,0.160,-0.020
2.864,0.175,-0.015
2.866,0.175,-0.005
2.868,0.100,0.000
2.870,0.005,0.010
2.872,-0.015,0.010
2.874,-0.055,0.010
2.876,-0.035,0.005
2.878,0.025,0.000
2.880,0.110,-0.010
2.882,0.210,-0.015
2.884,0.210,-0.025
2.886,0.165,-0.030
2.888,0.025,-0.030
2.890,-0.040,-0.035
2.892,-0.095,-0.040
2.894,-0.090,-0.045
2.896,-0.020,-0.050
2.898,0.020,-0.055
2.900,0.100,-0.060
2.902,0.140,-0.065
2.904,0.135,-0.065
2.906,0.105,-0.065
2.908,0.000,-0.060
2.910,-0.065,-0.050
2.912,-0.130,-0.045
2.914,-0.070,-0.040
2.916,-0.005,-0.035
2.918,0.040,-0.035
2.920,0.160,-0.035
2.922,0.150,-0.040
2.924,0.175,-0.050
2.926,0.055,-0.055
2.928,-0.040,-0.060
2.930,-0.075,-0.060
2.932,-0.135,-0.055
2.934,-0.100,-0.050
2.936,-0.065,-0.045
2.938,0.080,-0.040
2.940,0.185,-0.035
2.942,0.250,-0.035
2.944,0.145,-0.040
2.946,0.085,-0.040
2.948,-0.020,-0.045
2.950,-0.065,-0.045
2.952,-0.150,-0.040
2.954,-0.120,-0.035
2.956,-0.065,-0.030
2.958,0.130,-0.025
2.960,0.180,-0.015
2.962,0.260,-0.015
2.964,0.190,-0.010
2.966,0.080,-0.015
2.968,0.010,-0.020
2.970,-0.060,-0.025
2.972,-0.130,-0.030
2.974,-0.085,-0.040
2.976,0.005,-0.040
2.978,0.070,-0.040
2.980,0.110,-0.040
2.982,0.210,-0.040
2.984,0.175,-0.035
2.986,0.045,-0.030
2.988,-0.035,-0.030
2.990,-0.055,-0.035
2.992,-0.125,-0.040
2.994,-0.120,-0.045
2.996,0.010,-0.055
2.998,0.110,-0.060
3.000,0.105,-0.065
3.002,0.175,-0.065
3.004,0.070,-0.060
3.006,0.020,-0.055
3.008,0.000,-0.040
3.010,0.005,-0.025
3.012,-0.100,-0.015
3.014,-0.030,0.000
3.016,0.020,0.005
3.018,0.115,0.000
3.020,0.160,-0.005
3.022,0.255,-0.015
3.024,0.150,-0.025
3.026,0.000,-0.035
3.028,-0.060,-0.040
3.030,-0.060,-0.040
3.032,-0.120,-0.030
3.034,-0.010,-0.010
3.036,0.120,0.010
3.038,0.185,0.025
3.040,0.140,0.040
3.042,0.250,0.045
3.044,0.175,0.045
3.046,0.130,0.035
3.048,0.020,0.020
3.050,0.020,0.000
3.052,-0.105,-0.015
3.054,-0.085,-0.025
3.056,0.040,-0.030
3.058,0.160,-0.025
3.060,0.095,-0.020
3.062,0.160,-0.010
3.064,0.190,-0.005
3.066,0.085,0.000
3.068,0.000,-0.005
3.070,0.005,-0.015
3.072,-0.125,-0.025
3.074,-0.055,-0.040
3.076,-0.020,-0.055
3.078,-0.025,-0.065
3.080,0.105,-0.065
3.082,0.175,-0.065
3.084,0.120,-0.060
3.086,0.025,-0.050
3.088,0.000,-0.040
3.090,-0.095,-0.040
3.092,-0.140,-0.035
3.094,-0.135,-0.040
3.096,-0.020,-0.045
3.098,0.120,-0.050
3.100,0.130,-0.055
3.102,0.185,-0.055
3.104,0.125,-0.050
3.106,0.040,-0.040
3.108,-0.085,-0.030
3.110,-0.085,-0.025
3.112,-0.135,-0.020
3.114,-0.035,-0.020
3.116,0.015,-0.025
3.118,0.115,-0.035
3.120,0.085,-0.045
3.122,0.160,-0.060
3.124,0.165,-0.065
3.126,0.015,-0.070
3.128,-0.070,-0.070
3.130,-0.120,-0.060
3.132,-0.115,-0.050
3.134,-0.120,-0.040
3.136,0.075,-0.030
3.138,0.085,-0.025
3.140,0.175,-0.025
3.142,0.160,-0.025
3.144,0.075,-0.030
3.146,0.075,-0.035
3.148,-0.045,-0.040
3.150,-0.080,-0.040
3.152,-0.140,-0.045
3.154,-0.060,-0.040
3.156,0.000,-0.040
3.158,0.100,-0.035
3.160,0.145,-0.035
3.162,0.190,-0.030
3.164,0.095,-0.030
3.166,0.070,-0.025
3.168,0.005,-0.025
3.170,-0.090,-0.025
3.172,-0.145,-0.025
3.174,-0.025,-0.020
3.176,0.000,-0.020
3.178,0.070,-0.020
3.180,0.170,-0.015
3.182,0.220,-0.005
3.184,0.165,0.005
3.186,0.110,0.025
3.188,0.095,0.055
3.190,0.040,0.085
3.192,0.040,0.120
3.194,0.115,0.160
3.196,0.305,0.195
3.198,0.400,0.230
3.200,0.465,0.260
3.202,0.540,0.280
3.204,0.425,0.290
3.206,0.305,0.290
3.208,0.210,0.280
3.210,0.225,0.265
3.212,0.155,0.235
3.214,0.170,0.195
3.216,0.195,0.150
3.218,0.215,0.105
3.220,0.285,0.055
3.222,0.200,0.010
3.224,0.075,-0.025
3.226,-0.030,-0.050
3.228,-0.115,-0.060
3.230,-0.115,-0.065
3.232,-0.175,-0.060
3.234,-0.115,-0.050
3.236,0.085,-0.040
3.238,0.155,-0.035
3.240,0.190,-0.030
3.242,0.160,-0.035
3.244,0.015,-0.040
3.246,-0.035,-0.045
3.248,-0.075,-0.045
3.250,-0.135,-0.040
3.252,-0.055,-0.025
3.254,0.040,-0.010
3.256,0.090,0.005
3.258,0.125,0.020
3.260,0.250,0.025
3.262,0.225,0.025
3.264,0.075,0.015
3.266,-0.005,-0.005
3.268,-0.075,-0.025
3.270,-0.190,-0.045
3.272,-0.110,-0.060
3.274,-0.025,-0.070
3.276,0.020,-0.075
3.278,0.110,-0.070
3.280,0.205,-0.055
3.282,0.125,-0.045
3.284,0.080,-0.030
3.286,0.005,-0.020
3.288,-0.045,-0.010
3.290,-0.105,-0.005
3.292,-0.075,0.000
3.294,-0.015,0.000
3.296,0.125,0.000
3.298,0.185,-0.005
3.300,0.190,-0.005
3.302,0.150,-0.010
3.304,0.015,-0.015
3.306,-0.015,-0.020
3.308,-0.015,-0.025
3.310,-0.185,-0.030
3.312,-0.040,-0.025
3.314,0.030,-0.025
3.316,0.060,-0.015
3.318,0.150,-0.010
3.320,0.220,-0.005
3.322,0.155,0.000
3.324,0.105,0.005
3.326,0.020,0.000
3.328,-0.100,-0.005
3.330,-0.165,-0.015
3.332,-0.060,-0.020
3.334,0.040,-0.025
3.336,0.095,-0.025
3.338,0.085,-0.020
3.340,0.230,-0.015
3.342,0.235,-0.005
3.344,0.015,0.005
3.346,0.025,0.015
3.348,-0.050,0.015
3.350,-0.090,0.015
3.352,-0.040,0.010
3.354,0.050,0.005
3.356,0.110,0.000
3.358,0.160,-0.005
3.360,0.180,-0.005
3.362,0.180,0.000
3.364,0.120,0.005
3.366,0.040,0.015
3.368,0.010,0.025
3.370,-0.050,0.030
3.372,-0.050,0.035
3.374,0.000,0.035
3.376,0.215,0.030
3.378,0.155,0.025
3.380,0.195,0.020
3.382,0.160,0.015
3.384,0.145,0.020
3.386,0.070,0.025
3.388,-0.015,0.035
3.390,-0.065,0.050
3.392,0.000,0.065
3.394,0.110,0.075
3.396,0.180,0.085
3.398,0.225,0.090
3.400,0.290,0.085
3.402,0.220,0.085
3.404,0.190,0.080
3.406,0.085,0.075
3.408,0.040,0.070
3.410,0.015,0.075
3.412,0.040,0.080
3.414,0.120,0.090
3.416,0.255,0.100
3.418,0.270,0.115
3.420,0.315,0.125
3.422,0.295,0.135
3.424,0.195,0.140
3.426,0.095,0.140
3.428,0.090,0.140
3.430,0.070,0.140
3.432,0.115,0.140
3.434,0.215,0.140
3.436,0.285,0.145
3.438,0.225,0.145
3.440,0.340,0.150
3.442,0.320,0.155
3.444,0.230,0.160
3.446,0.145,0.160
3.448,0.095,0.160
3.450,0.080,0.160
3.452,0.120,0.160
3.454,0.230,0.160
3.456,0.295,0.165
3.458,0.245,0.165
3.460,0.385,0.170
3.462,0.325,0.170
3.464,0.250,0.170
3.466,0.195,0.165
3.468,0.090,0.160
3.470,0.045,0.150
3.472,0.075,0.140
3.474,0.100,0.125
3.476,0.225,0.110
3.478,0.260,0.095
3.480,0.290,0.085
3.482,0.225,0.080
3.484,0.150,0.075
3.486,0.060,0.070
3.488,-0.035,0.070
3.490,-0.050,0.065
3.492,0.000,0.060
3.494,0.090,0.050
3.496,0.165,0.040
3.498,0.230,0.025
3.500,0.235,0.015
3.502,0.100,0.000
3.504,0.050,-0.010
3.506,-0.035,-0.015
3.508,-0.190,-0.020
3.510,-0.080,-0.025
3.512,-0.090,-0.030
3.514,0.025,-0.035
3.516,0.110,-0.035
3.518,0.135,-0.040
3.520,0.160,-0.045
3.522,0.085,-0.045
3.524,-0.035,-0.045
3.526,-0.070,-0.045
3.528,-0.135,-0.040
3.530,-0.175,-0.040
3.532,-0.100,-0.035
3.534,0.105,-0.035
3.536,0.135,-0.035
3.538,0.110,-0.035
3.540,0.180,-0.040
3.542,0.055,-0.040
3.544,-0.050,-0.045
3.546,-0.070,-0.045
3.548,-0.115,-0.045
3.550,-0.140,-0.045
3.552,0.000,-0.045
3.554,-0.010,-0.050
3.556,0.020,-0.050
3.558,0.145,-0.060
3.560,0.130,-0.065
3.562,0.025,-0.070
3.564,-0.040,-0.075
3.566,-0.085,-0.075
3.568,-0.190,-0.075
3.570,-0.135,-0.070
3.572,-0.060,-0.060
3.574,0.015,-0.055
3.576,0.075,-0.045
3.578,0.175,-0.040
3.580,0.115,-0.040
3.582,0.045,-0.045
3.584,-0.065,-0.055
3.586,-0.105,-0.065
3.588,-0.205,-0.075
3.590,-0.145,-0.080
3.592,-0.065,-0.085
3.594,0.095,-0.085
3.596,0.100,-0.080
3.598,0.120,-0.075
3.600,0.100,-0.065
3.602,0.025,-0.060
3.604,-0.075,-0.055
3.606,-0.115,-0.055
3.608,-0.175,-0.060
3.610,-0.145,-0.065
3.612,-0.030,-0.070
3.614,0.010,-0.070
3.616,0.090,-0.070
3.618,0.155,-0.065
3.620,0.130,-0.055
3.622,0.015,-0.045
3.624,-0.060,-0.040
3.626,-0.065,-0.030
3.628,-0.125,-0.025
3.630,-0.070,-0.030
3.632,-0.050,-0.030
3.634,0.090,-0.040
3.636,0.080,-0.050
3.638,0.140,-0.055
3.640,0.105,-0.060
3.642,0.020,-0.060
3.644,-0.065,-0.055
3.646,-0.090,-0.050
3.648,-0.185,-0.045
3.650,-0.070,-0.040
3.652,-0.010,-0.035
3.654,0.030,-0.035
3.656,0.085,-0.040
3.658,0.175,-0.045
3.660,0.090,-0.055
3.662,0.030,-0.060
3.664,-0.105,-0.070
3.666,-0.100,-0.075
3.668,-0.185,-0.080
3.670,-0.115,-0.080
3.672,-0.090,-0.075
3.674,0.040,-0.065
3.676,0.100,-0.060
3.678,0.125,-0.050
3.680,0.140,-0.045
3.682,0.035,-0.045
3.684,-0.055,-0.045
3.686,-0.095,-0.050
3.688,-0.235,-0.060
3.690,-0.100,-0.065
3.692,0.020,-0.070
3.694,0.045,-0.075
3.696,0.030,-0.075
3.698,0.115,-0.075
3.700,0.090,-0.070
3.702,0.000,-0.065
3.704,-0.145,-0.060
3.706,-0.100,-0.055
3.708,-0.100,-0.055
3.710,-0.080,-0.050
3.712,-0.005,-0.050
3.714,0.045,-0.045
3.716,0.115,-0.045
3.718,0.150,-0.040
3.720,0.115,-0.035
3.722,-0.015,-0.035
3.724,-0.035,-0.030
3.726,-0.105,-0.030
3.728,-0.155,-0.035
3.730,-0.120,-0.040
3.732,0.005,-0.045
3.734,0.120,-0.050
3.736,0.090,-0.055
3.738,0.110,-0.055
3.740,0.090,-0.050
3.742,0.030,-0.045
3.744,-0.065,-0.040
3.746,-0.090,-0.030
3.748,-0.140,-0.025
3.750,-0.030,-0.020
3.752,0.025,-0.020
3.754,0.045,-0.020
3.756,0.075,-0.025
3.758,0.150,-0.025
3.760,0.120,-0.025
3.762,0.045,-0.025
3.764,-0.055,-0.025
3.766,-0.125,-0.020
3.768,-0.120,-0.020
3.770,-0.015,-0.020
3.772,0.040,-0.020
3.774,0.045,-0.025
3.776,0.130,-0.030
3.778,0.145,-0.040
3.780,0.055,-0.045
3.782,0.020,-0.045
3.784,-0.050,-0.050
3.786,-0.110,-0.050
3.788,-0.150,-0.050
3.790,-0.095,-0.050
3.792,-0.060,-0.050
3.794,0.085,-0.055
3.796,0.120,-0.060
3.798,0.120,-0.065
3.800,0.080,-0.075
3.802,-0.065,-0.080
3.804,-0.155,-0.085
3.806,-0.175,-0.090
3.808,-0.165,-0.090
3.810,-0.145,-0.090
3.812,0.025,-0.085
3.814,0.115,-0.085
3.816,0.070,-0.080
3.818,0.070,-0.075
3.820,0.035,-0.065
3.822,0.005,-0.060
3.824,-0.025,-0.055
3.826,-0.125,-0.050
3.828,-0.125,-0.045
3.830,-0.060,-0.045
3.832,0.055,-0.045
3.834,0.035,-0.050
3.836,0.100,-0.060
3.838,0.095,-0.065
3.840,0.050,-0.075
3.842,0.000,-0.080
3.844,-0.060,-0.080
3.846,-0.170,-0.080
3.848,-0.175,-0.080
3.850,-0.120,-0.075
3.852,0.010,-0.070
3.854,0.050,-0.070
3.856,0.135,-0.065
3.858,0.140,-0.065
3.860,0.055,-0.070
3.862,-0.075,-0.070
3.864,-0.135,-0.075
3.866,-0.180,-0.075
3.868,-0.170,-0.075
3.870,-0.120,-0.075
3.872,0.025,-0.070
3.874,0.090,-0.065
3.876,0.150,-0.065
3.878,0.100,-0.060
3.880,0.020,-0.060
3.882,-0.050,-0.060
3.884,-0.100,-0.060
3.886,-0.145,-0.060
3.888,-0.165,-0.060
3.890,-0.060,-0.060
3.892,0.035,-0.060
3.894,0.090,-0.060
3.896,0.110,-0.060
3.898,0.110,-0.055
3.900,0.025,-0.055
3.902,-0.085,-0.050
3.904,-0.060,-0.045
3.906,-0.165,-0.035
3.908,-0.095,-0.025
3.910,0.005,-0.015
3.912,0.095,0.005
3.914,0.180,0.025
3.916,0.245,0.045
3.918,0.230,0.075
3.920,0.265,0.100
3.922,0.160,0.130
3.924,0.080,0.155
3.926,0.020,0.175
3.928,0.115,0.190
3.930,0.205,0.200
3.932,0.320,0.200
3.934,0.395,0.190
3.936,0.385,0.175
3.938,0.285,0.155
3.940,0.210,0.125
3.942,0.050,0.095
3.944,-0.015,0.065
3.946,-0.030,0.030
3.948,-0.035,0.005
3.950,-0.040,-0.020
3.952,0.010,-0.040
3.954,0.030,-0.055
3.956,0.140,-0.070
3.958,0.095,-0.080
3.960,-0.045,-0.085
3.962,-0.140,-0.090
3.964,-0.150,-0.095
3.966,-0.185,-0.100
3.968,-0.160,-0.100
3.970,-0.090,-0.100
3.972,0.025,-0.100
3.974,0.035,-0.095
3.976,0.110,-0.085
3.978,0.110,-0.075
3.980,0.010,-0.060
3.982,-0.105,-0.050
3.984,-0.060,-0.040
3.986,-0.155,-0.030
3.988,-0.085,-0.025
3.990,-0.010,-0.025
3.992,0.085,-0.030
3.994,-0.010,-0.030
3.996,0.205,-0.035
3.998,0.105,-0.040
4.000,0.070,-0.040
4.002,0.000,-0.035
4.004,-0.040,-0.030
4.006,-0.135,-0.025
4.008,-0.100,-0.020
4.010,-0.020,-0.010
4.012,0.120,-0.005
4.014,0.160,-0.005
4.016,0.155,-0.005
4.018,0.160,-0.010
4.020,0.050,-0.015
4.022,-0.080,-0.020
4.024,-0.100,-0.020
4.026,-0.115,-0.025
4.028,-0.050,-0.025
4.030,0.015,-0.025
4.032,0.060,-0.020
4.034,0.080,-0.020
4.036,0.160,-0.020
4.038,0.130,-0.020
4.040,0.050,-0.020
4.042,-0.035,-0.025
4.044,-0.065,-0.025
4.046,-0.135,-0.025
4.048,-0.070,-0.020
4.050,0.035,-0.015
4.052,0.080,-0.005
4.054,0.105,0.000
4.056,0.210,0.005
4.058,0.195,0.010
4.060,0.065,0.005
4.062,-0.040,0.000
4.064,-0.075,-0.010
4.066,-0.140,-0.020
4.068,-0.085,-0.030
4.070,0.010,-0.035
4.072,0.135,-0.035
4.074,0.205,-0.030
4.076,0.125,-0.020
4.078,0.060,-0.005
4.080,0.075,0.005
4.082,-0.020,0.010
4.084,-0.065,0.015
4.086,-0.080,0.015
4.088,-0.080,0.015
4.090,0.070,0.010
4.092,0.090,0.010
4.094,0.210,0.010
4.096,0.275,0.015
4.098,0.175,0.025
4.100,0.100,0.040
4.102,0.015,0.055
4.104,-0.070,0.065
4.106,-0.035,0.075
4.108,0.060,0.075
4.110,0.120,0.075
4.112,0.240,0.065
4.114,0.230,0.055
4.116,0.255,0.050
4.118,0.155,0.045
4.120,0.080,0.045
4.122,-0.045,0.045
4.124,-0.045,0.050
4.126,-0.015,0.060
4.128,0.090,0.065
4.130,0.140,0.070
4.132,0.180,0.075
4.134,0.230,0.080
4.136,0.290,0.085
4.138,0.255,0.095
4.140,0.140,0.105
4.142,0.085,0.120
4.144,-0.005,0.130
4.146,0.060,0.140
4.148,0.090,0.150
4.150,0.240,0.155
4.152,0.290,0.155
4.154,0.340,0.150
4.156,0.365,0.150
4.158,0.205,0.145
4.160,0.120,0.145
4.162,0.120,0.145
4.164,-0.020,0.150
4.166,0.100,0.160
4.168,0.245,0.165
4.170,0.270,0.175
4.172,0.290,0.180
4.174,0.340,0.180
4.176,0.320,0.180
4.178,0.245,0.175
4.180,0.140,0.170
4.182,0.125,0.165
4.184,0.085,0.165
4.186,0.080,0.165
4.188,0.175,0.165
4.190,0.245,0.165
4.192,0.265,0.165
4.194,0.360,0.165
4.196,0.325,0.160
4.198,0.190,0.150
4.200,0.180,0.140
4.202,0.075,0.130
4.204,0.010,0.120
4.206,0.030,0.105
4.208,0.115,0.095
4.210,0.185,0.085
4.212,0.185,0.075
4.214,0.240,0.065
4.216,0.210,0.060
4.218,0.160,0.050
4.220,0.035,0.045
4.222,-0.010,0.035
4.224,-0.080,0.030
4.226,-0.030,0.020
4.228,0.010,0.010
4.230,0.100,0.005
4.232,0.120,-0.005
4.234,0.190,-0.010
4.236,0.130,-0.020
4.238,0.015,-0.025
4.240,-0.025,-0.030
4.242,-0.035,-0.040
4.244,-0.195,-0.040
4.246,-0.115,-0.045
4.248,0.040,-0.045
4.250,0.070,-0.045
4.252,0.060,-0.040
4.254,0.115,-0.035
4.256,0.160,-0.030
4.258,0.015,-0.025
4.260,0.015,-0.020
4.262,-0.070,-0.020
4.264,-0.145,-0.025
4.266,-0.140,-0.030
4.268,-0.015,-0.035
4.270,0.090,-0.045
4.272,0.090,-0.050
4.274,0.135,-0.050
4.276,0.095,-0.050
4.278,0.050,-0.045
4.280,-0.015,-0.040
4.282,-0.055,-0.035
4.284,-0.160,-0.030
4.286,-0.075,-0.025
4.288,-0.015,-0.030
4.290,0.025,-0.030
4.292,0.060,-0.035
4.294,0.175,-0.035
4.296,0.085,-0.040
4.298,0.020,-0.040
4.300,-0.070,-0.035
4.302,-0.050,-0.035
4.304,-0.145,-0.030
4.306,-0.095,-0.025
4.308,0.060,-0.025
4.310,0.090,-0.025
4.312,0.110,-0.030
4.314,0.140,-0.035
4.316,0.050,-0.035
4.318,0.005,-0.040
4.320,-0.085,-0.040
4.322,-0.050,-0.035
4.324,-0.090,-0.035
4.326,-0.080,-0.030
4.328,-0.030,-0.025
4.330,0.065,-0.025
4.332,0.140,-0.025
4.334,0.175,-0.025
4.336,0.100,-0.030
4.338,0.055,-0.030
4.340,0.015,-0.035
4.342,-0.095,-0.035
4.344,-0.165,-0.035
4.346,-0.110,-0.030
4.348,0.010,-0.025
4.350,0.090,-0.015
4.352,0.100,-0.010
4.354,0.170,-0.005
4.356,0.150,0.000
4.358,0.065,0.000
4.360,-0.030,0.000
4.362,-0.045,0.000
4.364,-0.095,0.000
4.366,-0.065,0.000
4.368,0.025,0.000
4.370,0.170,-0.005
4.372,0.150,-0.005
4.374,0.185,-0.005
4.376,0.125,-0.005
4.378,0.030,-0.005
4.380,-0.015,-0.005
4.382,-0.125,-0.010
4.384,-0.095,-0.010
4.386,-0.080,-0.010
4.388,0.000,-0.015
4.390,0.145,-0.015
4.392,0.140,-0.020
4.394,0.170,-0.020
4.396,0.100,-0.025
4.398,0.045,-0.030
4.400,-0.010,-0.030
4.402,-0.105,-0.035
4.404,-0.180,-0.035
4.406,-0.105,-0.035
4.408,0.010,-0.030
4.410,0.085,-0.030
4.412,0.120,-0.025
4.414,0.200,-0.020
4.416,0.140,-0.015
4.418,0.020,-0.010
4.420,-0.050,-0.010
4.422,-0.065,-0.010
4.424,-0.115,-0.015
4.426,-0.065,-0.020
4.428,0.045,-0.025
4.430,0.155,-0.025
4.432,0.150,-0.030
4.434,0.135,-0.025
4.436,0.075,-0.025
4.438,-0.015,-0.015
4.440,-0.035,-0.005
4.442,-0.090,0.005
4.444,-0.100,0.015
4.446,0.010,0.020
4.448,0.100,0.025
4.450,0.140,0.030
4.452,0.175,0.030
4.454,0.220,0.030
4.456,0.185,0.025
4.458,0.025,0.025
4.460,0.005,0.020
4.462,-0.050,0.020
4.464,-0.085,0.020
4.466,-0.035,0.015
4.468,0.090,0.015
4.470,0.135,0.015
4.472,0.215,0.010
4.474,0.175,0.010
4.476,0.110,0.005
4.478,0.050,0.005
4.480,-0.050,0.000
4.482,-0.140,-0.005
4.484,-0.075,-0.010
4.486,0.000,-0.020
4.488,0.025,-0.025
4.490,0.065,-0.035
4.492,0.120,-0.045
4.494,0.150,-0.050
4.496,0.080,-0.055
4.498,0.025,-0.055
4.500,-0.035,-0.055
4.502,-0.205,-0.055
4.504,-0.200,-0.055
4.506,-0.060,-0.050
4.508,0.025,-0.050
4.510,0.060,-0.055
4.512,0.165,-0.060
4.514,0.120,-0.060
4.516,0.020,-0.065
4.518,-0.030,-0.065
4.520,-0.145,-0.060
4.522,-0.215,-0.055
4.524,-0.120,-0.045
4.526,0.015,-0.035
4.528,0.065,-0.025
4.530,0.115,-0.020
4.532,0.220,-0.020
4.534,0.125,-0.020
4.536,-0.020,-0.025
4.538,-0.005,-0.030
4.540,-0.085,-0.035
4.542,-0.145,-0.040
4.544,-0.110,-0.040
4.546,-0.025,-0.040
4.548,0.060,-0.040
4.550,0.090,-0.035
4.552,0.180,-0.035
4.554,0.100,-0.035
4.556,0.055,-0.035
4.558,-0.035,-0.040
4.560,-0.085,-0.045
4.562,-0.180,-0.050
4.564,-0.115,-0.060
4.566,-0.035,-0.065
4.568,0.070,-0.065
4.570,0.095,-0.070
4.572,0.110,-0.065
4.574,0.115,-0.060
4.576,0.075,-0.055
4.578,-0.085,-0.050
4.580,-0.075,-0.045
4.582,-0.170,-0.040
4.584,-0.090,-0.040
4.586,-0.075,-0.040
4.588,0.045,-0.045
4.590,0.115,-0.045
4.592,0.210,-0.050
4.594,0.105,-0.055
4.596,0.035,-0.050
4.598,-0.050,-0.050
4.600,-0.080,-0.040
4.602,-0.155,-0.035
4.604,-0.075,-0.025
4.606,0.025,-0.015
4.608,0.085,-0.005
4.610,0.145,0.000
4.612,0.185,0.010
4.614,0.155,0.015
4.616,0.045,0.020
4.618,0.060,0.030
4.620,0.040,0.040
4.622,-0.055,0.060
4.624,0.015,0.080
4.626,0.120,0.105
4.628,0.255,0.135
4.630,0.360,0.160
4.632,0.455,0.185
4.634,0.435,0.205
4.636,0.265,0.215
4.638,0.125,0.220
4.640,0.125,0.210
4.642,0.065,0.190
4.644,0.100,0.160
4.646,0.165,0.125
4.648,0.170,0.080
4.650,0.200,0.035
4.652,0.190,-0.010
4.654,0.050,-0.050
4.656,-0.060,-0.080
4.658,-0.140,-0.100
4.660,-0.130,-0.105
4.662,-0.210,-0.105
4.664,-0.120,-0.100
4.666,-0.075,-0.085
4.668,0.075,-0.070
4.670,0.130,-0.055
4.672,0.130,-0.045
4.674,0.070,-0.040
4.676,0.000,-0.035
4.678,-0.020,-0.035
4.680,-0.040,-0.035
4.682,-0.145,-0.035
4.684,-0.075,-0.035
4.686,-0.015,-0.035
4.688,0.110,-0.035
4.690,0.155,-0.035
4.692,0.200,-0.035
4.694,0.065,-0.035
4.696,-0.035,-0.035
4.698,-0.075,-0.035
4.700,-0.080,-0.035
4.702,-0.105,-0.030
4.704,-0.085,-0.025
4.706,0.050,-0.025
4.708,0.145,-0.020
4.710,0.170,-0.015
4.712,0.090,-0.010
4.714,0.110,-0.010
4.716,0.005,-0.010
4.718,0.010,-0.010
4.720,-0.025,-0.010
4.722,-0.095,-0.010
4.724,-0.035,-0.010
4.726,0.070,-0.010
4.728,0.130,-0.005
4.730,0.110,-0.005
4.732,0.180,-0.005
4.734,0.110,-0.005
4.736,-0.020,-0.010
4.738,-0.025,-0.010
4.740,-0.115,-0.015
4.742,-0.110,-0.020
4.744,0.005,-0.025
4.746,0.040,-0.030
4.748,0.080,-0.030
4.750,0.145,-0.030
4.752,0.145,-0.025
4.754,0.090,-0.020
4.756,-0.015,-0.010
4.758,-0.030,-0.005
4.760,-0.085,0.005
4.762,-0.035,0.015
4.764,0.010,0.015
4.766,0.095,0.015
4.768,0.135,0.015
4.770,0.220,0.010
4.772,0.160,0.005
4.774,0.120,0.000
4.776,0.005,0.000
4.778,-0.015,0.000
4.780,-0.130,0.000
4.782,-0.045,0.000
4.784,-0.005,0.005
4.786,0.090,0.005
4.788,0.130,0.005
4.790,0.205,0.010
4.792,0.240,0.010
4.794,0.115,0.015
4.796,-0.025,0.020
4.798,0.015,0.030
4.800,-0.065,0.040
4.802,-0.075,0.050
4.804,0.110,0.060
4.806,0.115,0.065
4.808,0.180,0.065
4.810,0.290,0.065
4.812,0.250,0.060
4.814,0.100,0.055
4.816,0.065,0.050
4.818,0.070,0.050
4.820,-0.045,0.050
4.822,-0.005,0.060
4.824,0.055,0.065
4.826,0.170,0.075
4.828,0.240,0.080
4.830,0.315,0.080
4.832,0.225,0.080
4.834,0.170,0.075
4.836,0.105,0.075
4.838,0.045,0.070
4.840,-0.050,0.075
4.842,0.055,0.080
4.844,0.125,0.095
4.846,0.175,0.110
4.848,0.275,0.125
4.850,0.355,0.140
4.852,0.320,0.155
4.854,0.235,0.165
4.856,0.130,0.170
4.858,0.120,0.165
4.860,0.065,0.165
4.862,0.080,0.160
4.864,0.200,0.155
4.866,0.300,0.150
4.868,0.270,0.150
4.870,0.335,0.150
4.872,0.350,0.155
4.874,0.280,0.155
4.876,0.115,0.160
4.878,0.125,0.165
4.880,0.030,0.165
4.882,0.095,0.165
4.884,0.195,0.165
4.886,0.265,0.160
4.888,0.340,0.155
4.890,0.365,0.155
4.892,0.345,0.150
4.894,0.215,0.145
4.896,0.125,0.140
4.898,0.115,0.130
4.900,0.010,0.125
4.902,0.090,0.115
4.904,0.075,0.100
4.906,0.200,0.085
4.908,0.175,0.075
4.910,0.310,0.060
4.912,0.210,0.050
4.914,0.150,0.040
4.916,0.030,0.035
4.918,-0.045,0.030
4.920,-0.055,0.030
4.922,0.020,0.025
4.924,0.045,0.025
4.926,0.110,0.020
4.928,0.085,0.010
4.930,0.165,0.005
4.932,0.240,-0.005
4.934,0.075,-0.015
4.936,-0.030,-0.020
4.938,-0.080,-0.020
4.940,-0.125,-0.020
4.942,-0.080,-0.020
4.944,0.015,-0.015
4.946,0.145,-0.010
4.948,0.170,-0.010
4.950,0.180,-0.010
4.952,0.165,-0.010
4.954,0.040,-0.015
4.956,-0.110,-0.025
4.958,-0.095,-0.035
4.960,-0.140,-0.045
4.962,-0.070,-0.055
4.964,-0.025,-0.060
4.966,0.040,-0.070
4.968,0.090,-0.075
4.970,0.095,-0.075
4.972,0.080,-0.075
4.974,0.000,-0.075
4.976,-0.070,-0.065
4.978,-0.110,-0.060
4.980,-0.135,-0.050
4.982,-0.050,-0.040
4.984,0.010,-0.030
4.986,0.075,-0.025
4.988,0.165,-0.025
4.990,0.170,-0.030
4.992,0.065,-0.040
4.994,0.010,-0.050
4.996,-0.080,-0.060
4.998,-0.085,-0.070
5.000,-0.180,-0.075
5.002,-0.125,-0.075
5.004,-0.025,-0.070
5.006,0.100,-0.065
5.008,0.145,-0.060
5.010,0.155,-0.050
5.012,0.090,-0.045
5.014,-0.045,-0.040
5.016,-0.080,-0.040
5.018,-0.100,-0.040
5.020,-0.110,-0.045
5.022,-0.095,-0.050
5.024,0.005,-0.050
5.026,0.085,-0.050
5.028,0.100,-0.050
5.030,0.145,-0.050
5.032,0.115,-0.045
5.034,0.065,-0.045
5.036,-0.110,-0.040
5.038,-0.080,-0.035
5.040,-0.140,-0.030
5.042,-0.035,-0.030
5.044,0.015,-0.025
5.046,0.090,-0.025
5.048,0.195,-0.025
5.050,0.210,-0.030
5.052,0.080,-0.035
5.054,0.050,-0.040
5.056,-0.090,-0.045
5.058,-0.135,-0.050
5.060,-0.130,-0.055
5.062,-0.060,-0.055
5.064,0.030,-0.055
5.066,0.120,-0.055
5.068,0.145,-0.050
5.070,0.140,-0.040
5.072,0.120,-0.035
5.074,0.045,-0.025
5.076,-0.050,-0.015
5.078,-0.195,-0.015
5.080,-0.045,-0.015
5.082,-0.030,-0.015
5.084,0.070,-0.025
5.086,0.055,-0.035
5.088,0.170,-0.040
5.090,0.185,-0.050
5.092,0.080,-0.055
5.094,-0.020,-0.055
5.096,-0.100,-0.055
5.098,-0.145,-0.050
5.100,-0.115,-0.050
5.102,-0.030,-0.045
5.104,0.065,-0.040
5.106,0.095,-0.040
5.108,0.170,-0.040
5.110,0.140,-0.040
5.112,0.095,-0.040
5.114,0.005,-0.035
5.116,-0.040,-0.030
5.118,-0.165,-0.020
5.120,-0.070,-0.010
5.122,0.015,0.000
5.124,0.100,0.010
5.126,0.170,0.015
5.128,0.250,0.015
5.130,0.135,0.010
5.132,0.110,0.005
5.134,0.015,0.000
5.136,-0.020,-0.010
5.138,-0.145,-0.010
5.140,-0.030,-0.010
5.142,-0.010,-0.010
5.144,0.080,-0.010
5.146,0.170,-0.005
5.148,0.260,-0.005
5.150,0.150,-0.005
5.152,0.010,-0.010
5.154,-0.015,-0.010
5.156,0.020,-0.015
5.158,-0.080,-0.015
5.160,-0.060,-0.020
5.162,-0.030,-0.020
5.164,0.060,-0.020
5.166,0.090,-0.015
5.168,0.190,-0.020
5.170,0.165,-0.020
5.172,0.080,-0.025
5.174,-0.015,-0.030
5.176,-0.065,-0.040
5.178,-0.195,-0.045
5.180,-0.120,-0.055
5.182,-0.060,-0.055
5.184,0.070,-0.055
5.186,0.095,-0.055
5.188,0.175,-0.050
5.190,0.145,-0.045
5.192,0.065,-0.045
5.194,-0.070,-0.040
5.196,-0.050,-0.040
5.198,-0.155,-0.040
5.200,-0.120,-0.045
5.202,-0.055,-0.050
5.204,0.085,-0.055
5.206,0.070,-0.060
5.208,0.185,-0.060
5.210,0.115,-0.060
5.212,0.050,-0.060
5.214,-0.020,-0.055
5.216,-0.085,-0.050
5.218,-0.160,-0.045
5.220,-0.125,-0.040
5.222,0.045,-0.035
5.224,0.095,-0.035
5.226,0.120,-0.035
5.228,0.115,-0.040
5.230,0.065,-0.045
5.232,0.020,-0.050
5.234,-0.050,-0.055
5.236,-0.110,-0.055
5.238,-0.125,-0.055
5.240,-0.120,-0.055
5.242,-0.055,-0.050
5.244,0.035,-0.050
5.246,0.165,-0.050
5.248,0.165,-0.050
5.250,0.080,-0.050
5.252,0.035,-0.055
5.254,-0.030,-0.060
5.256,-0.115,-0.065
5.258,-0.135,-0.065
5.260,-0.095,-0.065
5.262,-0.025,-0.065
5.264,0.070,-0.060
5.266,0.115,-0.055
5.268,0.165,-0.050
5.270,0.095,-0.050
5.272,0.020,-0.050
5.274,-0.065,-0.055
5.276,-0.105,-0.060
5.278,-0.215,-0.065
5.280,-0.070,-0.065
5.282,0.045,-0.065
5.284,0.035,-0.060
5.286,0.115,-0.050
5.288,0.200,-0.040
5.290,0.145,-0.030
5.292,0.030,-0.020
5.294,-0.040,-0.015
5.296,-0.110,-0.015
5.298,-0.155,-0.015
5.300,-0.030,-0.015
5.302,0.005,-0.015
5.304,0.170,-0.005
5.306,0.165,0.010
5.308,0.260,0.030
5.310,0.245,0.060
5.312,0.210,0.090
5.314,0.095,0.125
5.316,0.055,0.155
5.318,0.070,0.180
5.320,0.165,0.200
5.322,0.390,0.215
5.324,0.365,0.220
5.326,0.390,0.215
5.328,0.405,0.205
5.330,0.385,0.190
5.332,0.180,0.170
5.334,0.085,0.145
5.336,0.010,0.115
5.338,0.040,0.080
5.340,0.025,0.040
5.342,0.085,0.005
5.344,0.000,-0.025
5.346,0.145,-0.055
5.348,0.120,-0.075
5.350,0.045,-0.085
5.352,-0.050,-0.090
5.354,-0.105,-0.085
5.356,-0.150,-0.080
5.358,-0.155,-0.070
5.360,-0.065,-0.060
5.362,0.005,-0.055
5.364,0.110,-0.050
5.366,0.155,-0.045
5.368,0.150,-0.040
5.370,0.080,-0.035
5.372,0.030,-0.035
5.374,-0.060,-0.030
5.376,-0.105,-0.030
5.378,-0.095,-0.035
5.380,-0.050,-0.035
5.382,0.030,-0.045
5.384,0.120,-0.050
5.386,0.120,-0.055
5.388,0.065,-0.055
5.390,0.080,-0.055
5.392,-0.015,-0.050
5.394,-0.100,-0.040
5.396,-0.080,-0.035
5.398,-0.085,-0.020
5.400,-0.030,-0.015
5.402,0.040,-0.010
5.404,0.110,-0.005
5.406,0.175,-0.010
5.408,0.165,-0.015
5.410,0.145,-0.020
5.412,0.010,-0.025
5.414,-0.025,-0.030
5.416,-0.130,-0.030
5.418,-0.085,-0.035
5.420,0.000,-0.030
5.422,0.065,-0.030
5.424,0.065,-0.030
5.426,0.125,-0.025
5.428,0.105,-0.025
5.430,0.160,-0.020
5.432,0.015,-0.015
5.434,0.000,-0.010
5.436,-0.080,-0.005
5.438,-0.050,0.005
5.440,0.070,0.005
5.442,0.095,0.010
5.444,0.110,0.005
5.446,0.130,0.000
5.448,0.110,-0.010
5.450,0.060,-0.020
5.452,-0.005,-0.025
5.454,-0.040,-0.030
5.456,-0.095,-0.035
5.458,-0.050,-0.035
5.460,0.050,-0.030
5.462,0.070,-0.025
5.464,0.110,-0.020
5.466,0.185,-0.020
5.468,0.115,-0.020
5.470,0.085,-0.020
5.472,0.025,-0.025
5.474,-0.030,-0.030
5.476,-0.190,-0.030
5.478,-0.075,-0.025
5.480,0.035,-0.015
5.482,0.100,0.000
5.484,0.215,0.015
5.486,0.280,0.030
5.488,0.190,0.045
5.490,0.115,0.050
5.492,0.100,0.050
5.494,-0.040,0.050
5.496,-0.115,0.040
5.498,-0.015,0.035
5.500,0.100,0.025
5.502,0.200,0.025
5.504,0.240,0.025
5.506,0.265,0.030
5.508,0.195,0.040
5.510,0.060,0.055
5.512,0.005,0.065
5.514,0.035,0.070
5.516,-0.015,0.075
5.518,0.065,0.075
5.520,0.155,0.075
5.522,0.195,0.070
5.524,0.215,0.070
5.526,0.270,0.075
5.528,0.235,0.075
5.530,0.165,0.085
5.532,0.090,0.095
5.534,0.130,0.105
5.536,-0.015,0.120
5.538,0.055,0.125
5.540,0.240,0.135
5.542,0.295,0.140
5.544,0.275,0.140
5.546,0.325,0.140
5.548,0.295,0.140
5.550,0.260,0.140
5.552,0.150,0.145
5.554,0.110,0.145
5.556,0.055,0.150
5.558,0.115,0.150
5.560,0.210,0.150
5.562,0.325,0.150
5.564,0.325,0.150
5.566,0.305,0.145
5.568,0.265,0.140
5.570,0.210,0.135
5.572,0.160,0.135
5.574,0.155,0.135
5.576,0.095,0.135
5.578,0.040,0.140
5.580,0.170,0.145
5.582,0.315,0.150
5.584,0.335,0.150
5.586,0.305,0.145
5.588,0.230,0.140
5.590,0.165,0.130
5.592,0.130,0.120
5.594,0.065,0.110
5.596,0.035,0.100
5.598,0.120,0.095
5.600,0.130,0.090
5.602,0.220,0.080
5.604,0.195,0.075
5.606,0.265,0.065
5.608,0.165,0.050
5.610,0.140,0.035
5.612,0.040,0.020
5.614,-0.100,0.005
5.616,-0.050,0.000
5.618,-0.030,-0.005
5.620,0.040,-0.005
5.622,0.085,0.000
5.624,0.115,0.000
5.626,0.255,0.000
5.628,0.205,0.000
5.630,0.040,-0.005
5.632,-0.090,-0.015
5.634,-0.120,-0.030
5.636,-0.105,-0.040
5.638,-0.020,-0.045
5.640,-0.005,-0.050
5.642,0.105,-0.050
5.644,0.095,-0.045
5.646,0.215,-0.045
5.648,0.090,-0.040
5.650,-0.035,-0.045
5.652,-0.115,-0.045
5.654,-0.125,-0.055
5.656,-0.085,-0.060
5.658,-0.060,-0.065
5.660,0.030,-0.065
5.662,0.070,-0.060
5.664,0.090,-0.050
5.666,0.175,-0.045
5.668,0.115,-0.035
5.670,0.015,-0.030
5.672,-0.085,-0.030
5.674,-0.105,-0.030
5.676,-0.080,-0.040
5.678,-0.075,-0.045
5.680,-0.030,-0.055
5.682,0.100,-0.060
5.684,0.150,-0.060
5.686,0.145,-0.055
5.688,0.080,-0.050
5.690,-0.015,-0.045
5.692,-0.090,-0.045
5.694,-0.165,-0.045
5.696,-0.100,-0.050
5.698,-0.015,-0.055
5.700,0.100,-0.065
5.702,0.070,-0.070
5.704,0.125,-0.075
5.706,0.105,-0.075
5.708,0.060,-0.070
5.710,0.015,-0.060
5.712,-0.020,-0.050
5.714,-0.170,-0.035
5.716,-0.090,-0.025
5.718,-0.040,-0.020
5.720,0.075,-0.015
5.722,0.135,-0.015
5.724,0.175,-0.020
5.726,0.150,-0.025
5.728,0.100,-0.030
5.730,-0.015,-0.035
5.732,-0.100,-0.040
5.734,-0.155,-0.045
5.736,-0.095,-0.045
5.738,-0.060,-0.050
5.740,0.085,-0.055
5.742,0.090,-0.055
5.744,0.165,-0.055
5.746,0.160,-0.050
5.748,0.075,-0.045
5.750,-0.065,-0.040
5.752,-0.070,-0.035
5.754,-0.160,-0.030
5.756,-0.075,-0.020
5.758,0.045,-0.015
5.760,0.120,-0.015
5.762,0.140,-0.010
5.764,0.160,-0.010
5.766,0.100,-0.005
5.768,0.135,-0.005
5.770,0.025,-0.005
5.772,-0.055,-0.010
5.774,-0.150,-0.020
5.776,-0.150,-0.030
5.778,-0.025,-0.040
5.780,0.130,-0.050
5.782,0.140,-0.055
5.784,0.175,-0.060
5.786,0.145,-0.060
5.788,0.070,-0.050
5.790,-0.025,-0.045
5.792,-0.055,-0.035
5.794,-0.145,-0.025
5.796,-0.060,-0.020
5.798,-0.020,-0.020
5.800,0.090,-0.020
5.802,0.105,-0.025
5.804,0.225,-0.030
5.806,0.125,-0.035
5.808,0.040,-0.035
5.810,0.060,-0.030
5.812,-0.075,-0.020
5.814,-0.085,-0.010
5.816,-0.195,0.000
5.818,0.065,0.005
5.820,0.185,0.005
5.822,0.175,0.000
5.824,0.205,-0.005
5.826,0.230,-0.015
5.828,0.030,-0.025
5.830,-0.070,-0.030
5.832,-0.040,-0.030
5.834,-0.180,-0.030
5.836,-0.055,-0.025
5.838,0.065,-0.020
5.840,0.120,-0.015
5.842,0.130,-0.010
5.844,0.200,-0.005
5.846,0.155,-0.005
5.848,0.080,-0.010
5.850,0.025,-0.010
5.852,-0.015,-0.015
5.854,-0.110,-0.020
5.856,-0.075,-0.025
5.858,0.025,-0.030
5.860,0.075,-0.035
5.862,0.130,-0.035
5.864,0.160,-0.040
5.866,0.165,-0.040
5.868,0.085,-0.040
5.870,-0.050,-0.040
5.872,-0.105,-0.040
5.874,-0.160,-0.040
5.876,-0.080,-0.040
5.878,-0.015,-0.040
5.880,0.070,-0.045
5.882,0.080,-0.055
5.884,0.150,-0.060
5.886,0.155,-0.070
5.888,0.015,-0.075
5.890,-0.090,-0.080
5.892,-0.130,-0.075
5.894,-0.150,-0.075
5.896,-0.115,-0.065
5.898,0.020,-0.055
5.900,0.080,-0.050
5.902,0.100,-0.045
5.904,0.225,-0.040
5.906,0.100,-0.040
5.908,-0.055,-0.045
5.910,-0.030,-0.050
5.912,-0.105,-0.055
5.914,-0.170,-0.055
5.916,-0.125,-0.055
5.918,0.080,-0.055
5.920,0.120,-0.050
5.922,0.075,-0.050
5.924,0.160,-0.045
5.926,0.125,-0.040
5.928,0.020,-0.040
5.930,-0.065,-0.040
5.932,-0.115,-0.045
5.934,-0.125,-0.045
5.936,-0.075,-0.045
5.938,0.035,-0.045
5.940,0.105,-0.045
5.942,0.150,-0.040
5.944,0.170,-0.040
5.946,0.070,-0.045
5.948,-0.040,-0.045
5.950,-0.055,-0.050
5.952,-0.070,-0.055
5.954,-0.140,-0.055
5.956,-0.090,-0.060
5.958,0.005,-0.060
5.960,0.090,-0.060
5.962,0.135,-0.055
5.964,0.175,-0.050
5.966,0.105,-0.045
5.968,-0.020,-0.045
5.970,-0.105,-0.040
5.972,-0.130,-0.045
5.974,-0.035,-0.045
5.976,-0.040,-0.050
5.978,0.055,-0.055
5.980,0.065,-0.055
5.982,0.125,-0.055
5.984,0.145,-0.050
5.986,0.055,-0.050
5.988,0.020,-0.045
5.990,-0.025,-0.040
5.992,-0.070,-0.030
5.994,-0.155,-0.025
5.996,-0.050,-0.010
5.998,0.090,0.000
6.000,0.195,0.020
6.002,0.310,0.045
6.004,0.320,0.070
6.006,0.200,0.100
6.008,0.185,0.130
6.010,0.090,0.165
6.012,0.125,0.195
6.014,0.160,0.220
6.016,0.285,0.240
6.018,0.465,0.255
6.020,0.445,0.265
6.022,0.385,0.260
6.024,0.370,0.245
6.026,0.355,0.225
6.028,0.260,0.190
6.030,0.185,0.145
6.032,0.000,0.095
6.034,-0.070,0.045
6.036,0.035,0.000
6.038,-0.025,-0.040
6.040,0.105,-0.065
6.042,0.140,-0.080
6.044,0.065,-0.080
6.046,0.015,-0.070
6.048,-0.080,-0.055
6.050,-0.005,-0.040
6.052,-0.070,-0.030
6.054,-0.085,-0.025
6.056,-0.065,-0.030
6.058,-0.015,-0.045
6.060,0.085,-0.060
6.062,0.145,-0.075
6.064,0.150,-0.085
6.066,0.065,-0.085
6.068,-0.025,-0.080
6.070,-0.095,-0.070
6.072,-0.180,-0.060
6.074,-0.065,-0.045
6.076,-0.075,-0.040
6.078,0.040,-0.035
6.080,0.065,-0.040
6.082,0.165,-0.045
6.084,0.195,-0.050
6.086,0.105,-0.050
6.088,-0.010,-0.050
6.090,-0.040,-0.045
6.092,-0.210,-0.040
6.094,-0.155,-0.035
6.096,0.000,-0.030
6.098,0.095,-0.030
6.100,0.110,-0.030
6.102,0.215,-0.040
6.104,0.095,-0.045
6.106,0.040,-0.050
6.108,0.005,-0.055
6.110,-0.125,-0.055
6.112,-0.150,-0.050
6.114,-0.085,-0.040
6.116,0.050,-0.025
6.118,0.085,-0.015
6.120,0.125,-0.010
6.122,0.205,-0.005
6.124,0.170,-0.010
6.126,0.050,-0.015
6.128,-0.060,-0.020
6.130,-0.065,-0.030
6.132,-0.090,-0.035
6.134,-0.120,-0.040
6.136,-0.035,-0.040
6.138,0.105,-0.035
6.140,0.150,-0.035
6.142,0.215,-0.030
6.144,0.145,-0.025
6.146,0.030,-0.020
6.148,-0.035,-0.020
6.150,-0.030,-0.015
6.152,-0.150,-0.015
6.154,-0.020,-0.010
6.156,0.010,-0.010
6.158,0.145,-0.005
6.160,0.125,-0.005
6.162,0.225,-0.010
6.164,0.215,-0.010
6.166,0.065,-0.010
6.168,0.005,-0.010
6.170,-0.045,-0.010
6.172,-0.155,-0.010
6.174,-0.060,-0.005
6.176,0.070,0.000
6.178,0.125,0.005
6.180,0.165,0.010
6.182,0.220,0.015
6.184,0.180,0.020
6.186,0.080,0.025
6.188,0.070,0.025
6.190,-0.060,0.030
6.192,-0.090,0.030
6.194,-0.055,0.035
6.196,0.110,0.035
6.198,0.155,0.035
6.200,0.185,0.040
6.202,0.265,0.040
6.204,0.215,0.040
6.206,0.125,0.045
6.208,0.045,0.050
6.210,-0.060,0.050
6.212,-0.020,0.055
6.214,0.050,0.060
6.216,0.140,0.065
6.218,0.225,0.070
6.220,0.245,0.080
6.222,0.270,0.085
6.224,0.250,0.095
6.226,0.160,0.100
6.228,0.135,0.110
6.230,0.055,0.120
6.232,0.055,0.130
6.234,0.045,0.135
6.236,0.200,0.145
6.238,0.275,0.145
6.240,0.385,0.150
6.242,0.340,0.150
6.244,0.345,0.150
6.246,0.200,0.150
6.248,0.120,0.150
6.250,0.050,0.145
6.252,0.020,0.145
6.254,0.135,0.150
6.256,0.205,0.150
6.258,0.280,0.155
6.260,0.355,0.155
6.262,0.335,0.155
6.264,0.295,0.155
6.266,0.240,0.155
6.268,0.115,0.155
6.270,0.070,0.150
6.272,0.120,0.150
6.274,0.145,0.150
6.276,0.175,0.145
6.278,0.235,0.145
6.280,0.325,0.140
6.282,0.350,0.135
6.284,0.260,0.125
6.286,0.180,0.115
6.288,0.070,0.105
6.290,-0.005,0.095
6.292,0.005,0.080
6.294,0.025,0.070
6.296,0.155,0.060
6.298,0.195,0.050
6.300,0.225,0.045
6.302,0.190,0.040
6.304,0.130,0.035
6.306,0.035,0.035
6.308,0.010,0.030
6.310,-0.035,0.020
6.312,-0.040,0.015
6.314,0.030,0.005
6.316,0.040,-0.005
6.318,0.120,-0.015
6.320,0.210,-0.020
6.322,0.130,-0.030
6.324,0.105,-0.035
6.326,0.015,-0.040
6.328,-0.055,-0.040
6.330,-0.140,-0.040
6.332,-0.125,-0.040
6.334,-0.050,-0.040
6.336,0.070,-0.040
6.338,0.110,-0.040
6.340,0.225,-0.035
6.342,0.175,-0.035
6.344,0.050,-0.030
6.346,-0.085,-0.025
6.348,-0.095,-0.020
6.350,-0.135,-0.020
6.352,-0.010,-0.015
6.354,0.020,-0.015
6.356,0.085,-0.020
6.358,0.070,-0.025
6.360,0.175,-0.030
6.362,0.135,-0.035
6.364,0.025,-0.040
6.366,0.030,-0.040
6.368,-0.080,-0.045
6.370,-0.155,-0.045
6.372,-0.095,-0.045
6.374,-0.080,-0.045
6.376,0.015,-0.050
6.378,0.060,-0.050
6.380,0.195,-0.055
6.382,0.120,-0.060
6.384,0.060,-0.065
6.386,-0.020,-0.070
6.388,-0.030,-0.070
6.390,-0.180,-0.065
6.392,-0.120,-0.060
6.394,-0.145,-0.055
6.396,0.070,-0.045
6.398,0.155,-0.040
6.400,0.190,-0.035
6.402,0.130,-0.030
6.404,0.040,-0.035
6.406,-0.025,-0.040
6.408,-0.100,-0.045
6.410,-0.150,-0.050
6.412,-0.115,-0.055
6.414,-0.020,-0.055
6.416,0.085,-0.050
6.418,0.105,-0.040
6.420,0.225,-0.030
6.422,0.145,-0.020
6.424,0.065,-0.010
6.426,0.045,-0.005
6.428,-0.060,-0.005
6.430,-0.115,-0.010
6.432,-0.170,-0.015
6.434,0.010,-0.025
6.436,0.155,-0.035
6.438,0.095,-0.040
6.440,0.200,-0.040
6.442,0.175,-0.035
6.444,0.075,-0.030
6.446,-0.040,-0.020
6.448,-0.095,-0.015
6.450,-0.135,-0.015
6.452,-0.135,-0.020
6.454,0.005,-0.030
6.456,0.095,-0.040
6.458,0.085,-0.050
6.460,0.150,-0.060
6.462,0.160,-0.060
6.464,0.070,-0.055
6.466,-0.005,-0.050
6.468,-0.090,-0.035
6.470,-0.150,-0.030
6.472,-0.130,-0.020
6.474,0.010,-0.020
6.476,0.095,-0.020
6.478,0.135,-0.030
6.480,0.210,-0.035
6.482,0.140,-0.040
6.484,0.065,-0.045
6.486,-0.085,-0.040
6.488,-0.095,-0.040
6.490,-0.100,-0.030
6.492,-0.075,-0.025
6.494,-0.040,-0.020
6.496,0.105,-0.015
6.498,0.200,-0.015
6.500,0.190,-0.020
6.502,0.120,-0.020
6.504,0.100,-0.020
6.506,-0.085,-0.020
6.508,-0.025,-0.015
6.510,-0.105,-0.010
6.512,-0.095,-0.005
6.514,0.015,-0.005
6.516,0.085,-0.010
6.518,0.150,-0.015
6.520,0.205,-0.025
6.522,0.155,-0.035
6.524,0.005,-0.045
6.526,-0.055,-0.050
6.528,-0.085,-0.050
6.530,-0.140,-0.050
6.532,-0.100,-0.045
6.534,0.030,-0.035
6.536,0.065,-0.030
6.538,0.140,-0.025
6.540,0.240,-0.020
6.542,0.145,-0.020
6.544,0.050,-0.015
6.546,-0.030,-0.015
6.548,-0.080,-0.010
6.550,-0.130,-0.005
6.552,-0.015,0.000
6.554,0.080,0.005
6.556,0.140,0.010
6.558,0.190,0.010
6.560,0.180,0.005
6.562,0.160,0.005
6.564,0.035,0.000
6.566,-0.050,-0.005
6.568,-0.085,-0.010
6.570,-0.095,-0.010
6.572,-0.025,-0.015
6.574,0.085,-0.015
6.576,0.120,-0.015
6.578,0.145,-0.020
6.580,0.150,-0.025
6.582,0.120,-0.025
6.584,0.085,-0.030
6.586,-0.020,-0.030
6.588,-0.160,-0.030
6.590,-0.145,-0.030
6.592,-0.065,-0.030
6.594,0.070,-0.025
6.596,0.140,-0.025
6.598,0.155,-0.030
6.600,0.185,-0.035
6.602,0.075,-0.040
6.604,-0.010,-0.050
6.606,-0.130,-0.055
6.608,-0.155,-0.055
6.610,-0.170,-0.055
6.612,-0.130,-0.055
6.614,0.075,-0.045
6.616,0.135,-0.040
6.618,0.170,-0.035
6.620,0.150,-0.030
6.622,0.105,-0.035
6.624,-0.050,-0.040
6.626,-0.105,-0.045
6.628,-0.080,-0.050
6.630,-0.125,-0.060
6.632,-0.045,-0.065
6.634,0.040,-0.065
6.636,0.055,-0.060
6.638,0.135,-0.060
6.640,0.170,-0.055
6.642,0.055,-0.050
6.644,-0.035,-0.045
6.646,-0.100,-0.045
6.648,-0.145,-0.045
6.650,-0.085,-0.045
6.652,-0.060,-0.045
6.654,0.045,-0.045
6.656,0.070,-0.045
6.658,0.190,-0.045
6.660,0.120,-0.045
6.662,0.175,-0.045
6.664,-0.055,-0.045
6.666,-0.135,-0.050
6.668,-0.145,-0.055
6.670,-0.090,-0.065
6.672,-0.070,-0.065
6.674,-0.015,-0.070
6.676,0.115,-0.070
6.678,0.150,-0.070
6.680,0.110,-0.065
6.682,0.055,-0.065
6.684,-0.065,-0.060
6.686,-0.120,-0.055
6.688,-0.165,-0.055
6.690,-0.080,-0.050
6.692,-0.030,-0.050
6.694,0.075,-0.045
6.696,0.125,-0.040
6.698,0.150,-0.035
6.700,0.085,-0.030
6.702,0.095,-0.030
6.704,0.000,-0.030
6.706,-0.095,-0.035
6.708,-0.160,-0.045
6.710,-0.105,-0.050
6.712,-0.025,-0.060
6.714,0.015,-0.060
6.716,0.085,-0.060
6.718,0.135,-0.050
6.720,0.185,-0.035
6.722,0.040,-0.020
6.724,0.035,0.000
6.726,0.025,0.025
6.728,-0.045,0.050
6.730,-0.015,0.075
6.732,0.135,0.105
6.734,0.250,0.130
6.736,0.340,0.160
6.738,0.435,0.190
6.740,0.440,0.220
6.742,0.395,0.245
6.744,0.275,0.265
6.746,0.245,0.275
6.748,0.130,0.270
6.750,0.120,0.260
6.752,0.215,0.235
6.754,0.365,0.205
6.756,0.380,0.170
6.758,0.375,0.135
6.760,0.285,0.100
6.762,0.120,0.070
6.764,0.005,0.040
6.766,-0.090,0.020
6.768,-0.145,-0.005
6.770,-0.115,-0.025
6.772,-0.045,-0.040
6.774,0.055,-0.055
6.776,0.120,-0.070
6.778,0.140,-0.075
6.780,0.050,-0.075
6.782,-0.050,-0.070
6.784,-0.105,-0.060
6.786,-0.055,-0.050
6.788,-0.065,-0.035
6.790,-0.005,-0.030
6.792,0.005,-0.025
6.794,0.095,-0.020
6.796,0.160,-0.020
6.798,0.210,-0.025
6.800,0.100,-0.025
6.802,0.005,-0.025
6.804,-0.110,-0.025
6.806,-0.070,-0.020
6.808,-0.090,-0.020
6.810,-0.080,-0.025
6.812,-0.010,-0.030
6.814,0.105,-0.035
6.816,0.115,-0.045
6.818,0.135,-0.050
6.820,0.110,-0.055
6.822,0.040,-0.050
6.824,-0.045,-0.045
6.826,-0.050,-0.030
6.828,-0.125,-0.020
6.830,-0.045,-0.010
6.832,0.055,0.000
6.834,0.115,0.000
6.836,0.140,-0.005
6.838,0.200,-0.010
6.840,0.100,-0.020
6.842,0.025,-0.025
6.844,-0.030,-0.030
6.846,-0.060,-0.025
6.848,-0.125,-0.025
6.850,-0.040,-0.020
6.852,0.010,-0.020
6.854,0.075,-0.020
6.856,0.180,-0.025
6.858,0.165,-0.035
6.860,0.040,-0.040
6.862,0.000,-0.040
6.864,-0.045,-0.035
6.866,-0.040,-0.025
6.868,-0.065,-0.015
6.870,-0.075,0.000
6.872,0.120,0.015
6.874,0.150,0.020
6.876,0.130,0.015
6.878,0.120,0.005
6.880,0.125,-0.010
6.882,0.015,-0.020
6.884,0.020,-0.030
6.886,-0.120,-0.035
6.888,-0.075,-0.025
6.890,0.005,-0.010
6.892,0.110,0.005
6.894,0.145,0.020
6.896,0.180,0.030
6.898,0.155,0.025
6.900,0.155,0.015
6.902,0.025,0.000
6.904,-0.010,-0.015
6.906,-0.115,-0.030
6.908,-0.080,-0.030
6.910,0.020,-0.025
6.912,0.030,-0.010
6.914,0.165,0.015
6.916,0.225,0.035
6.918,0.210,0.055
6.920,0.140,0.065
6.922,0.065,0.065
6.924,0.010,0.055
6.926,-0.070,0.045
6.928,-0.010,0.035
6.930,0.045,0.030
6.932,0.145,0.030
6.934,0.150,0.045
6.936,0.275,0.060
6.938,0.235,0.075
6.940,0.165,0.090
6.942,0.105,0.100
6.944,0.105,0.100
6.946,0.015,0.100
6.948,0.000,0.090
6.950,0.100,0.085
6.952,0.190,0.080
6.954,0.225,0.085
6.956,0.310,0.095
6.958,0.285,0.110
6.960,0.215,0.130
6.962,0.185,0.150
6.964,0.110,0.165
6.966,0.025,0.170
6.968,0.115,0.175
6.970,0.185,0.165
6.972,0.230,0.160
6.974,0.290,0.150
6.976,0.430,0.140
6.978,0.230,0.135
6.980,0.185,0.140
6.982,0.115,0.145
6.984,0.165,0.155
6.986,0.115,0.170
6.988,0.160,0.180
6.990,0.195,0.185
6.992,0.285,0.185
6.994,0.290,0.180
6.996,0.335,0.170
6.998,0.355,0.155
7.000,0.230,0.145
7.002,0.185,0.130
7.004,0.085,0.120
7.006,0.050,0.115
7.008,0.025,0.115
7.010,0.100,0.115
7.012,0.210,0.115
7.014,0.300,0.115
7.016,0.325,0.110
7.018,0.245,0.110
7.020,0.165,0.100
7.022,0.070,0.090
7.024,0.040,0.085
7.026,-0.030,0.075
7.028,0.055,0.070
7.030,0.045,0.065
7.032,0.135,0.065
7.034,0.195,0.060
7.036,0.280,0.055
7.038,0.230,0.045
7.040,0.085,0.035
7.042,-0.030,0.020
7.044,-0.010,0.010
7.046,-0.100,-0.005
7.048,-0.075,-0.015
7.050,-0.055,-0.020
7.052,0.070,-0.020
7.054,0.120,-0.015
7.056,0.235,-0.010
7.058,0.165,-0.005
7.060,0.070,-0.005
7.062,0.030,-0.005
7.064,-0.020,-0.010
7.066,-0.160,-0.020
7.068,-0.180,-0.025
7.070,0.010,-0.035
7.072,0.105,-0.040
7.074,0.130,-0.045
7.076,0.185,-0.040
7.078,0.100,-0.040
7.080,0.085,-0.035
7.082,-0.105,-0.035
7.084,-0.050,-0.030
7.086,-0.145,-0.035
7.088,-0.125,-0.035
7.090,-0.015,-0.040
7.092,0.045,-0.045
7.094,0.080,-0.050
7.096,0.185,-0.050
7.098,0.135,-0.045
7.100,-0.015,-0.045
7.102,-0.045,-0.040
7.104,-0.065,-0.040
7.106,-0.135,-0.040
7.108,-0.090,-0.045
7.110,-0.020,-0.050
7.112,0.080,-0.055
7.114,0.060,-0.065
7.116,0.110,-0.065
7.118,0.060,-0.070
7.120,0.035,-0.065
7.122,-0.040,-0.060
7.124,-0.075,-0.050
7.126,-0.080,-0.040
7.128,-0.075,-0.030
7.130,0.000,-0.020
7.132,0.130,-0.015
7.134,0.085,-0.015
7.136,0.210,-0.015
7.138,0.115,-0.020
7.140,0.015,-0.025
7.142,-0.050,-0.035
7.144,-0.120,-0.040
7.146,-0.175,-0.045
7.148,-0.060,-0.050
7.150,0.030,-0.050
7.152,0.115,-0.045
7.154,0.155,-0.035
7.156,0.155,-0.030
7.158,0.135,-0.020
7.160,-0.015,-0.010
7.162,-0.020,-0.005
7.164,-0.030,-0.005
7.166,-0.065,-0.010
7.168,-0.110,-0.015
7.170,0.015,-0.025
7.172,0.115,-0.035
7.174,0.210,-0.045
7.176,0.110,-0.050
7.178,0.055,-0.055
7.180,-0.010,-0.050
7.182,-0.075,-0.050
7.184,-0.130,-0.040
7.186,-0.065,-0.035
7.188,-0.070,-0.025
7.190,0.015,-0.020
7.192,0.105,-0.015
7.194,0.150,-0.010
7.196,0.185,-0.010
7.198,0.125,-0.010
7.200,0.040,-0.010
7.202,-0.065,-0.015
7.204,-0.120,-0.020
7.206,-0.190,-0.025
7.208,-0.055,-0.025
7.210,0.055,-0.030
7.212,0.120,-0.035
7.214,0.175,-0.035
7.216,0.180,-0.035
7.218,0.070,-0.035
7.220,-0.010,-0.030
7.222,-0.010,-0.025
7.224,-0.135,-0.020
7.226,-0.095,-0.010
7.228,-0.045,-0.005
7.230,0.025,-0.005
7.232,0.095,-0.005
7.234,0.200,-0.010
7.236,0.195,-0.015
7.238,0.085,-0.025
7.240,0.010,-0.030
7.242,-0.040,-0.040
7.244,-0.130,-0.045
7.246,-0.130,-0.040
7.248,-0.110,-0.040
7.250,0.075,-0.030
7.252,0.110,-0.025
7.254,0.170,-0.020
7.256,0.150,-0.015
7.258,0.090,-0.015
7.260,-0.015,-0.025
7.262,-0.070,-0.035
7.264,-0.160,-0.050
7.266,-0.105,-0.060
7.268,-0.075,-0.070
7.270,0.040,-0.075
7.272,-0.015,-0.075
7.274,0.140,-0.065
7.276,0.150,-0.050
7.278,0.070,-0.035
7.280,0.050,-0.020
7.282,-0.085,-0.010
7.284,-0.190,-0.005
7.286,-0.005,-0.005
7.288,-0.030,-0.005
7.290,0.080,-0.010
7.292,0.135,-0.015
7.294,0.190,-0.015
7.296,0.120,-0.015
7.298,0.110,-0.005
7.300,0.015,0.000
7.302,0.010,0.010
7.304,-0.070,0.015
7.306,-0.120,0.015
7.308,0.000,0.010
7.310,0.080,0.005
7.312,0.135,-0.010
7.314,0.130,-0.020
7.316,0.140,-0.025
7.318,0.110,-0.030
7.320,0.030,-0.025
7.322,-0.015,-0.020
7.324,-0.180,-0.005
7.326,-0.080,0.005
7.328,0.085,0.015
7.330,0.105,0.025
7.332,0.110,0.030
7.334,0.250,0.030
7.336,0.190,0.025
7.338,0.115,0.020
7.340,-0.010,0.010
7.342,-0.090,0.005
7.344,-0.145,-0.005
7.346,-0.040,-0.020
7.348,-0.010,-0.030
7.350,0.060,-0.045
7.352,0.040,-0.055
7.354,0.125,-0.065
7.356,0.125,-0.070
7.358,-0.045,-0.070
7.360,-0.005,-0.065
7.362,-0.045,-0.055
7.364,-0.145,-0.045
7.366,-0.075,-0.035
7.368,0.005,-0.025
7.370,0.060,-0.015
7.372,0.055,-0.015
7.374,0.185,-0.015
7.376,0.125,-0.020
7.378,0.060,-0.025
7.380,-0.035,-0.035
7.382,-0.070,-0.040
7.384,-0.165,-0.040
7.386,-0.065,-0.045
7.388,-0.030,-0.040
7.390,0.055,-0.040
7.392,0.135,-0.040
7.394,0.140,-0.035
7.396,0.105,-0.035
7.398,0.025,-0.035
7.400,-0.015,-0.035
7.402,-0.120,-0.035
7.404,-0.170,-0.035
7.406,-0.080,-0.035
7.408,-0.005,-0.040
7.410,0.075,-0.040
7.412,0.065,-0.045
7.414,0.180,-0.050
7.416,0.075,-0.050
7.418,-0.010,-0.055
7.420,-0.065,-0.055
7.422,-0.085,-0.055
7.424,-0.145,-0.055
7.426,-0.085,-0.050
7.428,0.000,-0.050
7.430,0.100,-0.050
7.432,0.110,-0.045
7.434,0.150,-0.045
7.436,0.130,-0.045
7.438,-0.030,-0.045
7.440,-0.065,-0.045
7.442,-0.070,-0.040
7.444,-0.130,-0.040
7.446,-0.075,-0.040
7.448,0.005,-0.045
7.450,0.085,-0.045
7.452,0.065,-0.050
7.454,0.160,-0.050
7.456,0.065,-0.050
7.458,0.030,-0.045
7.460,-0.075,-0.040
7.462,-0.125,-0.030
7.464,-0.140,-0.020
7.466,-0.010,-0.015
7.468,0.060,-0.010
7.470,0.145,-0.010
7.472,0.150,-0.020
7.474,0.100,-0.030
7.476,0.080,-0.035
7.478,-0.005,-0.040
7.480,-0.110,-0.040
7.482,-0.125,-0.025
7.484,-0.050,-0.005
7.486,0.015,0.030
7.488,0.165,0.070
7.490,0.345,0.115
7.492,0.340,0.160
7.494,0.305,0.195
7.496,0.325,0.230
7.498,0.275,0.250
7.500,0.215,0.265
7.502,0.225,0.275
7.504,0.225,0.275
7.506,0.315,0.275
7.508,0.320,0.265
7.510,0.395,0.255
7.512,0.395,0.240
7.514,0.405,0.215
7.516,0.320,0.185
7.518,0.165,0.155
7.520,0.030,0.115
7.522,-0.035,0.080
7.524,-0.105,0.045
7.526,-0.030,0.015
7.528,0.050,-0.010
7.530,0.105,-0.030
7.532,0.130,-0.045
7.534,0.145,-0.050
7.536,0.055,-0.060
7.538,-0.040,-0.060
7.540,-0.085,-0.065
7.542,-0.220,-0.065
7.544,-0.160,-0.065
7.546,-0.075,-0.060
7.548,0.110,-0.055
7.550,0.085,-0.045
7.552,0.195,-0.040
7.554,0.165,-0.030
7.556,0.100,-0.025
7.558,-0.005,-0.020
7.560,-0.085,-0.015
7.562,-0.115,-0.020
7.564,-0.085,-0.020
7.566,-0.025,-0.025
7.568,0.080,-0.025
7.570,0.155,-0.025
7.572,0.175,-0.025
7.574,0.120,-0.025
7.576,0.005,-0.025
7.578,-0.055,-0.020
7.580,-0.015,-0.020
7.582,-0.090,-0.025
7.584,-0.110,-0.025
7.586,-0.085,-0.030
7.588,0.070,-0.035
7.590,0.105,-0.040
7.592,0.205,-0.045
7.594,0.090,-0.050
7.596,-0.020,-0.050
7.598,-0.040,-0.050
7.600,-0.085,-0.045
7.602,-0.120,-0.045
7.604,-0.080,-0.040
7.606,0.005,-0.030
7.608,0.045,-0.025
7.610,0.130,-0.015
7.612,0.250,-0.010
7.614,0.110,-0.005
7.616,0.100,0.000
7.618,-0.010,0.000
7.620,-0.070,0.000
7.622,-0.095,-0.005
7.624,-0.095,-0.010
7.626,-0.005,-0.010
7.628,0.085,-0.015
7.630,0.115,-0.020
7.632,0.170,-0.025
7.634,0.135,-0.030
7.636,0.035,-0.040
7.638,-0.105,-0.045
7.640,-0.120,-0.050
7.642,-0.150,-0.055
7.644,-0.110,-0.055
7.646,-0.015,-0.050
7.648,0.095,-0.040
7.650,0.010,-0.025
7.652,0.235,-0.010
7.654,0.240,0.005
7.656,0.130,0.020
7.658,0.035,0.025
7.660,-0.040,0.030
7.662,-0.090,0.025
7.664,-0.100,0.015
7.666,0.030,0.005
7.668,0.065,0.000
7.670,0.130,-0.010
7.672,0.215,-0.010
7.674,0.145,-0.010
7.676,0.125,0.000
7.678,-0.030,0.005
7.680,-0.035,0.015
7.682,-0.050,0.025
7.684,-0.015,0.030
7.686,0.045,0.030
7.688,0.155,0.035
7.690,0.180,0.035
7.692,0.205,0.040
7.694,0.230,0.050
7.696,0.155,0.055
7.698,0.020,0.065
7.700,0.015,0.080
7.702,-0.010,0.085
7.704,0.045,0.090
7.706,0.110,0.095
7.708,0.170,0.090
7.710,0.200,0.085
7.712,0.320,0.075
7.714,0.235,0.070
7.716,0.080,0.065
7.718,0.015,0.060
7.720,0.030,0.065
7.722,0.025,0.070
7.724,0.060,0.085
7.726,0.110,0.095
7.728,0.225,0.110
7.730,0.220,0.125
7.732,0.315,0.140
7.734,0.325,0.150
7.736,0.235,0.160
7.738,0.150,0.165
7.740,0.115,0.165
7.742,0.045,0.165
7.744,0.155,0.165
7.746,0.175,0.160
7.748,0.275,0.160
7.750,0.350,0.160
7.752,0.305,0.160
7.754,0.320,0.160
7.756,0.230,0.160
7.758,0.155,0.160
7.760,0.090,0.160
7.762,0.045,0.155
7.764,0.065,0.150
7.766,0.155,0.140
7.768,0.230,0.130
7.770,0.315,0.115
7.772,0.295,0.105
7.774,0.235,0.095
7.776,0.170,0.090
7.778,0.055,0.085
7.780,-0.020,0.085
7.782,-0.050,0.090
7.784,0.080,0.090
7.786,0.120,0.085
7.788,0.175,0.075
7.790,0.280,0.065
7.792,0.275,0.050
7.794,0.145,0.030
7.796,-0.030,0.010
7.798,-0.050,-0.005
7.800,-0.105,-0.015
7.802,-0.090,-0.025
7.804,-0.010,-0.025
7.806,0.020,-0.025
7.808,0.090,-0.020
7.810,0.155,-0.020
7.812,0.175,-0.020
7.814,0.095,-0.020
7.816,-0.010,-0.025
7.818,-0.030,-0.030
7.820,-0.145,-0.035
7.822,-0.125,-0.040
7.824,-0.045,-0.045
7.826,0.030,-0.050
7.828,0.065,-0.050
7.830,0.110,-0.050
7.832,0.080,-0.050
7.834,0.085,-0.050
7.836,0.020,-0.050
7.838,-0.075,-0.050
7.840,-0.140,-0.050
7.842,-0.145,-0.050
7.844,-0.060,-0.050
7.846,0.050,-0.045
7.848,0.075,-0.045
7.850,0.165,-0.050
7.852,0.120,-0.050
7.854,0.040,-0.050
7.856,-0.040,-0.050
7.858,-0.115,-0.050
7.860,-0.205,-0.050
7.862,-0.090,-0.045
7.864,0.020,-0.040
7.866,0.015,-0.035
7.868,0.115,-0.030
7.870,0.210,-0.025
7.872,0.160,-0.020
7.874,0.070,-0.025
7.876,-0.045,-0.030
7.878,-0.125,-0.040
7.880,-0.185,-0.050
7.882,-0.110,-0.060
7.884,-0.095,-0.065
7.886,0.010,-0.070
7.888,0.105,-0.065
7.890,0.190,-0.055
7.892,0.125,-0.045
7.894,0.085,-0.030
7.896,0.010,-0.020
7.898,-0.065,-0.015
7.900,-0.135,-0.015
7.902,-0.110,-0.025
7.904,-0.045,-0.035
7.906,0.085,-0.045
7.908,0.040,-0.060
7.910,0.160,-0.065
7.912,0.145,-0.065
7.914,-0.005,-0.065
7.916,-0.020,-0.055
7.918,-0.120,-0.050
7.920,-0.180,-0.045
7.922,-0.100,-0.040
7.924,-0.025,-0.040
7.926,-0.015,-0.040
7.928,0.050,-0.040
7.930,0.155,-0.040
7.932,0.205,-0.040
7.934,0.085,-0.035
7.936,-0.020,-0.025
7.938,-0.045,-0.020
7.940,-0.170,-0.015
7.942,-0.080,-0.010
7.944,-0.040,-0.015
7.946,0.065,-0.025
7.948,0.085,-0.035
7.950,0.225,-0.045
7.952,0.125,-0.050
7.954,0.005,-0.050
7.956,-0.080,-0.045
7.958,-0.055,-0.035
7.960,-0.115,-0.025
7.962,-0.055,-0.015
7.964,0.020,-0.010
7.966,0.065,-0.005
7.968,0.085,-0.010
7.970,0.180,-0.015
7.972,0.150,-0.020
7.974,0.060,-0.025
7.976,-0.010,-0.030
7.978,-0.080,-0.030
7.980,-0.160,-0.030
7.982,-0.045,-0.030
7.984,-0.030,-0.030
7.986,0.105,-0.030
7.988,0.065,-0.035
7.990,0.160,-0.040
7.992,0.105,-0.050
7.994,0.015,-0.055
7.996,-0.065,-0.055
7.998,-0.100,-0.055
8.000,-0.140,-0.050
8.002,-0.095,-0.045
8.004,-0.005,-0.040
8.006,0.080,-0.040
8.008,0.100,-0.040
8.010,0.155,-0.040
8.012,0.070,-0.045
8.014,0.025,-0.050
8.016,-0.080,-0.055
8.018,-0.090,-0.055
8.020,-0.155,-0.055
8.022,-0.100,-0.055
8.024,-0.015,-0.050
8.026,0.090,-0.050
8.028,0.105,-0.045
8.030,0.235,-0.045
8.032,0.080,-0.040
8.034,0.025,-0.040
8.036,-0.155,-0.040
8.038,-0.135,-0.035
8.040,-0.150,-0.035
8.042,-0.005,-0.035
8.044,0.085,-0.030
8.046,0.075,-0.030
8.048,0.165,-0.035
8.050,0.120,-0.040
8.052,0.065,-0.045
8.054,0.030,-0.050
8.056,-0.080,-0.050
8.058,-0.120,-0.055
8.060,-0.150,-0.050
8.062,-0.105,-0.050
8.064,0.020,-0.045
8.066,0.075,-0.045
8.068,0.160,-0.040
8.070,0.160,-0.045
8.072,0.115,-0.045
8.074,-0.025,-0.050
8.076,-0.115,-0.055
8.078,-0.130,-0.060
8.080,-0.125,-0.055
8.082,-0.070,-0.055
8.084,0.005,-0.045
8.086,0.075,-0.040
8.088,0.170,-0.030
8.090,0.175,-0.025
8.092,0.100,-0.020
8.094,-0.005,-0.015
8.096,-0.020,-0.020
8.098,-0.105,-0.020
8.100,-0.180,-0.025
8.102,-0.100,-0.030
8.104,0.065,-0.030
8.106,0.160,-0.030
8.108,0.190,-0.025
8.110,0.190,-0.015
8.112,0.110,-0.010
8.114,0.035,0.000
8.116,-0.005,0.005
8.118,-0.125,0.010
8.120,-0.170,0.010
8.122,-0.015,0.010
8.124,0.145,0.005
8.126,0.175,-0.005
8.128,0.210,-0.010
8.130,0.105,-0.020
8.132,0.010,-0.025
8.134,-0.015,-0.030
8.136,-0.015,-0.035
8.138,-0.180,-0.035
8.140,-0.085,-0.035
8.142,-0.030,-0.030
8.144,0.045,-0.030
8.146,0.080,-0.030
8.148,0.150,-0.030
8.150,0.110,-0.035
8.152,0.040,-0.040
8.154,0.010,-0.050
8.156,-0.110,-0.055
8.158,-0.180,-0.060
8.160,-0.135,-0.065
8.162,-0.045,-0.065
8.164,0.050,-0.065
8.166,0.100,-0.060
8.168,0.140,-0.060
8.170,0.095,-0.060
8.172,0.035,-0.060
8.174,-0.070,-0.060
8.176,-0.110,-0.065
8.178,-0.210,-0.070
8.180,-0.140,-0.070
8.182,-0.035,-0.075
8.184,0.050,-0.070
8.186,0.160,-0.065
8.188,0.125,-0.060
8.190,0.015,-0.055
8.192,-0.015,-0.050
8.194,-0.015,-0.045
8.196,-0.090,-0.045
8.198,-0.135,-0.050
8.200,-0.145,-0.050
8.202,-0.035,-0.055
8.204,0.090,-0.055
8.206,0.070,-0.055
8.208,0.160,-0.050
8.210,0.150,-0.045
8.212,0.040,-0.035
8.214,-0.090,-0.030
8.216,-0.050,-0.030
8.218,-0.155,-0.030
8.220,-0.080,-0.035
8.222,-0.030,-0.040
8.224,0.015,-0.045
8.226,0.070,-0.050
8.228,0.150,-0.050
8.230,0.110,-0.045
8.232,0.085,-0.045
8.234,0.000,-0.040
8.236,-0.080,-0.035
8.238,-0.175,-0.030
8.240,-0.105,-0.030
8.242,-0.045,-0.030
8.244,0.105,-0.035
8.246,0.060,-0.040
8.248,0.175,-0.045
8.250,0.135,-0.045
8.252,0.060,-0.045
8.254,-0.055,-0.045
8.256,-0.090,-0.045
8.258,-0.175,-0.045
8.260,-0.130,-0.040
8.262,0.005,-0.035
8.264,0.065,-0.030
8.266,0.150,-0.010
8.268,0.260,0.010
8.270,0.220,0.040
8.272,0.105,0.075
8.274,0.030,0.115
8.276,0.145,0.155
8.278,0.050,0.195
8.280,0.215,0.225
8.282,0.325,0.245
8.284,0.435,0.260
8.286,0.415,0.270
8.288,0.535,0.270
8.290,0.390,0.265
8.292,0.290,0.250
8.294,0.155,0.235
8.296,0.180,0.210
8.298,0.090,0.180
8.300,0.070,0.140
8.302,0.135,0.100
8.304,0.170,0.055
8.306,0.080,0.015
8.308,0.180,-0.020
8.310,0.115,-0.045
8.312,0.005,-0.055
8.314,-0.085,-0.055
8.316,-0.070,-0.050
8.318,-0.140,-0.035
8.320,-0.120,-0.020
8.322,0.055,-0.010
8.324,0.100,-0.005
8.326,0.135,-0.010
8.328,0.155,-0.020
8.330,0.080,-0.035
8.332,0.030,-0.045
8.334,-0.135,-0.055
8.336,-0.085,-0.060
8.338,-0.140,-0.060
8.340,-0.045,-0.055
8.342,0.020,-0.050
8.344,-0.010,-0.040
8.346,0.075,-0.035
8.348,0.170,-0.030
8.350,0.130,-0.030
8.352,0.045,-0.030
8.354,-0.080,-0.035
8.356,-0.130,-0.035
8.358,-0.085,-0.035
8.360,-0.055,-0.030
8.362,0.040,-0.025
8.364,0.080,-0.020
8.366,0.130,-0.015
8.368,0.205,-0.010
8.370,0.170,-0.010
8.372,-0.025,-0.010
8.374,-0.115,-0.015
8.376,0.010,-0.025
8.378,-0.150,-0.035
8.380,-0.100,-0.040
8.382,0.005,-0.045
8.384,0.145,-0.045
8.386,0.145,-0.040
8.388,0.140,-0.035
8.390,0.150,-0.025
8.392,0.025,-0.015
8.394,-0.060,-0.010
8.396,-0.055,-0.005
8.398,-0.085,0.000
8.400,-0.080,0.000
8.402,0.020,-0.005
8.404,0.105,-0.010
8.406,0.190,-0.015
8.408,0.185,-0.020
8.410,0.125,-0.020
8.412,0.015,-0.020
8.414,-0.075,-0.020
8.416,-0.115,-0.020
8.418,-0.080,-0.015
8.420,-0.060,-0.015
8.422,0.075,-0.010
8.424,0.145,-0.010
8.426,0.155,-0.010
8.428,0.135,-0.010
8.430,0.095,-0.010
8.432,0.040,-0.005
8.434,-0.010,0.000
8.436,-0.065,0.005
8.438,-0.045,0.005
8.440,-0.025,0.010
8.442,0.085,0.005
8.444,0.130,0.005
8.446,0.170,-0.005
8.448,0.205,-0.010
8.450,0.095,-0.015
8.452,-0.045,-0.020
8.454,-0.070,-0.015
8.456,-0.090,-0.010
8.458,0.005,0.000
8.460,0.030,0.015
8.462,0.085,0.030
8.464,0.155,0.045
8.466,0.200,0.055
8.468,0.285,0.060
8.470,0.235,0.065
8.472,0.075,0.065
8.474,-0.040,0.060
8.476,-0.110,0.060
8.478,-0.005,0.060
8.480,0.070,0.060
8.482,0.160,0.065
8.484,0.205,0.075
8.486,0.320,0.085
8.488,0.275,0.095
8.490,0.185,0.105
8.492,0.090,0.115
8.494,0.010,0.120
8.496,-0.025,0.125
8.498,0.075,0.125
8.500,0.110,0.125
8.502,0.210,0.130
8.504,0.290,0.130
8.506,0.375,0.130
8.508,0.310,0.135
8.510,0.240,0.140
8.512,0.140,0.145
8.514,0.085,0.150
8.516,0.015,0.160
8.518,0.125,0.165
8.520,0.170,0.165
8.522,0.250,0.170
8.524,0.270,0.170
8.526,0.380,0.165
8.528,0.320,0.165
8.530,0.305,0.160
8.532,0.145,0.165
8.534,0.160,0.165
8.536,0.060,0.170
8.538,0.050,0.175
8.540,0.195,0.180
8.542,0.260,0.180
8.544,0.275,0.180
8.546,0.380,0.170
8.548,0.330,0.165
8.550,0.265,0.150
8.552,0.170,0.140
8.554,0.030,0.125
8.556,-0.005,0.115
8.558,0.060,0.110
8.560,0.100,0.105
8.562,0.185,0.100
8.564,0.225,0.095
8.566,0.300,0.085
8.568,0.235,0.075
8.570,0.140,0.060
8.572,0.020,0.045
8.574,0.025,0.030
8.576,-0.150,0.020
8.578,-0.050,0.010
8.580,0.045,0.010
8.582,0.175,0.010
8.584,0.170,0.010
8.586,0.250,0.015
8.588,0.185,0.015
8.590,0.015,0.010
8.592,-0.020,0.000
8.594,-0.050,-0.015
8.596,-0.175,-0.030
8.598,-0.075,-0.040
8.600,0.030,-0.050
8.602,0.090,-0.055
8.604,0.100,-0.050
8.606,0.145,-0.040
8.608,0.115,-0.025
8.610,0.055,-0.015
8.612,0.015,-0.005
8.614,-0.040,-0.005
8.616,-0.125,-0.010
8.618,-0.065,-0.020
8.620,-0.005,-0.035
8.622,-0.010,-0.050
8.624,0.110,-0.060
8.626,0.195,-0.065
8.628,0.075,-0.060
8.630,0.015,-0.050
8.632,-0.070,-0.040
8.634,-0.065,-0.025
8.636,-0.090,-0.015
8.638,-0.085,-0.010
8.640,0.005,-0.010
8.642,0.105,-0.015
8.644,0.160,-0.030
8.646,0.155,-0.040
8.648,0.055,-0.050
8.650,-0.010,-0.060
8.652,-0.050,-0.060
8.654,-0.075,-0.055
8.656,-0.140,-0.050
8.658,-0.075,-0.045
8.660,0.000,-0.035
8.662,0.100,-0.035
8.664,0.150,-0.035
8.666,0.160,-0.035
8.668,0.090,-0.040
8.670,0.020,-0.045
8.672,-0.040,-0.045
8.674,-0.135,-0.045
8.676,-0.175,-0.040
8.678,-0.055,-0.035
8.680,0.040,-0.035
8.682,0.095,-0.030
8.684,0.110,-0.035
8.686,0.155,-0.040
8.688,0.130,-0.045
8.690,-0.010,-0.050
8.692,-0.070,-0.055
8.694,-0.100,-0.050
8.696,-0.105,-0.040
8.698,-0.045,-0.030
8.700,0.005,-0.020
8.702,0.140,-0.010
8.704,0.170,-0.005
8.706,0.160,-0.005
8.708,0.125,-0.010
8.710,-0.030,-0.020
8.712,-0.040,-0.030
8.714,-0.125,-0.040
8.716,-0.095,-0.040
8.718,-0.030,-0.040
8.720,0.060,-0.030
8.722,0.155,-0.025
8.724,0.180,-0.020
8.726,0.185,-0.015
8.728,0.130,-0.015
8.730,-0.005,-0.020
8.732,-0.080,-0.025
8.734,-0.105,-0.035
8.736,-0.115,-0.035
8.738,-0.055,-0.035
8.740,0.020,-0.030
8.742,0.050,-0.025
8.744,0.240,-0.020
8.746,0.190,-0.020
8.748,0.035,-0.020
8.750,-0.030,-0.025
8.752,-0.040,-0.035
8.754,-0.140,-0.040
8.756,-0.070,-0.045
8.758,0.005,-0.045
8.760,0.080,-0.035
8.762,0.050,-0.025
8.764,0.150,-0.010
8.766,0.220,0.005
8.768,0.130,0.015
8.770,0.010,0.020
8.772,-0.060,0.015
8.774,-0.100,0.000
8.776,-0.130,-0.015
8.778,-0.055,-0.035
8.780,0.100,-0.050
8.782,0.090,-0.060
8.784,0.165,-0.060
8.786,0.115,-0.055
8.788,0.055,-0.045
8.790,0.025,-0.035
8.792,-0.105,-0.025
8.794,-0.165,-0.015
8.796,-0.105,-0.015
8.798,0.025,-0.015
8.800,0.070,-0.020
8.802,0.115,-0.025
8.804,0.230,-0.025
8.806,0.150,-0.030
8.808,0.070,-0.025
8.810,-0.055,-0.025
8.812,-0.075,-0.020
8.814,-0.120,-0.020
8.816,-0.125,-0.020
8.818,-0.015,-0.020
8.820,0.080,-0.025
8.822,0.130,-0.030
8.824,0.170,-0.035
8.826,0.095,-0.040
8.828,0.100,-0.040
8.830,-0.030,-0.035
8.832,-0.050,-0.030
8.834,-0.180,-0.025
8.836,-0.095,-0.025
8.838,-0.025,-0.025
8.840,0.085,-0.025
8.842,0.120,-0.030
8.844,0.200,-0.040
8.846,0.095,-0.050
8.848,0.040,-0.055
8.850,-0.025,-0.060
8.852,-0.075,-0.065
8.854,-0.165,-0.060
8.856,-0.140,-0.055
8.858,-0.045,-0.050
8.860,0.070,-0.040
8.862,0.170,-0.035
8.864,0.160,-0.030
8.866,0.160,-0.025
8.868,0.085,-0.020
8.870,-0.010,-0.010
8.872,-0.125,-0.005
8.874,-0.095,0.005
8.876,0.010,0.010
8.878,0.010,0.015
8.880,0.090,0.015
8.882,0.140,0.010
8.884,0.245,0.005
8.886,0.170,-0.010
8.888,0.025,-0.020
8.890,-0.055,-0.025
8.892,-0.030,-0.025
8.894,-0.165,-0.025
8.896,-0.045,-0.015
8.898,0.015,0.000
8.900,0.170,0.015
8.902,0.150,0.025
8.904,0.260,0.035
8.906,0.175,0.035
8.908,0.075,0.025
8.910,-0.015,0.010
8.912,-0.060,-0.005
8.914,-0.145,-0.020
8.916,-0.060,-0.030
8.918,-0.015,-0.035
8.920,0.125,-0.035
8.922,0.090,-0.030
8.924,0.220,-0.025
8.926,0.145,-0.020
8.928,0.035,-0.020
8.930,-0.120,-0.025
8.932,-0.115,-0.035
8.934,-0.190,-0.050
8.936,-0.085,-0.060
8.938,0.005,-0.070
8.940,0.110,-0.075
8.942,0.085,-0.075
8.944,0.145,-0.065
8.946,0.095,-0.055
8.948,0.025,-0.040
8.950,-0.060,-0.030
8.952,-0.120,-0.025
8.954,-0.060,-0.030
8.956,-0.070,-0.035
8.958,0.020,-0.050
8.960,0.015,-0.060
8.962,0.075,-0.075
8.964,0.160,-0.080
8.966,0.010,-0.080
8.968,0.060,-0.075
8.970,-0.075,-0.070
8.972,-0.120,-0.055
8.974,-0.215,-0.045
8.976,-0.095,-0.035
8.978,0.060,-0.030
8.980,0.125,-0.030
8.982,0.110,-0.035
8.984,0.185,-0.035
8.986,0.125,-0.035
8.988,-0.025,-0.035
8.990,-0.095,-0.035
8.992,-0.090,-0.030
8.994,-0.105,-0.025
8.996,-0.010,-0.020
8.998,0.030,-0.020
9.000,0.090,-0.025
9.002,0.110,-0.035
9.004,0.130,-0.050
9.006,0.055,-0.060
9.008,0.020,-0.070
9.010,-0.125,-0.075
9.012,-0.155,-0.075
9.014,-0.140,-0.070
9.016,-0.100,-0.060
9.018,0.010,-0.050
9.020,0.130,-0.040
9.022,0.240,-0.030
9.024,0.165,-0.020
9.026,0.065,-0.020
9.028,0.010,-0.020
9.030,-0.130,-0.020
9.032,-0.085,-0.025
9.034,-0.120,-0.030
9.036,-0.065,-0.030
9.038,0.070,-0.030
9.040,0.120,-0.030
9.042,0.185,-0.020
9.044,0.185,-0.010
9.046,0.185,0.010
9.048,0.045,0.040
9.050,0.045,0.070
9.052,-0.035,0.110
9.054,0.005,0.150
9.056,0.200,0.190
9.058,0.410,0.225
9.060,0.405,0.250
9.062,0.500,0.270
9.064,0.530,0.275
9.066,0.360,0.270
9.068,0.260,0.260
9.070,0.175,0.245
9.072,0.130,0.220
9.074,0.135,0.195
9.076,0.125,0.165
9.078,0.180,0.130
9.080,0.215,0.095
9.082,0.325,0.060
9.084,0.205,0.025
9.086,0.080,-0.005
9.088,-0.080,-0.035
9.090,-0.095,-0.055
9.092,-0.165,-0.070
9.094,-0.155,-0.075
9.096,-0.040,-0.075
9.098,-0.010,-0.065
9.100,0.135,-0.055
9.102,0.150,-0.045
9.104,0.150,-0.035
9.106,0.085,-0.030
9.108,-0.040,-0.030
9.110,-0.110,-0.030
9.112,-0.160,-0.030
9.114,-0.030,-0.030
9.116,-0.050,-0.030
9.118,0.065,-0.030
9.120,0.120,-0.030
9.122,0.205,-0.025
9.124,0.200,-0.020
9.126,0.075,-0.020
9.128,-0.005,-0.020
9.130,-0.040,-0.015
9.132,-0.170,-0.020
9.134,-0.070,-0.020
9.136,0.010,-0.020
9.138,0.090,-0.020
9.140,0.105,-0.020
9.142,0.180,-0.025
9.144,0.140,-0.030
9.146,0.095,-0.030
9.148,-0.020,-0.035
9.150,-0.170,-0.040
9.152,-0.160,-0.045
9.154,-0.045,-0.045
9.156,-0.050,-0.045
9.158,0.090,-0.040
9.160,0.145,-0.035
9.162,0.175,-0.030
9.164,0.165,-0.020
9.166,0.015,-0.010
9.168,0.020,-0.005
9.170,-0.055,0.000
9.172,-0.085,0.000
9.174,-0.030,0.000
9.176,0.030,-0.005
9.178,0.105,-0.015
9.180,0.100,-0.020
9.182,0.125,-0.030
9.184,0.110,-0.035
9.186,0.070,-0.035
9.188,0.000,-0.035
9.190,-0.020,-0.030
9.192,-0.110,-0.025
9.194,-0.095,-0.020
9.196,0.015,-0.015
9.198,0.115,-0.010
9.200,0.150,-0.010
9.202,0.170,-0.010
9.204,0.075,-0.010
9.206,0.000,-0.010
9.208,0.005,-0.010
9.210,-0.015,-0.010
9.212,-0.035,-0.010
9.214,-0.050,-0.010
9.216,0.045,-0.005
9.218,0.120,-0.005
9.220,0.095,0.000
9.222,0.175,0.000
9.224,0.170,0.005
9.226,0.090,0.005
9.228,0.000,0.005
9.230,0.000,0.010
9.232,-0.090,0.015
9.234,-0.050,0.025
9.236,0.070,0.030
9.238,0.215,0.040
9.240,0.230,0.045
9.242,0.230,0.050
9.244,0.165,0.050
9.246,0.105,0.045
9.248,-0.010,0.040
9.250,-0.015,0.035
9.252,-0.065,0.030
9.254,0.005,0.030
9.256,0.085,0.030
9.258,0.195,0.030
9.260,0.210,0.035
9.262,0.220,0.045
9.264,0.215,0.055
9.266,0.095,0.065
9.268,0.055,0.075
9.270,0.080,0.085
9.272,-0.010,0.095
9.274,0.120,0.105
9.276,0.100,0.115
9.278,0.285,0.125
9.280,0.310,0.135
9.282,0.350,0.145
9.284,0.290,0.150
9.286,0.170,0.155
9.288,0.155,0.155
9.290,0.045,0.150
9.292,0.105,0.140
9.294,0.110,0.130
9.296,0.155,0.125
9.298,0.235,0.120
9.300,0.300,0.120
9.302,0.360,0.125
9.304,0.325,0.135
9.306,0.190,0.145
9.308,0.165,0.160
9.310,0.040,0.170
9.312,0.110,0.180
9.314,0.135,0.180
9.316,0.230,0.175
9.318,0.295,0.165
9.320,0.355,0.155
9.322,0.295,0.140
9.324,0.245,0.135
9.326,0.200,0.125
9.328,0.100,0.125
9.330,0.020,0.125
9.332,-0.020,0.125
9.334,0.115,0.125
9.336,0.200,0.120
9.338,0.245,0.115
9.340,0.270,0.105
9.342,0.280,0.095
9.344,0.245,0.085
9.346,0.180,0.075
9.348,0.075,0.065
9.350,-0.060,0.060
9.352,-0.040,0.055
9.354,-0.015,0.050
9.356,0.090,0.040
9.358,0.155,0.035
9.360,0.255,0.020
9.362,0.190,0.010
9.364,0.155,-0.005
9.366,-0.005,-0.015
9.368,-0.050,-0.025
9.370,-0.150,-0.030
9.372,-0.115,-0.030
9.374,0.010,-0.030
9.376,0.045,-0.025
9.378,0.090,-0.025
9.380,0.185,-0.020
9.382,0.150,-0.020
9.384,0.090,-0.025
9.386,-0.025,-0.025
9.388,-0.065,-0.025
9.390,-0.120,-0.025
9.392,-0.065,-0.020
9.394,-0.035,-0.015
9.396,0.110,-0.015
9.398,0.130,-0.015
9.400,0.155,-0.015
9.402,0.115,-0.025
9.404,0.095,-0.035
9.406,-0.025,-0.045
9.408,-0.100,-0.055
9.410,-0.230,-0.065
9.412,-0.105,-0.070
9.414,-0.025,-0.070
9.416,0.085,-0.065
9.418,0.065,-0.060
9.420,0.135,-0.055
9.422,0.170,-0.050
9.424,0.080,-0.050
9.426,-0.060,-0.050
9.428,-0.095,-0.055
9.430,-0.225,-0.055
9.432,-0.125,-0.055
9.434,-0.025,-0.055
9.436,0.095,-0.045
9.438,0.120,-0.035
9.440,0.265,-0.025
9.442,0.190,-0.020
9.444,0.085,-0.015
9.446,-0.075,-0.015
9.448,-0.045,-0.020
9.450,-0.195,-0.030
9.452,-0.090,-0.045
9.454,-0.075,-0.055
9.456,0.060,-0.070
9.458,0.120,-0.075
9.460,0.195,-0.075
9.462,0.120,-0.070
9.464,0.030,-0.060
9.466,-0.075,-0.050
9.468,-0.095,-0.040
9.470,-0.110,-0.030
9.472,-0.065,-0.025
9.474,-0.015,-0.020
9.476,0.115,-0.020
9.478,0.115,-0.025
9.480,0.190,-0.030
9.482,0.125,-0.035
9.484,0.000,-0.045
9.486,-0.015,-0.050
9.488,-0.045,-0.055
9.490,-0.175,-0.055
9.492,-0.130,-0.055
9.494,0.005,-0.050
9.496,0.100,-0.040
9.498,0.155,-0.030
9.500,0.190,-0.025
9.502,0.185,-0.020
9.504,0.065,-0.015
9.506,-0.060,-0.015
9.508,-0.115,-0.020
9.510,-0.135,-0.025
9.512,-0.075,-0.030
9.514,0.070,-0.035
9.516,0.085,-0.035
9.518,0.090,-0.035
9.520,0.185,-0.030
9.522,0.210,-0.025
9.524,0.020,-0.025
9.526,-0.030,-0.020
9.528,-0.025,-0.020
9.530,-0.160,-0.025
9.532,-0.085,-0.030
9.534,0.015,-0.035
9.536,0.090,-0.035
9.538,0.190,-0.040
9.540,0.240,-0.040
9.542,0.135,-0.035
9.544,-0.060,-0.035
9.546,-0.065,-0.035
9.548,-0.110,-0.035
9.550,-0.095,-0.040
9.552,-0.040,-0.045
9.554,-0.020,-0.055
9.556,0.050,-0.060
9.558,0.120,-0.060
9.560,0.135,-0.060
9.562,0.170,-0.050
9.564,0.000,-0.045
9.566,-0.040,-0.035
9.568,-0.100,-0.025
9.570,-0.125,-0.020
9.572,-0.040,-0.020
9.574,0.010,-0.025
9.576,0.045,-0.030
9.578,0.135,-0.035
9.580,0.205,-0.040
9.582,0.155,-0.045
9.584,0.075,-0.040
9.586,-0.085,-0.035
9.588,-0.095,-0.030
9.590,-0.085,-0.025
9.592,-0.080,-0.020
9.594,0.015,-0.020
9.596,0.095,-0.030
9.598,0.150,-0.035
9.600,0.180,-0.045
9.602,0.070,-0.055
9.604,-0.015,-0.060
9.606,-0.065,-0.060
9.608,-0.110,-0.050
9.610,-0.115,-0.040
9.612,0.025,-0.030
9.614,0.030,-0.015
9.616,0.145,-0.010
9.618,0.105,-0.005
9.620,0.255,-0.005
9.622,0.175,-0.010
9.624,-0.025,-0.010
9.626,-0.100,-0.015
9.628,-0.145,-0.020
9.630,-0.110,-0.020
9.632,0.025,-0.015
9.634,0.105,-0.015
9.636,0.145,-0.010
9.638,0.200,-0.010
9.640,0.190,-0.015
9.642,0.145,-0.015
9.644,0.010,-0.020
9.646,-0.075,-0.020
9.648,-0.070,-0.020
9.650,-0.085,-0.020
9.652,-0.075,-0.015
9.654,0.060,-0.015
9.656,0.140,-0.010
9.658,0.165,-0.015
9.660,0.205,-0.015
9.662,0.120,-0.025
9.664,-0.010,-0.030
9.666,-0.080,-0.040
9.668,-0.140,-0.045
9.670,-0.125,-0.050
9.672,-0.030,-0.050
9.674,0.110,-0.045
9.676,0.100,-0.040
9.678,0.175,-0.040
9.680,0.140,-0.040
9.682,0.050,-0.045
9.684,-0.025,-0.050
9.686,-0.090,-0.055
9.688,-0.165,-0.065
9.690,-0.095,-0.065
9.692,-0.010,-0.065
9.694,0.015,-0.065
9.696,0.050,-0.060
9.698,0.215,-0.055
9.700,0.085,-0.045
9.702,0.075,-0.045
9.704,-0.020,-0.045
9.706,-0.155,-0.050
9.708,-0.135,-0.055
9.710,-0.040,-0.060
9.712,-0.015,-0.070
9.714,0.005,-0.075
9.716,0.055,-0.075
9.718,0.125,-0.070
9.720,0.140,-0.065
9.722,0.065,-0.060
9.724,-0.020,-0.050
9.726,-0.045,-0.045
9.728,-0.160,-0.040
9.730,-0.075,-0.035
9.732,0.015,-0.035
9.734,0.080,-0.035
9.736,0.095,-0.040
9.738,0.145,-0.045
9.740,0.105,-0.045
9.742,0.060,-0.045
9.744,-0.020,-0.045
9.746,-0.035,-0.045
9.748,-0.130,-0.040
9.750,-0.140,-0.035
9.752,0.005,-0.030
9.754,0.070,-0.025
9.756,0.120,-0.025
9.758,0.210,-0.025
9.760,0.130,-0.025
9.762,0.025,-0.030
9.764,0.010,-0.035
9.766,-0.075,-0.040
9.768,-0.150,-0.045
9.770,-0.070,-0.045
9.772,-0.020,-0.045
9.774,0.060,-0.040
9.776,0.105,-0.040
9.778,0.205,-0.030
9.780,0.145,-0.020
9.782,0.030,-0.010
9.784,0.035,0.005
9.786,0.010,0.025
9.788,-0.070,0.050
9.790,0.100,0.075
9.792,0.150,0.105
9.794,0.230,0.130
9.796,0.265,0.155
9.798,0.400,0.170
9.800,0.380,0.185
9.802,0.355,0.190
9.804,0.190,0.195
9.806,0.240,0.185
9.808,0.045,0.175
9.810,0.065,0.160
9.812,0.220,0.145
9.814,0.290,0.120
9.816,0.230,0.095
9.818,0.175,0.065
9.820,0.235,0.035
9.822,0.145,0.005
9.824,-0.055,-0.030
9.826,-0.165,-0.055
9.828,-0.145,-0.080
9.830,-0.130,-0.095
9.832,-0.060,-0.100
9.834,0.060,-0.095
9.836,0.100,-0.090
9.838,0.125,-0.075
9.840,0.110,-0.060
9.842,0.040,-0.045
9.844,-0.050,-0.035
9.846,-0.060,-0.025
9.848,-0.115,-0.025
9.850,-0.095,-0.025
9.852,-0.040,-0.030
9.854,0.105,-0.035
9.856,0.180,-0.040
9.858,0.190,-0.040
9.860,0.160,-0.040
9.862,0.050,-0.040
9.864,-0.040,-0.035
9.866,-0.075,-0.035
9.868,-0.095,-0.030
9.870,-0.050,-0.030
9.872,-0.010,-0.035
9.874,0.130,-0.035
9.876,0.145,-0.045
9.878,0.155,-0.050
9.880,0.060,-0.055
9.882,0.035,-0.055
9.884,-0.025,-0.055
9.886,-0.100,-0.050
9.888,-0.115,-0.045
9.890,-0.025,-0.035
9.892,0.040,-0.025
9.894,0.095,-0.015
9.896,0.155,-0.010
9.898,0.160,-0.005
9.900,0.115,-0.005
9.902,0.050,-0.010
9.904,0.005,-0.015
9.906,-0.040,-0.015
9.908,-0.125,-0.015
9.910,-0.020,-0.015
9.912,0.105,-0.010
9.914,0.115,-0.005
9.916,0.185,-0.005
9.918,0.175,-0.005
9.920,0.145,-0.010
9.922,0.065,-0.020
9.924,-0.065,-0.025
9.926,-0.100,-0.035
9.928,-0.155,-0.035
9.930,-0.080,-0.035
9.932,0.145,-0.025
9.934,0.145,-0.010
9.936,0.235,0.005
9.938,0.190,0.020
9.940,0.190,0.030
9.942,0.080,0.035
9.944,-0.020,0.030
9.946,-0.095,0.020
9.948,-0.130,0.005
9.950,0.005,-0.010
9.952,0.120,-0.020
9.954,0.155,-0.025
9.956,0.210,-0.025
9.958,0.215,-0.020
9.960,0.105,-0.005
9.962,0.045,0.010
9.964,0.025,0.025
9.966,-0.020,0.040
9.968,-0.010,0.045
9.970,0.010,0.045
9.972,0.100,0.040
9.974,0.145,0.030
9.976,0.200,0.020
9.978,0.190,0.015
9.980,0.165,0.010
9.982,0.070,0.010
9.984,0.010,0.015
9.986,-0.045,0.025
9.988,-0.030,0.035
9.990,0.075,0.050
9.992,0.185,0.065
9.994,0.265,0.075
9.996,0.265,0.090
9.998,0.330,0.095
