'Elapsed time','ECG I','ECG I filtered'
'seconds','mV','mV'
0.000,-0.525,0.035
0.002,-0.460,0.000
0.004,-0.560,-0.035
0.006,-0.565,-0.065
0.008,-0.710,-0.090
0.010,-0.720,-0.110
0.012,-0.715,-0.115
0.014,-0.810,-0.115
0.016,-0.700,-0.105
0.018,-0.600,-0.090
0.020,-0.540,-0.075
0.022,-0.490,-0.060
0.024,-0.530,-0.050
0.026,-0.595,-0.045
0.028,-0.650,-0.045
0.030,-0.715,-0.050
0.032,-0.765,-0.060
0.034,-0.745,-0.070
0.036,-0.655,-0.075
0.038,-0.550,-0.075
0.040,-0.565,-0.070
0.042,-0.465,-0.065
0.044,-0.465,-0.055
0.046,-0.520,-0.045
0.048,-0.625,-0.035
0.050,-0.740,-0.030
0.052,-0.775,-0.030
0.054,-0.655,-0.030
0.056,-0.645,-0.030
0.058,-0.555,-0.030
0.060,-0.530,-0.030
0.062,-0.375,-0.030
0.064,-0.420,-0.025
0.066,-0.510,-0.020
0.068,-0.705,-0.020
0.070,-0.700,-0.025
0.072,-0.735,-0.030
0.074,-0.660,-0.035
0.076,-0.640,-0.040
0.078,-0.595,-0.045
0.080,-0.520,-0.045
0.082,-0.375,-0.045
0.084,-0.400,-0.040
0.086,-0.535,-0.035
0.088,-0.600,-0.030
0.090,-0.730,-0.025
0.092,-0.775,-0.025
0.094,-0.725,-0.030
0.096,-0.610,-0.035
0.098,-0.515,-0.040
0.100,-0.505,-0.050
0.102,-0.430,-0.055
0.104,-0.485,-0.060
0.106,-0.550,-0.060
0.108,-0.625,-0.060
0.110,-0.740,-0.055
0.112,-0.740,-0.055
0.114,-0.740,-0.050
0.116,-0.620,-0.045
0.118,-0.500,-0.040
0.120,-0.530,-0.035
0.122,-0.415,-0.035
0.124,-0.385,-0.030
0.126,-0.510,-0.030
0.128,-0.600,-0.030
0.130,-0.675,-0.025
0.132,-0.755,-0.025
0.134,-0.690,-0.030
0.136,-0.635,-0.030
0.138,-0.530,-0.035
0.140,-0.490,-0.040
0.142,-0.390,-0.040
0.144,-0.445,-0.045
0.146,-0.585,-0.045
0.148,-0.695,-0.045
0.150,-0.660,-0.045
0.152,-0.745,-0.045
0.154,-0.705,-0.050
0.156,-0.610,-0.050
0.158,-0.510,-0.050
0.160,-0.520,-0.050
0.162,-0.425,-0.050
0.164,-0.480,-0.050
0.166,-0.555,-0.045
0.168,-0.590,-0.040
0.170,-0.630,-0.035
0.172,-0.790,-0.030
0.174,-0.630,-0.030
0.176,-0.615,-0.035
0.178,-0.480,-0.040
0.180,-0.550,-0.040
0.182,-0.390,-0.045
0.184,-0.500,-0.045
0.186,-0.560,-0.045
0.188,-0.585,-0.040
0.190,-0.670,-0.030
0.192,-0.675,-0.020
0.194,-0.665,-0.010
0.196,-0.505,0.000
0.198,-0.555,0.000
0.200,-0.440,0.000
0.202,-0.360,-0.005
0.204,-0.410,-0.010
0.206,-0.545,-0.010
0.208,-0.610,-0.015
0.210,-0.610,-0.010
0.212,-0.665,-0.005
0.214,-0.640,0.005
0.216,-0.550,0.020
0.218,-0.410,0.030
0.220,-0.350,0.035
0.222,-0.355,0.035
0.224,-0.480,0.030
0.226,-0.485,0.020
0.228,-0.615,0.010
0.230,-0.555,-0.005
0.232,-0.740,-0.015
0.234,-0.670,-0.025
0.236,-0.515,-0.030
0.238,-0.425,-0.030
0.240,-0.470,-0.025
0.242,-0.395,-0.020
0.244,-0.445,-0.015
0.246,-0.505,-0.010
0.248,-0.610,-0.010
0.250,-0.620,-0.015
0.252,-0.730,-0.020
0.254,-0.650,-0.030
0.256,-0.585,-0.035
0.258,-0.515,-0.040
0.260,-0.445,-0.045
0.262,-0.420,-0.050
0.264,-0.445,-0.050
0.266,-0.535,-0.050
0.268,-0.610,-0.050
0.270,-0.675,-0.050
0.272,-0.750,-0.050
0.274,-0.695,-0.055
0.276,-0.585,-0.050
0.278,-0.485,-0.050
0.280,-0.400,-0.045
0.282,-0.395,-0.035
0.284,-0.425,-0.030
0.286,-0.535,-0.025
0.288,-0.630,-0.020
0.290,-0.700,-0.020
0.292,-0.705,-0.025
0.294,-0.680,-0.030
0.296,-0.555,-0.040
0.298,-0.440,-0.045
0.300,-0.360,-0.045
0.302,-0.340,-0.040
0.304,-0.485,-0.025
0.306,-0.565,-0.010
0.308,-0.585,0.005
0.310,-0.605,0.020
0.312,-0.635,0.030
0.314,-0.645,0.030
0.316,-0.475,0.025
0.318,-0.360,0.010
0.320,-0.435,-0.005
0.322,-0.420,-0.015
0.324,-0.490,-0.025
0.326,-0.595,-0.030
0.328,-0.595,-0.030
0.330,-0.635,-0.025
0.332,-0.695,-0.015
0.334,-0.560,-0.010
0.336,-0.470,-0.005
0.338,-0.420,-0.005
0.340,-0.415,-0.005
0.342,-0.420,-0.010
0.344,-0.435,-0.015
0.346,-0.540,-0.015
0.348,-0.570,-0.015
0.350,-0.690,-0.015
0.352,-0.725,-0.015
0.354,-0.580,-0.010
0.356,-0.450,-0.010
0.358,-0.400,-0.010
0.360,-0.430,-0.005
0.362,-0.415,0.000
0.364,-0.400,0.010
0.366,-0.495,0.025
0.368,-0.565,0.040
0.370,-0.535,0.065
0.372,-0.545,0.090
0.374,-0.465,0.115
0.376,-0.310,0.140
0.378,-0.280,0.160
0.380,-0.245,0.180
0.382,-0.195,0.195
0.384,-0.205,0.210
0.386,-0.255,0.220
0.388,-0.280,0.235
0.390,-0.340,0.245
0.392,-0.455,0.250
0.394,-0.345,0.250
0.396,-0.285,0.245
0.398,-0.170,0.220
0.400,-0.180,0.190
0.402,-0.230,0.150
0.404,-0.310,0.100
0.406,-0.495,0.050
0.408,-0.620,0.005
0.410,-0.750,-0.035
0.412,-0.715,-0.060
0.414,-0.620,-0.075
0.416,-0.465,-0.075
0.418,-0.485,-0.070
0.420,-0.440,-0.055
0.422,-0.345,-0.040
0.424,-0.455,-0.025
0.426,-0.620,-0.015
0.428,-0.615,-0.010
0.430,-0.650,-0.010
0.432,-0.610,-0.010
0.434,-0.570,-0.015
0.436,-0.450,-0.015
0.438,-0.425,-0.015
0.440,-0.350,-0.010
0.442,-0.330,0.000
0.444,-0.420,0.005
0.446,-0.575,0.015
0.448,-0.590,0.020
0.450,-0.650,0.025
0.452,-0.650,0.020
0.454,-0.510,0.015
0.456,-0.425,0.005
0.458,-0.420,-0.010
0.460,-0.340,-0.020
0.462,-0.390,-0.025
0.464,-0.455,-0.030
0.466,-0.545,-0.025
0.468,-0.600,-0.015
0.470,-0.635,-0.005
0.472,-0.600,0.005
0.474,-0.495,0.015
0.476,-0.460,0.020
0.478,-0.330,0.015
0.480,-0.255,0.015
0.482,-0.410,0.005
0.484,-0.450,0.005
0.486,-0.570,0.000
0.488,-0.580,0.005
0.490,-0.705,0.015
0.492,-0.525,0.025
0.494,-0.470,0.030
0.496,-0.400,0.035
0.498,-0.415,0.035
0.500,-0.310,0.025
0.502,-0.360,0.015
0.504,-0.455,0.000
0.506,-0.585,-0.010
0.508,-0.620,-0.015
0.510,-0.630,-0.015
0.512,-0.595,-0.005
0.514,-0.415,0.005
0.516,-0.385,0.020
0.518,-0.425,0.030
0.520,-0.310,0.035
0.522,-0.360,0.035
0.524,-0.415,0.035
0.526,-0.540,0.030
0.528,-0.570,0.020
0.530,-0.630,0.020
0.532,-0.545,0.020
0.534,-0.425,0.020
0.536,-0.355,0.025
0.538,-0.320,0.030
0.540,-0.305,0.035
0.542,-0.355,0.030
0.544,-0.490,0.025
0.546,-0.540,0.015
0.548,-0.555,0.010
0.550,-0.630,0.005
0.552,-0.540,0.005
0.554,-0.515,0.015
0.556,-0.395,0.030
0.558,-0.280,0.045
0.560,-0.200,0.065
0.562,-0.325,0.080
0.564,-0.385,0.090
0.566,-0.475,0.090
0.568,-0.470,0.085
0.570,-0.590,0.080
0.572,-0.515,0.070
0.574,-0.430,0.060
0.576,-0.280,0.060
0.578,-0.260,0.060
0.580,-0.235,0.070
0.582,-0.335,0.085
0.584,-0.430,0.095
0.586,-0.425,0.110
0.588,-0.425,0.120
0.590,-0.495,0.125
0.592,-0.430,0.130
0.594,-0.355,0.130
0.596,-0.230,0.130
0.598,-0.275,0.130
0.600,-0.180,0.135
0.602,-0.255,0.140
0.604,-0.310,0.150
0.606,-0.425,0.160
0.608,-0.420,0.170
0.610,-0.415,0.185
0.612,-0.365,0.190
0.614,-0.320,0.195
0.616,-0.210,0.200
0.618,-0.165,0.195
0.620,-0.105,0.195
0.622,-0.150,0.195
0.624,-0.290,0.190
0.626,-0.420,0.190
0.628,-0.460,0.195
0.630,-0.360,0.195
0.632,-0.325,0.200
0.634,-0.255,0.205
0.636,-0.180,0.205
0.638,-0.120,0.200
0.640,-0.180,0.195
0.642,-0.175,0.190
0.644,-0.310,0.185
0.646,-0.280,0.180
0.648,-0.465,0.180
0.650,-0.425,0.180
0.652,-0.370,0.180
0.654,-0.285,0.185
0.656,-0.245,0.185
0.658,-0.100,0.180
0.660,-0.115,0.175
0.662,-0.265,0.160
0.664,-0.390,0.150
0.666,-0.410,0.130
0.668,-0.480,0.115
0.670,-0.535,0.105
0.672,-0.405,0.095
0.674,-0.325,0.095
0.676,-0.360,0.090
0.678,-0.220,0.090
0.680,-0.245,0.090
0.682,-0.305,0.080
0.684,-0.415,0.070
0.686,-0.535,0.055
0.688,-0.550,0.040
0.690,-0.615,0.020
0.692,-0.505,0.000
0.694,-0.465,-0.010
0.696,-0.350,-0.015
0.698,-0.310,-0.020
0.700,-0.300,-0.015
0.702,-0.355,-0.010
0.704,-0.480,-0.010
0.706,-0.625,-0.005
0.708,-0.655,-0.005
0.710,-0.605,-0.005
0.712,-0.530,-0.010
0.714,-0.440,-0.015
0.716,-0.365,-0.015
0.718,-0.365,-0.020
0.720,-0.340,-0.020
0.722,-0.415,-0.020
0.724,-0.525,-0.015
0.726,-0.550,-0.020
0.728,-0.615,-0.020
0.730,-0.625,-0.025
0.732,-0.540,-0.030
0.734,-0.515,-0.035
0.736,-0.400,-0.045
0.738,-0.305,-0.045
0.740,-0.370,-0.045
0.742,-0.400,-0.040
0.744,-0.450,-0.035
0.746,-0.605,-0.025
0.748,-0.650,-0.015
0.750,-0.570,-0.010
0.752,-0.520,-0.005
0.754,-0.420,-0.005
0.756,-0.385,-0.010
0.758,-0.345,-0.015
0.760,-0.320,-0.020
0.762,-0.415,-0.020
0.764,-0.495,-0.025
0.766,-0.545,-0.020
0.768,-0.605,-0.020
0.770,-0.535,-0.015
0.772,-0.520,-0.010
0.774,-0.545,-0.010
0.776,-0.415,-0.010
0.778,-0.240,-0.010
0.780,-0.275,-0.015
0.782,-0.410,-0.020
0.784,-0.580,-0.025
0.786,-0.570,-0.030
0.788,-0.600,-0.030
0.790,-0.575,-0.030
0.792,-0.505,-0.025
0.794,-0.385,-0.020
0.796,-0.355,-0.010
0.798,-0.270,-0.005
0.800,-0.335,-0.005
0.802,-0.475,0.000
0.804,-0.540,-0.005
0.806,-0.495,-0.005
0.808,-0.610,-0.005
0.810,-0.565,-0.005
0.812,-0.445,-0.005
0.814,-0.335,-0.005
0.816,-0.300,0.000
0.818,-0.295,0.000
0.820,-0.370,0.005
0.822,-0.400,0.000
0.824,-0.535,-0.005
0.826,-0.580,-0.010
0.828,-0.675,-0.015
0.830,-0.510,-0.020
0.832,-0.470,-0.025
0.834,-0.405,-0.020
0.836,-0.335,-0.015
0.838,-0.270,-0.010
0.840,-0.260,0.000
0.842,-0.430,0.010
0.844,-0.560,0.015
0.846,-0.555,0.020
0.848,-0.615,0.015
0.850,-0.485,0.010
0.852,-0.455,0.000
0.854,-0.360,-0.005
0.856,-0.325,-0.015
0.858,-0.310,-0.015
0.860,-0.420,-0.015
0.862,-0.430,-0.015
0.864,-0.510,-0.010
0.866,-0.515,0.000
0.868,-0.535,0.005
0.870,-0.475,0.010
0.872,-0.405,0.015
0.874,-0.385,0.015
0.876,-0.335,0.015
0.878,-0.255,0.010
0.880,-0.385,0.005
0.882,-0.400,0.000
0.884,-0.495,-0.005
0.886,-0.525,-0.010
0.888,-0.610,-0.015
0.890,-0.555,-0.020
0.892,-0.440,-0.020
0.894,-0.335,-0.020
0.896,-0.330,-0.015
0.898,-0.285,-0.010
0.900,-0.380,0.000
0.902,-0.420,0.005
0.904,-0.485,0.010
0.906,-0.540,0.010
0.908,-0.560,0.010
0.910,-0.540,0.005
0.912,-0.430,0.000
0.914,-0.375,-0.010
0.916,-0.355,-0.015
0.918,-0.305,-0.015
0.920,-0.355,-0.015
0.922,-0.435,-0.010
0.924,-0.545,-0.005
0.926,-0.530,0.000
0.928,-0.600,0.000
0.930,-0.485,0.005
0.932,-0.435,0.000
0.934,-0.360,0.000
0.936,-0.280,-0.005
0.938,-0.315,-0.005
0.940,-0.345,-0.010
0.942,-0.455,-0.010
0.944,-0.490,-0.005
0.946,-0.550,0.000
0.948,-0.580,0.000
0.950,-0.515,0.005
0.952,-0.390,0.005
0.954,-0.370,0.005
0.956,-0.315,0.000
0.958,-0.260,0.000
0.960,-0.290,0.005
0.962,-0.430,0.005
0.964,-0.490,0.010
0.966,-0.530,0.015
0.968,-0.540,0.020
0.970,-0.460,0.020
0.972,-0.425,0.020
0.974,-0.330,0.020
0.976,-0.250,0.015
0.978,-0.255,0.015
0.980,-0.340,0.010
0.982,-0.420,0.010
0.984,-0.480,0.015
0.986,-0.555,0.020
0.988,-0.500,0.025
0.990,-0.465,0.030
0.992,-0.380,0.030
0.994,-0.325,0.030
0.996,-0.285,0.025
0.998,-0.295,0.020
1.000,-0.350,0.010
1.002,-0.430,0.005
1.004,-0.520,0.000
1.006,-0.620,-0.005
1.008,-0.610,-0.010
1.010,-0.470,-0.015
1.012,-0.395,-0.015
1.014,-0.345,-0.025
1.016,-0.315,-0.030
1.018,-0.310,-0.040
1.020,-0.445,-0.050
1.022,-0.475,-0.055
1.024,-0.540,-0.060
1.026,-0.645,-0.055
1.028,-0.545,-0.050
1.030,-0.565,-0.045
1.032,-0.435,-0.035
1.034,-0.330,-0.030
1.036,-0.200,-0.025
1.038,-0.325,-0.025
1.040,-0.440,-0.030
1.042,-0.480,-0.035
1.044,-0.570,-0.045
1.046,-0.610,-0.045
1.048,-0.570,-0.045
1.050,-0.480,-0.045
1.052,-0.390,-0.040
1.054,-0.375,-0.035
1.056,-0.270,-0.035
1.058,-0.385,-0.035
1.060,-0.390,-0.035
1.062,-0.515,-0.040
1.064,-0.495,-0.045
1.066,-0.640,-0.050
1.068,-0.570,-0.050
1.070,-0.520,-0.050
1.072,-0.420,-0.045
1.074,-0.360,-0.040
1.076,-0.265,-0.030
1.078,-0.290,-0.030
1.080,-0.450,-0.030
1.082,-0.545,-0.030
1.084,-0.540,-0.040
1.086,-0.615,-0.045
1.088,-0.560,-0.050
1.090,-0.470,-0.050
1.092,-0.300,-0.045
1.094,-0.385,-0.040
1.096,-0.280,-0.030
1.098,-0.300,-0.025
1.100,-0.400,-0.020
1.102,-0.530,-0.020
1.104,-0.570,-0.025
1.106,-0.565,-0.030
1.108,-0.560,-0.040
1.110,-0.505,-0.050
1.112,-0.340,-0.055
1.114,-0.415,-0.055
1.116,-0.285,-0.045
1.118,-0.305,-0.035
1.120,-0.365,-0.025
1.122,-0.490,-0.010
1.124,-0.475,0.005
1.126,-0.600,0.015
1.128,-0.485,0.030
1.130,-0.430,0.045
1.132,-0.275,0.060
1.134,-0.165,0.085
1.136,-0.105,0.115
1.138,-0.150,0.150
1.140,-0.175,0.185
1.142,-0.230,0.220
1.144,-0.225,0.250
1.146,-0.245,0.275
1.148,-0.245,0.285
1.150,-0.125,0.285
1.152,-0.090,0.275
1.154,-0.020,0.255
1.156,-0.045,0.225
1.158,-0.120,0.195
1.160,-0.220,0.160
1.162,-0.365,0.125
1.164,-0.435,0.090
1.166,-0.520,0.050
1.168,-0.565,0.015
1.170,-0.440,-0.020
1.172,-0.380,-0.045
1.174,-0.385,-0.070
1.176,-0.290,-0.085
1.178,-0.400,-0.090
1.180,-0.440,-0.085
1.182,-0.515,-0.075
1.184,-0.575,-0.060
1.186,-0.640,-0.045
1.188,-0.515,-0.035
1.190,-0.475,-0.025
1.192,-0.390,-0.025
1.194,-0.260,-0.025
1.196,-0.250,-0.035
1.198,-0.460,-0.040
1.200,-0.385,-0.050
1.202,-0.530,-0.050
1.204,-0.560,-0.050
1.206,-0.560,-0.045
1.208,-0.480,-0.040
1.210,-0.470,-0.030
1.212,-0.330,-0.020
1.214,-0.310,-0.015
1.216,-0.260,-0.010
1.218,-0.350,-0.015
1.220,-0.425,-0.020
1.222,-0.550,-0.025
1.224,-0.525,-0.035
1.226,-0.600,-0.040
1.228,-0.520,-0.040
1.230,-0.400,-0.045
1.232,-0.365,-0.040
1.234,-0.270,-0.035
1.236,-0.235,-0.030
1.238,-0.375,-0.030
1.240,-0.455,-0.025
1.242,-0.490,-0.025
1.244,-0.535,-0.030
1.246,-0.585,-0.030
1.248,-0.535,-0.035
1.250,-0.410,-0.040
1.252,-0.325,-0.040
1.254,-0.325,-0.040
1.256,-0.280,-0.040
1.258,-0.330,-0.035
1.260,-0.410,-0.030
1.262,-0.475,-0.030
1.264,-0.550,-0.025
1.266,-0.570,-0.025
1.268,-0.480,-0.025
1.270,-0.420,-0.030
1.272,-0.385,-0.035
1.274,-0.315,-0.040
1.276,-0.300,-0.040
1.278,-0.355,-0.040
1.280,-0.455,-0.040
1.282,-0.540,-0.035
1.284,-0.535,-0.030
1.286,-0.560,-0.020
1.288,-0.475,-0.015
1.290,-0.340,-0.005
1.292,-0.335,0.000
1.294,-0.300,0.000
1.296,-0.240,0.000
1.298,-0.355,0.000
1.300,-0.405,0.000
1.302,-0.415,0.000
1.304,-0.535,0.000
1.306,-0.495,-0.005
1.308,-0.475,-0.005
1.310,-0.400,-0.005
1.312,-0.315,-0.005
1.314,-0.325,-0.010
1.316,-0.220,-0.010
1.318,-0.320,-0.010
1.320,-0.400,-0.010
1.322,-0.520,-0.010
1.324,-0.560,-0.005
1.326,-0.505,0.000
1.328,-0.415,0.005
1.330,-0.370,0.010
1.332,-0.255,0.015
1.334,-0.205,0.025
1.336,-0.250,0.030
1.338,-0.305,0.040
1.340,-0.400,0.050
1.342,-0.420,0.055
1.344,-0.490,0.060
1.346,-0.460,0.060
1.348,-0.330,0.060
1.350,-0.285,0.060
1.352,-0.265,0.060
1.354,-0.200,0.065
1.356,-0.205,0.065
1.358,-0.275,0.075
1.360,-0.325,0.085
1.362,-0.375,0.100
1.364,-0.415,0.110
1.366,-0.360,0.125
1.368,-0.320,0.135
1.370,-0.240,0.140
1.372,-0.115,0.145
1.374,-0.115,0.145
1.376,-0.150,0.145
1.378,-0.205,0.145
1.380,-0.250,0.145
1.382,-0.360,0.145
1.384,-0.415,0.150
1.386,-0.320,0.155
1.388,-0.290,0.165
1.390,-0.200,0.165
1.392,-0.100,0.165
1.394,-0.075,0.160
1.396,-0.100,0.150
1.398,-0.270,0.140
1.400,-0.320,0.130
1.402,-0.325,0.115
1.404,-0.480,0.110
1.406,-0.370,0.105
1.408,-0.295,0.105
1.410,-0.205,0.110
1.412,-0.175,0.115
1.414,-0.105,0.120
1.416,-0.155,0.120
1.418,-0.265,0.120
1.420,-0.350,0.110
1.422,-0.420,0.095
1.424,-0.555,0.075
1.426,-0.410,0.050
1.428,-0.335,0.030
1.430,-0.355,0.010
1.432,-0.295,-0.005
1.434,-0.240,-0.015
1.436,-0.370,-0.020
1.438,-0.340,-0.020
1.440,-0.465,-0.015
1.442,-0.565,-0.015
1.444,-0.610,-0.015
1.446,-0.470,-0.020
1.448,-0.455,-0.030
1.450,-0.390,-0.040
1.452,-0.365,-0.055
1.454,-0.245,-0.070
1.456,-0.410,-0.080
1.458,-0.430,-0.085
1.460,-0.570,-0.085
1.462,-0.575,-0.085
1.464,-0.640,-0.080
1.466,-0.545,-0.075
1.468,-0.480,-0.070
1.470,-0.415,-0.065
1.472,-0.405,-0.070
1.474,-0.295,-0.070
1.476,-0.355,-0.075
1.478,-0.490,-0.080
1.480,-0.570,-0.085
1.482,-0.580,-0.085
1.484,-0.615,-0.085
1.486,-0.545,-0.080
1.488,-0.495,-0.075
1.490,-0.375,-0.070
1.492,-0.345,-0.070
1.494,-0.325,-0.070
1.496,-0.350,-0.070
1.498,-0.410,-0.075
1.500,-0.570,-0.080
1.502,-0.570,-0.085
1.504,-0.615,-0.085
1.506,-0.550,-0.085
1.508,-0.475,-0.080
1.510,-0.430,-0.080
1.512,-0.385,-0.075
1.514,-0.350,-0.070
1.516,-0.350,-0.070
1.518,-0.415,-0.070
1.520,-0.530,-0.075
1.522,-0.550,-0.075
1.524,-0.610,-0.075
1.526,-0.605,-0.080
1.528,-0.525,-0.080
1.530,-0.400,-0.075
1.532,-0.345,-0.070
1.534,-0.345,-0.065
1.536,-0.325,-0.060
1.538,-0.395,-0.050
1.540,-0.535,-0.045
1.542,-0.545,-0.040
1.544,-0.585,-0.040
1.546,-0.540,-0.040
1.548,-0.420,-0.040
1.550,-0.340,-0.045
1.552,-0.370,-0.045
1.554,-0.270,-0.050
1.556,-0.365,-0.055
1.558,-0.465,-0.060
1.560,-0.540,-0.060
1.562,-0.525,-0.060
1.564,-0.605,-0.060
1.566,-0.525,-0.055
1.568,-0.435,-0.055
1.570,-0.350,-0.055
1.572,-0.420,-0.055
1.574,-0.280,-0.050
1.576,-0.290,-0.045
1.578,-0.445,-0.040
1.580,-0.500,-0.035
1.582,-0.505,-0.030
1.584,-0.560,-0.025
1.586,-0.580,-0.020
1.588,-0.385,-0.025
1.590,-0.330,-0.030
1.592,-0.350,-0.035
1.594,-0.290,-0.045
1.596,-0.355,-0.055
1.598,-0.400,-0.055
1.600,-0.570,-0.055
1.602,-0.640,-0.050
1.604,-0.610,-0.040
1.606,-0.400,-0.025
1.608,-0.360,-0.010
1.610,-0.310,0.000
1.612,-0.300,0.005
1.614,-0.330,0.000
1.616,-0.365,-0.005
1.618,-0.420,-0.015
1.620,-0.505,-0.030
1.622,-0.575,-0.040
1.624,-0.525,-0.050
1.626,-0.475,-0.055
1.628,-0.395,-0.060
1.630,-0.405,-0.055
1.632,-0.320,-0.055
1.634,-0.355,-0.050
1.636,-0.380,-0.050
1.638,-0.435,-0.045
1.640,-0.485,-0.045
1.642,-0.590,-0.045
1.644,-0.535,-0.045
1.646,-0.490,-0.040
1.648,-0.405,-0.040
1.650,-0.340,-0.035
1.652,-0.300,-0.035
1.654,-0.315,-0.035
1.656,-0.375,-0.040
1.658,-0.480,-0.040
1.660,-0.535,-0.045
1.662,-0.600,-0.050
1.664,-0.595,-0.050
1.666,-0.550,-0.050
1.668,-0.410,-0.045
1.670,-0.280,-0.040
1.672,-0.275,-0.035
1.674,-0.335,-0.030
1.676,-0.330,-0.030
1.678,-0.490,-0.030
1.680,-0.520,-0.035
1.682,-0.565,-0.040
1.684,-0.620,-0.045
1.686,-0.515,-0.050
1.688,-0.410,-0.050
1.690,-0.330,-0.050
1.692,-0.270,-0.050
1.694,-0.305,-0.045
1.696,-0.375,-0.045
1.698,-0.445,-0.040
1.700,-0.555,-0.035
1.702,-0.615,-0.035
1.704,-0.550,-0.035
1.706,-0.475,-0.040
1.708,-0.445,-0.045
1.710,-0.390,-0.045
1.712,-0.255,-0.050
1.714,-0.290,-0.050
1.716,-0.360,-0.045
1.718,-0.485,-0.040
1.720,-0.545,-0.040
1.722,-0.615,-0.035
1.724,-0.540,-0.030
1.726,-0.520,-0.030
1.728,-0.365,-0.030
1.730,-0.330,-0.035
1.732,-0.260,-0.045
1.734,-0.325,-0.050
1.736,-0.425,-0.055
1.738,-0.550,-0.060
1.740,-0.555,-0.060
1.742,-0.625,-0.055
1.744,-0.570,-0.045
1.746,-0.460,-0.035
1.748,-0.375,-0.025
1.750,-0.310,-0.015
1.752,-0.195,-0.005
1.754,-0.285,0.000
1.756,-0.430,0.000
1.758,-0.455,-0.005
1.760,-0.475,-0.005
1.762,-0.575,-0.005
1.764,-0.535,-0.005
1.766,-0.385,0.000
1.768,-0.315,0.005
1.770,-0.335,0.015
1.772,-0.160,0.020
1.774,-0.300,0.020
1.776,-0.395,0.020
1.778,-0.510,0.015
1.780,-0.500,0.010
1.782,-0.580,0.000
1.784,-0.475,-0.005
1.786,-0.370,-0.010
1.788,-0.315,-0.010
1.790,-0.285,-0.005
1.792,-0.325,0.000
1.794,-0.350,0.005
1.796,-0.360,0.010
1.798,-0.430,0.010
1.800,-0.495,0.005
1.802,-0.555,0.000
1.804,-0.490,-0.010
1.806,-0.435,-0.015
1.808,-0.330,-0.025
1.810,-0.360,-0.030
1.812,-0.280,-0.030
1.814,-0.340,-0.030
1.816,-0.460,-0.030
1.818,-0.550,-0.030
1.820,-0.585,-0.035
1.822,-0.540,-0.040
1.824,-0.535,-0.050
1.826,-0.415,-0.060
1.828,-0.390,-0.065
1.830,-0.360,-0.065
1.832,-0.345,-0.060
1.834,-0.375,-0.055
1.836,-0.440,-0.040
1.838,-0.575,-0.030
1.840,-0.500,-0.020
1.842,-0.530,-0.015
1.844,-0.485,-0.015
1.846,-0.445,-0.020
1.848,-0.375,-0.030
1.850,-0.355,-0.040
1.852,-0.320,-0.050
1.854,-0.345,-0.055
1.856,-0.445,-0.055
1.858,-0.510,-0.050
1.860,-0.600,-0.045
1.862,-0.585,-0.035
1.864,-0.480,-0.025
1.866,-0.410,-0.020
1.868,-0.325,-0.020
1.870,-0.370,-0.020
1.872,-0.280,-0.025
1.874,-0.355,-0.030
1.876,-0.465,-0.040
1.878,-0.535,-0.040
1.880,-0.615,-0.045
1.882,-0.570,-0.045
1.884,-0.480,-0.045
1.886,-0.415,-0.040
1.888,-0.385,-0.035
1.890,-0.320,-0.035
1.892,-0.325,-0.030
1.894,-0.340,-0.030
1.896,-0.495,-0.030
1.898,-0.595,-0.030
1.900,-0.525,-0.030
1.902,-0.535,-0.030
1.904,-0.525,-0.035
1.906,-0.435,-0.035
1.908,-0.320,-0.035
1.910,-0.320,-0.035
1.912,-0.315,-0.035
1.914,-0.360,-0.030
1.916,-0.450,-0.025
1.918,-0.545,-0.015
1.920,-0.540,0.000
1.922,-0.550,0.015
1.924,-0.470,0.030
1.926,-0.355,0.050
1.928,-0.175,0.070
1.930,-0.065,0.095
1.932,-0.175,0.120
1.934,-0.210,0.150
1.936,-0.265,0.185
1.938,-0.295,0.215
1.940,-0.295,0.245
1.942,-0.215,0.270
1.944,-0.105,0.290
1.946,-0.090,0.295
1.948,-0.065,0.295
1.950,-0.010,0.280
1.952,-0.045,0.260
1.954,-0.170,0.230
1.956,-0.195,0.195
1.958,-0.295,0.155
1.960,-0.475,0.120
1.962,-0.455,0.085
1.964,-0.455,0.050
1.966,-0.420,0.015
1.968,-0.350,-0.015
1.970,-0.340,-0.040
1.972,-0.335,-0.060
1.974,-0.440,-0.075
1.976,-0.505,-0.085
1.978,-0.550,-0.090
1.980,-0.705,-0.090
1.982,-0.605,-0.090
1.984,-0.515,-0.085
1.986,-0.415,-0.080
1.988,-0.415,-0.085
1.990,-0.420,-0.085
1.992,-0.375,-0.095
1.994,-0.480,-0.105
1.996,-0.605,-0.120
1.998,-0.650,-0.130
2.000,-0.730,-0.145
2.002,-0.650,-0.155
2.004,-0.610,-0.170
2.006,-0.530,-0.180
2.008,-0.520,-0.190
2.010,-0.490,-0.200
2.012,-0.435,-0.205
2.014,-0.635,-0.210
2.016,-0.695,-0.215
2.018,-0.730,-0.220
2.020,-0.805,-0.220
2.022,-0.710,-0.215
2.024,-0.625,-0.210
2.026,-0.555,-0.205
2.028,-0.555,-0.200
2.030,-0.490,-0.195
2.032,-0.510,-0.185
2.034,-0.520,-0.180
2.036,-0.625,-0.170
2.038,-0.685,-0.160
2.040,-0.745,-0.155
2.042,-0.695,-0.145
2.044,-0.595,-0.140
2.046,-0.520,-0.140
2.048,-0.450,-0.140
2.050,-0.285,-0.140
2.052,-0.500,-0.145
2.054,-0.535,-0.140
2.056,-0.585,-0.135
2.058,-0.625,-0.125
2.060,-0.730,-0.110
2.062,-0.635,-0.095
2.064,-0.475,-0.075
2.066,-0.425,-0.060
2.068,-0.380,-0.050
2.070,-0.300,-0.050
2.072,-0.415,-0.060
2.074,-0.475,-0.070
2.076,-0.615,-0.085
2.078,-0.605,-0.095
2.080,-0.665,-0.105
2.082,-0.620,-0.110
2.084,-0.520,-0.105
2.086,-0.435,-0.090
2.088,-0.410,-0.075
2.090,-0.330,-0.055
2.092,-0.345,-0.040
2.094,-0.360,-0.025
2.096,-0.495,-0.020
2.098,-0.585,-0.015
2.100,-0.675,-0.010
2.102,-0.525,-0.015
2.104,-0.475,-0.020
2.106,-0.380,-0.025
2.108,-0.330,-0.030
2.110,-0.240,-0.035
2.112,-0.380,-0.040
2.114,-0.475,-0.045
2.116,-0.530,-0.045
2.118,-0.575,-0.045
2.120,-0.630,-0.040
2.122,-0.555,-0.030
2.124,-0.450,-0.020
2.126,-0.380,-0.005
2.128,-0.350,0.010
2.130,-0.205,0.025
2.132,-0.270,0.035
2.134,-0.375,0.045
2.136,-0.445,0.050
2.138,-0.515,0.050
2.140,-0.545,0.050
2.142,-0.525,0.050
2.144,-0.390,0.050
2.146,-0.300,0.050
2.148,-0.295,0.055
2.150,-0.140,0.065
2.152,-0.255,0.075
2.154,-0.360,0.085
2.156,-0.445,0.095
2.158,-0.410,0.105
2.160,-0.445,0.115
2.162,-0.390,0.120
2.164,-0.335,0.125
2.166,-0.215,0.130
2.168,-0.160,0.135
2.170,-0.105,0.135
2.172,-0.240,0.145
2.174,-0.310,0.150
2.176,-0.325,0.155
2.178,-0.335,0.155
2.180,-0.385,0.160
2.182,-0.365,0.160
2.184,-0.290,0.155
2.186,-0.190,0.155
2.188,-0.200,0.150
2.190,-0.140,0.150
2.192,-0.195,0.150
2.194,-0.255,0.150
2.196,-0.350,0.155
2.198,-0.375,0.160
2.200,-0.395,0.165
2.202,-0.370,0.165
2.204,-0.305,0.160
2.206,-0.205,0.155
2.208,-0.120,0.145
2.210,-0.090,0.135
2.212,-0.210,0.130
2.214,-0.280,0.125
2.216,-0.385,0.125
2.218,-0.460,0.130
2.220,-0.510,0.135
2.222,-0.365,0.140
2.224,-0.235,0.140
2.226,-0.210,0.135
2.228,-0.195,0.130
2.230,-0.190,0.115
2.232,-0.240,0.095
2.234,-0.420,0.080
2.236,-0.455,0.060
2.238,-0.530,0.050
2.240,-0.530,0.040
2.242,-0.435,0.035
2.244,-0.360,0.035
2.246,-0.310,0.040
2.248,-0.255,0.040
2.250,-0.290,0.040
2.252,-0.350,0.035
2.254,-0.440,0.030
2.256,-0.550,0.020
2.258,-0.540,0.010
2.260,-0.580,0.000
2.262,-0.530,-0.010
2.264,-0.415,-0.015
2.266,-0.305,-0.020
2.268,-0.240,-0.020
2.270,-0.295,-0.020
2.272,-0.450,-0.020
2.274,-0.575,-0.015
2.276,-0.560,-0.015
2.278,-0.550,-0.020
2.280,-0.605,-0.020
2.282,-0.485,-0.025
2.284,-0.425,-0.030
2.286,-0.400,-0.030
2.288,-0.280,-0.030
2.290,-0.340,-0.030
2.292,-0.405,-0.030
2.294,-0.510,-0.025
2.296,-0.540,-0.025
2.298,-0.655,-0.020
2.300,-0.585,-0.020
2.302,-0.475,-0.020
2.304,-0.390,-0.020
2.306,-0.375,-0.020
2.308,-0.270,-0.020
2.310,-0.335,-0.020
2.312,-0.455,-0.015
2.314,-0.510,-0.015
2.316,-0.545,-0.010
2.318,-0.575,-0.010
2.320,-0.575,-0.010
2.322,-0.515,-0.010
2.324,-0.420,-0.010
2.326,-0.295,-0.015
2.328,-0.270,-0.015
2.330,-0.335,-0.020
2.332,-0.465,-0.025
2.334,-0.595,-0.030
2.336,-0.555,-0.035
2.338,-0.640,-0.035
2.340,-0.575,-0.035
2.342,-0.515,-0.035
2.344,-0.380,-0.030
2.346,-0.385,-0.025
2.348,-0.235,-0.020
2.350,-0.315,-0.015
2.352,-0.410,-0.010
2.354,-0.545,-0.010
2.356,-0.595,-0.005
2.358,-0.570,-0.010
2.360,-0.540,-0.015
2.362,-0.540,-0.015
2.364,-0.365,-0.020
2.366,-0.375,-0.025
2.368,-0.265,-0.020
2.370,-0.285,-0.020
2.372,-0.400,-0.015
2.374,-0.595,-0.010
2.376,-0.540,0.000
2.378,-0.655,0.000
2.380,-0.510,0.005
2.382,-0.470,0.005
2.384,-0.395,0.000
2.386,-0.320,0.000
2.388,-0.220,-0.005
2.390,-0.395,-0.005
2.392,-0.400,-0.005
2.394,-0.465,0.000
2.396,-0.550,0.000
2.398,-0.645,0.005
2.400,-0.505,0.010
2.402,-0.450,0.010
2.404,-0.380,0.010
2.406,-0.400,0.010
2.408,-0.235,0.010
2.410,-0.335,0.005
2.412,-0.415,0.000
2.414,-0.485,0.000
2.416,-0.550,-0.005
2.418,-0.605,-0.010
2.420,-0.555,-0.015
2.422,-0.480,-0.020
2.424,-0.430,-0.020
2.426,-0.345,-0.025
2.428,-0.235,-0.020
2.430,-0.345,-0.020
2.432,-0.460,-0.020
2.434,-0.555,-0.015
2.436,-0.555,-0.020
2.438,-0.570,-0.020
2.440,-0.570,-0.025
2.442,-0.515,-0.030
2.444,-0.330,-0.035
2.446,-0.420,-0.040
2.448,-0.420,-0.045
2.450,-0.395,-0.040
2.452,-0.375,-0.035
2.454,-0.510,-0.025
2.456,-0.595,-0.015
2.458,-0.660,-0.005
2.460,-0.505,0.000
2.462,-0.465,0.005
2.464,-0.300,0.005
2.466,-0.395,0.005
2.468,-0.275,0.000
2.470,-0.330,-0.010
2.472,-0.435,-0.010
2.474,-0.505,-0.015
2.476,-0.570,-0.015
2.478,-0.605,-0.015
2.480,-0.595,-0.010
2.482,-0.445,-0.010
2.484,-0.375,-0.015
2.486,-0.385,-0.015
2.488,-0.300,-0.020
2.490,-0.380,-0.025
2.492,-0.455,-0.030
2.494,-0.515,-0.030
2.496,-0.575,-0.030
2.498,-0.590,-0.025
2.500,-0.560,-0.020
2.502,-0.430,-0.015
2.504,-0.395,-0.015
2.506,-0.330,-0.015
2.508,-0.295,-0.020
2.510,-0.405,-0.020
2.512,-0.435,-0.025
2.514,-0.535,-0.025
2.516,-0.605,-0.025
2.518,-0.630,-0.020
2.520,-0.550,-0.015
2.522,-0.500,-0.015
2.524,-0.330,-0.010
2.526,-0.315,-0.010
2.528,-0.275,-0.015
2.530,-0.350,-0.020
2.532,-0.515,-0.025
2.534,-0.560,-0.030
2.536,-0.655,-0.035
2.538,-0.575,-0.030
2.540,-0.515,-0.025
2.542,-0.485,-0.020
2.544,-0.320,-0.015
2.546,-0.290,-0.005
2.548,-0.335,0.000
2.550,-0.405,0.005
2.552,-0.525,0.005
2.554,-0.505,0.005
2.556,-0.555,0.000
2.558,-0.570,0.000
2.560,-0.495,-0.005
2.562,-0.400,-0.010
2.564,-0.360,-0.010
2.566,-0.305,-0.010
2.568,-0.340,-0.010
2.570,-0.380,-0.010
2.572,-0.440,-0.010
2.574,-0.545,-0.010
2.576,-0.600,-0.010
2.578,-0.585,-0.010
2.580,-0.480,-0.010
2.582,-0.360,-0.010
2.584,-0.345,-0.005
2.586,-0.300,0.000
2.588,-0.305,0.005
2.590,-0.345,0.010
2.592,-0.440,0.015
2.594,-0.555,0.020
2.596,-0.625,0.020
2.598,-0.545,0.015
2.600,-0.525,0.010
2.602,-0.355,0.005
2.604,-0.340,0.000
2.606,-0.270,0.000
2.608,-0.300,0.000
2.610,-0.355,0.005
2.612,-0.435,0.010
2.614,-0.540,0.020
2.616,-0.600,0.025
2.618,-0.540,0.025
2.620,-0.420,0.020
2.622,-0.405,0.015
2.624,-0.295,0.005
2.626,-0.245,-0.010
2.628,-0.390,-0.015
2.630,-0.460,-0.020
2.632,-0.560,-0.025
2.634,-0.510,-0.020
2.636,-0.580,-0.015
2.638,-0.595,-0.005
2.640,-0.495,-0.005
2.642,-0.395,-0.005
2.644,-0.365,-0.010
2.646,-0.310,-0.015
2.648,-0.325,-0.025
2.650,-0.455,-0.035
2.652,-0.515,-0.045
2.654,-0.555,-0.045
2.656,-0.675,-0.045
2.658,-0.590,-0.040
2.660,-0.480,-0.030
2.662,-0.420,-0.020
2.664,-0.375,-0.015
2.666,-0.270,-0.010
2.668,-0.340,-0.010
2.670,-0.475,-0.015
2.672,-0.490,-0.015
2.674,-0.570,-0.020
2.676,-0.635,-0.025
2.678,-0.545,-0.025
2.680,-0.535,-0.025
2.682,-0.395,-0.020
2.684,-0.345,-0.015
2.686,-0.255,-0.015
2.688,-0.350,-0.010
2.690,-0.435,-0.010
2.692,-0.590,-0.015
2.694,-0.555,-0.020
2.696,-0.630,-0.030
2.698,-0.560,-0.035
2.700,-0.490,-0.040
2.702,-0.455,-0.045
2.704,-0.390,-0.040
2.706,-0.330,-0.035
2.708,-0.355,-0.030
2.710,-0.435,-0.025
2.712,-0.525,-0.020
2.714,-0.485,-0.020
2.716,-0.600,-0.020
2.718,-0.565,-0.025
2.720,-0.525,-0.025
2.722,-0.420,-0.030
2.724,-0.410,-0.025
2.726,-0.320,-0.025
2.728,-0.295,-0.020
2.730,-0.395,-0.010
2.732,-0.460,-0.005
2.734,-0.535,0.000
2.736,-0.640,0.000
2.738,-0.630,-0.005
2.740,-0.465,-0.015
2.742,-0.435,-0.025
2.744,-0.345,-0.030
2.746,-0.290,-0.035
2.748,-0.350,-0.030
2.750,-0.410,-0.015
2.752,-0.445,0.005
2.754,-0.495,0.040
2.756,-0.510,0.075
2.758,-0.440,0.115
2.760,-0.275,0.155
2.762,-0.210,0.190
2.764,-0.105,0.220
2.766,-0.065,0.245
2.768,-0.035,0.265
2.770,-0.095,0.280
2.772,-0.155,0.290
2.774,-0.185,0.290
2.776,-0.345,0.280
2.778,-0.305,0.270
2.780,-0.260,0.245
2.782,-0.105,0.220
2.784,-0.150,0.185
2.786,-0.205,0.150
2.788,-0.230,0.120
2.790,-0.315,0.085
2.792,-0.470,0.060
2.794,-0.570,0.040
2.796,-0.550,0.020
2.798,-0.540,0.005
2.800,-0.470,-0.005
2.802,-0.415,-0.020
2.804,-0.330,-0.030
2.806,-0.335,-0.035
2.808,-0.435,-0.040
2.810,-0.465,-0.045
2.812,-0.515,-0.045
2.814,-0.555,-0.040
2.816,-0.600,-0.030
2.818,-0.545,-0.025
2.820,-0.460,-0.020
2.822,-0.380,-0.015
2.824,-0.290,-0.020
2.826,-0.340,-0.020
2.828,-0.360,-0.025
2.830,-0.420,-0.030
2.832,-0.585,-0.030
2.834,-0.625,-0.025
2.836,-0.575,-0.020
2.838,-0.455,-0.010
2.840,-0.425,-0.005
2.842,-0.385,0.000
2.844,-0.325,0.000
2.846,-0.335,0.000
2.848,-0.440,-0.005
2.850,-0.440,-0.010
2.852,-0.560,-0.020
2.854,-0.475,-0.020
2.856,-0.590,-0.020
2.858,-0.530,-0.015
2.860,-0.465,-0.010
2.862,-0.335,-0.005
2.864,-0.320,0.000
2.866,-0.235,0.000
2.868,-0.385,0.000
2.870,-0.535,-0.005
2.872,-0.555,-0.010
2.874,-0.605,-0.010
2.876,-0.545,-0.010
2.878,-0.520,-0.005
2.880,-0.395,0.000
2.882,-0.305,0.010
2.884,-0.270,0.020
2.886,-0.255,0.030
2.888,-0.370,0.035
2.890,-0.435,0.035
2.892,-0.515,0.030
2.894,-0.580,0.030
2.896,-0.545,0.025
2.898,-0.475,0.020
2.900,-0.390,0.015
2.902,-0.290,0.015
2.904,-0.260,0.020
2.906,-0.320,0.025
2.908,-0.345,0.030
2.910,-0.465,0.035
2.912,-0.490,0.035
2.914,-0.570,0.040
2.916,-0.545,0.040
2.918,-0.485,0.035
2.920,-0.395,0.030
2.922,-0.315,0.025
2.924,-0.265,0.025
2.926,-0.290,0.020
2.928,-0.345,0.020
2.930,-0.440,0.025
2.932,-0.515,0.030
2.934,-0.565,0.035
2.936,-0.505,0.045
2.938,-0.445,0.050
2.940,-0.395,0.055
2.942,-0.335,0.055
2.944,-0.185,0.055
2.946,-0.290,0.050
2.948,-0.285,0.050
2.950,-0.480,0.045
2.952,-0.440,0.045
2.954,-0.555,0.050
2.956,-0.485,0.055
2.958,-0.400,0.065
2.960,-0.310,0.075
2.962,-0.320,0.080
2.964,-0.125,0.090
2.966,-0.255,0.095
2.968,-0.355,0.095
2.970,-0.400,0.095
2.972,-0.385,0.095
2.974,-0.480,0.100
2.976,-0.425,0.105
2.978,-0.345,0.110
2.980,-0.270,0.125
2.982,-0.200,0.140
2.984,-0.145,0.155
2.986,-0.205,0.165
2.988,-0.180,0.175
2.990,-0.295,0.185
2.992,-0.335,0.185
2.994,-0.450,0.180
2.996,-0.325,0.180
2.998,-0.330,0.175
3.000,-0.205,0.175
3.002,-0.155,0.175
3.004,-0.100,0.180
3.006,-0.145,0.190
3.008,-0.240,0.195
3.010,-0.365,0.200
3.012,-0.310,0.200
3.014,-0.430,0.200
3.016,-0.305,0.200
3.018,-0.225,0.195
3.020,-0.205,0.195
3.022,-0.125,0.195
3.024,-0.110,0.200
3.026,-0.225,0.205
3.028,-0.165,0.215
3.030,-0.260,0.220
3.032,-0.350,0.220
3.034,-0.435,0.220
3.036,-0.300,0.210
3.038,-0.210,0.195
3.040,-0.240,0.180
3.042,-0.175,0.165
3.044,-0.085,0.150
3.046,-0.210,0.135
3.048,-0.270,0.130
3.050,-0.380,0.125
3.052,-0.450,0.125
3.054,-0.525,0.125
3.056,-0.395,0.125
3.058,-0.345,0.120
3.060,-0.200,0.110
3.062,-0.225,0.105
3.064,-0.215,0.095
3.066,-0.255,0.085
3.068,-0.330,0.080
3.070,-0.430,0.075
3.072,-0.480,0.075
3.074,-0.555,0.070
3.076,-0.490,0.065
3.078,-0.335,0.055
3.080,-0.230,0.045
3.082,-0.300,0.030
3.084,-0.315,0.015
3.086,-0.365,0.000
3.088,-0.440,-0.010
3.090,-0.555,-0.020
3.092,-0.580,-0.020
3.094,-0.610,-0.015
3.096,-0.555,-0.010
3.098,-0.405,-0.005
3.100,-0.325,0.000
3.102,-0.330,0.000
3.104,-0.300,-0.005
3.106,-0.340,-0.010
3.108,-0.520,-0.015
3.110,-0.520,-0.020
3.112,-0.585,-0.020
3.114,-0.580,-0.020
3.116,-0.545,-0.015
3.118,-0.475,-0.010
3.120,-0.415,-0.005
3.122,-0.300,0.000
3.124,-0.330,0.000
3.126,-0.345,0.000
3.128,-0.415,0.000
3.130,-0.505,0.000
3.132,-0.555,0.000
3.134,-0.630,-0.005
3.136,-0.505,-0.005
3.138,-0.440,-0.010
3.140,-0.400,-0.015
3.142,-0.395,-0.020
3.144,-0.340,-0.025
3.146,-0.395,-0.030
3.148,-0.480,-0.030
3.150,-0.515,-0.035
3.152,-0.595,-0.035
3.154,-0.605,-0.030
3.156,-0.510,-0.025
3.158,-0.440,-0.020
3.160,-0.390,-0.015
3.162,-0.370,-0.015
3.164,-0.300,-0.010
3.166,-0.420,-0.010
3.168,-0.435,-0.010
3.170,-0.515,-0.010
3.172,-0.605,-0.010
3.174,-0.615,-0.010
3.176,-0.565,-0.015
3.178,-0.390,-0.020
3.180,-0.370,-0.020
3.182,-0.310,-0.025
3.184,-0.300,-0.025
3.186,-0.405,-0.030
3.188,-0.485,-0.030
3.190,-0.555,-0.030
3.192,-0.645,-0.025
3.194,-0.565,-0.020
3.196,-0.505,-0.015
3.198,-0.450,-0.015
3.200,-0.355,-0.010
3.202,-0.330,-0.010
3.204,-0.310,-0.010
3.206,-0.350,-0.010
3.208,-0.490,-0.010
3.210,-0.520,-0.005
3.212,-0.595,-0.005
3.214,-0.550,-0.005
3.216,-0.550,-0.005
3.218,-0.440,-0.005
3.220,-0.365,-0.010
3.222,-0.305,-0.020
3.224,-0.350,-0.035
3.226,-0.435,-0.045
3.228,-0.525,-0.060
3.230,-0.595,-0.070
3.232,-0.710,-0.075
3.234,-0.645,-0.080
3.236,-0.570,-0.085
3.238,-0.490,-0.095
3.240,-0.475,-0.105
3.242,-0.445,-0.120
3.244,-0.400,-0.140
3.246,-0.580,-0.165
3.248,-0.675,-0.190
3.250,-0.840,-0.215
3.252,-0.825,-0.235
3.254,-0.780,-0.245
3.256,-0.730,-0.250
3.258,-0.690,-0.250
3.260,-0.550,-0.240
3.262,-0.515,-0.230
3.264,-0.565,-0.215
3.266,-0.570,-0.205
3.268,-0.715,-0.195
3.270,-0.720,-0.185
3.272,-0.770,-0.180
3.274,-0.745,-0.175
3.276,-0.680,-0.175
3.278,-0.560,-0.170
3.280,-0.490,-0.165
3.282,-0.450,-0.160
3.284,-0.495,-0.155
3.286,-0.540,-0.150
3.288,-0.660,-0.150
3.290,-0.725,-0.145
3.292,-0.725,-0.140
3.294,-0.620,-0.135
3.296,-0.535,-0.125
3.298,-0.535,-0.120
3.300,-0.510,-0.110
3.302,-0.380,-0.100
3.304,-0.455,-0.095
3.306,-0.555,-0.095
3.308,-0.635,-0.095
3.310,-0.695,-0.100
3.312,-0.730,-0.105
3.314,-0.615,-0.115
3.316,-0.580,-0.120
3.318,-0.470,-0.125
3.320,-0.465,-0.125
3.322,-0.405,-0.120
3.324,-0.450,-0.110
3.326,-0.500,-0.100
3.328,-0.650,-0.090
3.330,-0.635,-0.080
3.332,-0.690,-0.080
3.334,-0.595,-0.080
3.336,-0.550,-0.085
3.338,-0.445,-0.090
3.340,-0.460,-0.095
3.342,-0.420,-0.100
3.344,-0.430,-0.095
3.346,-0.490,-0.095
3.348,-0.585,-0.090
3.350,-0.605,-0.085
3.352,-0.685,-0.080
3.354,-0.710,-0.085
3.356,-0.595,-0.085
3.358,-0.460,-0.090
3.360,-0.410,-0.095
3.362,-0.365,-0.095
3.364,-0.430,-0.090
3.366,-0.495,-0.085
3.368,-0.615,-0.070
3.370,-0.625,-0.060
3.372,-0.670,-0.050
3.374,-0.595,-0.045
3.376,-0.480,-0.050
3.378,-0.440,-0.060
3.380,-0.430,-0.070
3.382,-0.375,-0.085
3.384,-0.465,-0.095
3.386,-0.535,-0.100
3.388,-0.590,-0.100
3.390,-0.600,-0.095
3.392,-0.700,-0.085
3.394,-0.645,-0.075
3.396,-0.590,-0.065
3.398,-0.410,-0.060
3.400,-0.365,-0.060
3.402,-0.335,-0.065
3.404,-0.460,-0.065
3.406,-0.605,-0.065
3.408,-0.580,-0.060
3.410,-0.550,-0.055
3.412,-0.610,-0.045
3.414,-0.590,-0.030
3.416,-0.500,-0.020
3.418,-0.425,-0.015
3.420,-0.350,-0.015
3.422,-0.340,-0.015
3.424,-0.380,-0.020
3.426,-0.505,-0.025
3.428,-0.545,-0.030
3.430,-0.615,-0.030
3.432,-0.595,-0.030
3.434,-0.580,-0.030
3.436,-0.505,-0.025
3.438,-0.360,-0.020
3.440,-0.345,-0.015
3.442,-0.305,-0.015
3.444,-0.370,-0.015
3.446,-0.510,-0.010
3.448,-0.585,-0.010
3.450,-0.640,-0.010
3.452,-0.555,-0.010
3.454,-0.470,-0.010
3.456,-0.495,-0.010
3.458,-0.415,-0.015
3.460,-0.370,-0.020
3.462,-0.355,-0.030
3.464,-0.420,-0.040
3.466,-0.545,-0.045
3.468,-0.580,-0.050
3.470,-0.600,-0.050
3.472,-0.650,-0.050
3.474,-0.605,-0.050
3.476,-0.550,-0.045
3.478,-0.405,-0.045
3.480,-0.380,-0.045
3.482,-0.340,-0.055
3.484,-0.395,-0.060
3.486,-0.610,-0.070
3.488,-0.720,-0.075
3.490,-0.650,-0.080
3.492,-0.625,-0.080
3.494,-0.570,-0.075
3.496,-0.475,-0.065
3.498,-0.450,-0.060
3.500,-0.420,-0.055
3.502,-0.445,-0.050
3.504,-0.455,-0.050
3.506,-0.530,-0.055
3.508,-0.565,-0.060
3.510,-0.685,-0.065
3.512,-0.635,-0.070
3.514,-0.565,-0.070
3.516,-0.485,-0.070
3.518,-0.400,-0.065
3.520,-0.355,-0.060
3.522,-0.405,-0.055
3.524,-0.430,-0.050
3.526,-0.620,-0.050
3.528,-0.600,-0.050
3.530,-0.610,-0.050
3.532,-0.665,-0.050
3.534,-0.600,-0.050
3.536,-0.445,-0.045
3.538,-0.375,-0.045
3.540,-0.330,-0.040
3.542,-0.325,-0.035
3.544,-0.450,-0.035
3.546,-0.545,-0.040
3.548,-0.580,-0.045
3.550,-0.695,-0.050
3.552,-0.660,-0.060
3.554,-0.570,-0.065
3.556,-0.510,-0.070
3.558,-0.480,-0.075
3.560,-0.360,-0.070
3.562,-0.380,-0.065
3.564,-0.475,-0.055
3.566,-0.525,-0.045
3.568,-0.590,-0.035
3.570,-0.650,-0.025
3.572,-0.585,-0.020
3.574,-0.570,-0.015
3.576,-0.430,-0.010
3.578,-0.380,-0.005
3.580,-0.320,0.000
3.582,-0.340,0.000
3.584,-0.440,0.010
3.586,-0.550,0.020
3.588,-0.485,0.030
3.590,-0.600,0.055
3.592,-0.520,0.080
3.594,-0.360,0.110
3.596,-0.215,0.150
3.598,-0.240,0.185
3.600,-0.055,0.225
3.602,-0.080,0.255
3.604,-0.175,0.285
3.606,-0.135,0.300
3.608,-0.175,0.310
3.610,-0.410,0.310
3.612,-0.305,0.295
3.614,-0.265,0.275
3.616,-0.145,0.245
3.618,-0.100,0.210
3.620,-0.140,0.165
3.622,-0.250,0.120
3.624,-0.405,0.070
3.626,-0.595,0.025
3.628,-0.635,-0.015
3.630,-0.690,-0.045
3.632,-0.620,-0.065
3.634,-0.515,-0.075
3.636,-0.410,-0.075
3.638,-0.435,-0.070
3.640,-0.380,-0.060
3.642,-0.405,-0.050
3.644,-0.540,-0.040
3.646,-0.590,-0.035
3.648,-0.620,-0.035
3.650,-0.675,-0.035
3.652,-0.615,-0.040
3.654,-0.495,-0.040
3.656,-0.465,-0.040
3.658,-0.450,-0.035
3.660,-0.310,-0.030
3.662,-0.425,-0.020
3.664,-0.430,-0.015
3.666,-0.560,-0.010
3.668,-0.615,-0.010
3.670,-0.675,-0.015
3.672,-0.560,-0.020
3.674,-0.540,-0.025
3.676,-0.410,-0.025
3.678,-0.365,-0.030
3.680,-0.360,-0.030
3.682,-0.425,-0.030
3.684,-0.485,-0.030
3.686,-0.565,-0.025
3.688,-0.630,-0.025
3.690,-0.705,-0.020
3.692,-0.575,-0.020
3.694,-0.470,-0.015
3.696,-0.340,-0.010
3.698,-0.370,-0.005
3.700,-0.325,0.000
3.702,-0.395,0.000
3.704,-0.540,0.005
3.706,-0.535,0.000
3.708,-0.615,0.000
3.710,-0.675,-0.010
3.712,-0.590,-0.015
3.714,-0.465,-0.020
3.716,-0.415,-0.025
3.718,-0.370,-0.025
3.720,-0.335,-0.020
3.722,-0.455,-0.010
3.724,-0.455,-0.005
3.726,-0.565,0.005
3.728,-0.645,0.010
3.730,-0.660,0.010
3.732,-0.600,0.005
3.734,-0.515,0.000
3.736,-0.410,-0.005
3.738,-0.365,-0.010
3.740,-0.305,-0.010
3.742,-0.400,-0.010
3.744,-0.500,-0.005
3.746,-0.575,0.000
3.748,-0.570,0.005
3.750,-0.645,0.005
3.752,-0.630,0.005
3.754,-0.480,0.005
3.756,-0.405,0.000
3.758,-0.335,-0.005
3.760,-0.260,-0.005
3.762,-0.405,0.000
3.764,-0.530,0.005
3.766,-0.580,0.010
3.768,-0.550,0.020
3.770,-0.650,0.025
3.772,-0.495,0.030
3.774,-0.500,0.030
3.776,-0.360,0.030
3.778,-0.300,0.025
3.780,-0.295,0.025
3.782,-0.390,0.020
3.784,-0.455,0.025
3.786,-0.540,0.030
3.788,-0.565,0.040
3.790,-0.560,0.045
3.792,-0.530,0.050
3.794,-0.410,0.055
3.796,-0.340,0.055
3.798,-0.330,0.055
3.800,-0.290,0.055
3.802,-0.325,0.055
3.804,-0.510,0.065
3.806,-0.495,0.075
3.808,-0.465,0.095
3.810,-0.490,0.115
3.812,-0.485,0.130
3.814,-0.280,0.145
3.816,-0.250,0.155
3.818,-0.240,0.155
3.820,-0.235,0.150
3.822,-0.365,0.145
3.824,-0.395,0.135
3.826,-0.380,0.130
3.828,-0.455,0.125
3.830,-0.470,0.130
3.832,-0.380,0.140
3.834,-0.325,0.155
3.836,-0.230,0.170
3.838,-0.160,0.185
3.840,-0.195,0.190
3.842,-0.245,0.195
3.844,-0.350,0.195
3.846,-0.405,0.190
3.848,-0.465,0.185
3.850,-0.420,0.180
3.852,-0.315,0.175
3.854,-0.245,0.170
3.856,-0.245,0.170
3.858,-0.200,0.170
3.860,-0.215,0.170
3.862,-0.270,0.170
3.864,-0.430,0.165
3.866,-0.405,0.160
3.868,-0.490,0.150
3.870,-0.435,0.140
3.872,-0.385,0.130
3.874,-0.300,0.120
3.876,-0.310,0.110
3.878,-0.310,0.100
3.880,-0.305,0.095
3.882,-0.390,0.085
3.884,-0.420,0.080
3.886,-0.515,0.075
3.888,-0.600,0.070
3.890,-0.510,0.060
3.892,-0.475,0.055
3.894,-0.395,0.045
3.896,-0.375,0.040
3.898,-0.335,0.030
3.900,-0.385,0.015
3.902,-0.470,0.005
3.904,-0.565,-0.010
3.906,-0.600,-0.025
3.908,-0.705,-0.035
3.910,-0.630,-0.050
3.912,-0.605,-0.060
3.914,-0.500,-0.070
3.916,-0.485,-0.080
3.918,-0.430,-0.085
3.920,-0.470,-0.095
3.922,-0.510,-0.100
3.924,-0.690,-0.110
3.926,-0.835,-0.115
3.928,-0.775,-0.125
3.930,-0.680,-0.125
3.932,-0.640,-0.125
3.934,-0.545,-0.125
3.936,-0.470,-0.120
3.938,-0.425,-0.115
3.940,-0.500,-0.110
3.942,-0.590,-0.110
3.944,-0.745,-0.110
3.946,-0.670,-0.110
3.948,-0.765,-0.115
3.950,-0.795,-0.115
3.952,-0.620,-0.120
3.954,-0.565,-0.115
3.956,-0.540,-0.115
3.958,-0.425,-0.105
3.960,-0.465,-0.095
3.962,-0.525,-0.090
3.964,-0.650,-0.080
3.966,-0.710,-0.075
3.968,-0.775,-0.075
3.970,-0.665,-0.075
3.972,-0.545,-0.080
3.974,-0.525,-0.080
3.976,-0.490,-0.080
3.978,-0.430,-0.075
3.980,-0.475,-0.070
3.982,-0.515,-0.060
3.984,-0.650,-0.055
3.986,-0.655,-0.050
3.988,-0.710,-0.050
3.990,-0.650,-0.050
3.992,-0.565,-0.055
3.994,-0.450,-0.060
3.996,-0.475,-0.065
3.998,-0.435,-0.065
4.000,-0.460,-0.060
4.002,-0.550,-0.055
4.004,-0.585,-0.045
4.006,-0.620,-0.035
4.008,-0.685,-0.030
4.010,-0.615,-0.025
4.012,-0.555,-0.025
4.014,-0.530,-0.030
4.016,-0.415,-0.035
4.018,-0.370,-0.035
4.020,-0.425,-0.035
4.022,-0.560,-0.035
4.024,-0.620,-0.025
4.026,-0.590,-0.015
4.028,-0.610,0.000
4.030,-0.605,0.010
4.032,-0.525,0.015
4.034,-0.395,0.020
4.036,-0.405,0.020
4.038,-0.390,0.015
4.040,-0.370,0.010
4.042,-0.450,0.005
4.044,-0.600,0.000
4.046,-0.610,0.000
4.048,-0.655,-0.005
4.050,-0.585,-0.005
4.052,-0.590,-0.005
4.054,-0.525,-0.010
4.056,-0.365,-0.010
4.058,-0.270,-0.010
4.060,-0.440,-0.010
4.062,-0.480,-0.010
4.064,-0.550,-0.005
4.066,-0.640,0.000
4.068,-0.720,0.005
4.070,-0.585,0.010
4.072,-0.470,0.015
4.074,-0.415,0.010
4.076,-0.415,0.005
4.078,-0.405,-0.005
4.080,-0.425,-0.015
4.082,-0.510,-0.025
4.084,-0.630,-0.035
4.086,-0.670,-0.040
4.088,-0.660,-0.040
4.090,-0.600,-0.035
4.092,-0.490,-0.025
4.094,-0.485,-0.015
4.096,-0.465,0.000
4.098,-0.330,0.010
4.100,-0.395,0.020
4.102,-0.440,0.025
4.104,-0.595,0.025
4.106,-0.645,0.025
4.108,-0.660,0.020
4.110,-0.595,0.020
4.112,-0.440,0.015
4.114,-0.380,0.015
4.116,-0.370,0.015
4.118,-0.385,0.015
4.120,-0.450,0.015
4.122,-0.515,0.015
4.124,-0.605,0.010
4.126,-0.710,0.010
4.128,-0.590,0.005
4.130,-0.565,0.000
4.132,-0.465,-0.005
4.134,-0.470,-0.010
4.136,-0.355,-0.010
4.138,-0.370,-0.005
4.140,-0.440,0.005
4.142,-0.500,0.010
4.144,-0.635,0.015
4.146,-0.615,0.020
4.148,-0.625,0.020
4.150,-0.590,0.015
4.152,-0.480,0.005
4.154,-0.430,-0.005
4.156,-0.365,-0.010
4.158,-0.355,-0.020
4.160,-0.400,-0.020
4.162,-0.590,-0.020
4.164,-0.630,-0.020
4.166,-0.750,-0.015
4.168,-0.640,-0.010
4.170,-0.515,-0.005
4.172,-0.420,0.000
4.174,-0.455,0.000
4.176,-0.375,0.000
4.178,-0.410,-0.005
4.180,-0.425,-0.005
4.182,-0.555,0.000
4.184,-0.600,0.000
4.186,-0.670,0.000
4.188,-0.645,0.005
4.190,-0.550,0.005
4.192,-0.435,0.000
4.194,-0.420,-0.005
4.196,-0.355,-0.010
4.198,-0.395,-0.015
4.200,-0.470,-0.020
4.202,-0.590,-0.020
4.204,-0.645,-0.015
4.206,-0.705,-0.010
4.208,-0.645,-0.005
4.210,-0.550,0.000
4.212,-0.445,0.005
4.214,-0.400,0.005
4.216,-0.385,0.005
4.218,-0.375,0.000
4.220,-0.440,-0.005
4.222,-0.600,-0.005
4.224,-0.625,-0.005
4.226,-0.660,-0.005
4.228,-0.630,0.000
4.230,-0.585,0.010
4.232,-0.450,0.015
4.234,-0.345,0.025
4.236,-0.280,0.030
4.238,-0.345,0.035
4.240,-0.450,0.040
4.242,-0.575,0.040
4.244,-0.585,0.040
4.246,-0.650,0.045
4.248,-0.610,0.045
4.250,-0.520,0.045
4.252,-0.425,0.045
4.254,-0.350,0.040
4.256,-0.290,0.040
4.258,-0.395,0.035
4.260,-0.425,0.030
4.262,-0.530,0.030
4.264,-0.570,0.025
4.266,-0.705,0.025
4.268,-0.580,0.030
4.270,-0.580,0.040
4.272,-0.400,0.050
4.274,-0.325,0.060
4.276,-0.225,0.070
4.278,-0.335,0.080
4.280,-0.455,0.085
4.282,-0.425,0.080
4.284,-0.560,0.075
4.286,-0.700,0.060
4.288,-0.565,0.045
4.290,-0.535,0.030
4.292,-0.395,0.020
4.294,-0.410,0.010
4.296,-0.315,0.005
4.298,-0.400,0.010
4.300,-0.470,0.015
4.302,-0.600,0.025
4.304,-0.575,0.030
4.306,-0.630,0.035
4.308,-0.605,0.035
4.310,-0.575,0.035
4.312,-0.475,0.030
4.314,-0.355,0.020
4.316,-0.345,0.015
4.318,-0.370,0.010
4.320,-0.465,0.010
4.322,-0.625,0.010
4.324,-0.635,0.010
4.326,-0.640,0.010
4.328,-0.580,0.010
4.330,-0.540,0.010
4.332,-0.425,0.005
4.334,-0.340,0.000
4.336,-0.375,-0.005
4.338,-0.450,-0.005
4.340,-0.545,0.000
4.342,-0.560,0.005
4.344,-0.600,0.010
4.346,-0.660,0.020
4.348,-0.570,0.020
4.350,-0.490,0.020
4.352,-0.445,0.015
4.354,-0.425,0.005
4.356,-0.395,-0.005
4.358,-0.380,-0.010
4.360,-0.600,-0.010
4.362,-0.540,-0.010
4.364,-0.630,0.000
4.366,-0.660,0.015
4.368,-0.575,0.030
4.370,-0.525,0.040
4.372,-0.375,0.045
4.374,-0.345,0.050
4.376,-0.330,0.045
4.378,-0.440,0.040
4.380,-0.485,0.035
4.382,-0.550,0.030
4.384,-0.540,0.025
4.386,-0.600,0.030
4.388,-0.590,0.030
4.390,-0.475,0.035
4.392,-0.440,0.035
4.394,-0.385,0.035
4.396,-0.390,0.030
4.398,-0.410,0.025
4.400,-0.510,0.025
4.402,-0.605,0.025
4.404,-0.600,0.025
4.406,-0.550,0.035
4.408,-0.520,0.050
4.410,-0.480,0.070
4.412,-0.355,0.090
4.414,-0.290,0.115
4.416,-0.240,0.140
4.418,-0.280,0.160
4.420,-0.315,0.185
4.422,-0.375,0.210
4.424,-0.370,0.235
4.426,-0.310,0.265
4.428,-0.260,0.285
4.430,-0.165,0.305
4.432,-0.145,0.315
4.434,-0.095,0.310
4.436,-0.130,0.295
4.438,-0.180,0.270
4.440,-0.375,0.230
4.442,-0.435,0.185
4.444,-0.420,0.135
4.446,-0.505,0.090
4.448,-0.575,0.045
4.450,-0.535,0.015
4.452,-0.475,0.000
4.454,-0.405,-0.010
4.456,-0.360,-0.010
4.458,-0.420,-0.005
4.460,-0.525,0.005
4.462,-0.615,0.010
4.464,-0.700,0.015
4.466,-0.640,0.015
4.468,-0.625,0.010
4.470,-0.445,0.010
4.472,-0.405,0.010
4.474,-0.325,0.010
4.476,-0.340,0.015
4.478,-0.440,0.020
4.480,-0.515,0.030
4.482,-0.630,0.035
4.484,-0.685,0.035
4.486,-0.640,0.035
4.488,-0.460,0.030
4.490,-0.435,0.020
4.492,-0.420,0.005
4.494,-0.345,0.000
4.496,-0.355,-0.005
4.498,-0.525,0.000
4.500,-0.530,0.005
4.502,-0.585,0.020
4.504,-0.660,0.030
4.506,-0.545,0.045
4.508,-0.540,0.050
4.510,-0.420,0.050
4.512,-0.390,0.045
4.514,-0.255,0.035
4.516,-0.360,0.025
4.518,-0.515,0.015
4.520,-0.535,0.010
4.522,-0.595,0.010
4.524,-0.680,0.010
4.526,-0.575,0.015
4.528,-0.550,0.025
4.530,-0.420,0.030
4.532,-0.345,0.035
4.534,-0.400,0.035
4.536,-0.430,0.030
4.538,-0.400,0.025
4.540,-0.580,0.020
4.542,-0.525,0.020
4.544,-0.645,0.015
4.546,-0.610,0.015
4.548,-0.545,0.020
4.550,-0.425,0.025
4.552,-0.420,0.030
4.554,-0.300,0.035
4.556,-0.375,0.040
4.558,-0.450,0.040
4.560,-0.520,0.045
4.562,-0.555,0.045
4.564,-0.605,0.045
4.566,-0.610,0.040
4.568,-0.480,0.035
4.570,-0.445,0.030
4.572,-0.400,0.025
4.574,-0.350,0.015
4.576,-0.355,0.010
4.578,-0.475,0.000
4.580,-0.600,-0.005
4.582,-0.620,-0.005
4.584,-0.725,-0.005
4.586,-0.610,0.000
4.588,-0.440,0.010
4.590,-0.445,0.025
4.592,-0.370,0.035
4.594,-0.255,0.050
4.596,-0.370,0.060
4.598,-0.475,0.070
4.600,-0.475,0.075
4.602,-0.515,0.080
4.604,-0.540,0.080
4.606,-0.600,0.075
4.608,-0.560,0.070
4.610,-0.290,0.065
4.612,-0.330,0.055
4.614,-0.275,0.050
4.616,-0.415,0.045
4.618,-0.420,0.045
4.620,-0.555,0.045
4.622,-0.570,0.050
4.624,-0.610,0.060
4.626,-0.545,0.070
4.628,-0.405,0.080
4.630,-0.280,0.095
4.632,-0.280,0.110
4.634,-0.250,0.120
4.636,-0.310,0.130
4.638,-0.360,0.135
4.640,-0.470,0.145
4.642,-0.440,0.145
4.644,-0.495,0.145
4.646,-0.475,0.140
4.648,-0.380,0.135
4.650,-0.315,0.125
4.652,-0.300,0.115
4.654,-0.270,0.110
4.656,-0.340,0.100
4.658,-0.370,0.090
4.660,-0.460,0.075
4.662,-0.530,0.060
4.664,-0.610,0.040
4.666,-0.610,0.010
4.668,-0.545,-0.030
4.670,-0.560,-0.075
4.672,-0.525,-0.115
4.674,-0.585,-0.155
4.676,-0.570,-0.185
4.678,-0.720,-0.200
4.680,-0.760,-0.200
4.682,-0.760,-0.180
4.684,-0.755,-0.150
4.686,-0.715,-0.110
4.688,-0.515,-0.070
4.690,-0.400,-0.030
4.692,-0.450,-0.005
4.694,-0.385,0.010
4.696,-0.420,0.015
4.698,-0.505,0.010
4.700,-0.595,-0.005
4.702,-0.635,-0.015
4.704,-0.625,-0.025
4.706,-0.560,-0.030
4.708,-0.530,-0.030
4.710,-0.435,-0.025
4.712,-0.410,-0.025
4.714,-0.435,-0.020
4.716,-0.475,-0.020
4.718,-0.520,-0.025
4.720,-0.590,-0.035
4.722,-0.680,-0.040
4.724,-0.745,-0.050
4.726,-0.640,-0.055
4.728,-0.470,-0.060
4.730,-0.460,-0.060
4.732,-0.420,-0.060
4.734,-0.450,-0.055
4.736,-0.505,-0.055
4.738,-0.610,-0.055
4.740,-0.575,-0.055
4.742,-0.685,-0.055
4.744,-0.765,-0.055
4.746,-0.645,-0.055
4.748,-0.505,-0.055
4.750,-0.430,-0.055
4.752,-0.405,-0.055
4.754,-0.445,-0.055
4.756,-0.540,-0.060
4.758,-0.595,-0.070
4.760,-0.675,-0.080
4.762,-0.750,-0.095
4.764,-0.800,-0.105
4.766,-0.650,-0.115
4.768,-0.590,-0.120
4.770,-0.480,-0.120
4.772,-0.500,-0.115
4.774,-0.475,-0.105
4.776,-0.475,-0.095
4.778,-0.605,-0.080
4.780,-0.670,-0.075
4.782,-0.725,-0.070
4.784,-0.700,-0.070
4.786,-0.655,-0.070
4.788,-0.550,-0.080
4.790,-0.475,-0.085
4.792,-0.415,-0.095
4.794,-0.450,-0.100
4.796,-0.555,-0.105
4.798,-0.645,-0.105
4.800,-0.710,-0.100
4.802,-0.750,-0.095
4.804,-0.720,-0.085
4.806,-0.585,-0.080
4.808,-0.505,-0.070
4.810,-0.480,-0.065
4.812,-0.395,-0.060
4.814,-0.435,-0.055
4.816,-0.505,-0.050
4.818,-0.605,-0.050
4.820,-0.655,-0.050
4.822,-0.675,-0.045
4.824,-0.605,-0.045
4.826,-0.635,-0.045
4.828,-0.475,-0.045
4.830,-0.445,-0.040
4.832,-0.375,-0.040
4.834,-0.420,-0.040
4.836,-0.470,-0.040
4.838,-0.545,-0.035
4.840,-0.635,-0.040
4.842,-0.750,-0.040
4.844,-0.625,-0.045
4.846,-0.620,-0.055
4.848,-0.490,-0.060
4.850,-0.390,-0.070
4.852,-0.445,-0.080
4.854,-0.410,-0.085
4.856,-0.605,-0.085
4.858,-0.620,-0.085
4.860,-0.690,-0.075
4.862,-0.675,-0.065
4.864,-0.565,-0.050
4.866,-0.595,-0.040
4.868,-0.465,-0.030
4.870,-0.415,-0.020
4.872,-0.340,-0.020
4.874,-0.445,-0.025
4.876,-0.525,-0.030
4.878,-0.605,-0.040
4.880,-0.610,-0.050
4.882,-0.715,-0.060
4.884,-0.670,-0.065
4.886,-0.595,-0.070
4.888,-0.460,-0.070
4.890,-0.465,-0.070
4.892,-0.395,-0.070
4.894,-0.425,-0.075
4.896,-0.565,-0.075
4.898,-0.610,-0.080
4.900,-0.635,-0.080
4.902,-0.760,-0.080
4.904,-0.710,-0.075
4.906,-0.545,-0.075
4.908,-0.475,-0.070
4.910,-0.390,-0.065
4.912,-0.400,-0.065
4.914,-0.495,-0.065
4.916,-0.560,-0.070
4.918,-0.605,-0.075
4.920,-0.700,-0.085
4.922,-0.780,-0.090
4.924,-0.650,-0.095
4.926,-0.505,-0.095
4.928,-0.495,-0.095
4.930,-0.535,-0.095
4.932,-0.425,-0.095
4.934,-0.540,-0.095
4.936,-0.545,-0.095
4.938,-0.680,-0.100
4.940,-0.625,-0.105
4.942,-0.795,-0.110
4.944,-0.660,-0.115
4.946,-0.630,-0.120
4.948,-0.515,-0.115
4.950,-0.440,-0.110
4.952,-0.425,-0.100
4.954,-0.445,-0.090
4.956,-0.580,-0.080
4.958,-0.685,-0.075
4.960,-0.635,-0.075
4.962,-0.710,-0.080
4.964,-0.660,-0.090
4.966,-0.595,-0.100
4.968,-0.535,-0.110
4.970,-0.520,-0.115
4.972,-0.465,-0.120
4.974,-0.475,-0.120
4.976,-0.580,-0.115
4.978,-0.670,-0.105
4.980,-0.660,-0.095
4.982,-0.740,-0.085
4.984,-0.655,-0.075
4.986,-0.540,-0.070
4.988,-0.475,-0.065
4.990,-0.440,-0.060
4.992,-0.395,-0.060
4.994,-0.395,-0.060
4.996,-0.540,-0.055
4.998,-0.600,-0.055
5.000,-0.625,-0.060
5.002,-0.715,-0.060
5.004,-0.615,-0.065
5.006,-0.515,-0.065
5.008,-0.480,-0.070
5.010,-0.425,-0.070
5.012,-0.410,-0.075
5.014,-0.455,-0.070
5.016,-0.535,-0.070
5.018,-0.605,-0.060
5.020,-0.675,-0.055
5.022,-0.655,-0.050
5.024,-0.590,-0.045
5.026,-0.445,-0.045
5.028,-0.465,-0.045
5.030,-0.390,-0.045
5.032,-0.365,-0.045
5.034,-0.470,-0.050
5.036,-0.525,-0.050
5.038,-0.620,-0.050
5.040,-0.645,-0.050
5.042,-0.670,-0.050
5.044,-0.585,-0.055
5.046,-0.490,-0.060
5.048,-0.425,-0.065
5.050,-0.450,-0.075
5.052,-0.445,-0.080
5.054,-0.525,-0.085
5.056,-0.610,-0.085
5.058,-0.615,-0.080
5.060,-0.630,-0.075
5.062,-0.660,-0.065
5.064,-0.575,-0.060
5.066,-0.520,-0.050
5.068,-0.495,-0.050
5.070,-0.375,-0.050
5.072,-0.390,-0.055
5.074,-0.510,-0.065
5.076,-0.595,-0.070
5.078,-0.605,-0.080
5.080,-0.710,-0.080
5.082,-0.675,-0.080
5.084,-0.620,-0.075
5.086,-0.480,-0.065
5.088,-0.465,-0.060
5.090,-0.315,-0.050
5.092,-0.395,-0.050
5.094,-0.505,-0.050
5.096,-0.565,-0.050
5.098,-0.625,-0.055
5.100,-0.700,-0.060
5.102,-0.595,-0.065
5.104,-0.585,-0.070
5.106,-0.470,-0.070
5.108,-0.490,-0.065
5.110,-0.385,-0.065
5.112,-0.350,-0.060
5.114,-0.450,-0.055
5.116,-0.630,-0.055
5.118,-0.645,-0.060
5.120,-0.710,-0.065
5.122,-0.635,-0.070
5.124,-0.585,-0.075
5.126,-0.465,-0.080
5.128,-0.425,-0.080
5.130,-0.390,-0.075
5.132,-0.410,-0.070
5.134,-0.455,-0.060
5.136,-0.585,-0.050
5.138,-0.595,-0.045
5.140,-0.710,-0.035
5.142,-0.550,-0.035
5.144,-0.590,-0.035
5.146,-0.440,-0.035
5.148,-0.380,-0.040
5.150,-0.340,-0.040
5.152,-0.405,-0.045
5.154,-0.455,-0.040
5.156,-0.575,-0.035
5.158,-0.585,-0.030
5.160,-0.605,-0.025
5.162,-0.605,-0.020
5.164,-0.560,-0.020
5.166,-0.450,-0.020
5.168,-0.330,-0.020
5.170,-0.265,-0.015
5.172,-0.360,-0.005
5.174,-0.420,0.010
5.176,-0.475,0.035
5.178,-0.495,0.060
5.180,-0.545,0.095
5.182,-0.415,0.125
5.184,-0.315,0.155
5.186,-0.260,0.175
5.188,-0.140,0.195
5.190,-0.070,0.200
5.192,-0.120,0.205
5.194,-0.210,0.200
5.196,-0.355,0.195
5.198,-0.435,0.180
5.200,-0.525,0.160
5.202,-0.405,0.140
5.204,-0.290,0.110
5.206,-0.255,0.075
5.208,-0.295,0.040
5.210,-0.265,0.005
5.212,-0.485,-0.030
5.214,-0.565,-0.060
5.216,-0.640,-0.075
5.218,-0.635,-0.085
5.220,-0.670,-0.090
5.222,-0.650,-0.085
5.224,-0.520,-0.075
5.226,-0.430,-0.065
5.228,-0.385,-0.060
5.230,-0.315,-0.060
5.232,-0.470,-0.060
5.234,-0.585,-0.065
5.236,-0.610,-0.070
5.238,-0.635,-0.075
5.240,-0.605,-0.075
5.242,-0.605,-0.075
5.244,-0.520,-0.070
5.246,-0.415,-0.065
5.248,-0.390,-0.060
5.250,-0.420,-0.050
5.252,-0.435,-0.045
5.254,-0.495,-0.045
5.256,-0.535,-0.040
5.258,-0.600,-0.040
5.260,-0.625,-0.040
5.262,-0.550,-0.035
5.264,-0.450,-0.035
5.266,-0.445,-0.030
5.268,-0.385,-0.030
5.270,-0.335,-0.025
5.272,-0.370,-0.020
5.274,-0.465,-0.020
5.276,-0.540,-0.020
5.278,-0.555,-0.020
5.280,-0.635,-0.025
5.282,-0.595,-0.030
5.284,-0.495,-0.035
5.286,-0.390,-0.040
5.288,-0.365,-0.045
5.290,-0.290,-0.050
5.292,-0.500,-0.050
5.294,-0.505,-0.050
5.296,-0.535,-0.050
5.298,-0.550,-0.045
5.300,-0.615,-0.045
5.302,-0.615,-0.040
5.304,-0.520,-0.035
5.306,-0.425,-0.035
5.308,-0.310,-0.035
5.310,-0.320,-0.035
5.312,-0.400,-0.035
5.314,-0.505,-0.040
5.316,-0.560,-0.040
5.318,-0.610,-0.045
5.320,-0.600,-0.045
5.322,-0.615,-0.045
5.324,-0.470,-0.045
5.326,-0.360,-0.045
5.328,-0.340,-0.040
5.330,-0.340,-0.040
5.332,-0.405,-0.035
5.334,-0.540,-0.030
5.336,-0.550,-0.030
5.338,-0.680,-0.025
5.340,-0.570,-0.025
5.342,-0.550,-0.030
5.344,-0.380,-0.030
5.346,-0.385,-0.030
5.348,-0.375,-0.030
5.350,-0.330,-0.030
5.352,-0.380,-0.025
5.354,-0.520,-0.020
5.356,-0.535,-0.010
5.358,-0.530,-0.005
5.360,-0.560,0.005
5.362,-0.565,0.005
5.364,-0.345,0.010
5.366,-0.375,0.005
5.368,-0.295,0.005
5.370,-0.335,0.000
5.372,-0.390,0.000
5.374,-0.470,0.000
5.376,-0.505,0.000
5.378,-0.585,0.010
5.380,-0.515,0.020
5.382,-0.405,0.030
5.384,-0.365,0.045
5.386,-0.300,0.055
5.388,-0.250,0.065
5.390,-0.230,0.070
5.392,-0.325,0.075
5.394,-0.365,0.075
5.396,-0.400,0.080
5.398,-0.490,0.080
5.400,-0.480,0.085
5.402,-0.375,0.095
5.404,-0.270,0.105
5.406,-0.280,0.115
5.408,-0.195,0.125
5.410,-0.115,0.140
5.412,-0.230,0.150
5.414,-0.330,0.160
5.416,-0.325,0.165
5.418,-0.455,0.170
5.420,-0.385,0.170
5.422,-0.305,0.175
5.424,-0.155,0.175
5.426,-0.205,0.180
5.428,-0.065,0.180
5.430,-0.085,0.185
5.432,-0.180,0.190
5.434,-0.285,0.195
5.436,-0.365,0.200
5.438,-0.370,0.200
5.440,-0.310,0.205
5.442,-0.210,0.205
5.444,-0.175,0.210
5.446,-0.095,0.210
5.448,-0.145,0.210
5.450,-0.070,0.205
5.452,-0.210,0.205
5.454,-0.295,0.200
5.456,-0.320,0.195
5.458,-0.375,0.190
5.460,-0.375,0.180
5.462,-0.295,0.175
5.464,-0.170,0.170
5.466,-0.145,0.165
5.468,-0.125,0.160
5.470,-0.180,0.155
5.472,-0.270,0.145
5.474,-0.405,0.140
5.476,-0.390,0.125
5.478,-0.480,0.115
5.480,-0.435,0.100
5.482,-0.420,0.090
5.484,-0.280,0.080
5.486,-0.230,0.070
5.488,-0.160,0.065
5.490,-0.260,0.065
5.492,-0.360,0.065
5.494,-0.490,0.065
5.496,-0.480,0.060
5.498,-0.550,0.055
5.500,-0.500,0.045
5.502,-0.430,0.030
5.504,-0.320,0.020
5.506,-0.300,0.005
5.508,-0.265,-0.005
5.510,-0.300,-0.010
5.512,-0.395,-0.010
5.514,-0.505,-0.005
5.516,-0.520,0.000
5.518,-0.570,0.005
5.520,-0.500,0.010
5.522,-0.500,0.010
5.524,-0.340,0.010
5.526,-0.340,0.005
5.528,-0.240,0.000
5.530,-0.275,-0.005
5.532,-0.415,-0.010
5.534,-0.515,-0.015
5.536,-0.530,-0.020
5.538,-0.635,-0.020
5.540,-0.495,-0.020
5.542,-0.520,-0.020
5.544,-0.390,-0.020
5.546,-0.290,-0.020
5.548,-0.190,-0.015
5.550,-0.350,-0.015
5.552,-0.450,-0.015
5.554,-0.480,-0.015
5.556,-0.560,-0.015
5.558,-0.605,-0.020
5.560,-0.550,-0.025
5.562,-0.450,-0.025
5.564,-0.405,-0.030
5.566,-0.330,-0.030
5.568,-0.240,-0.030
5.570,-0.365,-0.030
5.572,-0.445,-0.020
5.574,-0.485,-0.015
5.576,-0.525,-0.005
5.578,-0.565,0.000
5.580,-0.505,0.005
5.582,-0.405,0.010
5.584,-0.265,0.010
5.586,-0.325,0.005
5.588,-0.255,0.005
5.590,-0.300,0.005
5.592,-0.370,0.005
5.594,-0.515,0.005
5.596,-0.500,0.010
5.598,-0.585,0.010
5.600,-0.490,0.015
5.602,-0.390,0.015
5.604,-0.310,0.015
5.606,-0.300,0.015
5.608,-0.240,0.010
5.610,-0.320,0.010
5.612,-0.485,0.005
5.614,-0.445,0.005
5.616,-0.485,0.010
5.618,-0.555,0.015
5.620,-0.465,0.020
5.622,-0.340,0.030
5.624,-0.320,0.035
5.626,-0.290,0.040
5.628,-0.220,0.040
5.630,-0.295,0.040
5.632,-0.345,0.035
5.634,-0.480,0.025
5.636,-0.570,0.015
5.638,-0.515,0.005
5.640,-0.550,0.000
5.642,-0.375,-0.005
5.644,-0.350,-0.010
5.646,-0.275,-0.005
5.648,-0.235,0.000
5.650,-0.315,0.010
5.652,-0.385,0.015
5.654,-0.480,0.025
5.656,-0.565,0.030
5.658,-0.545,0.030
5.660,-0.405,0.030
5.662,-0.370,0.025
5.664,-0.335,0.020
5.666,-0.285,0.015
5.668,-0.255,0.010
5.670,-0.315,0.005
5.672,-0.420,0.005
5.674,-0.470,0.005
5.676,-0.615,0.005
5.678,-0.515,0.010
5.680,-0.440,0.010
5.682,-0.390,0.010
5.684,-0.260,0.005
5.686,-0.280,0.000
5.688,-0.280,-0.005
5.690,-0.300,-0.010
5.692,-0.480,-0.020
5.694,-0.525,-0.020
5.696,-0.560,-0.020
5.698,-0.535,-0.020
5.700,-0.435,-0.015
5.702,-0.400,-0.010
5.704,-0.330,-0.010
5.706,-0.230,-0.005
5.708,-0.280,-0.005
5.710,-0.370,-0.010
5.712,-0.525,-0.010
5.714,-0.505,-0.015
5.716,-0.585,-0.020
5.718,-0.580,-0.020
5.720,-0.465,-0.015
5.722,-0.340,-0.010
5.724,-0.265,0.000
5.726,-0.230,0.005
5.728,-0.270,0.010
5.730,-0.370,0.010
5.732,-0.425,0.005
5.734,-0.455,0.000
5.736,-0.680,-0.010
5.738,-0.545,-0.020
5.740,-0.415,-0.020
5.742,-0.375,-0.020
5.744,-0.250,-0.015
5.746,-0.245,-0.005
5.748,-0.340,0.005
5.750,-0.345,0.020
5.752,-0.415,0.025
5.754,-0.480,0.035
5.756,-0.540,0.035
5.758,-0.490,0.030
5.760,-0.425,0.020
5.762,-0.345,0.015
5.764,-0.255,0.005
5.766,-0.220,0.000
5.768,-0.225,0.000
5.770,-0.335,0.000
5.772,-0.495,0.000
5.774,-0.590,0.005
5.776,-0.595,0.005
5.778,-0.445,0.005
5.780,-0.440,0.000
5.782,-0.335,-0.010
5.784,-0.310,-0.015
5.786,-0.300,-0.030
5.788,-0.325,-0.035
5.790,-0.395,-0.045
5.792,-0.500,-0.050
5.794,-0.480,-0.050
5.796,-0.660,-0.050
5.798,-0.570,-0.045
5.800,-0.450,-0.040
5.802,-0.390,-0.030
5.804,-0.350,-0.025
5.806,-0.195,-0.020
5.808,-0.300,-0.020
5.810,-0.410,-0.025
5.812,-0.520,-0.030
5.814,-0.565,-0.040
5.816,-0.625,-0.050
5.818,-0.555,-0.060
5.820,-0.430,-0.065
5.822,-0.395,-0.065
5.824,-0.315,-0.065
5.826,-0.245,-0.060
5.828,-0.325,-0.050
5.830,-0.425,-0.040
5.832,-0.570,-0.035
5.834,-0.545,-0.030
5.836,-0.590,-0.030
5.838,-0.570,-0.030
5.840,-0.400,-0.035
5.842,-0.315,-0.040
5.844,-0.365,-0.045
5.846,-0.270,-0.045
5.848,-0.310,-0.045
5.850,-0.365,-0.040
5.852,-0.505,-0.035
5.854,-0.515,-0.025
5.856,-0.610,-0.020
5.858,-0.520,-0.020
5.860,-0.450,-0.015
5.862,-0.350,-0.020
5.864,-0.295,-0.020
5.866,-0.290,-0.025
5.868,-0.330,-0.025
5.870,-0.395,-0.025
5.872,-0.525,-0.025
5.874,-0.510,-0.025
5.876,-0.540,-0.020
5.878,-0.460,-0.020
5.880,-0.375,-0.020
5.882,-0.355,-0.025
5.884,-0.330,-0.030
5.886,-0.295,-0.035
5.888,-0.355,-0.040
5.890,-0.480,-0.045
5.892,-0.530,-0.045
5.894,-0.500,-0.040
5.896,-0.480,-0.035
5.898,-0.470,-0.025
5.900,-0.385,-0.010
5.902,-0.290,0.005
5.904,-0.280,0.025
5.906,-0.200,0.045
5.908,-0.260,0.070
5.910,-0.300,0.095
5.912,-0.440,0.125
5.914,-0.310,0.155
5.916,-0.265,0.185
5.918,-0.210,0.215
5.920,-0.110,0.245
5.922,-0.050,0.270
5.924,0.075,0.290
5.926,0.060,0.300
5.928,-0.010,0.300
5.930,-0.165,0.285
5.932,-0.255,0.260
5.934,-0.300,0.225
5.936,-0.325,0.185
5.938,-0.330,0.135
5.940,-0.285,0.090
5.942,-0.255,0.045
5.944,-0.305,0.005
5.946,-0.255,-0.025
5.948,-0.380,-0.045
5.950,-0.440,-0.055
5.952,-0.545,-0.060
5.954,-0.560,-0.055
5.956,-0.530,-0.050
5.958,-0.490,-0.040
5.960,-0.380,-0.035
5.962,-0.335,-0.030
5.964,-0.280,-0.030
5.966,-0.335,-0.025
5.968,-0.320,-0.030
5.970,-0.395,-0.030
5.972,-0.530,-0.030
5.974,-0.525,-0.030
5.976,-0.560,-0.030
5.978,-0.510,-0.025
5.980,-0.365,-0.025
5.982,-0.310,-0.020
5.984,-0.300,-0.020
5.986,-0.250,-0.020
5.988,-0.325,-0.020
5.990,-0.470,-0.025
5.992,-0.500,-0.025
5.994,-0.500,-0.025
5.996,-0.500,-0.025
5.998,-0.475,-0.020
6.000,-0.380,-0.020
6.002,-0.375,-0.015
6.004,-0.245,-0.010
6.006,-0.190,-0.005
6.008,-0.285,-0.005
6.010,-0.415,-0.005
6.012,-0.525,-0.010
6.014,-0.600,-0.015
6.016,-0.535,-0.020
6.018,-0.420,-0.025
6.020,-0.365,-0.030
6.022,-0.340,-0.030
6.024,-0.225,-0.035
6.026,-0.270,-0.030
6.028,-0.330,-0.030
6.030,-0.475,-0.025
6.032,-0.510,-0.015
6.034,-0.550,-0.010
6.036,-0.475,-0.005
6.038,-0.420,0.000
6.040,-0.325,0.005
6.042,-0.295,0.010
6.044,-0.195,0.010
6.046,-0.220,0.015
6.048,-0.305,0.015
6.050,-0.400,0.015
6.052,-0.495,0.015
6.054,-0.580,0.005
6.056,-0.460,0.000
6.058,-0.445,-0.010
6.060,-0.365,-0.020
6.062,-0.280,-0.025
6.064,-0.175,-0.030
6.066,-0.330,-0.030
6.068,-0.330,-0.025
6.070,-0.495,-0.015
6.072,-0.440,-0.005
6.074,-0.550,0.010
6.076,-0.445,0.020
6.078,-0.380,0.030
6.080,-0.305,0.035
6.082,-0.290,0.030
6.084,-0.220,0.025
6.086,-0.225,0.020
6.088,-0.290,0.015
6.090,-0.410,0.010
6.092,-0.505,0.010
6.094,-0.515,0.015
6.096,-0.445,0.020
6.098,-0.380,0.025
6.100,-0.325,0.035
6.102,-0.225,0.040
6.104,-0.155,0.045
6.106,-0.185,0.045
6.108,-0.230,0.045
6.110,-0.375,0.045
6.112,-0.500,0.045
6.114,-0.485,0.040
6.116,-0.445,0.045
6.118,-0.375,0.050
6.120,-0.230,0.055
6.122,-0.210,0.065
6.124,-0.125,0.070
6.126,-0.160,0.080
6.128,-0.255,0.090
6.130,-0.330,0.095
6.132,-0.415,0.100
6.134,-0.430,0.100
6.136,-0.375,0.100
6.138,-0.260,0.105
6.140,-0.145,0.105
6.142,-0.120,0.115
6.144,-0.065,0.120
6.146,-0.145,0.130
6.148,-0.240,0.135
6.150,-0.340,0.145
6.152,-0.270,0.150
6.154,-0.350,0.150
6.156,-0.350,0.150
6.158,-0.240,0.145
6.160,-0.115,0.140
6.162,-0.165,0.140
6.164,-0.060,0.140
6.166,-0.095,0.140
6.168,-0.185,0.150
6.170,-0.280,0.160
6.172,-0.270,0.165
6.174,-0.345,0.175
6.176,-0.290,0.180
6.178,-0.230,0.180
6.180,-0.180,0.180
6.182,-0.180,0.170
6.184,0.040,0.165
6.186,-0.070,0.160
6.188,-0.180,0.150
6.190,-0.315,0.145
6.192,-0.375,0.140
6.194,-0.405,0.135
6.196,-0.305,0.130
6.198,-0.290,0.120
6.200,-0.170,0.115
6.202,-0.110,0.105
6.204,-0.150,0.095
6.206,-0.175,0.085
6.208,-0.245,0.080
6.210,-0.385,0.075
6.212,-0.380,0.065
6.214,-0.495,0.060
6.216,-0.395,0.050
6.218,-0.325,0.040
6.220,-0.295,0.025
6.222,-0.305,0.010
6.224,-0.180,-0.010
6.226,-0.295,-0.020
6.228,-0.460,-0.035
6.230,-0.455,-0.040
6.232,-0.485,-0.040
6.234,-0.520,-0.040
6.236,-0.485,-0.035
6.238,-0.390,-0.030
6.240,-0.270,-0.030
6.242,-0.305,-0.030
6.244,-0.300,-0.030
6.246,-0.240,-0.035
6.248,-0.400,-0.035
6.250,-0.450,-0.040
6.252,-0.545,-0.040
6.254,-0.530,-0.040
6.256,-0.535,-0.040
6.258,-0.465,-0.040
6.260,-0.295,-0.040
6.262,-0.275,-0.045
6.264,-0.255,-0.055
6.266,-0.315,-0.060
6.268,-0.450,-0.065
6.270,-0.525,-0.070
6.272,-0.545,-0.070
6.274,-0.545,-0.070
6.276,-0.500,-0.065
6.278,-0.450,-0.065
6.280,-0.305,-0.060
6.282,-0.275,-0.055
6.284,-0.295,-0.055
6.286,-0.330,-0.055
6.288,-0.510,-0.055
6.290,-0.505,-0.050
6.292,-0.540,-0.050
6.294,-0.530,-0.045
6.296,-0.495,-0.045
6.298,-0.370,-0.040
6.300,-0.330,-0.040
6.302,-0.315,-0.045
6.304,-0.230,-0.050
6.306,-0.365,-0.055
6.308,-0.485,-0.065
6.310,-0.515,-0.070
6.312,-0.600,-0.070
6.314,-0.515,-0.070
6.316,-0.500,-0.070
6.318,-0.380,-0.065
6.320,-0.345,-0.060
6.322,-0.300,-0.055
6.324,-0.265,-0.055
6.326,-0.365,-0.055
6.328,-0.415,-0.060
6.330,-0.455,-0.060
6.332,-0.615,-0.055
6.334,-0.525,-0.055
6.336,-0.465,-0.045
6.338,-0.330,-0.040
6.340,-0.300,-0.035
6.342,-0.280,-0.035
6.344,-0.265,-0.040
6.346,-0.385,-0.045
6.348,-0.510,-0.050
6.350,-0.520,-0.055
6.352,-0.550,-0.060
6.354,-0.490,-0.060
6.356,-0.450,-0.055
6.358,-0.330,-0.045
6.360,-0.355,-0.040
6.362,-0.255,-0.030
6.364,-0.335,-0.030
6.366,-0.320,-0.030
6.368,-0.445,-0.040
6.370,-0.445,-0.050
6.372,-0.580,-0.060
6.374,-0.525,-0.070
6.376,-0.460,-0.070
6.378,-0.380,-0.065
6.380,-0.350,-0.055
6.382,-0.225,-0.040
6.384,-0.290,-0.030
6.386,-0.375,-0.020
6.388,-0.465,-0.015
6.390,-0.465,-0.025
6.392,-0.565,-0.035
6.394,-0.525,-0.055
6.396,-0.490,-0.070
6.398,-0.415,-0.080
6.400,-0.305,-0.085
6.402,-0.260,-0.080
6.404,-0.360,-0.070
6.406,-0.470,-0.055
6.408,-0.390,-0.040
6.410,-0.500,-0.030
6.412,-0.555,-0.025
6.414,-0.500,-0.025
6.416,-0.445,-0.030
6.418,-0.310,-0.040
6.420,-0.290,-0.050
6.422,-0.235,-0.055
6.424,-0.345,-0.060
6.426,-0.400,-0.060
6.428,-0.500,-0.060
6.430,-0.495,-0.060
6.432,-0.595,-0.060
6.434,-0.535,-0.060
6.436,-0.450,-0.065
6.438,-0.350,-0.070
6.440,-0.375,-0.070
6.442,-0.240,-0.070
6.444,-0.315,-0.070
6.446,-0.385,-0.060
6.448,-0.460,-0.050
6.450,-0.530,-0.040
6.452,-0.585,-0.030
6.454,-0.480,-0.030
6.456,-0.420,-0.035
6.458,-0.380,-0.045
6.460,-0.300,-0.060
6.462,-0.230,-0.075
6.464,-0.335,-0.085
6.466,-0.455,-0.090
6.468,-0.535,-0.090
6.470,-0.550,-0.080
6.472,-0.610,-0.070
6.474,-0.485,-0.060
6.476,-0.415,-0.055
6.478,-0.390,-0.050
6.480,-0.350,-0.055
6.482,-0.325,-0.065
6.484,-0.370,-0.075
6.486,-0.400,-0.085
6.488,-0.520,-0.095
6.490,-0.555,-0.095
6.492,-0.550,-0.090
6.494,-0.540,-0.080
6.496,-0.430,-0.065
6.498,-0.375,-0.055
6.500,-0.305,-0.045
6.502,-0.280,-0.035
6.504,-0.275,-0.035
6.506,-0.355,-0.035
6.508,-0.465,-0.040
6.510,-0.480,-0.040
6.512,-0.615,-0.045
6.514,-0.510,-0.045
6.516,-0.430,-0.045
6.518,-0.280,-0.040
6.520,-0.230,-0.035
6.522,-0.270,-0.035
6.524,-0.390,-0.035
6.526,-0.390,-0.030
6.528,-0.500,-0.030
6.530,-0.475,-0.030
6.532,-0.550,-0.030
6.534,-0.510,-0.025
6.536,-0.330,-0.020
6.538,-0.330,-0.015
6.540,-0.265,-0.015
6.542,-0.190,-0.015
6.544,-0.280,-0.015
6.546,-0.390,-0.020
6.548,-0.480,-0.025
6.550,-0.580,-0.030
6.552,-0.565,-0.035
6.554,-0.420,-0.040
6.556,-0.345,-0.040
6.558,-0.375,-0.045
6.560,-0.340,-0.045
6.562,-0.270,-0.050
6.564,-0.355,-0.050
6.566,-0.445,-0.060
6.568,-0.525,-0.065
6.570,-0.600,-0.070
6.572,-0.605,-0.075
6.574,-0.495,-0.075
6.576,-0.435,-0.075
6.578,-0.405,-0.065
6.580,-0.250,-0.060
6.582,-0.275,-0.050
6.584,-0.355,-0.045
6.586,-0.390,-0.040
6.588,-0.505,-0.045
6.590,-0.620,-0.055
6.592,-0.540,-0.065
6.594,-0.520,-0.080
6.596,-0.490,-0.090
6.598,-0.375,-0.095
6.600,-0.310,-0.095
6.602,-0.315,-0.095
6.604,-0.310,-0.085
6.606,-0.480,-0.075
6.608,-0.595,-0.070
6.610,-0.555,-0.065
6.612,-0.605,-0.070
6.614,-0.515,-0.075
6.616,-0.395,-0.085
6.618,-0.385,-0.095
6.620,-0.290,-0.100
6.622,-0.320,-0.100
6.624,-0.390,-0.095
6.626,-0.470,-0.080
6.628,-0.495,-0.070
6.630,-0.630,-0.060
6.632,-0.525,-0.050
6.634,-0.495,-0.050
6.636,-0.390,-0.050
6.638,-0.285,-0.060
6.640,-0.275,-0.065
6.642,-0.340,-0.075
6.644,-0.470,-0.080
6.646,-0.470,-0.075
6.648,-0.505,-0.070
6.650,-0.545,-0.065
6.652,-0.570,-0.055
6.654,-0.395,-0.050
6.656,-0.415,-0.045
6.658,-0.380,-0.050
6.660,-0.290,-0.050
6.662,-0.275,-0.055
6.664,-0.380,-0.060
6.666,-0.495,-0.065
6.668,-0.515,-0.065
6.670,-0.560,-0.060
6.672,-0.595,-0.055
6.674,-0.475,-0.045
6.676,-0.370,-0.035
6.678,-0.300,-0.025
6.680,-0.255,-0.010
6.682,-0.215,0.005
6.684,-0.325,0.030
6.686,-0.320,0.055
6.688,-0.450,0.090
6.690,-0.375,0.125
6.692,-0.295,0.165
6.694,-0.250,0.200
6.696,-0.090,0.230
6.698,0.055,0.255
6.700,0.125,0.270
6.702,0.020,0.275
6.704,-0.095,0.270
6.706,-0.230,0.255
6.708,-0.240,0.235
6.710,-0.340,0.205
6.712,-0.255,0.170
6.714,-0.315,0.130
6.716,-0.255,0.095
6.718,-0.220,0.060
6.720,-0.190,0.025
6.722,-0.335,-0.005
6.724,-0.390,-0.030
6.726,-0.490,-0.050
6.728,-0.485,-0.060
6.730,-0.615,-0.065
6.732,-0.545,-0.065
6.734,-0.430,-0.060
6.736,-0.400,-0.055
6.738,-0.345,-0.045
6.740,-0.265,-0.045
6.742,-0.330,-0.040
6.744,-0.350,-0.040
6.746,-0.485,-0.040
6.748,-0.535,-0.045
6.750,-0.585,-0.045
6.752,-0.505,-0.050
6.754,-0.445,-0.045
6.756,-0.400,-0.040
6.758,-0.315,-0.035
6.760,-0.245,-0.030
6.762,-0.275,-0.025
6.764,-0.375,-0.020
6.766,-0.535,-0.020
6.768,-0.455,-0.020
6.770,-0.565,-0.025
6.772,-0.520,-0.035
6.774,-0.465,-0.040
6.776,-0.340,-0.045
6.778,-0.270,-0.045
6.780,-0.255,-0.045
6.782,-0.365,-0.045
6.784,-0.440,-0.045
6.786,-0.450,-0.040
6.788,-0.475,-0.040
6.790,-0.585,-0.035
6.792,-0.505,-0.040
6.794,-0.485,-0.040
6.796,-0.335,-0.040
6.798,-0.320,-0.045
6.800,-0.245,-0.045
6.802,-0.350,-0.040
6.804,-0.390,-0.035
6.806,-0.510,-0.030
6.808,-0.475,-0.025
6.810,-0.585,-0.020
6.812,-0.505,-0.015
6.814,-0.435,-0.010
6.816,-0.280,-0.005
6.818,-0.245,-0.005
6.820,-0.230,-0.005
6.822,-0.300,-0.005
6.824,-0.370,-0.005
6.826,-0.470,-0.005
6.828,-0.520,-0.005
6.830,-0.550,-0.005
6.832,-0.525,-0.005
6.834,-0.385,-0.010
6.836,-0.280,-0.010
6.838,-0.270,-0.010
6.840,-0.180,-0.010
6.842,-0.325,-0.005
6.844,-0.410,0.000
6.846,-0.485,0.005
6.848,-0.435,0.010
6.850,-0.485,0.015
6.852,-0.470,0.020
6.854,-0.410,0.020
6.856,-0.310,0.015
6.858,-0.280,0.015
6.860,-0.260,0.010
6.862,-0.305,0.005
6.864,-0.380,0.005
6.866,-0.480,0.005
6.868,-0.565,0.010
6.870,-0.470,0.015
6.872,-0.415,0.020
6.874,-0.355,0.025
6.876,-0.275,0.030
6.878,-0.260,0.030
6.880,-0.255,0.030
6.882,-0.280,0.030
6.884,-0.375,0.030
6.886,-0.385,0.035
6.888,-0.420,0.035
6.890,-0.500,0.045
6.892,-0.415,0.050
6.894,-0.305,0.060
6.896,-0.250,0.070
6.898,-0.225,0.075
6.900,-0.180,0.075
6.902,-0.275,0.080
6.904,-0.310,0.080
6.906,-0.365,0.080
6.908,-0.440,0.080
6.910,-0.440,0.085
6.912,-0.375,0.090
6.914,-0.245,0.095
6.916,-0.190,0.100
6.918,-0.130,0.110
6.920,-0.185,0.120
6.922,-0.195,0.130
6.924,-0.245,0.140
6.926,-0.345,0.150
6.928,-0.345,0.165
6.930,-0.315,0.175
6.932,-0.275,0.180
6.934,-0.235,0.190
6.936,-0.110,0.190
6.938,-0.030,0.195
6.940,-0.015,0.190
6.942,-0.145,0.190
6.944,-0.240,0.185
6.946,-0.380,0.185
6.948,-0.360,0.185
6.950,-0.375,0.185
6.952,-0.240,0.185
6.954,-0.165,0.185
6.956,-0.125,0.190
6.958,-0.055,0.185
6.960,-0.090,0.185
6.962,-0.175,0.175
6.964,-0.270,0.170
6.966,-0.345,0.165
6.968,-0.410,0.155
6.970,-0.360,0.150
6.972,-0.295,0.145
6.974,-0.245,0.140
6.976,-0.240,0.130
6.978,-0.075,0.125
6.980,-0.135,0.110
6.982,-0.220,0.100
6.984,-0.440,0.085
6.986,-0.480,0.070
6.988,-0.475,0.055
6.990,-0.425,0.045
6.992,-0.335,0.035
6.994,-0.310,0.030
6.996,-0.265,0.025
6.998,-0.195,0.025
7.000,-0.305,0.025
7.002,-0.350,0.020
7.004,-0.470,0.020
7.006,-0.520,0.020
7.008,-0.475,0.015
7.010,-0.470,0.015
7.012,-0.440,0.010
7.014,-0.340,0.005
7.016,-0.290,-0.005
7.018,-0.220,-0.010
7.020,-0.365,-0.020
7.022,-0.450,-0.025
7.024,-0.510,-0.030
7.026,-0.540,-0.035
7.028,-0.590,-0.035
7.030,-0.465,-0.030
7.032,-0.360,-0.025
7.034,-0.390,-0.015
7.036,-0.335,-0.010
7.038,-0.230,-0.005
7.040,-0.350,-0.005
7.042,-0.445,-0.015
7.044,-0.475,-0.020
7.046,-0.485,-0.030
7.048,-0.620,-0.035
7.050,-0.505,-0.040
7.052,-0.470,-0.040
7.054,-0.360,-0.030
7.056,-0.335,-0.020
7.058,-0.265,-0.010
7.060,-0.300,0.000
7.062,-0.400,0.000
7.064,-0.485,0.000
7.066,-0.500,-0.005
7.068,-0.575,-0.015
7.070,-0.520,-0.025
7.072,-0.485,-0.035
7.074,-0.375,-0.040
7.076,-0.310,-0.045
7.078,-0.245,-0.045
7.080,-0.355,-0.045
7.082,-0.430,-0.045
7.084,-0.560,-0.045
7.086,-0.625,-0.045
7.088,-0.605,-0.045
7.090,-0.570,-0.045
7.092,-0.500,-0.045
7.094,-0.345,-0.040
7.096,-0.330,-0.035
7.098,-0.280,-0.025
7.100,-0.290,-0.015
7.102,-0.390,-0.010
7.104,-0.435,-0.005
7.106,-0.520,-0.005
7.108,-0.655,-0.010
7.110,-0.590,-0.015
7.112,-0.440,-0.025
7.114,-0.325,-0.030
7.116,-0.310,-0.035
7.118,-0.210,-0.035
7.120,-0.365,-0.030
7.122,-0.405,-0.020
7.124,-0.520,-0.015
7.126,-0.475,-0.005
7.128,-0.625,0.000
7.130,-0.510,0.000
7.132,-0.435,0.000
7.134,-0.390,-0.005
7.136,-0.280,-0.015
7.138,-0.260,-0.020
7.140,-0.370,-0.025
7.142,-0.425,-0.025
7.144,-0.480,-0.020
7.146,-0.530,-0.015
7.148,-0.565,-0.010
7.150,-0.480,-0.005
7.152,-0.465,0.000
7.154,-0.350,0.000
7.156,-0.320,0.000
7.158,-0.275,0.000
7.160,-0.310,-0.005
7.162,-0.400,-0.010
7.164,-0.535,-0.015
7.166,-0.590,-0.015
7.168,-0.630,-0.020
7.170,-0.470,-0.020
7.172,-0.430,-0.015
7.174,-0.325,-0.015
7.176,-0.300,-0.010
7.178,-0.320,-0.005
7.180,-0.340,-0.005
7.182,-0.425,0.000
7.184,-0.485,0.000
7.186,-0.570,0.000
7.188,-0.595,-0.005
7.190,-0.485,-0.005
7.192,-0.450,-0.010
7.194,-0.310,-0.015
7.196,-0.250,-0.015
7.198,-0.310,-0.015
7.200,-0.390,-0.020
7.202,-0.445,-0.015
7.204,-0.510,-0.015
7.206,-0.590,-0.020
7.208,-0.540,-0.020
7.210,-0.565,-0.025
7.212,-0.410,-0.030
7.214,-0.310,-0.035
7.216,-0.340,-0.035
7.218,-0.330,-0.040
7.220,-0.360,-0.035
7.222,-0.470,-0.035
7.224,-0.515,-0.025
7.226,-0.590,-0.015
7.228,-0.590,-0.005
7.230,-0.470,0.000
7.232,-0.410,0.005
7.234,-0.320,0.010
7.236,-0.285,0.005
7.238,-0.310,0.000
7.240,-0.425,-0.005
7.242,-0.430,-0.010
7.244,-0.525,-0.015
7.246,-0.605,-0.020
7.248,-0.545,-0.020
7.250,-0.530,-0.020
7.252,-0.410,-0.020
7.254,-0.330,-0.015
7.256,-0.285,-0.015
7.258,-0.320,-0.010
7.260,-0.390,-0.010
7.262,-0.465,-0.015
7.264,-0.525,-0.020
7.266,-0.615,-0.020
7.268,-0.550,-0.025
7.270,-0.455,-0.030
7.272,-0.435,-0.030
7.274,-0.385,-0.025
7.276,-0.305,-0.020
7.278,-0.255,-0.015
7.280,-0.390,-0.010
7.282,-0.565,0.000
7.284,-0.495,0.005
7.286,-0.560,0.005
7.288,-0.520,0.005
7.290,-0.460,0.005
7.292,-0.385,0.000
7.294,-0.370,-0.005
7.296,-0.300,-0.005
7.298,-0.280,-0.005
7.300,-0.410,-0.005
7.302,-0.430,0.000
7.304,-0.525,0.005
7.306,-0.625,0.010
7.308,-0.490,0.015
7.310,-0.420,0.015
7.312,-0.370,0.015
7.314,-0.340,0.015
7.316,-0.270,0.010
7.318,-0.300,0.005
7.320,-0.440,0.005
7.322,-0.470,0.005
7.324,-0.460,0.010
7.326,-0.565,0.015
7.328,-0.570,0.020
7.330,-0.430,0.030
7.332,-0.310,0.035
7.334,-0.270,0.035
7.336,-0.230,0.035
7.338,-0.245,0.030
7.340,-0.380,0.030
7.342,-0.480,0.025
7.344,-0.575,0.020
7.346,-0.645,0.020
7.348,-0.460,0.015
7.350,-0.445,0.015
7.352,-0.385,0.010
7.354,-0.345,0.005
7.356,-0.200,0.000
7.358,-0.335,-0.010
7.360,-0.490,-0.015
7.362,-0.525,-0.025
7.364,-0.510,-0.025
7.366,-0.575,-0.030
7.368,-0.555,-0.025
7.370,-0.520,-0.025
7.372,-0.385,-0.025
7.374,-0.355,-0.025
7.376,-0.340,-0.025
7.378,-0.390,-0.030
7.380,-0.425,-0.035
7.382,-0.535,-0.035
7.384,-0.535,-0.040
7.386,-0.655,-0.040
7.388,-0.525,-0.040
7.390,-0.490,-0.035
7.392,-0.400,-0.035
7.394,-0.340,-0.030
7.396,-0.290,-0.025
7.398,-0.370,-0.025
7.400,-0.425,-0.030
7.402,-0.530,-0.030
7.404,-0.565,-0.035
7.406,-0.615,-0.040
7.408,-0.575,-0.045
7.410,-0.500,-0.050
7.412,-0.380,-0.050
7.414,-0.390,-0.050
7.416,-0.300,-0.050
7.418,-0.400,-0.045
7.420,-0.435,-0.040
7.422,-0.510,-0.035
7.424,-0.530,-0.030
7.426,-0.705,-0.025
7.428,-0.470,-0.020
7.430,-0.465,-0.010
7.432,-0.405,-0.005
7.434,-0.380,0.000
7.436,-0.265,0.000
7.438,-0.310,0.000
7.440,-0.455,0.000
7.442,-0.530,-0.005
7.444,-0.530,-0.015
7.446,-0.600,-0.020
7.448,-0.570,-0.030
7.450,-0.450,-0.035
7.452,-0.425,-0.040
7.454,-0.360,-0.040
7.456,-0.295,-0.035
7.458,-0.385,-0.030
7.460,-0.420,-0.020
7.462,-0.520,-0.015
7.464,-0.565,-0.010
7.466,-0.595,-0.010
7.468,-0.520,-0.015
7.470,-0.435,-0.020
7.472,-0.335,-0.030
7.474,-0.370,-0.030
7.476,-0.325,-0.025
7.478,-0.345,-0.010
7.480,-0.410,0.015
7.482,-0.455,0.045
7.484,-0.390,0.085
7.486,-0.410,0.125
7.488,-0.370,0.160
7.490,-0.240,0.190
7.492,-0.120,0.210
7.494,-0.010,0.220
7.496,-0.045,0.220
7.498,-0.165,0.215
7.500,-0.335,0.200
7.502,-0.350,0.175
7.504,-0.410,0.155
7.506,-0.435,0.125
7.508,-0.370,0.095
7.510,-0.350,0.065
7.512,-0.335,0.035
7.514,-0.320,0.000
7.516,-0.310,-0.030
7.518,-0.465,-0.060
7.520,-0.535,-0.085
7.522,-0.570,-0.100
7.524,-0.655,-0.115
7.526,-0.755,-0.120
7.528,-0.625,-0.125
7.530,-0.510,-0.125
7.532,-0.460,-0.120
7.534,-0.405,-0.120
7.536,-0.390,-0.115
7.538,-0.495,-0.110
7.540,-0.585,-0.105
7.542,-0.590,-0.105
7.544,-0.690,-0.100
7.546,-0.645,-0.090
7.548,-0.595,-0.085
7.550,-0.515,-0.080
7.552,-0.450,-0.075
7.554,-0.365,-0.075
7.556,-0.380,-0.075
7.558,-0.450,-0.080
7.560,-0.535,-0.080
7.562,-0.590,-0.085
7.564,-0.635,-0.095
7.566,-0.670,-0.100
7.568,-0.610,-0.100
7.570,-0.485,-0.100
7.572,-0.405,-0.100
7.574,-0.345,-0.090
7.576,-0.365,-0.085
7.578,-0.440,-0.075
7.580,-0.580,-0.065
7.582,-0.650,-0.055
7.584,-0.695,-0.050
7.586,-0.565,-0.050
7.588,-0.510,-0.050
7.590,-0.415,-0.055
7.592,-0.410,-0.065
7.594,-0.345,-0.070
7.596,-0.345,-0.080
7.598,-0.490,-0.085
7.600,-0.625,-0.085
7.602,-0.555,-0.080
7.604,-0.690,-0.075
7.606,-0.645,-0.065
7.608,-0.520,-0.060
7.610,-0.420,-0.050
7.612,-0.320,-0.045
7.614,-0.250,-0.040
7.616,-0.380,-0.040
7.618,-0.475,-0.035
7.620,-0.485,-0.030
7.622,-0.565,-0.030
7.624,-0.640,-0.025
7.626,-0.545,-0.025
7.628,-0.475,-0.025
7.630,-0.445,-0.025
7.632,-0.390,-0.030
7.634,-0.285,-0.040
7.636,-0.365,-0.045
7.638,-0.485,-0.050
7.640,-0.525,-0.055
7.642,-0.505,-0.055
7.644,-0.675,-0.055
7.646,-0.585,-0.045
7.648,-0.490,-0.040
7.650,-0.370,-0.030
7.652,-0.340,-0.025
7.654,-0.295,-0.020
7.656,-0.325,-0.015
7.658,-0.390,-0.015
7.660,-0.490,-0.020
7.662,-0.515,-0.020
7.664,-0.640,-0.020
7.666,-0.555,-0.015
7.668,-0.470,-0.010
7.670,-0.390,-0.005
7.672,-0.390,0.000
7.674,-0.205,0.010
7.676,-0.270,0.015
7.678,-0.430,0.020
7.680,-0.445,0.020
7.682,-0.485,0.020
7.684,-0.585,0.015
7.686,-0.500,0.015
7.688,-0.440,0.020
7.690,-0.345,0.025
7.692,-0.300,0.035
7.694,-0.235,0.045
7.696,-0.285,0.055
7.698,-0.310,0.065
7.700,-0.395,0.070
7.702,-0.435,0.075
7.704,-0.530,0.075
7.706,-0.475,0.075
7.708,-0.355,0.075
7.710,-0.275,0.080
7.712,-0.185,0.085
7.714,-0.170,0.095
7.716,-0.240,0.105
7.718,-0.265,0.115
7.720,-0.375,0.130
7.722,-0.395,0.140
7.724,-0.490,0.150
7.726,-0.340,0.155
7.728,-0.260,0.160
7.730,-0.185,0.160
7.732,-0.205,0.165
7.734,-0.110,0.165
7.736,-0.160,0.170
7.738,-0.225,0.170
7.740,-0.290,0.175
7.742,-0.350,0.180
7.744,-0.395,0.180
7.746,-0.330,0.175
7.748,-0.255,0.170
7.750,-0.160,0.165
7.752,-0.180,0.160
7.754,-0.110,0.160
7.756,-0.160,0.160
7.758,-0.320,0.160
7.760,-0.300,0.165
7.762,-0.330,0.170
7.764,-0.375,0.175
7.766,-0.375,0.180
7.768,-0.320,0.175
7.770,-0.125,0.165
7.772,-0.170,0.150
7.774,-0.180,0.130
7.776,-0.175,0.110
7.778,-0.385,0.090
7.780,-0.400,0.075
7.782,-0.435,0.070
7.784,-0.435,0.065
7.786,-0.455,0.065
7.788,-0.375,0.065
7.790,-0.240,0.065
7.792,-0.265,0.065
7.794,-0.210,0.055
7.796,-0.335,0.045
7.798,-0.405,0.025
7.800,-0.520,0.010
7.802,-0.550,-0.010
7.804,-0.520,-0.020
7.806,-0.555,-0.030
7.808,-0.440,-0.030
7.810,-0.340,-0.030
7.812,-0.280,-0.020
7.814,-0.260,-0.015
7.816,-0.335,-0.005
7.818,-0.465,-0.005
7.820,-0.555,-0.005
7.822,-0.560,-0.010
7.824,-0.590,-0.015
7.826,-0.525,-0.025
7.828,-0.430,-0.030
7.830,-0.295,-0.035
7.832,-0.310,-0.040
7.834,-0.315,-0.035
7.836,-0.390,-0.030
7.838,-0.460,-0.025
7.840,-0.545,-0.020
7.842,-0.605,-0.015
7.844,-0.565,-0.015
7.846,-0.405,-0.010
7.848,-0.430,-0.010
7.850,-0.360,-0.010
7.852,-0.290,-0.015
7.854,-0.280,-0.015
7.856,-0.370,-0.015
7.858,-0.490,-0.015
7.860,-0.490,-0.015
7.862,-0.580,-0.015
7.864,-0.620,-0.020
7.866,-0.510,-0.025
7.868,-0.435,-0.035
7.870,-0.340,-0.040
7.872,-0.255,-0.045
7.874,-0.350,-0.045
7.876,-0.400,-0.045
7.878,-0.440,-0.045
7.880,-0.535,-0.045
7.882,-0.605,-0.045
7.884,-0.610,-0.045
7.886,-0.540,-0.050
7.888,-0.425,-0.050
7.890,-0.355,-0.055
7.892,-0.380,-0.055
7.894,-0.310,-0.055
7.896,-0.360,-0.055
7.898,-0.495,-0.050
7.900,-0.565,-0.045
7.902,-0.645,-0.040
7.904,-0.570,-0.030
7.906,-0.475,-0.030
7.908,-0.405,-0.025
7.910,-0.325,-0.025
7.912,-0.255,-0.020
7.914,-0.345,-0.020
7.916,-0.465,-0.020
7.918,-0.440,-0.015
7.920,-0.520,-0.015
7.922,-0.595,-0.010
7.924,-0.585,-0.010
7.926,-0.460,-0.010
7.928,-0.340,-0.010
7.930,-0.320,-0.010
7.932,-0.255,-0.010
7.934,-0.270,-0.010
7.936,-0.375,-0.005
7.938,-0.555,0.000
7.940,-0.535,0.005
7.942,-0.595,0.010
7.944,-0.475,0.010
7.946,-0.400,0.010
7.948,-0.370,0.005
7.950,-0.330,-0.005
7.952,-0.245,-0.020
7.954,-0.360,-0.035
7.956,-0.430,-0.045
7.958,-0.550,-0.055
7.960,-0.530,-0.060
7.962,-0.650,-0.055
7.964,-0.575,-0.050
7.966,-0.480,-0.040
7.968,-0.335,-0.035
7.970,-0.315,-0.025
7.972,-0.250,-0.020
7.974,-0.335,-0.015
7.976,-0.385,-0.020
7.978,-0.555,-0.025
7.980,-0.525,-0.030
7.982,-0.605,-0.040
7.984,-0.520,-0.045
7.986,-0.555,-0.050
7.988,-0.405,-0.050
7.990,-0.285,-0.045
7.992,-0.260,-0.040
7.994,-0.315,-0.030
7.996,-0.505,-0.020
7.998,-0.540,-0.015
8.000,-0.425,-0.010
8.002,-0.590,-0.010
8.004,-0.580,-0.015
8.006,-0.410,-0.025
8.008,-0.375,-0.030
8.010,-0.395,-0.040
8.012,-0.265,-0.045
8.014,-0.295,-0.050
8.016,-0.485,-0.045
8.018,-0.495,-0.040
8.020,-0.495,-0.035
8.022,-0.615,-0.030
8.024,-0.570,-0.025
8.026,-0.410,-0.025
8.028,-0.365,-0.030
8.030,-0.375,-0.040
8.032,-0.265,-0.045
8.034,-0.370,-0.055
8.036,-0.480,-0.060
8.038,-0.555,-0.060
8.040,-0.575,-0.055
8.042,-0.555,-0.050
8.044,-0.510,-0.040
8.046,-0.460,-0.035
8.048,-0.420,-0.030
8.050,-0.315,-0.025
8.052,-0.310,-0.025
8.054,-0.365,-0.030
8.056,-0.435,-0.035
8.058,-0.500,-0.045
8.060,-0.580,-0.050
8.062,-0.670,-0.050
8.064,-0.515,-0.055
8.066,-0.445,-0.055
8.068,-0.400,-0.055
8.070,-0.345,-0.055
8.072,-0.265,-0.050
8.074,-0.380,-0.050
8.076,-0.505,-0.045
8.078,-0.510,-0.035
8.080,-0.560,-0.030
8.082,-0.590,-0.025
8.084,-0.505,-0.020
8.086,-0.425,-0.015
8.088,-0.295,-0.020
8.090,-0.320,-0.020
8.092,-0.280,-0.025
8.094,-0.345,-0.030
8.096,-0.400,-0.030
8.098,-0.565,-0.035
8.100,-0.590,-0.030
8.102,-0.515,-0.025
8.104,-0.465,-0.020
8.106,-0.340,-0.010
8.108,-0.395,0.000
8.110,-0.290,0.005
8.112,-0.180,0.010
8.114,-0.290,0.010
8.116,-0.365,0.010
8.118,-0.520,0.005
8.120,-0.540,-0.005
8.122,-0.595,-0.010
8.124,-0.580,-0.015
8.126,-0.390,-0.020
8.128,-0.315,-0.030
8.130,-0.245,-0.035
8.132,-0.265,-0.040
8.134,-0.400,-0.045
8.136,-0.500,-0.050
8.138,-0.570,-0.055
8.140,-0.610,-0.060
8.142,-0.635,-0.065
8.144,-0.515,-0.065
8.146,-0.425,-0.070
8.148,-0.385,-0.070
8.150,-0.315,-0.065
8.152,-0.315,-0.065
8.154,-0.350,-0.060
8.156,-0.485,-0.055
8.158,-0.535,-0.050
8.160,-0.575,-0.045
8.162,-0.565,-0.045
8.164,-0.560,-0.040
8.166,-0.345,-0.045
8.168,-0.370,-0.050
8.170,-0.310,-0.055
8.172,-0.320,-0.065
8.174,-0.460,-0.075
8.176,-0.530,-0.080
8.178,-0.530,-0.080
8.180,-0.625,-0.080
8.182,-0.620,-0.075
8.184,-0.500,-0.065
8.186,-0.430,-0.060
8.188,-0.390,-0.055
8.190,-0.295,-0.050
8.192,-0.335,-0.055
8.194,-0.445,-0.060
8.196,-0.485,-0.065
8.198,-0.580,-0.070
8.200,-0.570,-0.075
8.202,-0.625,-0.075
8.204,-0.465,-0.075
8.206,-0.360,-0.065
8.208,-0.475,-0.060
8.210,-0.285,-0.050
8.212,-0.340,-0.050
8.214,-0.355,-0.045
8.216,-0.500,-0.050
8.218,-0.535,-0.055
8.220,-0.625,-0.060
8.222,-0.550,-0.070
8.224,-0.550,-0.075
8.226,-0.410,-0.075
8.228,-0.345,-0.075
8.230,-0.325,-0.065
8.232,-0.335,-0.060
8.234,-0.385,-0.050
8.236,-0.485,-0.045
8.238,-0.540,-0.035
8.240,-0.585,-0.035
8.242,-0.510,-0.030
8.244,-0.475,-0.035
8.246,-0.400,-0.040
8.248,-0.330,-0.040
8.250,-0.255,-0.045
8.252,-0.315,-0.040
8.254,-0.400,-0.035
8.256,-0.490,-0.020
8.258,-0.495,0.000
8.260,-0.500,0.020
8.262,-0.480,0.050
8.264,-0.330,0.075
8.266,-0.195,0.100
8.268,-0.185,0.125
8.270,-0.075,0.145
8.272,-0.195,0.160
8.274,-0.215,0.175
8.276,-0.175,0.185
8.278,-0.185,0.195
8.280,-0.375,0.195
8.282,-0.330,0.195
8.284,-0.225,0.185
8.286,-0.180,0.170
8.288,-0.150,0.145
8.290,-0.125,0.115
8.292,-0.255,0.075
8.294,-0.360,0.030
8.296,-0.390,-0.010
8.298,-0.595,-0.050
8.300,-0.640,-0.080
8.302,-0.575,-0.095
8.304,-0.555,-0.105
8.306,-0.475,-0.105
8.308,-0.355,-0.095
8.310,-0.280,-0.085
8.312,-0.370,-0.070
8.314,-0.445,-0.065
8.316,-0.500,-0.060
8.318,-0.515,-0.060
8.320,-0.650,-0.060
8.322,-0.555,-0.060
8.324,-0.470,-0.065
8.326,-0.365,-0.060
8.328,-0.345,-0.060
8.330,-0.265,-0.050
8.332,-0.305,-0.045
8.334,-0.435,-0.040
8.336,-0.485,-0.035
8.338,-0.515,-0.030
8.340,-0.590,-0.030
8.342,-0.540,-0.035
8.344,-0.475,-0.040
8.346,-0.360,-0.045
8.348,-0.310,-0.050
8.350,-0.300,-0.055
8.352,-0.335,-0.055
8.354,-0.435,-0.055
8.356,-0.505,-0.055
8.358,-0.530,-0.055
8.360,-0.595,-0.050
8.362,-0.520,-0.045
8.364,-0.445,-0.040
8.366,-0.390,-0.040
8.368,-0.365,-0.040
8.370,-0.290,-0.040
8.372,-0.330,-0.040
8.374,-0.450,-0.045
8.376,-0.480,-0.045
8.378,-0.475,-0.045
8.380,-0.600,-0.040
8.382,-0.550,-0.035
8.384,-0.430,-0.030
8.386,-0.310,-0.020
8.388,-0.275,-0.015
8.390,-0.290,-0.010
8.392,-0.305,-0.010
8.394,-0.425,-0.010
8.396,-0.520,-0.015
8.398,-0.530,-0.020
8.400,-0.560,-0.025
8.402,-0.465,-0.030
8.404,-0.455,-0.030
8.406,-0.330,-0.025
8.408,-0.320,-0.025
8.410,-0.230,-0.020
8.412,-0.325,-0.020
8.414,-0.445,-0.015
8.416,-0.525,-0.015
8.418,-0.515,-0.020
8.420,-0.560,-0.020
8.422,-0.480,-0.020
8.424,-0.400,-0.015
8.426,-0.335,-0.010
8.428,-0.320,-0.005
8.430,-0.205,0.000
8.432,-0.320,0.005
8.434,-0.420,0.005
8.436,-0.595,0.005
8.438,-0.500,0.005
8.440,-0.520,0.000
8.442,-0.445,0.000
8.444,-0.350,0.000
8.446,-0.260,0.005
8.448,-0.240,0.010
8.450,-0.310,0.015
8.452,-0.325,0.025
8.454,-0.350,0.030
8.456,-0.490,0.030
8.458,-0.505,0.030
8.460,-0.480,0.025
8.462,-0.445,0.025
8.464,-0.335,0.025
8.466,-0.250,0.025
8.468,-0.225,0.030
8.470,-0.245,0.040
8.472,-0.285,0.050
8.474,-0.375,0.060
8.476,-0.365,0.070
8.478,-0.480,0.075
8.480,-0.440,0.075
8.482,-0.395,0.075
8.484,-0.310,0.080
8.486,-0.205,0.080
8.488,-0.145,0.090
8.490,-0.120,0.100
8.492,-0.155,0.115
8.494,-0.305,0.125
8.496,-0.360,0.140
8.498,-0.400,0.150
8.500,-0.360,0.155
8.502,-0.305,0.155
8.504,-0.255,0.155
8.506,-0.145,0.150
8.508,-0.090,0.150
8.510,-0.115,0.150
8.512,-0.190,0.155
8.514,-0.210,0.160
8.516,-0.325,0.165
8.518,-0.430,0.170
8.520,-0.390,0.175
8.522,-0.360,0.175
8.524,-0.165,0.170
8.526,-0.015,0.170
8.528,-0.065,0.165
8.530,-0.075,0.165
8.532,-0.230,0.170
8.534,-0.245,0.175
8.536,-0.350,0.185
8.538,-0.345,0.195
8.540,-0.340,0.200
8.542,-0.275,0.195
8.544,-0.230,0.185
8.546,-0.155,0.170
8.548,-0.095,0.150
8.550,-0.135,0.130
8.552,-0.250,0.115
8.554,-0.335,0.100
8.556,-0.375,0.095
8.558,-0.405,0.095
8.560,-0.445,0.100
8.562,-0.335,0.105
8.564,-0.270,0.105
8.566,-0.250,0.100
8.568,-0.155,0.090
8.570,-0.225,0.075
8.572,-0.295,0.055
8.574,-0.435,0.035
8.576,-0.495,0.015
8.578,-0.535,0.005
8.580,-0.500,0.000
8.582,-0.465,-0.005
8.584,-0.340,0.000
8.586,-0.325,0.000
8.588,-0.210,0.000
8.590,-0.330,-0.005
8.592,-0.425,-0.010
8.594,-0.435,-0.015
8.596,-0.460,-0.025
8.598,-0.650,-0.030
8.600,-0.530,-0.035
8.602,-0.430,-0.035
8.604,-0.390,-0.035
8.606,-0.390,-0.030
8.608,-0.255,-0.025
8.610,-0.295,-0.025
8.612,-0.460,-0.025
8.614,-0.500,-0.025
8.616,-0.565,-0.025
8.618,-0.580,-0.030
8.620,-0.535,-0.030
8.622,-0.400,-0.030
8.624,-0.335,-0.030
8.626,-0.390,-0.035
8.628,-0.255,-0.035
8.630,-0.400,-0.035
8.632,-0.440,-0.040
8.634,-0.470,-0.045
8.636,-0.555,-0.050
8.638,-0.630,-0.050
8.640,-0.565,-0.050
8.642,-0.505,-0.050
8.644,-0.355,-0.045
8.646,-0.315,-0.040
8.648,-0.290,-0.030
8.650,-0.340,-0.025
8.652,-0.450,-0.020
8.654,-0.545,-0.015
8.656,-0.510,-0.015
8.658,-0.545,-0.015
8.660,-0.545,-0.020
8.662,-0.505,-0.025
8.664,-0.345,-0.030
8.666,-0.345,-0.040
8.668,-0.250,-0.050
8.670,-0.395,-0.055
8.672,-0.445,-0.060
8.674,-0.505,-0.060
8.676,-0.550,-0.055
8.678,-0.660,-0.050
8.680,-0.530,-0.040
8.682,-0.430,-0.030
8.684,-0.370,-0.020
8.686,-0.345,-0.015
8.688,-0.230,-0.010
8.690,-0.355,-0.010
8.692,-0.365,-0.010
8.694,-0.560,-0.015
8.696,-0.560,-0.020
8.698,-0.565,-0.025
8.700,-0.545,-0.030
8.702,-0.395,-0.030
8.704,-0.380,-0.025
8.706,-0.310,-0.025
8.708,-0.340,-0.020
8.710,-0.420,-0.015
8.712,-0.400,-0.015
8.714,-0.485,-0.010
8.716,-0.480,-0.005
8.718,-0.540,0.000
8.720,-0.475,0.005
8.722,-0.440,0.010
8.724,-0.310,0.010
8.726,-0.295,0.005
8.728,-0.330,-0.005
8.730,-0.365,-0.015
8.732,-0.465,-0.025
8.734,-0.475,-0.035
8.736,-0.580,-0.045
8.738,-0.560,-0.045
8.740,-0.565,-0.045
8.742,-0.460,-0.035
8.744,-0.325,-0.025
8.746,-0.320,-0.015
8.748,-0.300,-0.005
8.750,-0.350,0.000
8.752,-0.440,-0.005
8.754,-0.495,-0.005
8.756,-0.575,-0.015
8.758,-0.585,-0.020
8.760,-0.505,-0.025
8.762,-0.460,-0.025
8.764,-0.325,-0.025
8.766,-0.310,-0.020
8.768,-0.295,-0.015
8.770,-0.370,-0.010
8.772,-0.415,-0.005
8.774,-0.535,-0.005
8.776,-0.530,-0.010
8.778,-0.555,-0.015
8.780,-0.600,-0.020
8.782,-0.405,-0.025
8.784,-0.355,-0.030
8.786,-0.315,-0.030
8.788,-0.295,-0.025
8.790,-0.375,-0.025
8.792,-0.435,-0.020
8.794,-0.510,-0.015
8.796,-0.585,-0.010
8.798,-0.595,-0.010
8.800,-0.555,-0.015
8.802,-0.380,-0.015
8.804,-0.355,-0.015
8.806,-0.270,-0.015
8.808,-0.325,-0.015
8.810,-0.400,-0.015
8.812,-0.435,-0.010
8.814,-0.515,-0.005
8.816,-0.555,0.000
8.818,-0.510,0.005
8.820,-0.510,0.005
8.822,-0.390,0.000
8.824,-0.345,-0.005
8.826,-0.290,-0.015
8.828,-0.315,-0.020
8.830,-0.365,-0.025
8.832,-0.570,-0.030
8.834,-0.500,-0.025
8.836,-0.590,-0.020
8.838,-0.530,-0.010
8.840,-0.460,0.005
8.842,-0.410,0.015
8.844,-0.320,0.030
8.846,-0.190,0.035
8.848,-0.220,0.040
8.850,-0.365,0.040
8.852,-0.460,0.035
8.854,-0.525,0.025
8.856,-0.580,0.015
8.858,-0.530,0.005
8.860,-0.495,-0.005
8.862,-0.415,-0.015
8.864,-0.345,-0.025
8.866,-0.275,-0.030
8.868,-0.375,-0.035
8.870,-0.450,-0.040
8.872,-0.525,-0.040
8.874,-0.575,-0.040
8.876,-0.595,-0.040
8.878,-0.545,-0.040
8.880,-0.515,-0.040
8.882,-0.415,-0.040
8.884,-0.375,-0.045
8.886,-0.360,-0.045
8.888,-0.385,-0.045
8.890,-0.460,-0.050
8.892,-0.495,-0.050
8.894,-0.610,-0.050
8.896,-0.655,-0.050
8.898,-0.545,-0.050
8.900,-0.470,-0.045
8.902,-0.425,-0.045
8.904,-0.370,-0.045
8.906,-0.330,-0.045
8.908,-0.365,-0.045
8.910,-0.435,-0.045
8.912,-0.545,-0.050
8.914,-0.605,-0.045
8.916,-0.590,-0.045
8.918,-0.595,-0.045
8.920,-0.495,-0.040
8.922,-0.380,-0.035
8.924,-0.370,-0.035
8.926,-0.260,-0.030
8.928,-0.330,-0.030
8.930,-0.500,-0.030
8.932,-0.570,-0.035
8.934,-0.625,-0.035
8.936,-0.690,-0.035
8.938,-0.530,-0.040
8.940,-0.375,-0.035
8.942,-0.390,-0.035
8.944,-0.375,-0.035
8.946,-0.360,-0.035
8.948,-0.320,-0.035
8.950,-0.470,-0.035
8.952,-0.590,-0.035
8.954,-0.595,-0.035
8.956,-0.625,-0.035
8.958,-0.520,-0.035
8.960,-0.485,-0.030
8.962,-0.410,-0.025
8.964,-0.380,-0.020
8.966,-0.295,-0.015
8.968,-0.345,-0.010
8.970,-0.460,-0.010
8.972,-0.555,-0.010
8.974,-0.535,-0.015
8.976,-0.585,-0.025
8.978,-0.610,-0.030
8.980,-0.495,-0.040
8.982,-0.380,-0.045
8.984,-0.380,-0.040
8.986,-0.290,-0.035
8.988,-0.365,-0.025
8.990,-0.425,-0.005
8.992,-0.480,0.020
8.994,-0.495,0.045
8.996,-0.570,0.070
8.998,-0.400,0.095
9.000,-0.330,0.115
9.002,-0.265,0.135
9.004,-0.145,0.150
9.006,-0.130,0.165
9.008,-0.225,0.175
9.010,-0.185,0.185
9.012,-0.235,0.195
9.014,-0.260,0.200
9.016,-0.425,0.210
9.018,-0.395,0.210
9.020,-0.220,0.205
9.022,-0.175,0.190
9.024,-0.165,0.165
9.026,-0.120,0.135
9.028,-0.255,0.095
9.030,-0.400,0.050
9.032,-0.570,0.010
9.034,-0.600,-0.030
9.036,-0.630,-0.060
9.038,-0.640,-0.080
9.040,-0.525,-0.085
9.042,-0.430,-0.080
9.044,-0.405,-0.070
9.046,-0.335,-0.055
9.048,-0.385,-0.040
9.050,-0.490,-0.030
9.052,-0.555,-0.025
9.054,-0.550,-0.030
9.056,-0.665,-0.035
9.058,-0.545,-0.045
9.060,-0.490,-0.050
9.062,-0.415,-0.060
9.064,-0.340,-0.060
9.066,-0.360,-0.055
9.068,-0.390,-0.050
9.070,-0.530,-0.040
9.072,-0.595,-0.030
9.074,-0.535,-0.020
9.076,-0.595,-0.010
9.078,-0.505,-0.005
9.080,-0.420,0.000
9.082,-0.415,0.000
9.084,-0.295,0.000
9.086,-0.325,0.000
9.088,-0.380,0.000
9.090,-0.480,-0.005
9.092,-0.560,-0.005
9.094,-0.585,-0.010
9.096,-0.600,-0.015
9.098,-0.555,-0.020
9.100,-0.445,-0.025
9.102,-0.370,-0.035
9.104,-0.365,-0.040
9.106,-0.365,-0.040
9.108,-0.395,-0.040
9.110,-0.500,-0.040
9.112,-0.575,-0.030
9.114,-0.620,-0.025
9.116,-0.575,-0.010
9.118,-0.475,0.000
9.120,-0.415,0.005
9.122,-0.365,0.010
9.124,-0.340,0.010
9.126,-0.305,0.005
9.128,-0.400,0.000
9.130,-0.460,-0.010
9.132,-0.575,-0.020
9.134,-0.595,-0.025
9.136,-0.565,-0.030
9.138,-0.485,-0.025
9.140,-0.420,-0.015
9.142,-0.370,-0.005
9.144,-0.320,0.005
9.146,-0.300,0.010
9.148,-0.365,0.015
9.150,-0.510,0.015
9.152,-0.500,0.015
9.154,-0.605,0.005
9.156,-0.550,0.000
9.158,-0.505,-0.005
9.160,-0.375,-0.010
9.162,-0.415,-0.010
9.164,-0.315,-0.005
9.166,-0.260,0.000
9.168,-0.400,0.010
9.170,-0.505,0.015
9.172,-0.535,0.020
9.174,-0.575,0.025
9.176,-0.515,0.025
9.178,-0.510,0.030
9.180,-0.370,0.030
9.182,-0.285,0.035
9.184,-0.170,0.035
9.186,-0.260,0.035
9.188,-0.415,0.040
9.190,-0.500,0.040
9.192,-0.510,0.035
9.194,-0.560,0.035
9.196,-0.515,0.035
9.198,-0.515,0.030
9.200,-0.350,0.035
9.202,-0.280,0.040
9.204,-0.225,0.050
9.206,-0.245,0.065
9.208,-0.280,0.080
9.210,-0.400,0.090
9.212,-0.460,0.100
9.214,-0.525,0.110
9.216,-0.500,0.110
9.218,-0.365,0.110
9.220,-0.270,0.110
9.222,-0.185,0.110
9.224,-0.165,0.115
9.226,-0.190,0.120
9.228,-0.360,0.130
9.230,-0.330,0.145
9.232,-0.420,0.160
9.234,-0.405,0.175
9.236,-0.385,0.185
9.238,-0.340,0.190
9.240,-0.185,0.195
9.242,-0.140,0.195
9.244,-0.070,0.195
9.246,-0.130,0.195
9.248,-0.255,0.195
9.250,-0.305,0.200
9.252,-0.300,0.200
9.254,-0.450,0.205
9.256,-0.375,0.205
9.258,-0.230,0.200
9.260,-0.175,0.195
9.262,-0.165,0.190
9.264,-0.060,0.185
9.266,-0.220,0.185
9.268,-0.270,0.185
9.270,-0.295,0.185
9.272,-0.365,0.185
9.274,-0.435,0.190
9.276,-0.325,0.190
9.278,-0.285,0.185
9.280,-0.225,0.180
9.282,-0.230,0.170
9.284,-0.125,0.160
9.286,-0.255,0.145
9.288,-0.265,0.135
9.290,-0.365,0.125
9.292,-0.400,0.120
9.294,-0.495,0.115
9.296,-0.385,0.110
9.298,-0.385,0.100
9.300,-0.280,0.095
9.302,-0.345,0.080
9.304,-0.255,0.065
9.306,-0.290,0.050
9.308,-0.390,0.030
9.310,-0.510,0.015
9.312,-0.550,0.000
9.314,-0.570,-0.005
9.316,-0.530,-0.015
9.318,-0.440,-0.015
9.320,-0.335,-0.015
9.322,-0.395,-0.015
9.324,-0.385,-0.010
9.326,-0.315,-0.010
9.328,-0.430,-0.005
9.330,-0.530,0.000
9.332,-0.610,0.000
9.334,-0.590,0.005
9.336,-0.520,0.010
9.338,-0.445,0.010
9.340,-0.365,0.005
9.342,-0.320,0.000
9.344,-0.350,-0.010
9.346,-0.415,-0.025
9.348,-0.475,-0.040
9.350,-0.570,-0.055
9.352,-0.680,-0.070
9.354,-0.650,-0.075
9.356,-0.715,-0.080
9.358,-0.455,-0.075
9.360,-0.345,-0.065
9.362,-0.350,-0.050
9.364,-0.385,-0.035
9.366,-0.390,-0.020
9.368,-0.490,-0.010
9.370,-0.580,-0.010
9.372,-0.575,-0.010
9.374,-0.605,-0.015
9.376,-0.580,-0.025
9.378,-0.450,-0.040
9.380,-0.395,-0.055
9.382,-0.395,-0.065
9.384,-0.380,-0.075
9.386,-0.425,-0.080
9.388,-0.515,-0.085
9.390,-0.585,-0.085
9.392,-0.690,-0.080
9.394,-0.675,-0.075
9.396,-0.570,-0.065
9.398,-0.480,-0.055
9.400,-0.335,-0.040
9.402,-0.340,-0.025
9.404,-0.280,-0.010
9.406,-0.425,0.000
9.408,-0.430,0.010
9.410,-0.555,0.015
9.412,-0.520,0.020
9.414,-0.590,0.020
9.416,-0.485,0.015
9.418,-0.410,0.015
9.420,-0.370,0.010
9.422,-0.275,0.010
9.424,-0.285,0.010
9.426,-0.370,0.015
9.428,-0.395,0.015
9.430,-0.475,0.015
9.432,-0.625,0.015
9.434,-0.545,0.010
9.436,-0.525,0.010
9.438,-0.430,0.005
9.440,-0.325,0.005
9.442,-0.310,0.005
9.444,-0.260,0.005
9.446,-0.345,0.010
9.448,-0.475,0.020
9.450,-0.535,0.025
9.452,-0.575,0.030
9.454,-0.580,0.035
9.456,-0.445,0.030
9.458,-0.390,0.025
9.460,-0.370,0.020
9.462,-0.280,0.015
9.464,-0.220,0.005
9.466,-0.295,0.000
9.468,-0.520,0.000
9.470,-0.595,0.005
9.472,-0.610,0.010
9.474,-0.505,0.015
9.476,-0.420,0.015
9.478,-0.420,0.015
9.480,-0.325,0.015
9.482,-0.220,0.010
9.484,-0.270,0.000
9.486,-0.420,-0.005
9.488,-0.515,-0.005
9.490,-0.530,-0.005
9.492,-0.675,0.000
9.494,-0.565,0.005
9.496,-0.405,0.015
9.498,-0.325,0.020
9.500,-0.255,0.020
9.502,-0.345,0.020
9.504,-0.330,0.015
9.506,-0.420,0.005
9.508,-0.505,-0.010
9.510,-0.475,-0.015
9.512,-0.620,-0.020
9.514,-0.600,-0.020
9.516,-0.485,-0.015
9.518,-0.360,0.000
9.520,-0.345,0.015
9.522,-0.210,0.025
9.524,-0.305,0.035
9.526,-0.350,0.035
9.528,-0.475,0.030
9.530,-0.525,0.020
9.532,-0.460,0.005
9.534,-0.615,-0.010
9.536,-0.485,-0.025
9.538,-0.510,-0.035
9.540,-0.315,-0.040
9.542,-0.250,-0.035
9.544,-0.245,-0.025
9.546,-0.495,-0.015
9.548,-0.535,0.000
9.550,-0.530,0.015
9.552,-0.590,0.030
9.554,-0.425,0.040
9.556,-0.305,0.045
9.558,-0.340,0.050
9.560,-0.260,0.050
9.562,-0.290,0.045
9.564,-0.300,0.040
9.566,-0.375,0.035
9.568,-0.495,0.025
9.570,-0.515,0.015
9.572,-0.620,0.010
9.574,-0.405,0.005
9.576,-0.425,0.005
9.578,-0.325,0.015
9.580,-0.380,0.030
9.582,-0.325,0.050
9.584,-0.185,0.075
9.586,-0.325,0.105
9.588,-0.210,0.130
9.590,-0.405,0.150
9.592,-0.470,0.165
9.594,-0.315,0.165
9.596,-0.320,0.160
9.598,-0.220,0.150
9.600,-0.160,0.140
9.602,-0.170,0.130
9.604,-0.225,0.125
9.606,-0.285,0.130
9.608,-0.350,0.135
9.610,-0.285,0.150
9.612,-0.360,0.165
9.614,-0.360,0.175
9.616,-0.335,0.175
9.618,-0.270,0.175
9.620,-0.135,0.160
9.622,-0.140,0.145
9.624,-0.190,0.125
9.626,-0.290,0.105
9.628,-0.390,0.090
9.630,-0.480,0.080
9.632,-0.580,0.080
9.634,-0.400,0.090
9.636,-0.275,0.105
9.638,-0.220,0.120
9.640,-0.200,0.135
9.642,-0.140,0.145
9.644,-0.120,0.150
9.646,-0.235,0.150
9.648,-0.365,0.145
9.650,-0.365,0.135
9.652,-0.470,0.125
9.654,-0.400,0.115
9.656,-0.300,0.110
9.658,-0.260,0.105
9.660,-0.165,0.100
9.662,-0.110,0.100
9.664,-0.160,0.100
9.666,-0.365,0.100
9.668,-0.520,0.095
9.670,-0.440,0.090
9.672,-0.420,0.085
9.674,-0.345,0.075
9.676,-0.385,0.065
9.678,-0.255,0.060
9.680,-0.165,0.060
9.682,-0.205,0.060
9.684,-0.320,0.060
9.686,-0.375,0.060
9.688,-0.430,0.065
9.690,-0.370,0.065
9.692,-0.510,0.065
9.694,-0.485,0.065
9.696,-0.385,0.065
9.698,-0.155,0.060
9.700,-0.210,0.065
9.702,-0.220,0.065
9.704,-0.250,0.065
9.706,-0.325,0.070
9.708,-0.450,0.070
9.710,-0.435,0.065
9.712,-0.520,0.060
9.714,-0.405,0.055
9.716,-0.395,0.045
9.718,-0.210,0.035
9.720,-0.240,0.030
9.722,-0.245,0.030
9.724,-0.265,0.035
9.726,-0.375,0.045
9.728,-0.435,0.055
9.730,-0.455,0.060
9.732,-0.495,0.060
9.734,-0.370,0.060
9.736,-0.305,0.045
9.738,-0.295,0.030
9.740,-0.320,0.005
9.742,-0.385,-0.015
9.744,-0.370,-0.030
9.746,-0.390,-0.035
9.748,-0.485,-0.035
9.750,-0.510,-0.025
9.752,-0.525,-0.010
9.754,-0.460,0.010
9.756,-0.395,0.035
9.758,-0.210,0.060
9.760,-0.180,0.085
9.762,-0.130,0.105
9.764,-0.215,0.130
9.766,-0.320,0.150
9.768,-0.325,0.170
9.770,-0.300,0.190
9.772,-0.170,0.210
9.774,-0.235,0.215
9.776,-0.170,0.215
9.778,-0.155,0.205
9.780,-0.160,0.175
9.782,-0.140,0.140
9.784,-0.125,0.090
9.786,-0.320,0.035
9.788,-0.525,-0.015
9.790,-0.670,-0.065
9.792,-0.605,-0.105
9.794,-0.600,-0.135
9.796,-0.510,-0.150
9.798,-0.450,-0.165
9.800,-0.420,-0.170
9.802,-0.465,-0.170
9.804,-0.515,-0.170
9.806,-0.580,-0.170
9.808,-0.640,-0.170
9.810,-0.710,-0.165
9.812,-0.635,-0.160
9.814,-0.615,-0.155
9.816,-0.525,-0.145
9.818,-0.375,-0.140
9.820,-0.335,-0.135
9.822,-0.355,-0.130
9.824,-0.500,-0.135
9.826,-0.540,-0.145
9.828,-0.665,-0.160
9.830,-0.740,-0.175
9.832,-0.710,-0.190
9.834,-0.665,-0.200
9.836,-0.535,-0.210
9.838,-0.460,-0.215
9.840,-0.415,-0.210
9.842,-0.455,-0.210
9.844,-0.500,-0.205
9.846,-0.690,-0.205
9.848,-0.675,-0.205
9.850,-0.770,-0.210
9.852,-0.675,-0.220
9.854,-0.570,-0.225
9.856,-0.595,-0.230
9.858,-0.570,-0.235
9.860,-0.445,-0.235
9.862,-0.535,-0.230
9.864,-0.515,-0.225
9.866,-0.625,-0.215
9.868,-0.715,-0.210
9.870,-0.735,-0.200
9.872,-0.595,-0.200
9.874,-0.635,-0.200
9.876,-0.520,-0.200
9.878,-0.540,-0.205
9.880,-0.390,-0.210
9.882,-0.440,-0.215
9.884,-0.565,-0.220
9.886,-0.670,-0.220
9.888,-0.730,-0.225
9.890,-0.805,-0.225
9.892,-0.680,-0.230
9.894,-0.555,-0.230
9.896,-0.490,-0.235
9.898,-0.565,-0.240
9.900,-0.420,-0.245
9.902,-0.555,-0.245
9.904,-0.630,-0.250
9.906,-0.625,-0.250
9.908,-0.675,-0.250
9.910,-0.795,-0.245
9.912,-0.650,-0.240
9.914,-0.620,-0.230
9.916,-0.585,-0.220
9.918,-0.525,-0.215
9.920,-0.390,-0.210
9.922,-0.425,-0.205
9.924,-0.580,-0.210
9.926,-0.575,-0.215
9.928,-0.685,-0.225
9.930,-0.840,-0.240
9.932,-0.690,-0.255
9.934,-0.710,-0.260
9.936,-0.520,-0.270
9.938,-0.495,-0.270
9.940,-0.480,-0.265
9.942,-0.520,-0.260
9.944,-0.585,-0.250
9.946,-0.700,-0.245
9.948,-0.685,-0.240
9.950,-0.750,-0.235
9.952,-0.665,-0.230
9.954,-0.565,-0.225
9.956,-0.515,-0.215
9.958,-0.500,-0.205
9.960,-0.385,-0.195
9.962,-0.510,-0.180
9.964,-0.470,-0.170
9.966,-0.510,-0.165
9.968,-0.580,-0.160
9.970,-0.725,-0.165
9.972,-0.665,-0.175
9.974,-0.505,-0.190
9.976,-0.525,-0.200
9.978,-0.445,-0.205
9.980,-0.350,-0.200
9.982,-0.380,-0.190
9.984,-0.510,-0.175
9.986,-0.690,-0.155
9.988,-0.655,-0.135
9.990,-0.525,-0.115
9.992,-0.565,-0.105
9.994,-0.395,-0.100
9.996,-0.385,-0.100
9.998,-0.380,-0.105
