'Elapsed time','ECG I','ECG I filtered'
'seconds','mV','mV'
0.000,-0.370,-0.035
0.002,-0.335,-0.030
0.004,-0.325,-0.025
0.006,-0.315,-0.020
0.008,-0.320,-0.015
0.010,-0.345,-0.010
0.012,-0.365,-0.010
0.014,-0.390,-0.015
0.016,-0.395,-0.015
0.018,-0.390,-0.015
0.020,-0.370,-0.015
0.022,-0.340,-0.015
0.024,-0.330,-0.015
0.026,-0.320,-0.015
0.028,-0.315,-0.010
0.030,-0.340,-0.010
0.032,-0.365,-0.010
0.034,-0.385,-0.005
0.036,-0.400,-0.010
0.038,-0.395,-0.010
0.040,-0.375,-0.010
0.042,-0.340,-0.015
0.044,-0.335,-0.020
0.046,-0.320,-0.025
0.048,-0.325,-0.030
0.050,-0.340,-0.030
0.052,-0.370,-0.035
0.054,-0.390,-0.035
0.056,-0.395,-0.035
0.058,-0.395,-0.035
0.060,-0.370,-0.035
0.062,-0.335,-0.030
0.064,-0.330,-0.030
0.066,-0.315,-0.030
0.068,-0.315,-0.030
0.070,-0.335,-0.025
0.072,-0.365,-0.025
0.074,-0.395,-0.025
0.076,-0.390,-0.025
0.078,-0.380,-0.025
0.080,-0.365,-0.025
0.082,-0.330,-0.020
0.084,-0.315,-0.015
0.086,-0.300,-0.015
0.088,-0.320,-0.015
0.090,-0.330,-0.015
0.092,-0.355,-0.015
0.094,-0.375,-0.020
0.096,-0.375,-0.020
0.098,-0.380,-0.025
0.100,-0.355,-0.025
0.102,-0.320,-0.025
0.104,-0.300,-0.025
0.106,-0.290,-0.025
0.108,-0.310,-0.020
0.110,-0.320,-0.020
0.112,-0.355,-0.015
0.114,-0.375,-0.015
0.116,-0.375,-0.015
0.118,-0.370,-0.015
0.120,-0.350,-0.020
0.122,-0.315,-0.020
0.124,-0.305,-0.020
0.126,-0.290,-0.020
0.128,-0.305,-0.015
0.130,-0.320,-0.015
0.132,-0.355,-0.010
0.134,-0.365,-0.010
0.136,-0.370,-0.010
0.138,-0.365,-0.010
0.140,-0.340,-0.015
0.142,-0.315,-0.015
0.144,-0.305,-0.020
0.146,-0.305,-0.025
0.148,-0.315,-0.025
0.150,-0.330,-0.030
0.152,-0.360,-0.030
0.154,-0.385,-0.025
0.156,-0.375,-0.025
0.158,-0.360,-0.020
0.160,-0.345,-0.015
0.162,-0.315,-0.010
0.164,-0.310,-0.005
0.166,-0.300,-0.005
0.168,-0.310,0.000
0.170,-0.335,0.000
0.172,-0.350,0.000
0.174,-0.365,-0.005
0.176,-0.380,-0.005
0.178,-0.360,-0.010
0.180,-0.340,-0.010
0.182,-0.315,-0.015
0.184,-0.305,-0.015
0.186,-0.295,-0.015
0.188,-0.310,-0.015
0.190,-0.340,-0.015
0.192,-0.370,-0.015
0.194,-0.380,-0.015
0.196,-0.370,-0.015
0.198,-0.360,-0.015
0.200,-0.345,-0.015
0.202,-0.320,-0.010
0.204,-0.305,-0.010
0.206,-0.305,-0.010
0.208,-0.315,-0.005
0.210,-0.340,-0.005
0.212,-0.365,-0.005
0.214,-0.375,-0.005
0.216,-0.370,-0.005
0.218,-0.360,-0.005
0.220,-0.340,-0.005
0.222,-0.315,-0.010
0.224,-0.305,-0.010
0.226,-0.305,-0.010
0.228,-0.315,-0.015
0.230,-0.345,-0.015
0.232,-0.370,-0.020
0.234,-0.385,-0.020
0.236,-0.370,-0.020
0.238,-0.360,-0.020
0.240,-0.335,-0.020
0.242,-0.315,-0.020
0.244,-0.315,-0.015
0.246,-0.305,-0.015
0.248,-0.320,-0.010
0.250,-0.345,-0.010
0.252,-0.365,-0.010
0.254,-0.380,-0.010
0.256,-0.375,-0.010
0.258,-0.365,-0.015
0.260,-0.345,-0.015
0.262,-0.320,-0.015
0.264,-0.305,-0.015
0.266,-0.310,-0.015
0.268,-0.310,-0.015
0.270,-0.345,-0.015
0.272,-0.370,-0.015
0.274,-0.385,-0.015
0.276,-0.370,-0.015
0.278,-0.360,-0.015
0.280,-0.310,-0.015
0.282,-0.295,-0.015
0.284,-0.290,-0.015
0.286,-0.285,-0.010
0.288,-0.290,-0.005
0.290,-0.305,0.000
0.292,-0.315,0.010
0.294,-0.325,0.015
0.296,-0.305,0.025
0.298,-0.275,0.030
0.300,-0.255,0.035
0.302,-0.240,0.040
0.304,-0.235,0.040
0.306,-0.235,0.040
0.308,-0.250,0.045
0.310,-0.290,0.045
0.312,-0.295,0.045
0.314,-0.320,0.045
0.316,-0.315,0.045
0.318,-0.290,0.045
0.320,-0.250,0.045
0.322,-0.230,0.045
0.324,-0.220,0.045
0.326,-0.220,0.045
0.328,-0.235,0.045
0.330,-0.275,0.045
0.332,-0.300,0.045
0.334,-0.315,0.045
0.336,-0.310,0.045
0.338,-0.295,0.045
0.340,-0.275,0.045
0.342,-0.270,0.040
0.344,-0.260,0.040
0.346,-0.265,0.035
0.348,-0.280,0.025
0.350,-0.320,0.020
0.352,-0.365,0.010
0.354,-0.390,0.000
0.356,-0.375,-0.010
0.358,-0.355,-0.020
0.360,-0.340,-0.025
0.362,-0.325,-0.030
0.364,-0.310,-0.035
0.366,-0.310,-0.035
0.368,-0.340,-0.040
0.370,-0.370,-0.040
0.372,-0.395,-0.040
0.374,-0.390,-0.040
0.376,-0.395,-0.040
0.378,-0.370,-0.040
0.380,-0.330,-0.045
0.382,-0.325,-0.045
0.384,-0.315,-0.050
0.386,-0.320,-0.050
0.388,-0.340,-0.050
0.390,-0.390,-0.050
0.392,-0.400,-0.050
0.394,-0.395,-0.050
0.396,-0.385,-0.045
0.398,-0.370,-0.040
0.400,-0.335,-0.035
0.402,-0.325,-0.035
0.404,-0.325,-0.030
0.406,-0.325,-0.025
0.408,-0.350,-0.020
0.410,-0.370,-0.020
0.412,-0.395,-0.020
0.414,-0.400,-0.025
0.416,-0.395,-0.025
0.418,-0.370,-0.030
0.420,-0.330,-0.030
0.422,-0.325,-0.035
0.424,-0.315,-0.035
0.426,-0.325,-0.035
0.428,-0.340,-0.035
0.430,-0.370,-0.035
0.432,-0.395,-0.040
0.434,-0.395,-0.050
0.436,-0.405,-0.055
0.438,-0.395,-0.065
0.440,-0.370,-0.075
0.442,-0.345,-0.075
0.444,-0.330,-0.060
0.446,-0.305,-0.035
0.448,-0.295,0.005
0.450,-0.275,0.060
0.452,-0.220,0.135
0.454,-0.135,0.215
0.456,-0.015,0.305
0.458,0.095,0.390
0.460,0.230,0.475
0.462,0.300,0.550
0.464,0.350,0.610
0.466,0.385,0.650
0.468,0.405,0.665
0.470,0.365,0.655
0.472,0.275,0.625
0.474,0.180,0.565
0.476,0.105,0.485
0.478,0.055,0.390
0.480,-0.025,0.285
0.482,-0.165,0.185
0.484,-0.255,0.090
0.486,-0.300,0.015
0.488,-0.345,-0.040
0.490,-0.410,-0.070
0.492,-0.435,-0.080
0.494,-0.410,-0.075
0.496,-0.370,-0.060
0.498,-0.345,-0.040
0.500,-0.325,-0.025
0.502,-0.320,-0.015
0.504,-0.315,-0.015
0.506,-0.325,-0.020
0.508,-0.355,-0.030
0.510,-0.390,-0.040
0.512,-0.405,-0.045
0.514,-0.410,-0.050
0.516,-0.380,-0.045
0.518,-0.350,-0.040
0.520,-0.325,-0.035
0.522,-0.320,-0.025
0.524,-0.315,-0.025
0.526,-0.330,-0.020
0.528,-0.365,-0.025
0.530,-0.385,-0.030
0.532,-0.395,-0.035
0.534,-0.395,-0.040
0.536,-0.375,-0.040
0.538,-0.345,-0.045
0.540,-0.330,-0.040
0.542,-0.310,-0.040
0.544,-0.315,-0.035
0.546,-0.330,-0.035
0.548,-0.360,-0.030
0.550,-0.370,-0.030
0.552,-0.390,-0.030
0.554,-0.380,-0.030
0.556,-0.365,-0.030
0.558,-0.325,-0.025
0.560,-0.325,-0.025
0.562,-0.315,-0.025
0.564,-0.305,-0.030
0.566,-0.315,-0.030
0.568,-0.350,-0.030
0.570,-0.375,-0.035
0.572,-0.390,-0.040
0.574,-0.385,-0.040
0.576,-0.360,-0.040
0.578,-0.325,-0.040
0.580,-0.305,-0.040
0.582,-0.300,-0.040
0.584,-0.300,-0.035
0.586,-0.315,-0.030
0.588,-0.340,-0.030
0.590,-0.355,-0.025
0.592,-0.370,-0.025
0.594,-0.365,-0.025
0.596,-0.350,-0.025
0.598,-0.320,-0.025
0.600,-0.305,-0.020
0.602,-0.290,-0.020
0.604,-0.300,-0.015
0.606,-0.310,-0.015
0.608,-0.340,-0.010
0.610,-0.355,-0.010
0.612,-0.355,-0.005
0.614,-0.345,-0.005
0.616,-0.335,-0.005
0.618,-0.300,-0.005
0.620,-0.295,-0.005
0.622,-0.290,-0.005
0.624,-0.280,-0.005
0.626,-0.305,-0.005
0.628,-0.330,-0.010
0.630,-0.350,-0.010
0.632,-0.355,-0.010
0.634,-0.345,-0.005
0.636,-0.325,-0.005
0.638,-0.290,-0.005
0.640,-0.280,0.000
0.642,-0.270,0.000
0.644,-0.265,0.005
0.646,-0.290,0.005
0.648,-0.315,0.000
0.650,-0.335,0.000
0.652,-0.335,0.000
0.654,-0.320,-0.005
0.656,-0.295,-0.005
0.658,-0.270,0.000
0.660,-0.260,0.005
0.662,-0.245,0.010
0.664,-0.240,0.020
0.666,-0.255,0.030
0.668,-0.280,0.040
0.670,-0.310,0.050
0.672,-0.300,0.055
0.674,-0.280,0.055
0.676,-0.265,0.060
0.678,-0.230,0.060
0.680,-0.210,0.060
0.682,-0.195,0.065
0.684,-0.200,0.065
0.686,-0.215,0.070
0.688,-0.245,0.075
0.690,-0.260,0.080
0.692,-0.250,0.085
0.694,-0.235,0.090
0.696,-0.225,0.090
0.698,-0.195,0.095
0.700,-0.175,0.095
0.702,-0.165,0.100
0.704,-0.175,0.100
0.706,-0.190,0.105
0.708,-0.220,0.110
0.710,-0.235,0.115
0.712,-0.225,0.120
0.714,-0.220,0.120
0.716,-0.210,0.125
0.718,-0.175,0.125
0.720,-0.165,0.120
0.722,-0.170,0.115
0.724,-0.175,0.115
0.726,-0.200,0.110
0.728,-0.235,0.105
0.730,-0.255,0.105
0.732,-0.250,0.100
0.734,-0.250,0.100
0.736,-0.240,0.100
0.738,-0.215,0.095
0.740,-0.210,0.090
0.742,-0.215,0.080
0.744,-0.230,0.075
0.746,-0.260,0.065
0.748,-0.300,0.050
0.750,-0.320,0.040
0.752,-0.340,0.030
0.754,-0.320,0.025
0.756,-0.295,0.015
0.758,-0.275,0.010
0.760,-0.270,0.005
0.762,-0.275,0.005
0.764,-0.290,0.000
0.766,-0.310,0.000
0.768,-0.355,-0.005
0.770,-0.375,-0.010
0.772,-0.380,-0.010
0.774,-0.375,-0.015
0.776,-0.335,-0.020
0.778,-0.315,-0.020
0.780,-0.305,-0.025
0.782,-0.310,-0.025
0.784,-0.325,-0.030
0.786,-0.345,-0.030
0.788,-0.375,-0.035
0.790,-0.390,-0.035
0.792,-0.390,-0.040
0.794,-0.380,-0.045
0.796,-0.355,-0.050
0.798,-0.330,-0.055
0.800,-0.320,-0.060
0.802,-0.315,-0.060
0.804,-0.340,-0.060
0.806,-0.370,-0.060
0.808,-0.385,-0.060
0.810,-0.405,-0.055
0.812,-0.395,-0.050
0.814,-0.385,-0.045
0.816,-0.355,-0.045
0.818,-0.340,-0.045
0.820,-0.330,-0.045
0.822,-0.325,-0.045
0.824,-0.340,-0.050
0.826,-0.375,-0.055
0.828,-0.390,-0.060
0.830,-0.410,-0.060
0.832,-0.405,-0.065
0.834,-0.395,-0.065
0.836,-0.365,-0.070
0.838,-0.350,-0.070
0.840,-0.340,-0.070
0.842,-0.350,-0.070
0.844,-0.365,-0.070
0.846,-0.390,-0.070
0.848,-0.395,-0.065
0.850,-0.415,-0.065
0.852,-0.420,-0.065
0.854,-0.390,-0.065
0.856,-0.370,-0.060
0.858,-0.345,-0.060
0.860,-0.340,-0.060
0.862,-0.340,-0.065
0.864,-0.355,-0.065
0.866,-0.390,-0.070
0.868,-0.405,-0.070
0.870,-0.415,-0.075
0.872,-0.410,-0.075
0.874,-0.380,-0.075
0.876,-0.350,-0.070
0.878,-0.330,-0.070
0.880,-0.330,-0.065
0.882,-0.330,-0.065
0.884,-0.340,-0.060
0.886,-0.375,-0.060
0.888,-0.395,-0.060
0.890,-0.405,-0.060
0.892,-0.400,-0.060
0.894,-0.375,-0.060
0.896,-0.330,-0.055
0.898,-0.325,-0.055
0.900,-0.310,-0.050
0.902,-0.315,-0.045
0.904,-0.335,-0.040
0.906,-0.375,-0.040
0.908,-0.380,-0.035
0.910,-0.385,-0.035
0.912,-0.375,-0.035
0.914,-0.365,-0.035
0.916,-0.330,-0.040
0.918,-0.320,-0.040
0.920,-0.305,-0.040
0.922,-0.310,-0.040
0.924,-0.325,-0.040
0.926,-0.365,-0.040
0.928,-0.380,-0.040
0.930,-0.375,-0.040
0.932,-0.365,-0.040
0.934,-0.350,-0.040
0.936,-0.320,-0.045
0.938,-0.325,-0.045
0.940,-0.315,-0.050
0.942,-0.310,-0.050
0.944,-0.325,-0.050
0.946,-0.360,-0.045
0.948,-0.375,-0.045
0.950,-0.375,-0.040
0.952,-0.370,-0.035
0.954,-0.350,-0.030
0.956,-0.320,-0.030
0.958,-0.305,-0.030
0.960,-0.305,-0.030
0.962,-0.310,-0.030
0.964,-0.325,-0.035
0.966,-0.360,-0.035
0.968,-0.380,-0.035
0.970,-0.375,-0.040
0.972,-0.360,-0.040
0.974,-0.355,-0.035
0.976,-0.320,-0.035
0.978,-0.310,-0.035
0.980,-0.300,-0.035
0.982,-0.320,-0.035
0.984,-0.335,-0.035
0.986,-0.365,-0.035
0.988,-0.385,-0.040
0.990,-0.390,-0.040
0.992,-0.370,-0.040
0.994,-0.355,-0.040
0.996,-0.330,-0.045
0.998,-0.310,-0.045
1.000,-0.315,-0.040
1.002,-0.315,-0.040
1.004,-0.325,-0.040
1.006,-0.360,-0.040
1.008,-0.390,-0.040
1.010,-0.385,-0.040
1.012,-0.360,-0.040
1.014,-0.355,-0.040
1.016,-0.320,-0.040
1.018,-0.310,-0.040
1.020,-0.315,-0.040
1.022,-0.330,-0.045
1.024,-0.330,-0.040
1.026,-0.370,-0.040
1.028,-0.380,-0.040
1.030,-0.385,-0.040
1.032,-0.385,-0.040
1.034,-0.350,-0.040
1.036,-0.310,-0.040
1.038,-0.305,-0.040
1.040,-0.300,-0.040
1.042,-0.315,-0.040
1.044,-0.335,-0.035
1.046,-0.365,-0.035
1.048,-0.380,-0.035
1.050,-0.385,-0.035
1.052,-0.365,-0.035
1.054,-0.345,-0.035
1.056,-0.310,-0.035
1.058,-0.305,-0.035
1.060,-0.300,-0.035
1.062,-0.320,-0.035
1.064,-0.335,-0.035
1.066,-0.360,-0.035
1.068,-0.370,-0.035
1.070,-0.375,-0.030
1.072,-0.360,-0.030
1.074,-0.340,-0.025
1.076,-0.305,-0.025
1.078,-0.300,-0.030
1.080,-0.305,-0.030
1.082,-0.315,-0.035
1.084,-0.350,-0.035
1.086,-0.365,-0.040
1.088,-0.380,-0.045
1.090,-0.380,-0.045
1.092,-0.355,-0.045
1.094,-0.325,-0.050
1.096,-0.310,-0.050
1.098,-0.300,-0.045
1.100,-0.300,-0.045
1.102,-0.315,-0.040
1.104,-0.335,-0.040
1.106,-0.360,-0.035
1.108,-0.370,-0.035
1.110,-0.365,-0.035
1.112,-0.345,-0.035
1.114,-0.325,-0.035
1.116,-0.320,-0.035
1.118,-0.305,-0.040
1.120,-0.305,-0.040
1.122,-0.310,-0.045
1.124,-0.350,-0.050
1.126,-0.365,-0.050
1.128,-0.375,-0.050
1.130,-0.365,-0.050
1.132,-0.360,-0.045
1.134,-0.320,-0.040
1.136,-0.305,-0.040
1.138,-0.295,-0.035
1.140,-0.310,-0.030
1.142,-0.320,-0.030
1.144,-0.345,-0.030
1.146,-0.355,-0.030
1.148,-0.365,-0.030
1.150,-0.360,-0.035
1.152,-0.335,-0.035
1.154,-0.300,-0.035
1.156,-0.275,-0.030
1.158,-0.260,-0.025
1.160,-0.265,-0.015
1.162,-0.265,-0.010
1.164,-0.295,0.000
1.166,-0.305,0.010
1.168,-0.310,0.015
1.170,-0.300,0.020
1.172,-0.280,0.025
1.174,-0.250,0.025
1.176,-0.240,0.025
1.178,-0.230,0.020
1.180,-0.235,0.020
1.182,-0.250,0.020
1.184,-0.290,0.020
1.186,-0.315,0.020
1.188,-0.320,0.020
1.190,-0.315,0.025
1.192,-0.285,0.025
1.194,-0.245,0.030
1.196,-0.235,0.030
1.198,-0.220,0.030
1.200,-0.220,0.030
1.202,-0.230,0.030
1.204,-0.270,0.030
1.206,-0.300,0.030
1.208,-0.310,0.030
1.210,-0.310,0.030
1.212,-0.290,0.035
1.214,-0.265,0.035
1.216,-0.255,0.030
1.218,-0.260,0.025
1.220,-0.260,0.020
1.222,-0.270,0.015
1.224,-0.310,0.005
1.226,-0.345,0.000
1.228,-0.365,-0.010
1.230,-0.370,-0.015
1.232,-0.350,-0.020
1.234,-0.320,-0.025
1.236,-0.310,-0.025
1.238,-0.300,-0.025
1.240,-0.315,-0.025
1.242,-0.330,-0.025
1.244,-0.365,-0.030
1.246,-0.390,-0.030
1.248,-0.395,-0.035
1.250,-0.365,-0.035
1.252,-0.350,-0.040
1.254,-0.320,-0.040
1.256,-0.320,-0.045
1.258,-0.305,-0.045
1.260,-0.320,-0.050
1.262,-0.340,-0.050
1.264,-0.365,-0.045
1.266,-0.395,-0.045
1.268,-0.390,-0.045
1.270,-0.375,-0.040
1.272,-0.360,-0.035
1.274,-0.335,-0.030
1.276,-0.325,-0.030
1.278,-0.315,-0.030
1.280,-0.320,-0.030
1.282,-0.335,-0.035
1.284,-0.370,-0.040
1.286,-0.400,-0.045
1.288,-0.390,-0.050
1.290,-0.365,-0.050
1.292,-0.355,-0.055
1.294,-0.320,-0.050
1.296,-0.310,-0.050
1.298,-0.305,-0.045
1.300,-0.315,-0.045
1.302,-0.335,-0.045
1.304,-0.375,-0.045
1.306,-0.400,-0.050
1.308,-0.410,-0.060
1.310,-0.390,-0.065
1.312,-0.370,-0.065
1.314,-0.340,-0.060
1.316,-0.300,-0.040
1.318,-0.270,-0.005
1.320,-0.220,0.045
1.322,-0.170,0.110
1.324,-0.115,0.195
1.326,-0.035,0.280
1.328,0.075,0.375
1.330,0.180,0.465
1.332,0.285,0.545
1.334,0.365,0.610
1.336,0.425,0.655
1.338,0.460,0.675
1.340,0.450,0.665
1.342,0.365,0.635
1.344,0.245,0.575
1.346,0.135,0.500
1.348,0.060,0.405
1.350,-0.025,0.310
1.352,-0.140,0.215
1.354,-0.230,0.125
1.356,-0.255,0.050
1.358,-0.290,-0.005
1.360,-0.320,-0.040
1.362,-0.345,-0.060
1.364,-0.360,-0.065
1.366,-0.370,-0.060
1.368,-0.365,-0.045
1.370,-0.355,-0.035
1.372,-0.335,-0.030
1.374,-0.315,-0.030
1.376,-0.295,-0.030
1.378,-0.305,-0.040
1.380,-0.315,-0.045
1.382,-0.350,-0.055
1.384,-0.365,-0.060
1.386,-0.390,-0.060
1.388,-0.380,-0.060
1.390,-0.360,-0.060
1.392,-0.330,-0.055
1.394,-0.315,-0.050
1.396,-0.305,-0.050
1.398,-0.300,-0.050
1.400,-0.310,-0.055
1.402,-0.355,-0.055
1.404,-0.365,-0.060
1.406,-0.375,-0.060
1.408,-0.375,-0.060
1.410,-0.355,-0.060
1.412,-0.330,-0.055
1.414,-0.315,-0.050
1.416,-0.300,-0.045
1.418,-0.290,-0.045
1.420,-0.315,-0.040
1.422,-0.340,-0.035
1.424,-0.360,-0.035
1.426,-0.370,-0.035
1.428,-0.370,-0.035
1.430,-0.340,-0.035
1.432,-0.310,-0.035
1.434,-0.295,-0.035
1.436,-0.285,-0.040
1.438,-0.285,-0.040
1.440,-0.305,-0.040
1.442,-0.335,-0.045
1.444,-0.355,-0.045
1.446,-0.365,-0.045
1.448,-0.355,-0.050
1.450,-0.335,-0.050
1.452,-0.305,-0.050
1.454,-0.290,-0.050
1.456,-0.275,-0.050
1.458,-0.285,-0.045
1.460,-0.300,-0.045
1.462,-0.335,-0.045
1.464,-0.355,-0.040
1.466,-0.355,-0.040
1.468,-0.350,-0.040
1.470,-0.330,-0.040
1.472,-0.310,-0.035
1.474,-0.290,-0.035
1.476,-0.275,-0.035
1.478,-0.280,-0.030
1.480,-0.295,-0.030
1.482,-0.320,-0.025
1.484,-0.340,-0.025
1.486,-0.360,-0.020
1.488,-0.340,-0.015
1.490,-0.320,-0.015
1.492,-0.290,-0.010
1.494,-0.280,-0.010
1.496,-0.265,-0.005
1.498,-0.270,-0.005
1.500,-0.275,-0.005
1.502,-0.310,-0.010
1.504,-0.330,-0.010
1.506,-0.335,-0.010
1.508,-0.330,-0.010
1.510,-0.305,-0.010
1.512,-0.270,-0.010
1.514,-0.250,-0.005
1.516,-0.235,0.000
1.518,-0.240,0.005
1.520,-0.260,0.010
1.522,-0.290,0.020
1.524,-0.320,0.025
1.526,-0.310,0.030
1.528,-0.290,0.035
1.530,-0.270,0.035
1.532,-0.240,0.035
1.534,-0.230,0.035
1.536,-0.215,0.035
1.538,-0.215,0.040
1.540,-0.230,0.040
1.542,-0.265,0.045
1.544,-0.270,0.050
1.546,-0.265,0.055
1.548,-0.255,0.060
1.550,-0.235,0.060
1.552,-0.200,0.065
1.554,-0.180,0.065
1.556,-0.170,0.065
1.558,-0.175,0.070
1.560,-0.190,0.070
1.562,-0.220,0.075
1.564,-0.235,0.080
1.566,-0.225,0.090
1.568,-0.215,0.095
1.570,-0.195,0.105
1.572,-0.160,0.110
1.574,-0.145,0.115
1.576,-0.145,0.120
1.578,-0.145,0.120
1.580,-0.165,0.120
1.582,-0.205,0.120
1.584,-0.220,0.115
1.586,-0.215,0.115
1.588,-0.210,0.110
1.590,-0.175,0.110
1.592,-0.150,0.105
1.594,-0.145,0.105
1.596,-0.150,0.100
1.598,-0.160,0.095
1.600,-0.190,0.095
1.602,-0.210,0.090
1.604,-0.235,0.085
1.606,-0.240,0.080
1.608,-0.225,0.080
1.610,-0.220,0.075
1.612,-0.205,0.075
1.614,-0.185,0.070
1.616,-0.185,0.065
1.618,-0.215,0.060
1.620,-0.235,0.055
1.622,-0.270,0.050
1.624,-0.295,0.045
1.626,-0.300,0.045
1.628,-0.290,0.040
1.630,-0.270,0.035
1.632,-0.260,0.030
1.634,-0.250,0.025
1.636,-0.255,0.020
1.638,-0.265,0.015
1.640,-0.290,0.010
1.642,-0.320,0.000
1.644,-0.340,-0.005
1.646,-0.340,-0.010
1.648,-0.335,-0.010
1.650,-0.310,-0.015
1.652,-0.290,-0.020
1.654,-0.275,-0.020
1.656,-0.285,-0.025
1.658,-0.290,-0.030
1.660,-0.325,-0.035
1.662,-0.340,-0.040
1.664,-0.360,-0.045
1.666,-0.355,-0.050
1.668,-0.330,-0.050
1.670,-0.305,-0.050
1.672,-0.295,-0.045
1.674,-0.295,-0.045
1.676,-0.290,-0.040
1.678,-0.295,-0.040
1.680,-0.325,-0.040
1.682,-0.355,-0.040
1.684,-0.370,-0.040
1.686,-0.360,-0.045
1.688,-0.330,-0.045
1.690,-0.315,-0.050
1.692,-0.310,-0.050
1.694,-0.285,-0.045
1.696,-0.285,-0.040
1.698,-0.305,-0.040
1.700,-0.345,-0.035
1.702,-0.355,-0.035
1.704,-0.370,-0.035
1.706,-0.375,-0.035
1.708,-0.355,-0.040
1.710,-0.315,-0.045
1.712,-0.300,-0.050
1.714,-0.300,-0.055
1.716,-0.295,-0.055
1.718,-0.305,-0.060
1.720,-0.350,-0.060
1.722,-0.360,-0.060
1.724,-0.375,-0.060
1.726,-0.375,-0.060
1.728,-0.350,-0.060
1.730,-0.320,-0.060
1.732,-0.310,-0.060
1.734,-0.300,-0.060
1.736,-0.310,-0.060
1.738,-0.320,-0.060
1.740,-0.355,-0.055
1.742,-0.370,-0.055
1.744,-0.370,-0.050
1.746,-0.360,-0.050
1.748,-0.350,-0.050
1.750,-0.315,-0.045
1.752,-0.300,-0.045
1.754,-0.290,-0.045
1.756,-0.300,-0.045
1.758,-0.305,-0.045
1.760,-0.340,-0.045
1.762,-0.370,-0.045
1.764,-0.370,-0.045
1.766,-0.355,-0.045
1.768,-0.340,-0.050
1.770,-0.305,-0.050
1.772,-0.290,-0.055
1.774,-0.280,-0.055
1.776,-0.290,-0.060
1.778,-0.310,-0.060
1.780,-0.330,-0.060
1.782,-0.350,-0.060
1.784,-0.350,-0.060
1.786,-0.345,-0.055
1.788,-0.320,-0.055
1.790,-0.295,-0.050
1.792,-0.280,-0.050
1.794,-0.270,-0.045
1.796,-0.280,-0.045
1.798,-0.295,-0.040
1.800,-0.325,-0.040
1.802,-0.350,-0.035
1.804,-0.340,-0.035
1.806,-0.330,-0.035
1.808,-0.320,-0.035
1.810,-0.285,-0.035
1.812,-0.280,-0.035
1.814,-0.280,-0.035
1.816,-0.280,-0.040
1.818,-0.290,-0.040
1.820,-0.325,-0.040
1.822,-0.355,-0.035
1.824,-0.350,-0.035
1.826,-0.330,-0.030
1.828,-0.315,-0.030
1.830,-0.290,-0.030
1.832,-0.290,-0.030
1.834,-0.280,-0.035
1.836,-0.285,-0.040
1.838,-0.295,-0.045
1.840,-0.335,-0.050
1.842,-0.355,-0.055
1.844,-0.355,-0.055
1.846,-0.345,-0.050
1.848,-0.330,-0.050
1.850,-0.300,-0.045
1.852,-0.290,-0.040
1.854,-0.280,-0.040
1.856,-0.295,-0.040
1.858,-0.315,-0.040
1.860,-0.350,-0.045
1.862,-0.365,-0.045
1.864,-0.365,-0.050
1.866,-0.350,-0.050
1.868,-0.325,-0.050
1.870,-0.305,-0.050
1.872,-0.295,-0.045
1.874,-0.285,-0.040
1.876,-0.300,-0.035
1.878,-0.325,-0.035
1.880,-0.350,-0.030
1.882,-0.370,-0.035
1.884,-0.360,-0.035
1.886,-0.340,-0.040
1.888,-0.325,-0.045
1.890,-0.305,-0.050
1.892,-0.290,-0.055
1.894,-0.275,-0.055
1.896,-0.295,-0.055
1.898,-0.310,-0.055
1.900,-0.335,-0.050
1.902,-0.360,-0.050
1.904,-0.355,-0.050
1.906,-0.335,-0.050
1.908,-0.325,-0.050
1.910,-0.305,-0.050
1.912,-0.300,-0.055
1.914,-0.295,-0.055
1.916,-0.295,-0.055
1.918,-0.315,-0.055
1.920,-0.345,-0.055
1.922,-0.365,-0.050
1.924,-0.360,-0.050
1.926,-0.345,-0.045
1.928,-0.315,-0.045
1.930,-0.295,-0.045
1.932,-0.290,-0.045
1.934,-0.285,-0.040
1.936,-0.295,-0.040
1.938,-0.335,-0.040
1.940,-0.340,-0.040
1.942,-0.360,-0.040
1.944,-0.355,-0.040
1.946,-0.345,-0.040
1.948,-0.315,-0.040
1.950,-0.295,-0.040
1.952,-0.285,-0.040
1.954,-0.290,-0.045
1.956,-0.300,-0.045
1.958,-0.335,-0.050
1.960,-0.355,-0.050
1.962,-0.360,-0.050
1.964,-0.355,-0.050
1.966,-0.345,-0.045
1.968,-0.310,-0.045
1.970,-0.290,-0.040
1.972,-0.285,-0.035
1.974,-0.290,-0.035
1.976,-0.315,-0.030
1.978,-0.340,-0.030
1.980,-0.355,-0.030
1.982,-0.360,-0.035
1.984,-0.360,-0.035
1.986,-0.335,-0.035
1.988,-0.305,-0.040
1.990,-0.295,-0.040
1.992,-0.285,-0.040
1.994,-0.290,-0.040
1.996,-0.300,-0.040
1.998,-0.330,-0.040
2.000,-0.345,-0.040
2.002,-0.360,-0.040
2.004,-0.360,-0.045
2.006,-0.335,-0.045
2.008,-0.300,-0.050
2.010,-0.285,-0.055
2.012,-0.280,-0.055
2.014,-0.285,-0.055
2.016,-0.295,-0.060
2.018,-0.330,-0.060
2.020,-0.350,-0.055
2.022,-0.360,-0.055
2.024,-0.345,-0.055
2.026,-0.325,-0.055
2.028,-0.290,-0.050
2.030,-0.270,-0.050
2.032,-0.255,-0.050
2.034,-0.255,-0.045
2.036,-0.270,-0.040
2.038,-0.295,-0.035
2.040,-0.305,-0.030
2.042,-0.300,-0.020
2.044,-0.290,-0.010
2.046,-0.270,0.000
2.048,-0.235,0.005
2.050,-0.225,0.015
2.052,-0.205,0.015
2.054,-0.210,0.020
2.056,-0.220,0.020
2.058,-0.250,0.020
2.060,-0.290,0.020
2.062,-0.285,0.020
2.064,-0.290,0.020
2.066,-0.260,0.020
2.068,-0.220,0.020
2.070,-0.210,0.020
2.072,-0.195,0.025
2.074,-0.205,0.025
2.076,-0.220,0.025
2.078,-0.255,0.025
2.080,-0.270,0.025
2.082,-0.275,0.020
2.084,-0.255,0.020
2.086,-0.245,0.020
2.088,-0.220,0.015
2.090,-0.225,0.015
2.092,-0.215,0.015
2.094,-0.235,0.010
2.096,-0.245,0.010
2.098,-0.280,0.005
2.100,-0.295,0.000
2.102,-0.310,-0.010
2.104,-0.305,-0.015
2.106,-0.315,-0.025
2.108,-0.315,-0.035
2.110,-0.295,-0.045
2.112,-0.290,-0.050
2.114,-0.305,-0.055
2.116,-0.320,-0.060
2.118,-0.350,-0.060
2.120,-0.360,-0.065
2.122,-0.365,-0.065
2.124,-0.360,-0.070
2.126,-0.340,-0.075
2.128,-0.310,-0.075
2.130,-0.300,-0.080
2.132,-0.295,-0.085
2.134,-0.305,-0.085
2.136,-0.315,-0.085
2.138,-0.350,-0.080
2.140,-0.370,-0.080
2.142,-0.360,-0.075
2.144,-0.350,-0.070
2.146,-0.335,-0.065
2.148,-0.310,-0.060
2.150,-0.295,-0.060
2.152,-0.300,-0.060
2.154,-0.295,-0.060
2.156,-0.325,-0.065
2.158,-0.355,-0.065
2.160,-0.370,-0.070
2.162,-0.355,-0.075
2.164,-0.350,-0.080
2.166,-0.330,-0.080
2.168,-0.295,-0.080
2.170,-0.285,-0.075
2.172,-0.280,-0.070
2.174,-0.280,-0.060
2.176,-0.305,-0.055
2.178,-0.340,-0.050
2.180,-0.350,-0.045
2.182,-0.350,-0.045
2.184,-0.345,-0.050
2.186,-0.340,-0.060
2.188,-0.315,-0.065
2.190,-0.290,-0.060
2.192,-0.265,-0.050
2.194,-0.235,-0.025
2.196,-0.230,0.020
2.198,-0.185,0.080
2.200,-0.125,0.155
2.202,-0.045,0.245
2.204,0.090,0.340
2.206,0.210,0.435
2.208,0.315,0.520
2.210,0.400,0.595
2.212,0.445,0.650
2.214,0.475,0.680
2.216,0.465,0.680
2.218,0.410,0.655
2.220,0.300,0.605
2.222,0.210,0.535
2.224,0.150,0.445
2.226,0.080,0.345
2.228,-0.015,0.250
2.230,-0.135,0.155
2.232,-0.195,0.075
2.234,-0.250,0.010
2.236,-0.300,-0.035
2.238,-0.340,-0.060
2.240,-0.345,-0.065
2.242,-0.325,-0.060
2.244,-0.295,-0.050
2.246,-0.270,-0.035
2.248,-0.260,-0.020
2.250,-0.250,-0.010
2.252,-0.255,-0.010
2.254,-0.265,-0.015
2.256,-0.300,-0.020
2.258,-0.315,-0.030
2.260,-0.340,-0.040
2.262,-0.335,-0.045
2.264,-0.310,-0.050
2.266,-0.280,-0.055
2.268,-0.275,-0.055
2.270,-0.265,-0.050
2.272,-0.255,-0.050
2.274,-0.255,-0.045
2.276,-0.290,-0.040
2.278,-0.305,-0.035
2.280,-0.335,-0.035
2.282,-0.325,-0.030
2.284,-0.305,-0.030
2.286,-0.280,-0.030
2.288,-0.260,-0.030
2.290,-0.255,-0.030
2.292,-0.255,-0.030
2.294,-0.265,-0.030
2.296,-0.295,-0.035
2.298,-0.315,-0.035
2.300,-0.330,-0.035
2.302,-0.315,-0.035
2.304,-0.300,-0.035
2.306,-0.265,-0.035
2.308,-0.255,-0.035
2.310,-0.240,-0.040
2.312,-0.240,-0.040
2.314,-0.250,-0.045
2.316,-0.295,-0.045
2.318,-0.315,-0.045
2.320,-0.315,-0.045
2.322,-0.310,-0.045
2.324,-0.295,-0.040
2.326,-0.255,-0.035
2.328,-0.250,-0.035
2.330,-0.230,-0.035
2.332,-0.235,-0.035
2.334,-0.250,-0.035
2.336,-0.285,-0.035
2.338,-0.310,-0.035
2.340,-0.315,-0.030
2.342,-0.295,-0.030
2.344,-0.280,-0.025
2.346,-0.245,-0.025
2.348,-0.240,-0.020
2.350,-0.225,-0.020
2.352,-0.230,-0.015
2.354,-0.250,-0.020
2.356,-0.270,-0.020
2.358,-0.305,-0.025
2.360,-0.305,-0.025
2.362,-0.285,-0.030
2.364,-0.260,-0.030
2.366,-0.230,-0.025
2.368,-0.230,-0.020
2.370,-0.210,-0.015
2.372,-0.215,-0.010
2.374,-0.235,-0.005
2.376,-0.265,0.000
2.378,-0.285,0.000
2.380,-0.290,0.000
2.382,-0.270,0.000
2.384,-0.250,0.000
2.386,-0.225,0.000
2.388,-0.215,0.000
2.390,-0.200,0.000
2.392,-0.185,0.005
2.394,-0.220,0.010
2.396,-0.255,0.010
2.398,-0.270,0.015
2.400,-0.255,0.020
2.402,-0.250,0.025
2.404,-0.220,0.030
2.406,-0.195,0.035
2.408,-0.180,0.035
2.410,-0.185,0.040
2.412,-0.175,0.040
2.414,-0.185,0.045
2.416,-0.210,0.045
2.418,-0.230,0.050
2.420,-0.220,0.050
2.422,-0.210,0.050
2.424,-0.190,0.050
2.426,-0.160,0.055
2.428,-0.140,0.055
2.430,-0.135,0.055
2.432,-0.140,0.060
2.434,-0.150,0.060
2.436,-0.175,0.065
2.438,-0.185,0.070
2.440,-0.185,0.070
2.442,-0.165,0.075
2.444,-0.145,0.080
2.446,-0.115,0.085
2.448,-0.095,0.085
2.450,-0.090,0.090
2.452,-0.100,0.095
2.454,-0.120,0.095
2.456,-0.145,0.100
2.458,-0.160,0.100
2.460,-0.145,0.100
2.462,-0.130,0.100
2.464,-0.115,0.105
2.466,-0.090,0.105
2.468,-0.080,0.105
2.470,-0.085,0.105
2.472,-0.095,0.100
2.474,-0.115,0.100
2.476,-0.150,0.100
2.478,-0.170,0.100
2.480,-0.175,0.100
2.482,-0.160,0.100
2.484,-0.140,0.100
2.486,-0.115,0.100
2.488,-0.115,0.100
2.490,-0.120,0.095
2.492,-0.160,0.090
2.494,-0.185,0.085
2.496,-0.200,0.080
2.498,-0.225,0.070
2.500,-0.235,0.060
2.502,-0.210,0.050
2.504,-0.195,0.045
2.506,-0.185,0.035
2.508,-0.180,0.030
2.510,-0.175,0.025
2.512,-0.195,0.025
2.514,-0.230,0.025
2.516,-0.255,0.025
2.518,-0.275,0.020
2.520,-0.275,0.020
2.522,-0.260,0.015
2.524,-0.235,0.010
2.526,-0.225,0.005
2.528,-0.220,0.000
2.530,-0.215,-0.010
2.532,-0.235,-0.015
2.534,-0.265,-0.020
2.536,-0.285,-0.030
2.538,-0.300,-0.030
2.540,-0.295,-0.035
2.542,-0.280,-0.035
2.544,-0.255,-0.040
2.546,-0.230,-0.040
2.548,-0.225,-0.040
2.550,-0.225,-0.040
2.552,-0.235,-0.040
2.554,-0.275,-0.035
2.556,-0.290,-0.035
2.558,-0.310,-0.035
2.560,-0.300,-0.030
2.562,-0.280,-0.030
2.564,-0.255,-0.030
2.566,-0.235,-0.030
2.568,-0.235,-0.035
2.570,-0.235,-0.035
2.572,-0.250,-0.040
2.574,-0.280,-0.040
2.576,-0.305,-0.045
2.578,-0.320,-0.045
2.580,-0.305,-0.045
2.582,-0.285,-0.045
2.584,-0.260,-0.045
2.586,-0.240,-0.045
2.588,-0.225,-0.045
2.590,-0.245,-0.050
2.592,-0.250,-0.050
2.594,-0.295,-0.055
2.596,-0.320,-0.055
2.598,-0.320,-0.055
2.600,-0.305,-0.060
2.602,-0.285,-0.060
2.604,-0.255,-0.060
2.606,-0.245,-0.060
2.608,-0.235,-0.060
2.610,-0.235,-0.055
2.612,-0.255,-0.055
2.614,-0.290,-0.055
2.616,-0.305,-0.055
2.618,-0.310,-0.055
2.620,-0.300,-0.055
2.622,-0.280,-0.055
2.624,-0.250,-0.055
2.626,-0.235,-0.055
2.628,-0.225,-0.055
2.630,-0.225,-0.055
2.632,-0.250,-0.050
2.634,-0.280,-0.050
2.636,-0.295,-0.050
2.638,-0.300,-0.045
2.640,-0.295,-0.045
2.642,-0.270,-0.040
2.644,-0.240,-0.040
2.646,-0.230,-0.035
2.648,-0.210,-0.035
2.650,-0.220,-0.035
2.652,-0.240,-0.035
2.654,-0.260,-0.040
2.656,-0.295,-0.040
2.658,-0.300,-0.045
2.660,-0.280,-0.045
2.662,-0.250,-0.045
2.664,-0.220,-0.040
2.666,-0.215,-0.040
2.668,-0.200,-0.035
2.670,-0.210,-0.030
2.672,-0.230,-0.025
2.674,-0.260,-0.020
2.676,-0.280,-0.020
2.678,-0.285,-0.020
2.680,-0.265,-0.020
2.682,-0.250,-0.020
2.684,-0.215,-0.025
2.686,-0.200,-0.025
2.688,-0.195,-0.020
2.690,-0.215,-0.020
2.692,-0.230,-0.020
2.694,-0.255,-0.015
2.696,-0.280,-0.015
2.698,-0.285,-0.015
2.700,-0.260,-0.020
2.702,-0.240,-0.025
2.704,-0.205,-0.030
2.706,-0.205,-0.035
2.708,-0.205,-0.040
2.710,-0.215,-0.045
2.712,-0.230,-0.045
2.714,-0.260,-0.045
2.716,-0.280,-0.045
2.718,-0.275,-0.045
2.720,-0.265,-0.045
2.722,-0.245,-0.045
2.724,-0.215,-0.045
2.726,-0.205,-0.045
2.728,-0.200,-0.045
2.730,-0.210,-0.045
2.732,-0.230,-0.040
2.734,-0.260,-0.035
2.736,-0.290,-0.035
2.738,-0.275,-0.030
2.740,-0.260,-0.030
2.742,-0.245,-0.025
2.744,-0.220,-0.025
2.746,-0.215,-0.030
2.748,-0.210,-0.030
2.750,-0.215,-0.030
2.752,-0.230,-0.035
2.754,-0.260,-0.030
2.756,-0.275,-0.030
2.758,-0.280,-0.030
2.760,-0.260,-0.025
2.762,-0.240,-0.020
2.764,-0.225,-0.015
2.766,-0.205,-0.015
2.768,-0.200,-0.015
2.770,-0.205,-0.015
2.772,-0.235,-0.015
2.774,-0.270,-0.020
2.776,-0.275,-0.020
2.778,-0.275,-0.020
2.780,-0.260,-0.020
2.782,-0.225,-0.020
2.784,-0.205,-0.020
2.786,-0.195,-0.020
2.788,-0.195,-0.020
2.790,-0.205,-0.015
2.792,-0.245,-0.015
2.794,-0.265,-0.015
2.796,-0.270,-0.015
2.798,-0.265,-0.015
2.800,-0.255,-0.015
2.802,-0.230,-0.020
2.804,-0.205,-0.020
2.806,-0.200,-0.020
2.808,-0.200,-0.020
2.810,-0.210,-0.020
2.812,-0.235,-0.015
2.814,-0.260,-0.020
2.816,-0.275,-0.020
2.818,-0.265,-0.020
2.820,-0.250,-0.025
2.822,-0.220,-0.025
2.824,-0.205,-0.030
2.826,-0.205,-0.035
2.828,-0.205,-0.035
2.830,-0.210,-0.035
2.832,-0.240,-0.035
2.834,-0.255,-0.035
2.836,-0.270,-0.030
2.838,-0.265,-0.025
2.840,-0.250,-0.020
2.842,-0.220,-0.020
2.844,-0.205,-0.015
2.846,-0.195,-0.015
2.848,-0.200,-0.015
2.850,-0.210,-0.015
2.852,-0.240,-0.020
2.854,-0.255,-0.020
2.856,-0.275,-0.025
2.858,-0.265,-0.025
2.860,-0.245,-0.025
2.862,-0.210,-0.025
2.864,-0.195,-0.025
2.866,-0.190,-0.025
2.868,-0.195,-0.020
2.870,-0.215,-0.020
2.872,-0.245,-0.020
2.874,-0.260,-0.020
2.876,-0.275,-0.025
2.878,-0.265,-0.025
2.880,-0.240,-0.030
2.882,-0.200,-0.035
2.884,-0.195,-0.040
2.886,-0.190,-0.045
2.888,-0.195,-0.050
2.890,-0.210,-0.050
2.892,-0.240,-0.050
2.894,-0.260,-0.050
2.896,-0.270,-0.050
2.898,-0.255,-0.045
2.900,-0.240,-0.040
2.902,-0.210,-0.040
2.904,-0.200,-0.035
2.906,-0.185,-0.035
2.908,-0.195,-0.030
2.910,-0.205,-0.030
2.912,-0.230,-0.025
2.914,-0.235,-0.025
2.916,-0.240,-0.020
2.918,-0.220,-0.015
2.920,-0.190,-0.010
2.922,-0.160,-0.005
2.924,-0.140,0.000
2.926,-0.135,0.005
2.928,-0.135,0.010
2.930,-0.145,0.015
2.932,-0.175,0.025
2.934,-0.180,0.030
2.936,-0.175,0.035
2.938,-0.180,0.045
2.940,-0.155,0.050
2.942,-0.125,0.050
2.944,-0.110,0.055
2.946,-0.110,0.055
2.948,-0.130,0.055
2.950,-0.140,0.055
2.952,-0.170,0.060
2.954,-0.185,0.060
2.956,-0.185,0.060
2.958,-0.170,0.060
2.960,-0.150,0.060
2.962,-0.115,0.060
2.964,-0.100,0.060
2.966,-0.100,0.060
2.968,-0.115,0.055
2.970,-0.135,0.050
2.972,-0.165,0.045
2.974,-0.200,0.040
2.976,-0.195,0.035
2.978,-0.195,0.030
2.980,-0.170,0.025
2.982,-0.145,0.020
2.984,-0.140,0.015
2.986,-0.135,0.010
2.988,-0.160,0.010
2.990,-0.200,0.005
2.992,-0.235,0.000
2.994,-0.275,-0.005
2.996,-0.275,-0.010
2.998,-0.255,-0.015
3.000,-0.225,-0.020
3.002,-0.205,-0.025
3.004,-0.190,-0.030
3.006,-0.190,-0.030
3.008,-0.200,-0.035
3.010,-0.215,-0.035
3.012,-0.245,-0.035
3.014,-0.265,-0.035
3.016,-0.265,-0.035
3.018,-0.250,-0.035
3.020,-0.230,-0.035
3.022,-0.205,-0.040
3.024,-0.200,-0.045
3.026,-0.195,-0.045
3.028,-0.200,-0.050
3.030,-0.220,-0.055
3.032,-0.255,-0.055
3.034,-0.270,-0.055
3.036,-0.260,-0.055
3.038,-0.255,-0.050
3.040,-0.240,-0.050
3.042,-0.210,-0.050
3.044,-0.195,-0.050
3.046,-0.190,-0.050
3.048,-0.205,-0.050
3.050,-0.225,-0.050
3.052,-0.250,-0.050
3.054,-0.265,-0.050
3.056,-0.260,-0.045
3.058,-0.250,-0.045
3.060,-0.220,-0.045
3.062,-0.205,-0.050
3.064,-0.200,-0.055
3.066,-0.210,-0.060
3.068,-0.225,-0.065
3.070,-0.255,-0.070
3.072,-0.270,-0.060
3.074,-0.260,-0.045
3.076,-0.215,-0.010
3.078,-0.160,0.035
3.080,-0.065,0.100
3.082,0.035,0.175
3.084,0.140,0.260
3.086,0.250,0.355
3.088,0.325,0.445
3.090,0.360,0.525
3.092,0.410,0.595
3.094,0.445,0.645
3.096,0.490,0.665
3.098,0.510,0.665
3.100,0.495,0.635
3.102,0.420,0.580
3.104,0.330,0.500
3.106,0.240,0.410
3.108,0.130,0.310
3.110,-0.015,0.205
3.112,-0.160,0.115
3.114,-0.220,0.035
3.116,-0.245,-0.025
3.118,-0.265,-0.060
3.120,-0.230,-0.080
3.122,-0.210,-0.085
3.124,-0.185,-0.080
3.126,-0.180,-0.065
3.128,-0.195,-0.055
3.130,-0.240,-0.045
3.132,-0.250,-0.040
3.134,-0.265,-0.040
3.136,-0.260,-0.045
3.138,-0.235,-0.050
3.140,-0.210,-0.055
3.142,-0.205,-0.055
3.144,-0.205,-0.055
3.146,-0.195,-0.050
3.148,-0.210,-0.045
3.150,-0.245,-0.045
3.152,-0.260,-0.045
3.154,-0.265,-0.050
3.156,-0.265,-0.055
3.158,-0.240,-0.060
3.160,-0.210,-0.065
3.162,-0.195,-0.070
3.164,-0.185,-0.075
3.166,-0.195,-0.070
3.168,-0.210,-0.065
3.170,-0.245,-0.060
3.172,-0.255,-0.055
3.174,-0.265,-0.055
3.176,-0.260,-0.050
3.178,-0.235,-0.050
3.180,-0.195,-0.055
3.182,-0.185,-0.060
3.184,-0.175,-0.060
3.186,-0.180,-0.060
3.188,-0.190,-0.060
3.190,-0.230,-0.055
3.192,-0.245,-0.045
3.194,-0.265,-0.040
3.196,-0.245,-0.035
3.198,-0.215,-0.030
3.200,-0.185,-0.030
3.202,-0.180,-0.035
3.204,-0.165,-0.040
3.206,-0.180,-0.040
3.208,-0.185,-0.045
3.210,-0.215,-0.045
3.212,-0.240,-0.045
3.214,-0.245,-0.045
3.216,-0.225,-0.040
3.218,-0.210,-0.040
3.220,-0.175,-0.035
3.222,-0.175,-0.035
3.224,-0.160,-0.035
3.226,-0.160,-0.035
3.228,-0.170,-0.035
3.230,-0.210,-0.035
3.232,-0.235,-0.035
3.234,-0.240,-0.030
3.236,-0.220,-0.030
3.238,-0.200,-0.025
3.240,-0.170,-0.020
3.242,-0.160,-0.020
3.244,-0.155,-0.020
3.246,-0.150,-0.020
3.248,-0.160,-0.020
3.250,-0.195,-0.020
3.252,-0.210,-0.025
3.254,-0.220,-0.025
3.256,-0.205,-0.020
3.258,-0.180,-0.020
3.260,-0.145,-0.015
3.262,-0.135,-0.010
3.264,-0.130,-0.005
3.266,-0.145,0.000
3.268,-0.150,0.000
3.270,-0.185,0.005
3.272,-0.200,0.005
3.274,-0.200,0.005
3.276,-0.175,0.005
3.278,-0.160,0.005
3.280,-0.130,0.005
3.282,-0.115,0.005
3.284,-0.105,0.010
3.286,-0.115,0.010
3.288,-0.130,0.010
3.290,-0.150,0.015
3.292,-0.170,0.015
3.294,-0.170,0.015
3.296,-0.155,0.015
3.298,-0.120,0.020
3.300,-0.095,0.020
3.302,-0.075,0.025
3.304,-0.070,0.030
3.306,-0.070,0.035
3.308,-0.095,0.040
3.310,-0.120,0.045
3.312,-0.130,0.050
3.314,-0.120,0.055
3.316,-0.105,0.060
3.318,-0.085,0.060
3.320,-0.045,0.065
3.322,-0.030,0.070
3.324,-0.030,0.070
3.326,-0.035,0.075
3.328,-0.055,0.075
3.330,-0.075,0.080
3.332,-0.095,0.085
3.334,-0.090,0.085
3.336,-0.080,0.090
3.338,-0.050,0.090
3.340,-0.020,0.095
3.342,-0.010,0.095
3.344,-0.015,0.100
3.346,-0.025,0.105
3.348,-0.045,0.105
3.350,-0.065,0.110
3.352,-0.095,0.110
3.354,-0.090,0.110
3.356,-0.085,0.110
3.358,-0.055,0.105
3.360,-0.030,0.100
3.362,-0.030,0.095
3.364,-0.020,0.090
3.366,-0.050,0.085
3.368,-0.085,0.080
3.370,-0.115,0.080
3.372,-0.130,0.075
3.374,-0.130,0.075
3.376,-0.120,0.075
3.378,-0.100,0.070
3.380,-0.080,0.065
3.382,-0.075,0.060
3.384,-0.090,0.050
3.386,-0.105,0.040
3.388,-0.145,0.030
3.390,-0.185,0.025
3.392,-0.195,0.015
3.394,-0.190,0.005
3.396,-0.165,0.000
3.398,-0.145,0.000
3.400,-0.135,-0.005
3.402,-0.135,-0.005
3.404,-0.135,-0.010
3.406,-0.150,-0.010
3.408,-0.185,-0.015
3.410,-0.210,-0.020
3.412,-0.220,-0.020
3.414,-0.225,-0.025
3.416,-0.205,-0.030
3.418,-0.175,-0.035
3.420,-0.160,-0.035
3.422,-0.150,-0.035
3.424,-0.145,-0.030
3.426,-0.165,-0.030
3.428,-0.200,-0.025
3.430,-0.215,-0.025
3.432,-0.230,-0.025
3.434,-0.225,-0.025
3.436,-0.210,-0.030
3.438,-0.180,-0.035
3.440,-0.165,-0.040
3.442,-0.160,-0.050
3.444,-0.160,-0.050
3.446,-0.170,-0.055
3.448,-0.200,-0.055
3.450,-0.235,-0.050
3.452,-0.240,-0.050
3.454,-0.225,-0.045
3.456,-0.210,-0.040
3.458,-0.180,-0.040
3.460,-0.165,-0.040
3.462,-0.155,-0.040
3.464,-0.160,-0.045
3.466,-0.175,-0.050
3.468,-0.220,-0.055
3.470,-0.240,-0.055
3.472,-0.240,-0.060
3.474,-0.235,-0.060
3.476,-0.210,-0.060
3.478,-0.185,-0.060
3.480,-0.170,-0.060
3.482,-0.170,-0.060
3.484,-0.180,-0.060
3.486,-0.185,-0.055
3.488,-0.210,-0.055
3.490,-0.245,-0.055
3.492,-0.240,-0.055
3.494,-0.220,-0.055
3.496,-0.205,-0.050
3.498,-0.165,-0.050
3.500,-0.150,-0.045
3.502,-0.145,-0.040
3.504,-0.160,-0.040
3.506,-0.170,-0.035
3.508,-0.205,-0.030
3.510,-0.225,-0.030
3.512,-0.220,-0.030
3.514,-0.210,-0.030
3.516,-0.190,-0.030
3.518,-0.155,-0.035
3.520,-0.150,-0.035
3.522,-0.150,-0.040
3.524,-0.145,-0.040
3.526,-0.160,-0.045
3.528,-0.200,-0.045
3.530,-0.215,-0.045
3.532,-0.210,-0.045
3.534,-0.195,-0.045
3.536,-0.185,-0.040
3.538,-0.155,-0.040
3.540,-0.130,-0.035
3.542,-0.125,-0.030
3.544,-0.140,-0.025
3.546,-0.155,-0.025
3.548,-0.185,-0.025
3.550,-0.200,-0.025
3.552,-0.210,-0.025
3.554,-0.195,-0.030
3.556,-0.165,-0.030
3.558,-0.130,-0.035
3.560,-0.120,-0.035
3.562,-0.125,-0.040
3.564,-0.135,-0.040
3.566,-0.155,-0.040
3.568,-0.185,-0.040
3.570,-0.195,-0.040
3.572,-0.200,-0.040
3.574,-0.180,-0.035
3.576,-0.160,-0.035
3.578,-0.135,-0.030
3.580,-0.130,-0.030
3.582,-0.115,-0.025
3.584,-0.125,-0.020
3.586,-0.140,-0.015
3.588,-0.170,-0.010
3.590,-0.200,-0.005
3.592,-0.195,-0.005
3.594,-0.180,-0.010
3.596,-0.165,-0.010
3.598,-0.135,-0.015
3.600,-0.125,-0.020
3.602,-0.115,-0.025
3.604,-0.130,-0.025
3.606,-0.155,-0.030
3.608,-0.180,-0.030
3.610,-0.200,-0.030
3.612,-0.200,-0.030
3.614,-0.185,-0.035
3.616,-0.165,-0.035
3.618,-0.140,-0.035
3.620,-0.125,-0.040
3.622,-0.120,-0.040
3.624,-0.130,-0.040
3.626,-0.150,-0.040
3.628,-0.190,-0.040
3.630,-0.205,-0.035
3.632,-0.195,-0.025
3.634,-0.180,-0.020
3.636,-0.155,-0.015
3.638,-0.135,-0.010
3.640,-0.130,-0.005
3.642,-0.125,-0.010
3.644,-0.135,-0.010
3.646,-0.160,-0.015
3.648,-0.185,-0.020
3.650,-0.205,-0.025
3.652,-0.200,-0.030
3.654,-0.195,-0.030
3.656,-0.160,-0.030
3.658,-0.130,-0.025
3.660,-0.120,-0.020
3.662,-0.135,-0.015
3.664,-0.140,-0.015
3.666,-0.170,-0.010
3.668,-0.185,-0.010
3.670,-0.205,-0.015
3.672,-0.205,-0.020
3.674,-0.195,-0.025
3.676,-0.160,-0.030
3.678,-0.145,-0.035
3.680,-0.135,-0.035
3.682,-0.125,-0.040
3.684,-0.140,-0.035
3.686,-0.170,-0.035
3.688,-0.195,-0.035
3.690,-0.205,-0.035
3.692,-0.205,-0.030
3.694,-0.190,-0.035
3.696,-0.155,-0.035
3.698,-0.135,-0.035
3.700,-0.125,-0.040
3.702,-0.135,-0.040
3.704,-0.145,-0.040
3.706,-0.185,-0.040
3.708,-0.190,-0.040
3.710,-0.195,-0.035
3.712,-0.190,-0.035
3.714,-0.175,-0.030
3.716,-0.155,-0.030
3.718,-0.135,-0.030
3.720,-0.130,-0.025
3.722,-0.130,-0.025
3.724,-0.145,-0.025
3.726,-0.175,-0.025
3.728,-0.205,-0.030
3.730,-0.210,-0.030
3.732,-0.200,-0.030
3.734,-0.180,-0.030
3.736,-0.150,-0.030
3.738,-0.140,-0.035
3.740,-0.130,-0.035
3.742,-0.130,-0.040
3.744,-0.140,-0.045
3.746,-0.170,-0.045
3.748,-0.195,-0.050
3.750,-0.205,-0.050
3.752,-0.195,-0.050
3.754,-0.190,-0.045
3.756,-0.155,-0.045
3.758,-0.130,-0.040
3.760,-0.125,-0.040
3.762,-0.130,-0.035
3.764,-0.140,-0.035
3.766,-0.180,-0.035
3.768,-0.210,-0.040
3.770,-0.210,-0.045
3.772,-0.200,-0.045
3.774,-0.170,-0.050
3.776,-0.145,-0.050
3.778,-0.130,-0.055
3.780,-0.125,-0.055
3.782,-0.130,-0.050
3.784,-0.150,-0.050
3.786,-0.180,-0.045
3.788,-0.210,-0.045
3.790,-0.205,-0.040
3.792,-0.185,-0.040
3.794,-0.165,-0.035
3.796,-0.140,-0.035
3.798,-0.110,-0.030
3.800,-0.095,-0.025
3.802,-0.105,-0.025
3.804,-0.115,-0.020
3.806,-0.145,-0.015
3.808,-0.150,-0.005
3.810,-0.150,0.000
3.812,-0.130,0.005
3.814,-0.105,0.010
3.816,-0.065,0.015
3.818,-0.060,0.020
3.820,-0.055,0.025
3.822,-0.060,0.025
3.824,-0.085,0.025
3.826,-0.130,0.025
3.828,-0.145,0.025
3.830,-0.145,0.020
3.832,-0.125,0.020
3.834,-0.105,0.025
3.836,-0.075,0.025
3.838,-0.060,0.030
3.840,-0.045,0.040
3.842,-0.055,0.045
3.844,-0.070,0.050
3.846,-0.095,0.050
3.848,-0.115,0.050
3.850,-0.120,0.050
3.852,-0.110,0.045
3.854,-0.110,0.040
3.856,-0.085,0.030
3.858,-0.100,0.025
3.860,-0.085,0.020
3.862,-0.080,0.015
3.864,-0.100,0.010
3.866,-0.140,0.005
3.868,-0.165,0.005
3.870,-0.190,0.000
3.872,-0.195,-0.010
3.874,-0.175,-0.015
3.876,-0.155,-0.025
3.878,-0.140,-0.030
3.880,-0.145,-0.040
3.882,-0.160,-0.050
3.884,-0.175,-0.055
3.886,-0.200,-0.055
3.888,-0.220,-0.060
3.890,-0.225,-0.060
3.892,-0.210,-0.055
3.894,-0.180,-0.055
3.896,-0.160,-0.055
3.898,-0.150,-0.060
3.900,-0.145,-0.065
3.902,-0.150,-0.070
3.904,-0.185,-0.075
3.906,-0.210,-0.080
3.908,-0.225,-0.085
3.910,-0.220,-0.090
3.912,-0.210,-0.090
3.914,-0.185,-0.090
3.916,-0.160,-0.085
3.918,-0.145,-0.075
3.920,-0.155,-0.070
3.922,-0.170,-0.065
3.924,-0.185,-0.060
3.926,-0.210,-0.055
3.928,-0.225,-0.055
3.930,-0.225,-0.055
3.932,-0.205,-0.055
3.934,-0.175,-0.055
3.936,-0.155,-0.055
3.938,-0.150,-0.055
3.940,-0.150,-0.055
3.942,-0.160,-0.060
3.944,-0.190,-0.060
3.946,-0.225,-0.065
3.948,-0.255,-0.070
3.950,-0.250,-0.070
3.952,-0.225,-0.070
3.954,-0.160,-0.055
3.956,-0.120,-0.030
3.958,-0.080,0.010
3.960,-0.005,0.070
3.962,0.065,0.140
3.964,0.120,0.225
3.966,0.195,0.315
3.968,0.285,0.405
3.970,0.375,0.490
3.972,0.455,0.560
3.974,0.520,0.610
3.976,0.580,0.630
3.978,0.605,0.630
3.980,0.560,0.600
3.982,0.450,0.550
3.984,0.315,0.480
3.986,0.230,0.390
3.988,0.120,0.295
3.990,0.010,0.200
3.992,-0.100,0.110
3.994,-0.125,0.030
3.996,-0.145,-0.035
3.998,-0.165,-0.080
4.000,-0.165,-0.105
4.002,-0.185,-0.115
4.004,-0.205,-0.115
4.006,-0.205,-0.100
4.008,-0.210,-0.080
4.010,-0.210,-0.065
4.012,-0.190,-0.050
4.014,-0.165,-0.040
4.016,-0.150,-0.035
4.018,-0.140,-0.035
4.020,-0.155,-0.040
4.022,-0.170,-0.045
4.024,-0.200,-0.055
4.026,-0.220,-0.060
4.028,-0.220,-0.065
4.030,-0.220,-0.065
4.032,-0.190,-0.070
4.034,-0.165,-0.070
4.036,-0.160,-0.070
4.038,-0.145,-0.070
4.040,-0.150,-0.065
4.042,-0.165,-0.065
4.044,-0.195,-0.060
4.046,-0.200,-0.060
4.048,-0.220,-0.055
4.050,-0.215,-0.055
4.052,-0.200,-0.050
4.054,-0.165,-0.050
4.056,-0.155,-0.055
4.058,-0.135,-0.055
4.060,-0.150,-0.055
4.062,-0.145,-0.060
4.064,-0.180,-0.060
4.066,-0.200,-0.060
4.068,-0.215,-0.060
4.070,-0.200,-0.065
4.072,-0.170,-0.060
4.074,-0.140,-0.060
4.076,-0.135,-0.060
4.078,-0.125,-0.060
4.080,-0.135,-0.060
4.082,-0.135,-0.060
4.084,-0.175,-0.055
4.086,-0.195,-0.055
4.088,-0.200,-0.050
4.090,-0.180,-0.050
4.092,-0.170,-0.050
4.094,-0.130,-0.045
4.096,-0.125,-0.045
4.098,-0.120,-0.040
4.100,-0.130,-0.040
4.102,-0.135,-0.035
4.104,-0.165,-0.030
4.106,-0.185,-0.025
4.108,-0.175,-0.020
4.110,-0.170,-0.020
4.112,-0.150,-0.015
4.114,-0.125,-0.015
4.116,-0.110,-0.015
4.118,-0.090,-0.015
4.120,-0.105,-0.015
4.122,-0.125,-0.015
4.124,-0.155,-0.020
4.126,-0.180,-0.020
4.128,-0.175,-0.020
4.130,-0.160,-0.015
4.132,-0.150,-0.015
4.134,-0.125,-0.015
4.136,-0.090,-0.010
4.138,-0.085,-0.010
4.140,-0.100,-0.010
4.142,-0.105,-0.010
4.144,-0.140,-0.010
4.146,-0.165,-0.010
4.148,-0.160,-0.010
4.150,-0.150,-0.010
4.152,-0.120,-0.005
4.154,-0.080,-0.005
4.156,-0.070,0.000
4.158,-0.070,0.005
4.160,-0.070,0.005
4.162,-0.100,0.010
4.164,-0.125,0.010
4.166,-0.145,0.010
4.168,-0.130,0.010
4.170,-0.105,0.010
4.172,-0.095,0.010
4.174,-0.055,0.010
4.176,-0.040,0.010
4.178,-0.040,0.015
4.180,-0.040,0.015
4.182,-0.050,0.020
4.184,-0.080,0.030
4.186,-0.095,0.035
4.188,-0.090,0.040
4.190,-0.075,0.050
4.192,-0.040,0.055
4.194,-0.010,0.060
4.196,0.000,0.065
4.198,0.010,0.065
4.200,-0.005,0.070
4.202,-0.015,0.075
4.204,-0.035,0.080
4.206,-0.055,0.085
4.208,-0.055,0.085
4.210,-0.020,0.090
4.212,0.005,0.090
4.214,0.015,0.095
4.216,0.025,0.095
4.218,0.035,0.095
4.220,0.025,0.090
4.222,-0.010,0.090
4.224,-0.030,0.090
4.226,-0.045,0.085
4.228,-0.040,0.085
4.230,-0.025,0.085
4.232,0.010,0.085
4.234,0.020,0.085
4.236,0.020,0.085
4.238,0.020,0.085
4.240,0.010,0.085
4.242,-0.035,0.080
4.244,-0.060,0.080
4.246,-0.070,0.075
4.248,-0.065,0.070
4.250,-0.055,0.065
4.252,-0.030,0.060
4.254,-0.025,0.060
4.256,-0.015,0.055
4.258,-0.025,0.055
4.260,-0.045,0.055
4.262,-0.080,0.055
4.264,-0.110,0.050
4.266,-0.135,0.045
4.268,-0.125,0.035
4.270,-0.115,0.025
4.272,-0.100,0.015
4.274,-0.085,0.000
4.276,-0.090,-0.015
4.278,-0.080,-0.025
4.280,-0.085,-0.035
4.282,-0.140,-0.040
4.284,-0.160,-0.045
4.286,-0.175,-0.045
4.288,-0.170,-0.045
4.290,-0.155,-0.045
4.292,-0.115,-0.040
4.294,-0.110,-0.035
4.296,-0.100,-0.035
4.298,-0.110,-0.030
4.300,-0.145,-0.030
4.302,-0.165,-0.030
4.304,-0.180,-0.035
4.306,-0.180,-0.035
4.308,-0.190,-0.035
4.310,-0.170,-0.040
4.312,-0.130,-0.040
4.314,-0.120,-0.040
4.316,-0.110,-0.045
4.318,-0.110,-0.045
4.320,-0.140,-0.050
4.322,-0.170,-0.050
4.324,-0.190,-0.055
4.326,-0.195,-0.055
4.328,-0.175,-0.060
4.330,-0.160,-0.060
4.332,-0.130,-0.060
4.334,-0.125,-0.060
4.336,-0.120,-0.060
4.338,-0.120,-0.060
4.340,-0.140,-0.055
4.342,-0.175,-0.055
4.344,-0.200,-0.055
4.346,-0.200,-0.055
4.348,-0.195,-0.055
4.350,-0.165,-0.060
4.352,-0.150,-0.060
4.354,-0.125,-0.065
4.356,-0.120,-0.065
4.358,-0.125,-0.065
4.360,-0.135,-0.065
4.362,-0.175,-0.065
4.364,-0.200,-0.065
4.366,-0.190,-0.060
4.368,-0.185,-0.055
4.370,-0.155,-0.055
4.372,-0.125,-0.050
4.374,-0.125,-0.050
4.376,-0.105,-0.050
4.378,-0.120,-0.050
4.380,-0.135,-0.050
4.382,-0.170,-0.050
4.384,-0.175,-0.050
4.386,-0.175,-0.050
4.388,-0.175,-0.050
4.390,-0.155,-0.050
4.392,-0.125,-0.050
4.394,-0.110,-0.050
4.396,-0.100,-0.050
4.398,-0.105,-0.050
4.400,-0.130,-0.045
4.402,-0.155,-0.040
4.404,-0.180,-0.035
4.406,-0.165,-0.030
4.408,-0.160,-0.025
4.410,-0.135,-0.020
4.412,-0.105,-0.020
4.414,-0.090,-0.025
4.416,-0.095,-0.025
4.418,-0.100,-0.030
4.420,-0.110,-0.035
4.422,-0.150,-0.035
4.424,-0.160,-0.035
4.426,-0.165,-0.035
4.428,-0.150,-0.030
4.430,-0.145,-0.025
4.432,-0.095,-0.020
4.434,-0.080,-0.015
4.436,-0.070,-0.010
4.438,-0.100,-0.010
4.440,-0.115,-0.015
4.442,-0.145,-0.015
4.444,-0.160,-0.020
4.446,-0.165,-0.025
4.448,-0.135,-0.025
4.450,-0.115,-0.025
4.452,-0.095,-0.025
4.454,-0.085,-0.025
4.456,-0.075,-0.025
4.458,-0.095,-0.020
4.460,-0.115,-0.020
4.462,-0.155,-0.020
4.464,-0.160,-0.025
4.466,-0.165,-0.025
4.468,-0.145,-0.030
4.470,-0.120,-0.030
4.472,-0.085,-0.030
4.474,-0.090,-0.030
4.476,-0.080,-0.030
4.478,-0.090,-0.030
4.480,-0.115,-0.030
4.482,-0.140,-0.030
4.484,-0.155,-0.030
4.486,-0.145,-0.030
4.488,-0.140,-0.035
4.490,-0.115,-0.040
4.492,-0.100,-0.045
4.494,-0.090,-0.045
4.496,-0.085,-0.045
4.498,-0.095,-0.045
4.500,-0.135,-0.045
4.502,-0.150,-0.040
4.504,-0.160,-0.035
4.506,-0.150,-0.030
4.508,-0.140,-0.025
4.510,-0.115,-0.025
4.512,-0.100,-0.025
4.514,-0.095,-0.025
4.516,-0.090,-0.030
4.518,-0.095,-0.030
4.520,-0.125,-0.030
4.522,-0.155,-0.035
4.524,-0.165,-0.035
4.526,-0.170,-0.035
4.528,-0.140,-0.035
4.530,-0.120,-0.035
4.532,-0.100,-0.035
4.534,-0.095,-0.030
4.536,-0.085,-0.030
4.538,-0.110,-0.030
4.540,-0.135,-0.030
4.542,-0.160,-0.030
4.544,-0.170,-0.030
4.546,-0.150,-0.030
4.548,-0.135,-0.035
4.550,-0.105,-0.035
4.552,-0.105,-0.035
4.554,-0.090,-0.035
4.556,-0.095,-0.040
4.558,-0.115,-0.040
4.560,-0.145,-0.040
4.562,-0.145,-0.040
4.564,-0.150,-0.040
4.566,-0.155,-0.040
4.568,-0.140,-0.040
4.570,-0.110,-0.040
4.572,-0.090,-0.040
4.574,-0.085,-0.040
4.576,-0.090,-0.040
4.578,-0.110,-0.040
4.580,-0.140,-0.045
4.582,-0.155,-0.045
4.584,-0.160,-0.045
4.586,-0.150,-0.045
4.588,-0.140,-0.050
4.590,-0.110,-0.050
4.592,-0.095,-0.050
4.594,-0.085,-0.050
4.596,-0.090,-0.050
4.598,-0.105,-0.045
4.600,-0.160,-0.035
4.602,-0.145,-0.025
4.604,-0.130,-0.015
4.606,-0.100,-0.005
4.608,-0.085,0.000
4.610,-0.080,0.005
4.612,-0.080,0.005
4.614,-0.095,0.000
4.616,-0.130,-0.010
4.618,-0.145,-0.015
4.620,-0.135,-0.025
4.622,-0.115,-0.030
4.624,-0.080,-0.025
4.626,-0.050,-0.020
4.628,-0.040,-0.010
4.630,-0.030,0.005
4.632,-0.025,0.020
4.634,-0.035,0.035
4.636,-0.070,0.050
4.638,-0.075,0.060
4.640,-0.085,0.065
4.642,-0.070,0.065
4.644,-0.055,0.065
4.646,-0.025,0.065
4.648,-0.010,0.060
4.650,-0.010,0.060
4.652,-0.015,0.055
4.654,-0.040,0.055
4.656,-0.065,0.055
4.658,-0.085,0.055
4.660,-0.075,0.055
4.662,-0.065,0.055
4.664,-0.040,0.055
4.666,-0.005,0.055
4.668,0.005,0.055
4.670,0.015,0.055
4.672,-0.005,0.055
4.674,-0.030,0.055
4.676,-0.060,0.050
4.678,-0.085,0.050
4.680,-0.090,0.045
4.682,-0.085,0.040
4.684,-0.080,0.030
4.686,-0.050,0.025
4.688,-0.030,0.015
4.690,-0.035,0.010
4.692,-0.060,0.005
4.694,-0.100,0.000
4.696,-0.150,0.000
4.698,-0.170,-0.005
4.700,-0.170,-0.010
4.702,-0.145,-0.015
4.704,-0.125,-0.020
4.706,-0.090,-0.025
4.708,-0.075,-0.030
4.710,-0.085,-0.035
4.712,-0.100,-0.040
4.714,-0.110,-0.045
4.716,-0.140,-0.045
4.718,-0.160,-0.045
4.720,-0.155,-0.045
4.722,-0.135,-0.045
4.724,-0.110,-0.045
4.726,-0.100,-0.045
4.728,-0.090,-0.045
4.730,-0.090,-0.045
4.732,-0.095,-0.045
4.734,-0.120,-0.040
4.736,-0.140,-0.040
4.738,-0.160,-0.035
4.740,-0.155,-0.030
4.742,-0.145,-0.030
4.744,-0.115,-0.025
4.746,-0.090,-0.030
4.748,-0.080,-0.030
4.750,-0.075,-0.035
4.752,-0.100,-0.035
4.754,-0.120,-0.040
4.756,-0.150,-0.040
4.758,-0.155,-0.040
4.760,-0.145,-0.045
4.762,-0.125,-0.045
4.764,-0.100,-0.045
4.766,-0.090,-0.050
4.768,-0.090,-0.055
4.770,-0.095,-0.060
4.772,-0.115,-0.060
4.774,-0.125,-0.050
4.776,-0.130,-0.035
4.778,-0.125,-0.010
4.780,-0.125,0.030
4.782,-0.035,0.080
4.784,0.075,0.140
4.786,0.180,0.210
4.788,0.265,0.290
4.790,0.350,0.365
4.792,0.420,0.440
4.794,0.475,0.510
4.796,0.485,0.565
4.798,0.505,0.600
4.800,0.550,0.615
4.802,0.535,0.605
4.804,0.485,0.570
4.806,0.405,0.510
4.808,0.355,0.430
4.810,0.290,0.335
4.812,0.165,0.235
4.814,-0.005,0.140
4.816,-0.105,0.060
4.818,-0.150,-0.005
4.820,-0.170,-0.050
4.822,-0.180,-0.075
4.824,-0.160,-0.085
4.826,-0.130,-0.075
4.828,-0.100,-0.065
4.830,-0.095,-0.050
4.832,-0.090,-0.035
4.834,-0.105,-0.030
4.836,-0.120,-0.025
4.838,-0.140,-0.020
4.840,-0.160,-0.025
4.842,-0.135,-0.025
4.844,-0.100,-0.025
4.846,-0.085,-0.030
4.848,-0.075,-0.030
4.850,-0.085,-0.030
4.852,-0.095,-0.035
4.854,-0.130,-0.040
4.856,-0.145,-0.045
4.858,-0.145,-0.050
4.860,-0.130,-0.050
4.862,-0.140,-0.050
4.864,-0.110,-0.050
4.866,-0.085,-0.045
4.868,-0.070,-0.040
4.870,-0.080,-0.035
4.872,-0.090,-0.030
4.874,-0.130,-0.030
4.876,-0.145,-0.030
4.878,-0.155,-0.030
4.880,-0.130,-0.030
4.882,-0.120,-0.035
4.884,-0.095,-0.035
4.886,-0.095,-0.035
4.888,-0.060,-0.030
4.890,-0.070,-0.030
4.892,-0.090,-0.025
4.894,-0.130,-0.020
4.896,-0.150,-0.015
4.898,-0.135,-0.010
4.900,-0.120,-0.010
4.902,-0.105,-0.010
4.904,-0.075,-0.010
4.906,-0.060,-0.010
4.908,-0.055,-0.010
4.910,-0.055,-0.015
4.912,-0.085,-0.015
4.914,-0.105,-0.015
4.916,-0.130,-0.020
4.918,-0.130,-0.020
4.920,-0.120,-0.025
4.922,-0.110,-0.025
4.924,-0.080,-0.030
4.926,-0.055,-0.030
4.928,-0.045,-0.030
4.930,-0.050,-0.025
4.932,-0.070,-0.025
4.934,-0.105,-0.020
4.936,-0.125,-0.015
4.938,-0.125,-0.010
4.940,-0.110,-0.005
4.942,-0.090,-0.005
4.944,-0.055,-0.005
4.946,-0.055,-0.010
4.948,-0.050,-0.015
4.950,-0.050,-0.015
4.952,-0.060,-0.020
4.954,-0.095,-0.020
4.956,-0.125,-0.020
4.958,-0.120,-0.015
4.960,-0.100,-0.015
4.962,-0.080,-0.010
4.964,-0.045,-0.005
4.966,-0.035,-0.005
4.968,-0.040,0.000
4.970,-0.045,0.000
4.972,-0.060,0.000
4.974,-0.080,0.000
4.976,-0.095,0.005
4.978,-0.095,0.010
4.980,-0.070,0.010
4.982,-0.060,0.020
4.984,-0.025,0.025
4.986,-0.025,0.030
4.988,-0.005,0.035
4.990,-0.005,0.040
4.992,-0.030,0.045
4.994,-0.050,0.050
4.996,-0.070,0.050
4.998,-0.070,0.050
5.000,-0.045,0.050
5.002,-0.025,0.055
5.004,0.015,0.055
5.006,0.030,0.055
5.008,0.030,0.055
5.010,0.025,0.060
5.012,0.010,0.060
5.014,-0.005,0.065
5.016,-0.020,0.070
5.018,-0.025,0.070
5.020,0.000,0.075
5.022,0.025,0.080
5.024,0.055,0.080
5.026,0.060,0.085
5.028,0.065,0.090
5.030,0.055,0.090
5.032,0.035,0.095
5.034,0.020,0.100
5.036,0.000,0.105
5.038,0.000,0.110
5.040,0.025,0.110
5.042,0.055,0.115
5.044,0.065,0.115
5.046,0.080,0.120
5.048,0.085,0.120
5.050,0.075,0.120
5.052,0.040,0.120
5.054,0.020,0.120
5.056,0.000,0.120
5.058,0.000,0.120
5.060,0.015,0.120
5.062,0.030,0.115
5.064,0.040,0.110
5.066,0.060,0.100
5.068,0.055,0.095
5.070,0.025,0.085
5.072,0.005,0.075
5.074,-0.030,0.070
5.076,-0.055,0.065
5.078,-0.055,0.060
5.080,-0.045,0.060
5.082,-0.030,0.060
5.084,-0.020,0.055
5.086,-0.020,0.050
5.088,-0.015,0.045
5.090,-0.035,0.035
5.092,-0.075,0.025
5.094,-0.100,0.015
5.096,-0.120,0.005
5.098,-0.115,-0.005
5.100,-0.095,-0.010
5.102,-0.060,-0.015
5.104,-0.065,-0.020
5.106,-0.060,-0.020
5.108,-0.060,-0.020
5.110,-0.085,-0.020
5.112,-0.120,-0.020
5.114,-0.135,-0.020
5.116,-0.160,-0.020
5.118,-0.145,-0.025
5.120,-0.130,-0.025
5.122,-0.100,-0.025
5.124,-0.090,-0.025
5.126,-0.085,-0.025
5.128,-0.090,-0.025
5.130,-0.110,-0.025
5.132,-0.135,-0.030
5.134,-0.155,-0.030
5.136,-0.165,-0.035
5.138,-0.160,-0.045
5.140,-0.145,-0.050
5.142,-0.110,-0.055
5.144,-0.110,-0.065
5.146,-0.095,-0.070
5.148,-0.090,-0.075
5.150,-0.110,-0.075
5.152,-0.140,-0.075
5.154,-0.165,-0.075
5.156,-0.175,-0.070
5.158,-0.165,-0.070
5.160,-0.155,-0.065
5.162,-0.120,-0.060
5.164,-0.105,-0.055
5.166,-0.090,-0.050
5.168,-0.095,-0.045
5.170,-0.115,-0.045
5.172,-0.145,-0.040
5.174,-0.175,-0.045
5.176,-0.175,-0.045
5.178,-0.165,-0.050
5.180,-0.135,-0.055
5.182,-0.100,-0.065
5.184,-0.095,-0.070
5.186,-0.090,-0.070
5.188,-0.100,-0.070
5.190,-0.110,-0.070
5.192,-0.130,-0.065
5.194,-0.165,-0.065
5.196,-0.165,-0.060
5.198,-0.155,-0.060
5.200,-0.135,-0.060
5.202,-0.100,-0.060
5.204,-0.090,-0.060
5.206,-0.080,-0.065
5.208,-0.090,-0.065
5.210,-0.105,-0.060
5.212,-0.140,-0.055
5.214,-0.150,-0.050
5.216,-0.140,-0.040
5.218,-0.145,-0.030
5.220,-0.130,-0.025
5.222,-0.090,-0.025
5.224,-0.080,-0.020
5.226,-0.065,-0.025
5.228,-0.080,-0.030
5.230,-0.095,-0.035
5.232,-0.130,-0.035
5.234,-0.150,-0.040
5.236,-0.140,-0.035
5.238,-0.135,-0.035
5.240,-0.110,-0.030
5.242,-0.085,-0.025
5.244,-0.060,-0.020
5.246,-0.055,-0.020
5.248,-0.070,-0.020
5.250,-0.090,-0.020
5.252,-0.115,-0.020
5.254,-0.145,-0.025
5.256,-0.145,-0.025
5.258,-0.130,-0.030
5.260,-0.100,-0.030
5.262,-0.075,-0.030
5.264,-0.075,-0.030
5.266,-0.070,-0.030
5.268,-0.080,-0.030
5.270,-0.095,-0.030
5.272,-0.120,-0.025
5.274,-0.145,-0.025
5.276,-0.145,-0.030
5.278,-0.135,-0.030
5.280,-0.115,-0.030
5.282,-0.090,-0.035
5.284,-0.075,-0.035
5.286,-0.075,-0.040
5.288,-0.085,-0.040
5.290,-0.115,-0.045
5.292,-0.135,-0.045
5.294,-0.155,-0.045
5.296,-0.165,-0.050
5.298,-0.140,-0.050
5.300,-0.115,-0.050
5.302,-0.100,-0.050
5.304,-0.080,-0.050
5.306,-0.075,-0.050
5.308,-0.090,-0.050
5.310,-0.115,-0.050
5.312,-0.135,-0.050
5.314,-0.150,-0.050
5.316,-0.155,-0.050
5.318,-0.140,-0.050
5.320,-0.105,-0.045
5.322,-0.085,-0.045
5.324,-0.080,-0.040
5.326,-0.085,-0.040
5.328,-0.100,-0.035
5.330,-0.135,-0.035
5.332,-0.140,-0.035
5.334,-0.155,-0.040
5.336,-0.155,-0.040
5.338,-0.140,-0.040
5.340,-0.110,-0.045
5.342,-0.090,-0.045
5.344,-0.085,-0.045
5.346,-0.085,-0.045
5.348,-0.100,-0.040
5.350,-0.130,-0.040
5.352,-0.145,-0.040
5.354,-0.155,-0.035
5.356,-0.150,-0.040
5.358,-0.130,-0.040
5.360,-0.100,-0.040
5.362,-0.095,-0.045
5.364,-0.080,-0.045
5.366,-0.075,-0.050
5.368,-0.095,-0.050
5.370,-0.135,-0.050
5.372,-0.135,-0.050
5.374,-0.170,-0.045
5.376,-0.160,-0.045
5.378,-0.140,-0.045
5.380,-0.110,-0.045
5.382,-0.085,-0.045
5.384,-0.085,-0.045
5.386,-0.090,-0.050
5.388,-0.105,-0.050
5.390,-0.140,-0.050
5.392,-0.150,-0.045
5.394,-0.160,-0.045
5.396,-0.150,-0.045
5.398,-0.130,-0.040
5.400,-0.110,-0.040
5.402,-0.095,-0.040
5.404,-0.090,-0.035
5.406,-0.095,-0.035
5.408,-0.105,-0.035
5.410,-0.130,-0.035
5.412,-0.145,-0.035
5.414,-0.155,-0.035
5.416,-0.155,-0.035
5.418,-0.140,-0.035
5.420,-0.105,-0.040
5.422,-0.090,-0.040
5.424,-0.090,-0.045
5.426,-0.080,-0.050
5.428,-0.100,-0.050
5.430,-0.130,-0.055
5.432,-0.155,-0.055
5.434,-0.165,-0.060
5.436,-0.145,-0.055
5.438,-0.125,-0.055
5.440,-0.100,-0.050
5.442,-0.095,-0.050
5.444,-0.085,-0.045
5.446,-0.095,-0.040
5.448,-0.100,-0.040
5.450,-0.130,-0.040
5.452,-0.150,-0.035
5.454,-0.160,-0.035
5.456,-0.150,-0.040
5.458,-0.130,-0.040
5.460,-0.090,-0.040
5.462,-0.075,-0.040
5.464,-0.055,-0.040
5.466,-0.065,-0.035
5.468,-0.075,-0.030
5.470,-0.095,-0.030
5.472,-0.115,-0.025
5.474,-0.115,-0.020
5.476,-0.095,-0.015
5.478,-0.060,-0.010
5.480,-0.030,-0.005
5.482,-0.020,0.000
5.484,-0.005,0.005
5.486,-0.020,0.010
5.488,-0.030,0.010
5.490,-0.065,0.015
5.492,-0.095,0.020
5.494,-0.100,0.020
5.496,-0.095,0.020
5.498,-0.075,0.020
5.500,-0.030,0.020
5.502,-0.020,0.020
5.504,-0.015,0.020
5.506,-0.025,0.020
5.508,-0.030,0.020
5.510,-0.050,0.020
5.512,-0.065,0.020
5.514,-0.070,0.025
5.516,-0.065,0.025
5.518,-0.050,0.030
5.520,-0.020,0.030
5.522,-0.010,0.035
5.524,-0.015,0.030
5.526,-0.040,0.030
5.528,-0.060,0.025
5.530,-0.095,0.015
5.532,-0.110,0.010
5.534,-0.110,0.000
5.536,-0.110,-0.010
5.538,-0.110,-0.015
5.540,-0.100,-0.020
5.542,-0.100,-0.030
5.544,-0.100,-0.035
5.546,-0.115,-0.040
5.548,-0.125,-0.040
5.550,-0.155,-0.045
5.552,-0.170,-0.050
5.554,-0.165,-0.050
5.556,-0.155,-0.055
5.558,-0.145,-0.055
5.560,-0.115,-0.055
5.562,-0.100,-0.050
5.564,-0.095,-0.050
5.566,-0.110,-0.050
5.568,-0.130,-0.055
5.570,-0.150,-0.060
5.572,-0.180,-0.065
5.574,-0.180,-0.070
5.576,-0.155,-0.080
5.578,-0.150,-0.085
5.580,-0.110,-0.085
5.582,-0.095,-0.085
5.584,-0.095,-0.085
5.586,-0.110,-0.080
5.588,-0.140,-0.080
5.590,-0.160,-0.075
5.592,-0.185,-0.075
5.594,-0.175,-0.070
5.596,-0.150,-0.070
5.598,-0.120,-0.065
5.600,-0.110,-0.065
5.602,-0.095,-0.060
5.604,-0.100,-0.060
5.606,-0.105,-0.055
5.608,-0.140,-0.060
5.610,-0.180,-0.065
5.612,-0.200,-0.070
5.614,-0.200,-0.075
5.616,-0.180,-0.080
5.618,-0.135,-0.075
5.620,-0.085,-0.060
5.622,-0.050,-0.035
5.624,-0.025,0.010
5.626,0.035,0.070
5.628,0.080,0.145
5.630,0.145,0.225
5.632,0.225,0.310
5.634,0.310,0.395
5.636,0.410,0.470
5.638,0.495,0.530
5.640,0.550,0.570
5.642,0.595,0.595
5.644,0.610,0.595
5.646,0.560,0.575
5.648,0.460,0.535
5.650,0.345,0.475
5.652,0.265,0.395
5.654,0.180,0.310
5.656,0.080,0.215
5.658,-0.030,0.125
5.660,-0.055,0.045
5.662,-0.080,-0.020
5.664,-0.100,-0.070
5.666,-0.135,-0.095
5.668,-0.160,-0.100
5.670,-0.160,-0.095
5.672,-0.165,-0.075
5.674,-0.170,-0.060
5.676,-0.155,-0.040
5.678,-0.115,-0.035
5.680,-0.095,-0.030
5.682,-0.085,-0.035
5.684,-0.085,-0.045
5.686,-0.105,-0.055
5.688,-0.145,-0.060
5.690,-0.160,-0.065
5.692,-0.175,-0.065
5.694,-0.165,-0.060
5.696,-0.145,-0.055
5.698,-0.115,-0.050
5.700,-0.095,-0.045
5.702,-0.100,-0.045
5.704,-0.100,-0.045
5.706,-0.115,-0.050
5.708,-0.150,-0.055
5.710,-0.155,-0.055
5.712,-0.170,-0.060
5.714,-0.160,-0.060
5.716,-0.140,-0.055
5.718,-0.100,-0.055
5.720,-0.095,-0.055
5.722,-0.090,-0.055
5.724,-0.090,-0.055
5.726,-0.110,-0.055
5.728,-0.135,-0.055
5.730,-0.155,-0.055
5.732,-0.145,-0.055
5.734,-0.140,-0.050
5.736,-0.120,-0.045
5.738,-0.095,-0.040
5.740,-0.095,-0.035
5.742,-0.065,-0.030
5.744,-0.075,-0.030
5.746,-0.095,-0.025
5.748,-0.115,-0.025
5.750,-0.145,-0.025
5.752,-0.150,-0.025
5.754,-0.135,-0.025
5.756,-0.125,-0.030
5.758,-0.085,-0.030
5.760,-0.075,-0.030
5.762,-0.070,-0.025
5.764,-0.070,-0.025
5.766,-0.075,-0.025
5.768,-0.110,-0.025
5.770,-0.140,-0.025
5.772,-0.135,-0.025
5.774,-0.120,-0.025
5.776,-0.105,-0.020
5.778,-0.075,-0.020
5.780,-0.060,-0.020
5.782,-0.050,-0.020
5.784,-0.070,-0.015
5.786,-0.080,-0.015
5.788,-0.110,-0.015
5.790,-0.125,-0.015
5.792,-0.130,-0.015
5.794,-0.115,-0.015
5.796,-0.105,-0.015
5.798,-0.065,-0.015
5.800,-0.050,-0.010
5.802,-0.045,-0.010
5.804,-0.055,-0.005
5.806,-0.065,0.000
5.808,-0.100,0.000
5.810,-0.120,0.005
5.812,-0.110,0.005
5.814,-0.090,0.005
5.816,-0.075,0.000
5.818,-0.040,0.000
5.820,-0.035,0.000
5.822,-0.030,-0.005
5.824,-0.045,0.000
5.826,-0.050,0.000
5.828,-0.080,0.005
5.830,-0.095,0.010
5.832,-0.085,0.020
5.834,-0.065,0.025
5.836,-0.050,0.030
5.838,-0.010,0.035
5.840,-0.005,0.040
5.842,0.005,0.040
5.844,0.000,0.040
5.846,-0.010,0.040
5.848,-0.040,0.045
5.850,-0.055,0.045
5.852,-0.050,0.045
5.854,-0.025,0.050
5.856,-0.005,0.055
5.858,0.025,0.060
5.860,0.045,0.060
5.862,0.045,0.065
5.864,0.035,0.070
5.866,0.025,0.075
5.868,0.000,0.080
5.870,-0.020,0.085
5.872,0.000,0.090
5.874,0.020,0.095
5.876,0.045,0.100
5.878,0.065,0.105
5.880,0.065,0.110
5.882,0.080,0.115
5.884,0.070,0.120
5.886,0.055,0.120
5.888,0.025,0.125
5.890,0.005,0.125
5.892,0.015,0.130
5.894,0.025,0.130
5.896,0.045,0.130
5.898,0.070,0.130
5.900,0.085,0.130
5.902,0.075,0.130
5.904,0.065,0.125
5.906,0.025,0.120
5.908,0.000,0.110
5.910,-0.020,0.105
5.912,-0.015,0.100
5.914,-0.010,0.095
5.916,0.005,0.090
5.918,0.030,0.085
5.920,0.035,0.080
5.922,0.030,0.080
5.924,0.000,0.075
5.926,-0.040,0.070
5.928,-0.050,0.060
5.930,-0.075,0.055
5.932,-0.075,0.050
5.934,-0.065,0.040
5.936,-0.050,0.035
5.938,-0.045,0.025
5.940,-0.030,0.020
5.942,-0.035,0.015
5.944,-0.060,0.005
5.946,-0.095,0.000
5.948,-0.115,-0.005
5.950,-0.130,-0.010
5.952,-0.125,-0.015
5.954,-0.110,-0.015
5.956,-0.075,-0.020
5.958,-0.065,-0.020
5.960,-0.070,-0.020
5.962,-0.060,-0.020
5.964,-0.080,-0.015
5.966,-0.105,-0.015
5.968,-0.135,-0.015
5.970,-0.155,-0.015
5.972,-0.150,-0.015
5.974,-0.120,-0.020
5.976,-0.095,-0.020
5.978,-0.080,-0.025
5.980,-0.075,-0.025
5.982,-0.065,-0.025
5.984,-0.090,-0.025
5.986,-0.125,-0.025
5.988,-0.135,-0.020
5.990,-0.145,-0.020
5.992,-0.140,-0.020
5.994,-0.125,-0.020
5.996,-0.100,-0.025
5.998,-0.090,-0.025
6.000,-0.085,-0.035
6.002,-0.080,-0.040
6.004,-0.105,-0.045
6.006,-0.140,-0.050
6.008,-0.160,-0.055
6.010,-0.160,-0.055
6.012,-0.150,-0.055
6.014,-0.130,-0.050
6.016,-0.095,-0.045
6.018,-0.100,-0.040
6.020,-0.085,-0.040
6.022,-0.095,-0.035
6.024,-0.105,-0.035
6.026,-0.135,-0.030
6.028,-0.160,-0.035
6.030,-0.165,-0.035
6.032,-0.150,-0.035
6.034,-0.135,-0.035
6.036,-0.110,-0.040
6.038,-0.095,-0.040
6.040,-0.080,-0.040
6.042,-0.090,-0.040
6.044,-0.105,-0.040
6.046,-0.140,-0.040
6.048,-0.160,-0.045
6.050,-0.160,-0.045
6.052,-0.150,-0.050
6.054,-0.130,-0.055
6.056,-0.110,-0.060
6.058,-0.090,-0.060
6.060,-0.080,-0.060
6.062,-0.085,-0.060
6.064,-0.100,-0.055
6.066,-0.140,-0.050
6.068,-0.165,-0.045
6.070,-0.155,-0.040
6.072,-0.135,-0.035
6.074,-0.120,-0.030
6.076,-0.095,-0.030
6.078,-0.080,-0.030
6.080,-0.065,-0.030
6.082,-0.080,-0.030
6.084,-0.110,-0.035
6.086,-0.135,-0.040
6.088,-0.150,-0.045
6.090,-0.145,-0.045
6.092,-0.125,-0.045
6.094,-0.115,-0.045
6.096,-0.090,-0.045
6.098,-0.075,-0.040
6.100,-0.065,-0.040
6.102,-0.075,-0.035
6.104,-0.105,-0.035
6.106,-0.130,-0.030
6.108,-0.145,-0.030
6.110,-0.140,-0.030
6.112,-0.130,-0.035
6.114,-0.100,-0.035
6.116,-0.080,-0.040
6.118,-0.065,-0.040
6.120,-0.060,-0.045
6.122,-0.070,-0.045
6.124,-0.090,-0.040
6.126,-0.120,-0.040
6.128,-0.145,-0.035
6.130,-0.145,-0.030
6.132,-0.115,-0.025
6.134,-0.100,-0.020
6.136,-0.080,-0.020
6.138,-0.075,-0.015
6.140,-0.070,-0.015
6.142,-0.080,-0.015
6.144,-0.095,-0.020
6.146,-0.125,-0.020
6.148,-0.140,-0.025
6.150,-0.140,-0.030
6.152,-0.120,-0.030
6.154,-0.105,-0.035
6.156,-0.085,-0.035
6.158,-0.080,-0.030
6.160,-0.080,-0.030
6.162,-0.085,-0.030
6.164,-0.105,-0.025
6.166,-0.130,-0.025
6.168,-0.140,-0.020
6.170,-0.150,-0.020
6.172,-0.125,-0.020
6.174,-0.105,-0.025
6.176,-0.090,-0.025
6.178,-0.075,-0.030
6.180,-0.080,-0.030
6.182,-0.090,-0.035
6.184,-0.115,-0.035
6.186,-0.135,-0.040
6.188,-0.155,-0.040
6.190,-0.150,-0.040
6.192,-0.130,-0.040
6.194,-0.105,-0.035
6.196,-0.085,-0.035
6.198,-0.085,-0.030
6.200,-0.080,-0.030
6.202,-0.095,-0.025
6.204,-0.125,-0.025
6.206,-0.140,-0.025
6.208,-0.155,-0.025
6.210,-0.155,-0.030
6.212,-0.125,-0.030
6.214,-0.115,-0.035
6.216,-0.090,-0.040
6.218,-0.085,-0.045
6.220,-0.080,-0.045
6.222,-0.100,-0.045
6.224,-0.125,-0.045
6.226,-0.155,-0.040
6.228,-0.170,-0.035
6.230,-0.150,-0.030
6.232,-0.125,-0.030
6.234,-0.100,-0.025
6.236,-0.080,-0.025
6.238,-0.075,-0.025
6.240,-0.085,-0.030
6.242,-0.095,-0.030
6.244,-0.140,-0.035
6.246,-0.155,-0.040
6.248,-0.165,-0.045
6.250,-0.155,-0.045
6.252,-0.135,-0.045
6.254,-0.105,-0.050
6.256,-0.095,-0.050
6.258,-0.090,-0.050
6.260,-0.090,-0.050
6.262,-0.100,-0.045
6.264,-0.140,-0.045
6.266,-0.145,-0.045
6.268,-0.160,-0.045
6.270,-0.165,-0.045
6.272,-0.135,-0.045
6.274,-0.100,-0.045
6.276,-0.090,-0.050
6.278,-0.080,-0.050
6.280,-0.085,-0.050
6.282,-0.100,-0.055
6.284,-0.150,-0.050
6.286,-0.155,-0.050
6.288,-0.160,-0.050
6.290,-0.150,-0.045
6.292,-0.135,-0.040
6.294,-0.105,-0.040
6.296,-0.095,-0.040
6.298,-0.085,-0.035
6.300,-0.085,-0.035
6.302,-0.095,-0.040
6.304,-0.135,-0.035
6.306,-0.150,-0.035
6.308,-0.150,-0.030
6.310,-0.125,-0.025
6.312,-0.105,-0.015
6.314,-0.055,-0.005
6.316,-0.045,0.005
6.318,-0.035,0.015
6.320,-0.025,0.020
6.322,-0.035,0.025
6.324,-0.055,0.030
6.326,-0.070,0.030
6.328,-0.080,0.030
6.330,-0.080,0.030
6.332,-0.060,0.030
6.334,-0.040,0.030
6.336,-0.035,0.035
6.338,-0.020,0.035
6.340,-0.030,0.040
6.342,-0.050,0.040
6.344,-0.075,0.045
6.346,-0.090,0.045
6.348,-0.080,0.045
6.350,-0.070,0.045
6.352,-0.050,0.045
6.354,-0.015,0.040
6.356,0.005,0.040
6.358,0.005,0.040
6.360,-0.005,0.040
6.362,-0.030,0.035
6.364,-0.070,0.035
6.366,-0.100,0.035
6.368,-0.120,0.030
6.370,-0.115,0.025
6.372,-0.080,0.025
6.374,-0.040,0.020
6.376,-0.030,0.010
6.378,-0.045,0.005
6.380,-0.070,0.005
6.382,-0.105,0.000
6.384,-0.145,-0.005
6.386,-0.165,-0.010
6.388,-0.165,-0.015
6.390,-0.150,-0.025
6.392,-0.140,-0.030
6.394,-0.120,-0.035
6.396,-0.100,-0.040
6.398,-0.095,-0.045
6.400,-0.110,-0.050
6.402,-0.130,-0.050
6.404,-0.155,-0.050
6.406,-0.170,-0.050
6.408,-0.175,-0.050
6.410,-0.160,-0.050
6.412,-0.135,-0.050
6.414,-0.110,-0.055
6.416,-0.100,-0.055
6.418,-0.100,-0.055
6.420,-0.100,-0.055
6.422,-0.125,-0.055
6.424,-0.170,-0.055
6.426,-0.180,-0.050
6.428,-0.175,-0.050
6.430,-0.155,-0.045
6.432,-0.135,-0.045
6.434,-0.115,-0.045
6.436,-0.105,-0.050
6.438,-0.105,-0.050
6.440,-0.120,-0.050
6.442,-0.140,-0.055
6.444,-0.150,-0.055
6.446,-0.170,-0.055
6.448,-0.160,-0.055
6.450,-0.155,-0.060
6.452,-0.140,-0.065
6.454,-0.125,-0.070
6.456,-0.130,-0.080
6.458,-0.125,-0.080
6.460,-0.130,-0.080
6.462,-0.140,-0.070
6.464,-0.130,-0.045
6.466,-0.125,-0.005
6.468,-0.065,0.050
6.470,0.025,0.120
6.472,0.130,0.200
6.474,0.250,0.290
6.476,0.355,0.375
6.478,0.445,0.460
6.480,0.505,0.530
6.482,0.530,0.590
6.484,0.560,0.630
6.486,0.570,0.645
6.488,0.575,0.640
6.490,0.530,0.610
6.492,0.465,0.555
6.494,0.400,0.485
6.496,0.325,0.395
6.498,0.235,0.300
6.500,0.080,0.200
6.502,-0.065,0.110
6.504,-0.120,0.035
6.506,-0.150,-0.025
6.508,-0.170,-0.065
6.510,-0.170,-0.080
6.512,-0.125,-0.080
6.514,-0.090,-0.070
6.516,-0.080,-0.055
6.518,-0.080,-0.040
6.520,-0.115,-0.025
6.522,-0.150,-0.020
6.524,-0.155,-0.025
6.526,-0.170,-0.030
6.528,-0.170,-0.040
6.530,-0.155,-0.050
6.532,-0.130,-0.060
6.534,-0.115,-0.060
6.536,-0.110,-0.060
6.538,-0.095,-0.055
6.540,-0.125,-0.050
6.542,-0.160,-0.045
6.544,-0.165,-0.040
6.546,-0.170,-0.045
6.548,-0.170,-0.045
6.550,-0.150,-0.050
6.552,-0.110,-0.055
6.554,-0.105,-0.060
6.556,-0.095,-0.065
6.558,-0.095,-0.065
6.560,-0.120,-0.065
6.562,-0.145,-0.060
6.564,-0.165,-0.060
6.566,-0.175,-0.055
6.568,-0.160,-0.055
6.570,-0.145,-0.050
6.572,-0.110,-0.050
6.574,-0.100,-0.045
6.576,-0.085,-0.040
6.578,-0.090,-0.040
6.580,-0.105,-0.035
6.582,-0.135,-0.030
6.584,-0.150,-0.030
6.586,-0.165,-0.035
6.588,-0.165,-0.035
6.590,-0.140,-0.040
6.592,-0.100,-0.045
6.594,-0.095,-0.050
6.596,-0.080,-0.050
6.598,-0.090,-0.045
6.600,-0.100,-0.040
6.602,-0.140,-0.035
6.604,-0.155,-0.030
6.606,-0.165,-0.025
6.608,-0.145,-0.020
6.610,-0.120,-0.015
6.612,-0.090,-0.020
6.614,-0.085,-0.020
6.616,-0.075,-0.025
6.618,-0.080,-0.030
6.620,-0.095,-0.030
6.622,-0.125,-0.030
6.624,-0.155,-0.030
6.626,-0.150,-0.025
6.628,-0.135,-0.020
6.630,-0.110,-0.015
6.632,-0.085,-0.005
6.634,-0.070,-0.005
6.636,-0.050,0.000
6.638,-0.075,0.000
6.640,-0.090,-0.005
6.642,-0.115,-0.005
6.644,-0.130,-0.010
6.646,-0.130,-0.010
6.648,-0.115,-0.015
6.650,-0.100,-0.015
6.652,-0.070,-0.020
6.654,-0.050,-0.015
6.656,-0.045,-0.015
6.658,-0.060,-0.010
6.660,-0.065,-0.010
6.662,-0.095,-0.005
6.664,-0.110,0.005
6.666,-0.120,0.010
6.668,-0.100,0.015
6.670,-0.080,0.015
6.672,-0.045,0.020
6.674,-0.030,0.020
6.676,-0.030,0.020
6.678,-0.040,0.020
6.680,-0.050,0.020
6.682,-0.075,0.020
6.684,-0.085,0.020
6.686,-0.090,0.025
6.688,-0.070,0.025
6.690,-0.045,0.030
6.692,-0.010,0.035
6.694,0.010,0.040
6.696,0.020,0.050
6.698,0.005,0.055
6.700,-0.005,0.060
6.702,-0.025,0.065
6.704,-0.045,0.065
6.706,-0.035,0.065
6.708,-0.020,0.065
6.710,0.010,0.070
6.712,0.035,0.070
6.714,0.050,0.070
6.716,0.060,0.075
6.718,0.035,0.080
6.720,0.025,0.085
6.722,-0.005,0.095
6.724,-0.010,0.100
6.726,0.000,0.105
6.728,0.015,0.105
6.730,0.035,0.105
6.732,0.050,0.100
6.734,0.060,0.095
6.736,0.060,0.090
6.738,0.050,0.090
6.740,0.030,0.090
6.742,0.010,0.090
6.744,-0.020,0.090
6.746,-0.015,0.095
6.748,-0.005,0.105
6.750,0.025,0.110
6.752,0.045,0.110
6.754,0.045,0.110
6.756,0.040,0.110
6.758,0.015,0.100
6.760,-0.015,0.095
6.762,-0.045,0.085
6.764,-0.070,0.075
6.766,-0.075,0.065
6.768,-0.060,0.055
6.770,-0.040,0.050
6.772,-0.025,0.040
6.774,-0.025,0.030
6.776,-0.025,0.025
6.778,-0.050,0.015
6.780,-0.085,0.010
6.782,-0.105,0.005
6.784,-0.130,0.000
6.786,-0.130,-0.005
6.788,-0.120,-0.010
6.790,-0.100,-0.010
6.792,-0.080,-0.010
6.794,-0.075,-0.015
6.796,-0.075,-0.020
6.798,-0.100,-0.025
6.800,-0.125,-0.030
6.802,-0.150,-0.035
6.804,-0.160,-0.040
6.806,-0.175,-0.045
6.808,-0.145,-0.050
6.810,-0.120,-0.050
6.812,-0.100,-0.050
6.814,-0.090,-0.045
6.816,-0.085,-0.040
6.818,-0.105,-0.040
6.820,-0.145,-0.035
6.822,-0.165,-0.035
6.824,-0.170,-0.035
6.826,-0.165,-0.035
6.828,-0.150,-0.040
6.830,-0.115,-0.045
6.832,-0.105,-0.050
6.834,-0.105,-0.055
6.836,-0.105,-0.060
6.838,-0.110,-0.060
6.840,-0.140,-0.060
6.842,-0.175,-0.060
6.844,-0.190,-0.060
6.846,-0.170,-0.055
6.848,-0.150,-0.050
6.850,-0.115,-0.050
6.852,-0.110,-0.045
6.854,-0.100,-0.045
6.856,-0.110,-0.045
6.858,-0.120,-0.045
6.860,-0.155,-0.050
6.862,-0.175,-0.050
6.864,-0.175,-0.055
6.866,-0.165,-0.055
6.868,-0.160,-0.060
6.870,-0.130,-0.060
6.872,-0.120,-0.065
6.874,-0.110,-0.065
6.876,-0.115,-0.065
6.878,-0.125,-0.070
6.880,-0.170,-0.070
6.882,-0.185,-0.070
6.884,-0.195,-0.075
6.886,-0.180,-0.075
6.888,-0.155,-0.080
6.890,-0.125,-0.080
6.892,-0.120,-0.080
6.894,-0.105,-0.075
6.896,-0.110,-0.075
6.898,-0.135,-0.075
6.900,-0.165,-0.075
6.902,-0.185,-0.070
6.904,-0.185,-0.070
6.906,-0.170,-0.070
6.908,-0.160,-0.070
6.910,-0.120,-0.065
6.912,-0.105,-0.060
6.914,-0.095,-0.060
6.916,-0.105,-0.055
6.918,-0.125,-0.050
6.920,-0.155,-0.045
6.922,-0.165,-0.040
6.924,-0.170,-0.040
6.926,-0.160,-0.040
6.928,-0.150,-0.040
6.930,-0.120,-0.040
6.932,-0.100,-0.040
6.934,-0.090,-0.045
6.936,-0.100,-0.045
6.938,-0.115,-0.050
6.940,-0.150,-0.050
6.942,-0.165,-0.050
6.944,-0.160,-0.055
6.946,-0.145,-0.050
6.948,-0.130,-0.050
6.950,-0.090,-0.045
6.952,-0.090,-0.045
6.954,-0.080,-0.040
6.956,-0.100,-0.035
6.958,-0.115,-0.030
6.960,-0.140,-0.030
6.962,-0.160,-0.030
6.964,-0.155,-0.030
6.966,-0.145,-0.035
6.968,-0.125,-0.040
6.970,-0.095,-0.045
6.972,-0.090,-0.050
6.974,-0.085,-0.050
6.976,-0.095,-0.050
6.978,-0.100,-0.050
6.980,-0.130,-0.045
6.982,-0.165,-0.040
6.984,-0.165,-0.035
6.986,-0.145,-0.030
6.988,-0.120,-0.025
6.990,-0.095,-0.020
6.992,-0.090,-0.015
6.994,-0.085,-0.015
6.996,-0.090,-0.015
6.998,-0.110,-0.020
7.000,-0.140,-0.020
7.002,-0.160,-0.025
7.004,-0.160,-0.025
7.006,-0.150,-0.030
7.008,-0.120,-0.030
7.010,-0.095,-0.035
7.012,-0.085,-0.035
7.014,-0.085,-0.040
7.016,-0.095,-0.040
7.018,-0.125,-0.040
7.020,-0.145,-0.040
7.022,-0.160,-0.040
7.024,-0.155,-0.040
7.026,-0.140,-0.040
7.028,-0.115,-0.040
7.030,-0.095,-0.040
7.032,-0.085,-0.040
7.034,-0.085,-0.045
7.036,-0.095,-0.045
7.038,-0.130,-0.045
7.040,-0.150,-0.045
7.042,-0.175,-0.045
7.044,-0.165,-0.045
7.046,-0.150,-0.045
7.048,-0.115,-0.040
7.050,-0.090,-0.040
7.052,-0.090,-0.040
7.054,-0.095,-0.045
7.056,-0.090,-0.045
7.058,-0.130,-0.045
7.060,-0.160,-0.050
7.062,-0.170,-0.050
7.064,-0.155,-0.050
7.066,-0.140,-0.045
7.068,-0.105,-0.045
7.070,-0.100,-0.045
7.072,-0.085,-0.040
7.074,-0.090,-0.040
7.076,-0.100,-0.040
7.078,-0.130,-0.040
7.080,-0.165,-0.040
7.082,-0.165,-0.040
7.084,-0.160,-0.040
7.086,-0.150,-0.035
7.088,-0.110,-0.035
7.090,-0.085,-0.035
7.092,-0.080,-0.030
7.094,-0.090,-0.030
7.096,-0.100,-0.035
7.098,-0.140,-0.035
7.100,-0.155,-0.040
7.102,-0.160,-0.040
7.104,-0.150,-0.040
7.106,-0.125,-0.045
7.108,-0.095,-0.040
7.110,-0.080,-0.040
7.112,-0.060,-0.035
7.114,-0.060,-0.030
7.116,-0.070,-0.025
7.118,-0.095,-0.020
7.120,-0.095,-0.015
7.122,-0.105,-0.005
7.124,-0.090,0.000
7.126,-0.070,0.005
7.128,-0.030,0.015
7.130,-0.025,0.020
7.132,-0.010,0.025
7.134,-0.015,0.030
7.136,-0.030,0.035
7.138,-0.060,0.035
7.140,-0.085,0.030
7.142,-0.090,0.030
7.144,-0.075,0.025
7.146,-0.055,0.020
7.148,-0.030,0.020
7.150,-0.010,0.020
7.152,0.000,0.020
7.154,0.000,0.025
7.156,0.000,0.030
7.158,-0.030,0.035
7.160,-0.065,0.040
7.162,-0.075,0.040
7.164,-0.075,0.045
7.166,-0.060,0.040
7.168,-0.035,0.040
7.170,-0.035,0.030
7.172,-0.025,0.025
7.174,-0.040,0.020
7.176,-0.050,0.010
7.178,-0.080,0.005
7.180,-0.115,0.000
7.182,-0.150,-0.010
7.184,-0.155,-0.015
7.186,-0.130,-0.020
7.188,-0.095,-0.030
7.190,-0.100,-0.035
7.192,-0.080,-0.045
7.194,-0.090,-0.050
7.196,-0.100,-0.055
7.198,-0.135,-0.060
7.200,-0.165,-0.060
7.202,-0.155,-0.055
7.204,-0.150,-0.055
7.206,-0.125,-0.050
7.208,-0.105,-0.045
7.210,-0.100,-0.040
7.212,-0.085,-0.040
7.214,-0.090,-0.035
7.216,-0.105,-0.035
7.218,-0.145,-0.035
7.220,-0.165,-0.040
7.222,-0.160,-0.040
7.224,-0.155,-0.040
7.226,-0.135,-0.040
7.228,-0.100,-0.040
7.230,-0.090,-0.045
7.232,-0.090,-0.045
7.234,-0.100,-0.045
7.236,-0.105,-0.050
7.238,-0.140,-0.055
7.240,-0.160,-0.060
7.242,-0.160,-0.060
7.244,-0.155,-0.060
7.246,-0.135,-0.055
7.248,-0.095,-0.050
7.250,-0.085,-0.040
7.252,-0.080,-0.035
7.254,-0.090,-0.025
7.256,-0.115,-0.025
7.258,-0.160,-0.030
7.260,-0.185,-0.035
7.262,-0.190,-0.045
7.264,-0.170,-0.050
7.266,-0.140,-0.050
7.268,-0.090,-0.040
7.270,-0.040,-0.010
7.272,0.010,0.040
7.274,0.080,0.105
7.276,0.130,0.190
7.278,0.210,0.285
7.280,0.300,0.385
7.282,0.405,0.480
7.284,0.485,0.565
7.286,0.570,0.635
7.288,0.640,0.675
7.290,0.690,0.695
7.292,0.700,0.680
7.294,0.615,0.645
7.296,0.490,0.580
7.298,0.380,0.500
7.300,0.280,0.410
7.302,0.165,0.310
7.304,0.050,0.210
7.306,-0.025,0.125
7.308,-0.045,0.050
7.310,-0.065,-0.010
7.312,-0.095,-0.050
7.314,-0.105,-0.070
7.316,-0.115,-0.075
7.318,-0.130,-0.070
7.320,-0.140,-0.060
7.322,-0.150,-0.050
7.324,-0.135,-0.040
7.326,-0.110,-0.030
7.328,-0.095,-0.030
7.330,-0.080,-0.035
7.332,-0.080,-0.035
7.334,-0.095,-0.040
7.336,-0.120,-0.045
7.338,-0.150,-0.050
7.340,-0.165,-0.050
7.342,-0.160,-0.050
7.344,-0.145,-0.050
7.346,-0.115,-0.055
7.348,-0.110,-0.060
7.350,-0.100,-0.065
7.352,-0.090,-0.065
7.354,-0.100,-0.070
7.356,-0.125,-0.070
7.358,-0.140,-0.070
7.360,-0.145,-0.065
7.362,-0.155,-0.060
7.364,-0.135,-0.050
7.366,-0.105,-0.045
7.368,-0.090,-0.035
7.370,-0.075,-0.030
7.372,-0.075,-0.030
7.374,-0.090,-0.030
7.376,-0.120,-0.030
7.378,-0.135,-0.035
7.380,-0.155,-0.035
7.382,-0.145,-0.035
7.384,-0.125,-0.035
7.386,-0.095,-0.035
7.388,-0.085,-0.035
7.390,-0.080,-0.030
7.392,-0.080,-0.030
7.394,-0.080,-0.025
7.396,-0.110,-0.025
7.398,-0.130,-0.025
7.400,-0.145,-0.020
7.402,-0.140,-0.020
7.404,-0.115,-0.025
7.406,-0.085,-0.025
7.408,-0.075,-0.025
7.410,-0.060,-0.030
7.412,-0.050,-0.030
7.414,-0.060,-0.035
7.416,-0.115,-0.035
7.418,-0.135,-0.035
7.420,-0.145,-0.035
7.422,-0.125,-0.035
7.424,-0.105,-0.035
7.426,-0.075,-0.030
7.428,-0.065,-0.025
7.430,-0.050,-0.020
7.432,-0.055,-0.020
7.434,-0.075,-0.015
7.436,-0.105,-0.010
7.438,-0.135,-0.010
7.440,-0.125,-0.010
7.442,-0.115,-0.010
7.444,-0.085,-0.015
7.446,-0.050,-0.015
7.448,-0.055,-0.015
7.450,-0.040,-0.015
7.452,-0.040,-0.015
7.454,-0.055,-0.010
7.456,-0.090,-0.005
7.458,-0.110,-0.005
7.460,-0.105,0.000
7.462,-0.095,0.005
7.464,-0.085,0.005
7.466,-0.045,0.005
7.468,-0.035,0.005
7.470,-0.030,0.000
7.472,-0.035,0.000
7.474,-0.040,0.000
7.476,-0.070,0.005
7.478,-0.090,0.010
7.480,-0.085,0.015
7.482,-0.065,0.025
7.484,-0.050,0.035
7.486,-0.015,0.045
7.488,0.000,0.050
7.490,0.005,0.050
7.492,0.015,0.050
7.494,-0.005,0.050
7.496,-0.035,0.050
7.498,-0.055,0.050
7.500,-0.050,0.050
7.502,-0.035,0.055
7.504,-0.025,0.060
7.506,0.025,0.070
7.508,0.055,0.075
7.510,0.055,0.085
7.512,0.045,0.095
7.514,0.035,0.100
7.516,0.015,0.105
7.518,0.000,0.105
7.520,0.005,0.105
7.522,0.015,0.105
7.524,0.040,0.100
7.526,0.060,0.100
7.528,0.085,0.100
7.530,0.090,0.105
7.532,0.085,0.105
7.534,0.060,0.110
7.536,0.025,0.115
7.538,0.020,0.125
7.540,0.015,0.130
7.542,0.025,0.130
7.544,0.050,0.130
7.546,0.070,0.130
7.548,0.075,0.130
7.550,0.085,0.125
7.552,0.050,0.120
7.554,0.025,0.115
7.556,0.005,0.115
7.558,-0.015,0.110
7.560,-0.025,0.110
7.562,-0.020,0.105
7.564,0.000,0.100
7.566,0.020,0.090
7.568,0.025,0.085
7.570,0.020,0.075
7.572,-0.010,0.060
7.574,-0.040,0.050
7.576,-0.060,0.040
7.578,-0.095,0.030
7.580,-0.090,0.020
7.582,-0.090,0.015
7.584,-0.060,0.005
7.586,-0.050,0.000
7.588,-0.050,-0.005
7.590,-0.050,-0.010
7.592,-0.070,-0.020
7.594,-0.095,-0.025
7.596,-0.110,-0.030
7.598,-0.145,-0.035
7.600,-0.140,-0.035
7.602,-0.130,-0.040
7.604,-0.105,-0.040
7.606,-0.085,-0.040
7.608,-0.080,-0.040
7.610,-0.080,-0.040
7.612,-0.095,-0.045
7.614,-0.120,-0.045
7.616,-0.135,-0.050
7.618,-0.150,-0.050
7.620,-0.150,-0.055
7.622,-0.135,-0.055
7.624,-0.105,-0.055
7.626,-0.095,-0.055
7.628,-0.085,-0.055
7.630,-0.085,-0.055
7.632,-0.085,-0.055
7.634,-0.125,-0.055
7.636,-0.150,-0.055
7.638,-0.160,-0.055
7.640,-0.150,-0.055
7.642,-0.145,-0.055
7.644,-0.110,-0.055
7.646,-0.100,-0.055
7.648,-0.085,-0.050
7.650,-0.080,-0.045
7.652,-0.110,-0.045
7.654,-0.135,-0.040
7.656,-0.145,-0.040
7.658,-0.160,-0.035
7.660,-0.155,-0.040
7.662,-0.145,-0.040
7.664,-0.110,-0.045
7.666,-0.105,-0.050
7.668,-0.085,-0.055
7.670,-0.095,-0.060
7.672,-0.105,-0.065
7.674,-0.145,-0.070
7.676,-0.160,-0.075
7.678,-0.175,-0.075
7.680,-0.165,-0.075
7.682,-0.145,-0.075
7.684,-0.110,-0.070
7.686,-0.105,-0.070
7.688,-0.100,-0.070
7.690,-0.095,-0.065
7.692,-0.110,-0.065
7.694,-0.150,-0.065
7.696,-0.170,-0.065
7.698,-0.165,-0.060
7.700,-0.160,-0.060
7.702,-0.140,-0.060
7.704,-0.120,-0.060
7.706,-0.100,-0.060
7.708,-0.085,-0.060
7.710,-0.085,-0.060
7.712,-0.105,-0.060
7.714,-0.135,-0.065
7.716,-0.160,-0.065
7.718,-0.175,-0.065
7.720,-0.165,-0.065
7.722,-0.145,-0.060
7.724,-0.110,-0.060
7.726,-0.095,-0.055
7.728,-0.070,-0.050
7.730,-0.080,-0.045
7.732,-0.095,-0.040
7.734,-0.130,-0.035
7.736,-0.150,-0.035
7.738,-0.155,-0.035
7.740,-0.145,-0.040
7.742,-0.120,-0.040
7.744,-0.090,-0.045
7.746,-0.085,-0.050
7.748,-0.080,-0.050
7.750,-0.085,-0.050
7.752,-0.090,-0.050
7.754,-0.125,-0.050
7.756,-0.140,-0.050
7.758,-0.150,-0.050
7.760,-0.135,-0.045
7.762,-0.115,-0.045
7.764,-0.090,-0.045
7.766,-0.075,-0.045
7.768,-0.065,-0.045
7.770,-0.075,-0.045
7.772,-0.095,-0.040
7.774,-0.125,-0.040
7.776,-0.145,-0.035
7.778,-0.155,-0.030
7.780,-0.135,-0.030
7.782,-0.120,-0.030
7.784,-0.080,-0.030
7.786,-0.070,-0.030
7.788,-0.060,-0.035
7.790,-0.075,-0.035
7.792,-0.095,-0.040
7.794,-0.125,-0.040
7.796,-0.150,-0.040
7.798,-0.145,-0.040
7.800,-0.135,-0.040
7.802,-0.120,-0.045
7.804,-0.085,-0.045
7.806,-0.080,-0.045
7.808,-0.075,-0.045
7.810,-0.070,-0.045
7.812,-0.085,-0.045
7.814,-0.130,-0.045
7.816,-0.155,-0.045
7.818,-0.145,-0.040
7.820,-0.140,-0.040
7.822,-0.115,-0.040
7.824,-0.080,-0.040
7.826,-0.085,-0.040
7.828,-0.090,-0.040
7.830,-0.085,-0.040
7.832,-0.085,-0.040
7.834,-0.130,-0.040
7.836,-0.155,-0.040
7.838,-0.145,-0.035
7.840,-0.150,-0.035
7.842,-0.135,-0.030
7.844,-0.090,-0.030
7.846,-0.070,-0.030
7.848,-0.070,-0.035
7.850,-0.100,-0.035
7.852,-0.115,-0.040
7.854,-0.135,-0.045
7.856,-0.145,-0.045
7.858,-0.150,-0.050
7.860,-0.135,-0.050
7.862,-0.120,-0.045
7.864,-0.090,-0.045
7.866,-0.075,-0.040
7.868,-0.075,-0.035
7.870,-0.090,-0.035
7.872,-0.120,-0.030
7.874,-0.145,-0.030
7.876,-0.160,-0.035
7.878,-0.155,-0.035
7.880,-0.135,-0.040
7.882,-0.110,-0.045
7.884,-0.095,-0.045
7.886,-0.075,-0.050
7.888,-0.090,-0.050
7.890,-0.100,-0.050
7.892,-0.125,-0.050
7.894,-0.150,-0.050
7.896,-0.165,-0.045
7.898,-0.150,-0.045
7.900,-0.135,-0.040
7.902,-0.100,-0.040
7.904,-0.070,-0.040
7.906,-0.065,-0.040
7.908,-0.070,-0.045
7.910,-0.080,-0.040
7.912,-0.090,-0.040
7.914,-0.105,-0.035
7.916,-0.120,-0.030
7.918,-0.105,-0.020
7.920,-0.085,-0.010
7.922,-0.050,0.000
7.924,-0.025,0.005
7.926,-0.010,0.010
7.928,-0.005,0.015
7.930,-0.005,0.015
7.932,-0.055,0.015
7.934,-0.080,0.010
7.936,-0.095,0.010
7.938,-0.090,0.005
7.940,-0.070,0.005
7.942,-0.040,0.005
7.944,-0.025,0.010
7.946,-0.015,0.015
7.948,-0.010,0.020
7.950,-0.010,0.025
7.952,-0.030,0.025
7.954,-0.060,0.030
7.956,-0.075,0.035
7.958,-0.065,0.035
7.960,-0.055,0.035
7.962,-0.035,0.030
7.964,-0.030,0.030
7.966,-0.025,0.025
7.968,-0.025,0.015
7.970,-0.050,0.010
7.972,-0.095,0.000
7.974,-0.100,-0.010
7.976,-0.125,-0.020
7.978,-0.150,-0.025
7.980,-0.145,-0.035
7.982,-0.110,-0.040
7.984,-0.100,-0.045
7.986,-0.090,-0.050
7.988,-0.090,-0.055
7.990,-0.110,-0.055
7.992,-0.155,-0.060
7.994,-0.170,-0.065
7.996,-0.175,-0.065
7.998,-0.160,-0.070
8.000,-0.155,-0.070
8.002,-0.130,-0.070
8.004,-0.115,-0.070
8.006,-0.090,-0.065
8.008,-0.105,-0.065
8.010,-0.120,-0.065
8.012,-0.160,-0.060
8.014,-0.180,-0.060
8.016,-0.180,-0.060
8.018,-0.170,-0.060
8.020,-0.150,-0.065
8.022,-0.120,-0.065
8.024,-0.115,-0.065
8.026,-0.110,-0.070
8.028,-0.110,-0.070
8.030,-0.120,-0.075
8.032,-0.155,-0.075
8.034,-0.185,-0.075
8.036,-0.180,-0.075
8.038,-0.170,-0.075
8.040,-0.140,-0.075
8.042,-0.115,-0.070
8.044,-0.110,-0.065
8.046,-0.100,-0.060
8.048,-0.100,-0.055
8.050,-0.120,-0.055
8.052,-0.150,-0.060
8.054,-0.185,-0.065
8.056,-0.190,-0.075
8.058,-0.205,-0.085
8.060,-0.190,-0.095
8.062,-0.160,-0.100
8.064,-0.135,-0.095
8.066,-0.100,-0.080
8.068,-0.080,-0.045
8.070,-0.055,0.005
8.072,-0.005,0.070
8.074,0.045,0.150
8.076,0.140,0.240
8.078,0.270,0.335
8.080,0.385,0.425
8.082,0.495,0.510
8.084,0.575,0.575
8.086,0.610,0.625
8.088,0.645,0.655
8.090,0.655,0.655
8.092,0.575,0.630
8.094,0.460,0.575
8.096,0.365,0.500
8.098,0.305,0.410
8.100,0.210,0.310
8.102,0.120,0.210
8.104,-0.005,0.115
8.106,-0.055,0.035
8.108,-0.100,-0.030
8.110,-0.140,-0.075
8.112,-0.185,-0.095
8.114,-0.200,-0.105
8.116,-0.175,-0.100
8.118,-0.155,-0.085
8.120,-0.130,-0.075
8.122,-0.100,-0.065
8.124,-0.110,-0.060
8.126,-0.100,-0.060
8.128,-0.115,-0.065
8.130,-0.130,-0.070
8.132,-0.165,-0.070
8.134,-0.180,-0.075
8.136,-0.185,-0.075
8.138,-0.165,-0.070
8.140,-0.150,-0.065
8.142,-0.125,-0.060
8.144,-0.110,-0.060
8.146,-0.095,-0.055
8.148,-0.110,-0.060
8.150,-0.140,-0.060
8.152,-0.160,-0.065
8.154,-0.180,-0.070
8.156,-0.170,-0.070
8.158,-0.155,-0.075
8.160,-0.135,-0.075
8.162,-0.110,-0.075
8.164,-0.100,-0.075
8.166,-0.100,-0.075
8.168,-0.115,-0.070
8.170,-0.140,-0.070
8.172,-0.155,-0.065
8.174,-0.165,-0.060
8.176,-0.165,-0.055
8.178,-0.165,-0.055
8.180,-0.115,-0.050
8.182,-0.110,-0.050
8.184,-0.090,-0.055
8.186,-0.095,-0.060
8.188,-0.100,-0.065
8.190,-0.140,-0.070
8.192,-0.155,-0.080
8.194,-0.170,-0.080
8.196,-0.160,-0.080
8.198,-0.140,-0.075
8.200,-0.115,-0.070
8.202,-0.090,-0.060
8.204,-0.090,-0.050
8.206,-0.080,-0.040
8.208,-0.105,-0.035
8.210,-0.135,-0.035
8.212,-0.150,-0.035
8.214,-0.165,-0.040
8.216,-0.140,-0.045
8.218,-0.125,-0.045
8.220,-0.105,-0.045
8.222,-0.075,-0.045
8.224,-0.075,-0.040
8.226,-0.070,-0.040
8.228,-0.085,-0.035
8.230,-0.120,-0.035
8.232,-0.130,-0.035
8.234,-0.155,-0.040
8.236,-0.135,-0.040
8.238,-0.110,-0.045
8.240,-0.080,-0.045
8.242,-0.065,-0.040
8.244,-0.060,-0.040
8.246,-0.060,-0.030
8.248,-0.070,-0.025
8.250,-0.105,-0.020
8.252,-0.115,-0.015
8.254,-0.125,-0.010
8.256,-0.120,-0.010
8.258,-0.105,-0.010
8.260,-0.070,-0.010
8.262,-0.050,-0.010
8.264,-0.050,-0.010
8.266,-0.035,-0.010
8.268,-0.050,-0.005
8.270,-0.080,0.000
8.272,-0.110,0.000
8.274,-0.110,0.005
8.276,-0.095,0.010
8.278,-0.075,0.010
8.280,-0.035,0.010
8.282,-0.020,0.010
8.284,-0.005,0.010
8.286,-0.005,0.015
8.288,-0.015,0.015
8.290,-0.060,0.020
8.292,-0.080,0.030
8.294,-0.060,0.040
8.296,-0.035,0.050
8.298,-0.025,0.060
8.300,0.010,0.065
8.302,0.025,0.075
8.304,0.045,0.075
8.306,0.040,0.080
8.308,0.025,0.080
8.310,0.000,0.080
8.312,-0.015,0.085
8.314,-0.010,0.085
8.316,0.000,0.085
8.318,0.010,0.090
8.320,0.060,0.090
8.322,0.080,0.095
8.324,0.085,0.095
8.326,0.080,0.095
8.328,0.060,0.095
8.330,0.030,0.095
8.332,0.010,0.095
8.334,0.010,0.100
8.336,0.020,0.100
8.338,0.040,0.105
8.340,0.065,0.105
8.342,0.070,0.110
8.344,0.080,0.110
8.346,0.075,0.110
8.348,0.060,0.105
8.350,0.030,0.105
8.352,-0.015,0.100
8.354,-0.025,0.095
8.356,0.000,0.090
8.358,0.010,0.090
8.360,0.020,0.085
8.362,0.020,0.080
8.364,0.025,0.075
8.366,0.010,0.070
8.368,-0.005,0.065
8.370,-0.050,0.055
8.372,-0.075,0.050
8.374,-0.085,0.045
8.376,-0.080,0.040
8.378,-0.075,0.030
8.380,-0.045,0.025
8.382,-0.040,0.020
8.384,-0.045,0.015
8.386,-0.055,0.005
8.388,-0.075,0.000
8.390,-0.110,-0.010
8.392,-0.135,-0.015
8.394,-0.145,-0.020
8.396,-0.130,-0.025
8.398,-0.110,-0.030
8.400,-0.075,-0.035
8.402,-0.070,-0.040
8.404,-0.065,-0.040
8.406,-0.080,-0.040
8.408,-0.100,-0.045
8.410,-0.135,-0.045
8.412,-0.160,-0.050
8.414,-0.155,-0.050
8.416,-0.130,-0.050
8.418,-0.120,-0.050
8.420,-0.090,-0.050
8.422,-0.085,-0.045
8.424,-0.065,-0.045
8.426,-0.080,-0.045
8.428,-0.110,-0.040
8.430,-0.145,-0.040
8.432,-0.160,-0.040
8.434,-0.150,-0.045
8.436,-0.140,-0.045
8.438,-0.110,-0.045
8.440,-0.085,-0.045
8.442,-0.085,-0.045
8.444,-0.075,-0.045
8.446,-0.105,-0.045
8.448,-0.120,-0.045
8.450,-0.150,-0.045
8.452,-0.150,-0.045
8.454,-0.155,-0.040
8.456,-0.145,-0.040
8.458,-0.125,-0.035
8.460,-0.085,-0.035
8.462,-0.070,-0.035
8.464,-0.080,-0.035
8.466,-0.100,-0.035
8.468,-0.135,-0.040
8.470,-0.150,-0.040
8.472,-0.170,-0.045
8.474,-0.160,-0.050
8.476,-0.140,-0.050
8.478,-0.115,-0.055
8.480,-0.105,-0.055
8.482,-0.100,-0.055
8.484,-0.085,-0.055
8.486,-0.095,-0.050
8.488,-0.125,-0.050
8.490,-0.150,-0.050
8.492,-0.165,-0.050
8.494,-0.160,-0.050
8.496,-0.145,-0.050
8.498,-0.100,-0.050
8.500,-0.090,-0.050
8.502,-0.085,-0.045
8.504,-0.080,-0.045
8.506,-0.100,-0.040
8.508,-0.120,-0.035
8.510,-0.140,-0.030
8.512,-0.155,-0.030
8.514,-0.150,-0.030
8.516,-0.125,-0.035
8.518,-0.100,-0.035
8.520,-0.070,-0.040
8.522,-0.070,-0.045
8.524,-0.070,-0.045
8.526,-0.095,-0.045
8.528,-0.120,-0.040
8.530,-0.120,-0.040
8.532,-0.135,-0.035
8.534,-0.135,-0.030
8.536,-0.130,-0.025
8.538,-0.090,-0.025
8.540,-0.075,-0.025
8.542,-0.060,-0.030
8.544,-0.070,-0.035
8.546,-0.070,-0.035
8.548,-0.115,-0.040
8.550,-0.135,-0.040
8.552,-0.145,-0.045
8.554,-0.145,-0.040
8.556,-0.120,-0.040
8.558,-0.090,-0.035
8.560,-0.070,-0.030
8.562,-0.055,-0.025
8.564,-0.065,-0.025
8.566,-0.095,-0.020
8.568,-0.115,-0.020
8.570,-0.135,-0.020
8.572,-0.145,-0.020
8.574,-0.120,-0.020
8.576,-0.110,-0.025
8.578,-0.085,-0.025
8.580,-0.065,-0.030
8.582,-0.060,-0.030
8.584,-0.065,-0.030
8.586,-0.090,-0.030
8.588,-0.110,-0.030
8.590,-0.130,-0.025
8.592,-0.140,-0.025
8.594,-0.130,-0.025
8.596,-0.110,-0.030
8.598,-0.090,-0.030
8.600,-0.080,-0.030
8.602,-0.075,-0.035
8.604,-0.070,-0.035
8.606,-0.080,-0.035
8.608,-0.120,-0.035
8.610,-0.145,-0.035
8.612,-0.155,-0.035
8.614,-0.140,-0.035
8.616,-0.110,-0.035
8.618,-0.080,-0.035
8.620,-0.080,-0.035
8.622,-0.070,-0.035
8.624,-0.065,-0.035
8.626,-0.085,-0.035
8.628,-0.130,-0.035
8.630,-0.155,-0.040
8.632,-0.150,-0.040
8.634,-0.135,-0.045
8.636,-0.115,-0.045
8.638,-0.080,-0.050
8.640,-0.085,-0.055
8.642,-0.080,-0.055
8.644,-0.085,-0.060
8.646,-0.105,-0.060
8.648,-0.130,-0.060
8.650,-0.140,-0.060
8.652,-0.145,-0.055
8.654,-0.130,-0.050
8.656,-0.120,-0.045
8.658,-0.085,-0.040
8.660,-0.075,-0.035
8.662,-0.075,-0.030
8.664,-0.080,-0.025
8.666,-0.095,-0.025
8.668,-0.120,-0.020
8.670,-0.140,-0.020
8.672,-0.135,-0.020
8.674,-0.120,-0.015
8.676,-0.100,-0.010
8.678,-0.060,-0.005
8.680,-0.045,-0.005
8.682,-0.040,0.000
8.684,-0.030,0.005
8.686,-0.045,0.005
8.688,-0.075,0.005
8.690,-0.090,0.005
8.692,-0.085,0.005
8.694,-0.060,0.005
8.696,-0.040,0.005
8.698,-0.020,0.010
8.700,-0.005,0.015
8.702,-0.020,0.020
8.704,-0.035,0.025
8.706,-0.040,0.030
8.708,-0.065,0.035
8.710,-0.080,0.040
8.712,-0.065,0.040
8.714,-0.070,0.040
8.716,-0.035,0.035
8.718,0.005,0.030
8.720,0.020,0.025
8.722,0.020,0.020
8.724,0.000,0.020
8.726,-0.035,0.020
8.728,-0.065,0.020
8.730,-0.095,0.020
8.732,-0.100,0.020
8.734,-0.085,0.020
8.736,-0.065,0.020
8.738,-0.040,0.015
8.740,-0.030,0.010
8.742,-0.050,0.005
8.744,-0.090,-0.005
8.746,-0.115,-0.010
8.748,-0.140,-0.020
8.750,-0.165,-0.025
8.752,-0.150,-0.030
8.754,-0.140,-0.035
8.756,-0.110,-0.035
8.758,-0.080,-0.040
8.760,-0.075,-0.040
8.762,-0.080,-0.045
8.764,-0.090,-0.045
8.766,-0.125,-0.045
8.768,-0.145,-0.045
8.770,-0.160,-0.045
8.772,-0.150,-0.045
8.774,-0.140,-0.045
8.776,-0.110,-0.040
8.778,-0.085,-0.040
8.780,-0.085,-0.040
8.782,-0.080,-0.040
8.784,-0.095,-0.040
8.786,-0.130,-0.040
8.788,-0.145,-0.040
8.790,-0.155,-0.040
8.792,-0.140,-0.040
8.794,-0.130,-0.045
8.796,-0.110,-0.045
8.798,-0.090,-0.045
8.800,-0.090,-0.045
8.802,-0.090,-0.050
8.804,-0.090,-0.050
8.806,-0.130,-0.055
8.808,-0.135,-0.055
8.810,-0.155,-0.055
8.812,-0.150,-0.050
8.814,-0.125,-0.050
8.816,-0.110,-0.045
8.818,-0.090,-0.040
8.820,-0.085,-0.040
8.822,-0.080,-0.045
8.824,-0.085,-0.050
8.826,-0.135,-0.055
8.828,-0.170,-0.065
8.830,-0.170,-0.070
8.832,-0.165,-0.065
8.834,-0.130,-0.055
8.836,-0.075,-0.025
8.838,-0.025,0.020
8.840,0.050,0.080
8.842,0.125,0.155
8.844,0.210,0.235
8.846,0.270,0.325
8.848,0.330,0.410
8.850,0.420,0.490
8.852,0.485,0.550
8.854,0.535,0.600
8.856,0.600,0.625
8.858,0.635,0.625
8.860,0.605,0.605
8.862,0.515,0.560
8.864,0.405,0.490
8.866,0.305,0.410
8.868,0.200,0.315
8.870,0.070,0.220
8.872,-0.050,0.130
8.874,-0.095,0.045
8.876,-0.095,-0.020
8.878,-0.110,-0.065
8.880,-0.120,-0.095
8.882,-0.135,-0.100
8.884,-0.140,-0.095
8.886,-0.155,-0.085
8.888,-0.150,-0.065
8.890,-0.135,-0.050
8.892,-0.120,-0.035
8.894,-0.105,-0.025
8.896,-0.075,-0.025
8.898,-0.075,-0.025
8.900,-0.070,-0.030
8.902,-0.070,-0.035
8.904,-0.080,-0.040
8.906,-0.125,-0.045
8.908,-0.155,-0.045
8.910,-0.150,-0.045
8.912,-0.140,-0.040
8.914,-0.125,-0.040
8.916,-0.080,-0.040
8.918,-0.065,-0.040
8.920,-0.050,-0.040
8.922,-0.070,-0.035
8.924,-0.090,-0.035
8.926,-0.125,-0.035
8.928,-0.140,-0.030
8.930,-0.140,-0.030
8.932,-0.135,-0.025
8.934,-0.115,-0.025
8.936,-0.075,-0.020
8.938,-0.065,-0.020
8.940,-0.060,-0.020
8.942,-0.070,-0.025
8.944,-0.080,-0.025
8.946,-0.110,-0.030
8.948,-0.135,-0.030
8.950,-0.135,-0.030
8.952,-0.120,-0.035
8.954,-0.095,-0.035
8.956,-0.065,-0.035
8.958,-0.065,-0.035
8.960,-0.055,-0.035
8.962,-0.070,-0.035
8.964,-0.090,-0.035
8.966,-0.120,-0.030
8.968,-0.135,-0.030
8.970,-0.130,-0.030
8.972,-0.105,-0.030
8.974,-0.105,-0.025
8.976,-0.065,-0.025
8.978,-0.050,-0.025
8.980,-0.050,-0.020
8.982,-0.060,-0.020
8.984,-0.075,-0.020
8.986,-0.105,-0.020
8.988,-0.125,-0.020
8.990,-0.125,-0.020
8.992,-0.105,-0.020
8.994,-0.085,-0.025
8.996,-0.060,-0.025
8.998,-0.045,-0.030
9.000,-0.045,-0.030
9.002,-0.050,-0.030
9.004,-0.075,-0.025
9.006,-0.095,-0.025
9.008,-0.110,-0.020
9.010,-0.110,-0.020
9.012,-0.095,-0.015
9.014,-0.070,-0.015
9.016,-0.040,-0.015
9.018,-0.030,-0.015
9.020,-0.035,-0.015
9.022,-0.040,-0.010
9.024,-0.065,-0.010
9.026,-0.095,-0.005
9.028,-0.105,0.005
9.030,-0.100,0.015
9.032,-0.090,0.020
9.034,-0.040,0.030
9.036,-0.015,0.035
9.038,-0.010,0.040
9.040,0.000,0.040
9.042,-0.015,0.040
9.044,-0.040,0.040
9.046,-0.060,0.040
9.048,-0.070,0.040
9.050,-0.055,0.045
9.052,-0.040,0.050
9.054,-0.010,0.055
9.056,0.025,0.060
9.058,0.030,0.065
9.060,0.020,0.070
9.062,0.020,0.075
9.064,-0.005,0.080
9.066,-0.020,0.085
9.068,-0.025,0.090
9.070,-0.010,0.095
9.072,0.005,0.100
9.074,0.050,0.105
9.076,0.070,0.110
9.078,0.070,0.115
9.080,0.080,0.120
9.082,0.075,0.120
9.084,0.040,0.125
9.086,0.030,0.120
9.088,0.015,0.120
9.090,0.020,0.120
9.092,0.050,0.120
9.094,0.080,0.120
9.096,0.095,0.125
9.098,0.100,0.125
9.100,0.105,0.130
9.102,0.090,0.135
9.104,0.055,0.140
9.106,0.030,0.140
9.108,0.020,0.140
9.110,0.030,0.135
9.112,0.040,0.135
9.114,0.075,0.130
9.116,0.085,0.130
9.118,0.085,0.125
9.120,0.085,0.125
9.122,0.065,0.125
9.124,0.020,0.125
9.126,-0.010,0.120
9.128,-0.025,0.115
9.130,-0.020,0.105
9.132,-0.015,0.095
9.134,0.000,0.080
9.136,0.000,0.065
9.138,0.010,0.055
9.140,0.000,0.045
9.142,-0.035,0.035
9.144,-0.080,0.030
9.146,-0.105,0.030
9.148,-0.115,0.025
9.150,-0.110,0.020
9.152,-0.085,0.015
9.154,-0.060,0.010
9.156,-0.065,0.000
9.158,-0.055,-0.015
9.160,-0.080,-0.025
9.162,-0.085,-0.035
9.164,-0.125,-0.040
9.166,-0.140,-0.045
9.168,-0.150,-0.045
9.170,-0.140,-0.045
9.172,-0.130,-0.045
9.174,-0.095,-0.040
9.176,-0.090,-0.040
9.178,-0.080,-0.035
9.180,-0.085,-0.035
9.182,-0.110,-0.040
9.184,-0.150,-0.040
9.186,-0.175,-0.045
9.188,-0.165,-0.045
9.190,-0.155,-0.050
9.192,-0.135,-0.055
9.194,-0.105,-0.055
9.196,-0.095,-0.060
9.198,-0.085,-0.060
9.200,-0.100,-0.065
9.202,-0.115,-0.065
9.204,-0.155,-0.065
9.206,-0.175,-0.065
9.208,-0.180,-0.060
9.210,-0.165,-0.060
9.212,-0.150,-0.060
9.214,-0.110,-0.065
9.216,-0.110,-0.065
9.218,-0.090,-0.065
9.220,-0.115,-0.070
9.222,-0.130,-0.070
9.224,-0.160,-0.070
9.226,-0.185,-0.070
9.228,-0.185,-0.070
9.230,-0.170,-0.070
9.232,-0.150,-0.070
9.234,-0.130,-0.070
9.236,-0.120,-0.075
9.238,-0.115,-0.075
9.240,-0.115,-0.080
9.242,-0.145,-0.080
9.244,-0.175,-0.085
9.246,-0.190,-0.085
9.248,-0.175,-0.085
9.250,-0.160,-0.085
9.252,-0.150,-0.080
9.254,-0.115,-0.080
9.256,-0.105,-0.080
9.258,-0.100,-0.075
9.260,-0.120,-0.075
9.262,-0.135,-0.070
9.264,-0.150,-0.070
9.266,-0.170,-0.065
9.268,-0.175,-0.065
9.270,-0.165,-0.060
9.272,-0.125,-0.055
9.274,-0.105,-0.050
9.276,-0.095,-0.045
9.278,-0.090,-0.040
9.280,-0.100,-0.040
9.282,-0.115,-0.040
9.284,-0.140,-0.035
9.286,-0.160,-0.035
9.288,-0.160,-0.035
9.290,-0.140,-0.035
9.292,-0.120,-0.035
9.294,-0.095,-0.035
9.296,-0.080,-0.035
9.298,-0.070,-0.030
9.300,-0.090,-0.030
9.302,-0.105,-0.030
9.304,-0.135,-0.030
9.306,-0.145,-0.030
9.308,-0.145,-0.030
9.310,-0.130,-0.030
9.312,-0.110,-0.030
9.314,-0.085,-0.030
9.316,-0.075,-0.030
9.318,-0.060,-0.030
9.320,-0.075,-0.030
9.322,-0.105,-0.035
9.324,-0.135,-0.035
9.326,-0.155,-0.035
9.328,-0.145,-0.035
9.330,-0.130,-0.035
9.332,-0.095,-0.035
9.334,-0.075,-0.035
9.336,-0.075,-0.035
9.338,-0.065,-0.035
9.340,-0.080,-0.035
9.342,-0.105,-0.035
9.344,-0.125,-0.035
9.346,-0.145,-0.035
9.348,-0.140,-0.030
9.350,-0.125,-0.035
9.352,-0.095,-0.035
9.354,-0.080,-0.035
9.356,-0.070,-0.040
9.358,-0.065,-0.045
9.360,-0.070,-0.050
9.362,-0.115,-0.055
9.364,-0.140,-0.060
9.366,-0.155,-0.060
9.368,-0.150,-0.060
9.370,-0.140,-0.060
9.372,-0.100,-0.055
9.374,-0.080,-0.055
9.376,-0.075,-0.050
9.378,-0.075,-0.045
9.380,-0.085,-0.040
9.382,-0.120,-0.040
9.384,-0.140,-0.040
9.386,-0.150,-0.040
9.388,-0.145,-0.040
9.390,-0.125,-0.040
9.392,-0.095,-0.040
9.394,-0.085,-0.045
9.396,-0.075,-0.045
9.398,-0.070,-0.045
9.400,-0.085,-0.045
9.402,-0.125,-0.045
9.404,-0.150,-0.045
9.406,-0.150,-0.045
9.408,-0.140,-0.050
9.410,-0.125,-0.050
9.412,-0.100,-0.050
9.414,-0.090,-0.050
9.416,-0.075,-0.050
9.418,-0.075,-0.050
9.420,-0.100,-0.050
9.422,-0.125,-0.050
9.424,-0.140,-0.050
9.426,-0.155,-0.050
9.428,-0.145,-0.050
9.430,-0.120,-0.055
9.432,-0.090,-0.055
9.434,-0.090,-0.060
9.436,-0.080,-0.060
9.438,-0.075,-0.060
9.440,-0.095,-0.060
9.442,-0.120,-0.055
9.444,-0.135,-0.050
9.446,-0.150,-0.045
9.448,-0.135,-0.040
9.450,-0.130,-0.035
9.452,-0.090,-0.030
9.454,-0.085,-0.030
9.456,-0.070,-0.035
9.458,-0.075,-0.035
9.460,-0.105,-0.040
9.462,-0.135,-0.045
9.464,-0.150,-0.050
9.466,-0.150,-0.055
9.468,-0.145,-0.055
9.470,-0.115,-0.050
9.472,-0.070,-0.045
9.474,-0.070,-0.040
9.476,-0.055,-0.030
9.478,-0.055,-0.025
9.480,-0.070,-0.020
9.482,-0.095,-0.015
9.484,-0.110,-0.015
9.486,-0.105,-0.010
9.488,-0.080,-0.010
9.490,-0.055,-0.010
9.492,-0.025,-0.010
9.494,-0.010,-0.005
9.496,-0.005,0.000
9.498,-0.015,0.005
9.500,-0.030,0.010
9.502,-0.075,0.015
9.504,-0.100,0.020
9.506,-0.110,0.025
9.508,-0.085,0.025
9.510,-0.060,0.020
9.512,-0.015,0.020
9.514,-0.005,0.015
9.516,0.005,0.010
9.518,0.000,0.010
9.520,-0.005,0.010
9.522,-0.040,0.015
9.524,-0.075,0.020
9.526,-0.090,0.025
9.528,-0.085,0.030
9.530,-0.065,0.030
9.532,-0.040,0.030
9.534,-0.040,0.025
9.536,-0.035,0.015
9.538,-0.045,0.005
9.540,-0.070,-0.005
9.542,-0.105,-0.015
9.544,-0.140,-0.025
9.546,-0.155,-0.030
9.548,-0.150,-0.035
9.550,-0.125,-0.040
9.552,-0.090,-0.040
9.554,-0.080,-0.045
9.556,-0.085,-0.045
9.558,-0.090,-0.050
9.560,-0.110,-0.050
9.562,-0.145,-0.055
9.564,-0.170,-0.055
9.566,-0.170,-0.060
9.568,-0.145,-0.060
9.570,-0.125,-0.055
9.572,-0.100,-0.055
9.574,-0.090,-0.055
9.576,-0.085,-0.055
9.578,-0.105,-0.055
9.580,-0.120,-0.055
9.582,-0.145,-0.055
9.584,-0.165,-0.060
9.586,-0.165,-0.060
9.588,-0.150,-0.060
9.590,-0.115,-0.055
9.592,-0.095,-0.055
9.594,-0.085,-0.050
9.596,-0.095,-0.045
9.598,-0.105,-0.045
9.600,-0.120,-0.045
9.602,-0.145,-0.045
9.604,-0.170,-0.050
9.606,-0.160,-0.055
9.608,-0.145,-0.060
9.610,-0.120,-0.065
9.612,-0.095,-0.070
9.614,-0.090,-0.065
9.616,-0.085,-0.065
9.618,-0.095,-0.060
9.620,-0.125,-0.060
9.622,-0.160,-0.060
9.624,-0.180,-0.070
9.626,-0.175,-0.075
9.628,-0.175,-0.085
9.630,-0.155,-0.095
9.632,-0.130,-0.100
9.634,-0.105,-0.095
9.636,-0.085,-0.075
9.638,-0.065,-0.040
9.640,-0.055,0.015
9.642,0.000,0.085
9.644,0.070,0.165
9.646,0.165,0.250
9.648,0.290,0.340
9.650,0.410,0.430
9.652,0.510,0.505
9.654,0.585,0.570
9.656,0.615,0.615
9.658,0.645,0.640
9.660,0.625,0.645
9.662,0.565,0.625
9.664,0.470,0.580
9.666,0.385,0.510
9.668,0.320,0.430
9.670,0.275,0.335
9.672,0.170,0.235
9.674,0.035,0.140
9.676,-0.025,0.060
9.678,-0.065,-0.010
9.680,-0.125,-0.055
9.682,-0.165,-0.075
9.684,-0.170,-0.085
9.686,-0.140,-0.075
9.688,-0.120,-0.060
9.690,-0.095,-0.045
9.692,-0.075,-0.035
9.694,-0.075,-0.030
9.696,-0.080,-0.030
9.698,-0.090,-0.035
9.700,-0.125,-0.040
9.702,-0.145,-0.050
9.704,-0.160,-0.055
9.706,-0.155,-0.060
9.708,-0.135,-0.060
9.710,-0.095,-0.060
9.712,-0.090,-0.060
9.714,-0.070,-0.055
9.716,-0.075,-0.055
9.718,-0.100,-0.060
9.720,-0.135,-0.060
9.722,-0.150,-0.065
9.724,-0.160,-0.070
9.726,-0.145,-0.070
9.728,-0.115,-0.070
9.730,-0.090,-0.070
9.732,-0.080,-0.065
9.734,-0.070,-0.060
9.736,-0.065,-0.055
9.738,-0.085,-0.050
9.740,-0.120,-0.050
9.742,-0.135,-0.045
9.744,-0.135,-0.045
9.746,-0.135,-0.040
9.748,-0.120,-0.040
9.750,-0.090,-0.040
9.752,-0.080,-0.040
9.754,-0.060,-0.040
9.756,-0.060,-0.045
9.758,-0.075,-0.045
9.760,-0.110,-0.050
9.762,-0.130,-0.050
9.764,-0.130,-0.050
9.766,-0.125,-0.050
9.768,-0.115,-0.050
9.770,-0.075,-0.045
9.772,-0.060,-0.040
9.774,-0.060,-0.035
9.776,-0.060,-0.030
9.778,-0.080,-0.025
9.780,-0.110,-0.025
9.782,-0.115,-0.020
9.784,-0.130,-0.020
9.786,-0.120,-0.020
9.788,-0.100,-0.025
9.790,-0.065,-0.025
9.792,-0.060,-0.025
9.794,-0.050,-0.025
9.796,-0.050,-0.025
9.798,-0.065,-0.020
9.800,-0.090,-0.015
9.802,-0.120,-0.010
9.804,-0.110,-0.005
9.806,-0.095,0.000
9.808,-0.085,0.000
9.810,-0.060,0.000
9.812,-0.040,0.000
9.814,-0.035,0.000
9.816,-0.040,-0.005
9.818,-0.050,-0.005
9.820,-0.085,-0.010
9.822,-0.100,-0.010
9.824,-0.100,-0.010
9.826,-0.090,-0.010
9.828,-0.060,-0.010
9.830,-0.025,-0.005
9.832,-0.015,-0.005
9.834,-0.015,-0.005
9.836,-0.025,-0.005
9.838,-0.035,-0.005
9.840,-0.065,-0.005
9.842,-0.085,0.000
9.844,-0.070,0.000
9.846,-0.060,0.005
9.848,-0.035,0.010
9.850,-0.015,0.015
9.852,0.010,0.020
9.854,0.020,0.025
9.856,0.000,0.030
9.858,-0.015,0.035
9.860,-0.035,0.035
9.862,-0.045,0.040
9.864,-0.035,0.040
9.866,-0.010,0.045
9.868,0.015,0.050
9.870,0.030,0.050
9.872,0.055,0.055
9.874,0.060,0.060
9.876,0.045,0.065
9.878,0.030,0.070
9.880,0.005,0.075
9.882,-0.005,0.080
9.884,0.005,0.080
9.886,0.035,0.085
9.888,0.060,0.085
9.890,0.085,0.090
9.892,0.105,0.090
9.894,0.115,0.095
9.896,0.095,0.100
9.898,0.075,0.105
9.900,0.045,0.110
9.902,0.020,0.120
9.904,0.025,0.125
9.906,0.050,0.130
9.908,0.075,0.130
9.910,0.095,0.130
9.912,0.105,0.130
9.914,0.115,0.130
9.916,0.090,0.125
9.918,0.055,0.120
9.920,0.030,0.120
9.922,0.005,0.115
9.924,0.015,0.115
9.926,0.040,0.110
9.928,0.065,0.110
9.930,0.060,0.105
9.932,0.060,0.100
9.934,0.050,0.090
9.936,0.035,0.080
9.938,-0.005,0.075
9.940,-0.030,0.065
9.942,-0.055,0.055
9.944,-0.060,0.050
9.946,-0.040,0.045
9.948,-0.010,0.040
9.950,-0.005,0.035
9.952,0.000,0.030
9.954,-0.005,0.030
9.956,-0.020,0.025
9.958,-0.065,0.020
9.960,-0.085,0.010
9.962,-0.100,0.005
9.964,-0.105,-0.005
9.966,-0.095,-0.010
9.968,-0.055,-0.015
9.970,-0.035,-0.020
9.972,-0.030,-0.020
9.974,-0.040,-0.020
9.976,-0.055,-0.020
9.978,-0.085,-0.020
9.980,-0.110,-0.015
9.982,-0.115,-0.015
9.984,-0.110,-0.015
9.986,-0.085,-0.020
9.988,-0.065,-0.025
9.990,-0.065,-0.030
9.992,-0.055,-0.035
9.994,-0.045,-0.045
9.996,-0.060,-0.050
9.998,-0.080,-0.050
