'Elapsed time','ECG I','ECG I filtered'
'seconds','mV','mV'
0.000,-0.005,-0.030
0.002,0.025,-0.025
0.004,0.025,-0.020
0.006,0.000,-0.020
0.008,0.005,-0.020
0.010,0.020,-0.020
0.012,0.005,-0.025
0.014,-0.020,-0.030
0.016,-0.020,-0.035
0.018,-0.010,-0.040
0.020,-0.010,-0.040
0.022,0.005,-0.040
0.024,0.030,-0.040
0.026,-0.005,-0.040
0.028,-0.005,-0.040
0.030,0.010,-0.035
0.032,-0.020,-0.035
0.034,-0.025,-0.035
0.036,-0.010,-0.035
0.038,-0.010,-0.035
0.040,-0.015,-0.035
0.042,-0.005,-0.035
0.044,0.015,-0.035
0.046,0.025,-0.035
0.048,0.020,-0.030
0.050,0.020,-0.030
0.052,-0.010,-0.030
0.054,-0.020,-0.030
0.056,0.000,-0.030
0.058,0.005,-0.030
0.060,-0.010,-0.025
0.062,0.030,-0.025
0.064,0.040,-0.025
0.066,0.025,-0.020
0.068,0.025,-0.015
0.070,0.025,-0.010
0.072,0.005,-0.005
0.074,0.025,0.000
0.076,0.020,0.005
0.078,0.010,0.005
0.080,0.000,0.010
0.082,0.040,0.005
0.084,0.030,0.000
0.086,0.015,-0.005
0.088,0.020,-0.010
0.090,0.005,-0.020
0.092,-0.020,-0.025
0.094,-0.010,-0.025
0.096,-0.010,-0.025
0.098,0.005,-0.020
0.100,0.015,-0.015
0.102,0.050,-0.010
0.104,0.040,-0.005
0.106,0.045,0.000
0.108,0.040,0.000
0.110,0.050,0.000
0.112,0.000,-0.005
0.114,0.000,-0.010
0.116,0.010,-0.015
0.118,0.010,-0.015
0.120,0.010,-0.020
0.122,0.030,-0.020
0.124,0.015,-0.020
0.126,0.000,-0.020
0.128,0.005,-0.015
0.130,0.025,-0.015
0.132,0.005,-0.015
0.134,0.010,-0.015
0.136,-0.005,-0.010
0.138,0.020,-0.010
0.140,0.015,-0.010
0.142,0.025,-0.015
0.144,0.020,-0.015
0.146,0.025,-0.020
0.148,0.015,-0.020
0.150,0.030,-0.025
0.152,-0.010,-0.030
0.154,-0.010,-0.030
0.156,0.005,-0.030
0.158,0.005,-0.025
0.160,0.015,-0.025
0.162,0.040,-0.015
0.164,0.035,-0.010
0.166,0.025,-0.005
0.168,0.000,0.000
0.170,0.015,0.000
0.172,0.005,0.000
0.174,0.005,-0.005
0.176,0.005,-0.015
0.178,-0.005,-0.020
0.180,-0.010,-0.030
0.182,0.010,-0.035
0.184,-0.005,-0.040
0.186,0.005,-0.045
0.188,0.015,-0.045
0.190,0.020,-0.040
0.192,0.005,-0.035
0.194,0.010,-0.030
0.196,0.010,-0.025
0.198,0.000,-0.020
0.200,-0.005,-0.015
0.202,0.030,-0.010
0.204,0.035,-0.005
0.206,0.025,-0.005
0.208,0.020,-0.005
0.210,0.030,-0.005
0.212,0.020,-0.005
0.214,0.025,-0.010
0.216,0.010,-0.015
0.218,0.015,-0.025
0.220,0.030,-0.035
0.222,0.050,-0.040
0.224,-0.005,-0.045
0.226,-0.020,-0.050
0.228,-0.025,-0.050
0.230,0.000,-0.045
0.232,-0.015,-0.040
0.234,0.005,-0.035
0.236,-0.005,-0.025
0.238,-0.015,-0.020
0.240,0.005,-0.020
0.242,0.025,-0.020
0.244,0.030,-0.025
0.246,0.015,-0.035
0.248,0.010,-0.040
0.250,0.005,-0.045
0.252,0.000,-0.050
0.254,0.005,-0.050
0.256,0.010,-0.045
0.258,0.005,-0.035
0.260,0.030,-0.025
0.262,0.060,-0.010
0.264,0.045,0.005
0.266,0.045,0.015
0.268,0.065,0.025
0.270,0.070,0.030
0.272,0.065,0.030
0.274,0.060,0.030
0.276,0.060,0.030
0.278,0.035,0.030
0.280,0.075,0.030
0.282,0.110,0.030
0.284,0.080,0.035
0.286,0.070,0.035
0.288,0.060,0.040
0.290,0.055,0.040
0.292,0.065,0.040
0.294,0.070,0.045
0.296,0.085,0.045
0.298,0.085,0.045
0.300,0.095,0.050
0.302,0.115,0.050
0.304,0.105,0.050
0.306,0.115,0.055
0.308,0.120,0.055
0.310,0.065,0.055
0.312,0.045,0.050
0.314,0.055,0.045
0.316,0.055,0.040
0.318,0.045,0.035
0.320,0.080,0.030
0.322,0.070,0.025
0.324,0.050,0.020
0.326,0.045,0.020
0.328,0.070,0.020
0.330,0.055,0.020
0.332,0.035,0.020
0.334,0.010,0.015
0.336,0.000,0.010
0.338,-0.010,0.005
0.340,-0.005,-0.005
0.342,0.015,-0.015
0.344,0.030,-0.025
0.346,0.020,-0.030
0.348,0.015,-0.035
0.350,-0.040,-0.035
0.352,-0.010,-0.035
0.354,-0.020,-0.035
0.356,-0.025,-0.030
0.358,-0.025,-0.035
0.360,0.020,-0.035
0.362,0.020,-0.040
0.364,-0.025,-0.045
0.366,-0.025,-0.050
0.368,-0.015,-0.050
0.370,-0.005,-0.050
0.372,-0.005,-0.050
0.374,0.005,-0.045
0.376,0.000,-0.040
0.378,-0.035,-0.030
0.380,0.005,-0.025
0.382,0.020,-0.025
0.384,0.030,-0.025
0.386,0.010,-0.025
0.388,-0.005,-0.025
0.390,-0.030,-0.030
0.392,-0.010,-0.030
0.394,-0.005,-0.030
0.396,0.000,-0.035
0.398,-0.025,-0.035
0.400,0.005,-0.035
0.402,0.000,-0.040
0.404,-0.010,-0.040
0.406,-0.005,-0.045
0.408,-0.005,-0.040
0.410,-0.015,-0.030
0.412,0.035,-0.005
0.414,0.045,0.030
0.416,0.110,0.080
0.418,0.165,0.140
0.420,0.270,0.215
0.422,0.400,0.300
0.424,0.500,0.385
0.426,0.550,0.465
0.428,0.610,0.540
0.430,0.615,0.600
0.432,0.680,0.640
0.434,0.730,0.650
0.436,0.715,0.640
0.438,0.620,0.600
0.440,0.560,0.540
0.442,0.490,0.455
0.444,0.410,0.360
0.446,0.300,0.260
0.448,0.145,0.160
0.450,0.025,0.075
0.452,-0.020,0.005
0.454,-0.040,-0.045
0.456,-0.030,-0.070
0.458,-0.035,-0.080
0.460,0.005,-0.075
0.462,0.015,-0.065
0.464,-0.005,-0.050
0.466,-0.005,-0.040
0.468,0.015,-0.035
0.470,-0.010,-0.035
0.472,-0.005,-0.040
0.474,-0.030,-0.045
0.476,-0.020,-0.050
0.478,0.000,-0.055
0.480,0.005,-0.055
0.482,-0.005,-0.050
0.484,-0.005,-0.045
0.486,-0.015,-0.040
0.488,-0.005,-0.035
0.490,-0.020,-0.035
0.492,-0.010,-0.040
0.494,-0.010,-0.045
0.496,-0.025,-0.045
0.498,-0.005,-0.050
0.500,0.015,-0.050
0.502,0.010,-0.050
0.504,0.005,-0.045
0.506,0.015,-0.040
0.508,-0.005,-0.035
0.510,-0.030,-0.030
0.512,0.000,-0.025
0.514,0.000,-0.025
0.516,-0.025,-0.025
0.518,0.005,-0.030
0.520,0.020,-0.035
0.522,-0.005,-0.035
0.524,-0.015,-0.040
0.526,0.000,-0.040
0.528,0.035,-0.040
0.530,0.000,-0.040
0.532,0.000,-0.040
0.534,0.010,-0.035
0.536,-0.010,-0.035
0.538,0.005,-0.035
0.540,0.035,-0.030
0.542,0.035,-0.025
0.544,0.030,-0.025
0.546,0.030,-0.020
0.548,0.005,-0.015
0.550,-0.020,-0.010
0.552,0.010,-0.010
0.554,0.015,-0.010
0.556,0.000,-0.015
0.558,0.025,-0.020
0.560,0.050,-0.025
0.562,0.025,-0.030
0.564,0.025,-0.035
0.566,0.035,-0.035
0.568,0.010,-0.035
0.570,0.005,-0.030
0.572,-0.005,-0.025
0.574,-0.010,-0.020
0.576,-0.005,-0.015
0.578,0.025,-0.015
0.580,0.050,-0.010
0.582,0.045,-0.010
0.584,0.035,-0.010
0.586,0.040,-0.005
0.588,0.015,-0.005
0.590,0.010,-0.005
0.592,0.025,-0.005
0.594,0.035,-0.005
0.596,0.015,-0.005
0.598,0.060,-0.005
0.600,0.065,-0.005
0.602,0.045,-0.005
0.604,0.055,-0.005
0.606,0.050,0.000
0.608,0.025,0.005
0.610,0.035,0.010
0.612,0.050,0.015
0.614,0.050,0.020
0.616,0.040,0.025
0.618,0.075,0.030
0.620,0.095,0.035
0.622,0.090,0.040
0.624,0.100,0.040
0.626,0.120,0.040
0.628,0.075,0.045
0.630,0.050,0.045
0.632,0.065,0.050
0.634,0.090,0.050
0.636,0.100,0.055
0.638,0.125,0.060
0.640,0.130,0.065
0.642,0.125,0.075
0.644,0.120,0.080
0.646,0.135,0.085
0.648,0.105,0.085
0.650,0.110,0.090
0.652,0.135,0.095
0.654,0.135,0.100
0.656,0.120,0.105
0.658,0.160,0.105
0.660,0.175,0.110
0.662,0.165,0.110
0.664,0.160,0.110
0.666,0.175,0.110
0.668,0.145,0.110
0.670,0.135,0.105
0.672,0.135,0.105
0.674,0.145,0.105
0.676,0.150,0.105
0.678,0.150,0.105
0.680,0.170,0.105
0.682,0.180,0.110
0.684,0.150,0.110
0.686,0.155,0.110
0.688,0.140,0.110
0.690,0.130,0.110
0.692,0.140,0.105
0.694,0.130,0.100
0.696,0.110,0.090
0.698,0.130,0.085
0.700,0.120,0.075
0.702,0.130,0.065
0.704,0.090,0.060
0.706,0.070,0.055
0.708,0.055,0.055
0.710,0.075,0.050
0.712,0.065,0.045
0.714,0.060,0.040
0.716,0.045,0.035
0.718,0.065,0.025
0.720,0.060,0.010
0.722,0.045,0.000
0.724,0.045,-0.010
0.726,0.050,-0.015
0.728,0.005,-0.020
0.730,0.025,-0.020
0.732,0.020,-0.015
0.734,0.015,-0.010
0.736,0.005,-0.010
0.738,0.020,-0.010
0.740,0.015,-0.010
0.742,0.015,-0.015
0.744,-0.005,-0.025
0.746,0.015,-0.035
0.748,-0.025,-0.040
0.750,-0.005,-0.050
0.752,-0.005,-0.050
0.754,0.000,-0.050
0.756,0.005,-0.050
0.758,0.025,-0.045
0.760,0.005,-0.040
0.762,0.000,-0.035
0.764,0.015,-0.030
0.766,0.035,-0.030
0.768,-0.005,-0.030
0.770,0.000,-0.035
0.772,-0.020,-0.035
0.774,-0.030,-0.040
0.776,-0.010,-0.040
0.778,0.020,-0.040
0.780,0.000,-0.040
0.782,-0.010,-0.040
0.784,-0.020,-0.040
0.786,-0.010,-0.040
0.788,-0.030,-0.040
0.790,-0.015,-0.045
0.792,-0.015,-0.050
0.794,-0.020,-0.055
0.796,-0.015,-0.055
0.798,-0.005,-0.060
0.800,-0.010,-0.065
0.802,-0.010,-0.065
0.804,-0.010,-0.065
0.806,-0.005,-0.065
0.808,-0.050,-0.065
0.810,-0.045,-0.065
0.812,-0.005,-0.060
0.814,-0.005,-0.060
0.816,0.005,-0.055
0.818,0.020,-0.055
0.820,0.005,-0.050
0.822,-0.010,-0.045
0.824,-0.005,-0.045
0.826,-0.020,-0.040
0.828,-0.035,-0.040
0.830,-0.020,-0.040
0.832,-0.015,-0.040
0.834,-0.035,-0.040
0.836,-0.005,-0.045
0.838,0.015,-0.045
0.840,-0.015,-0.050
0.842,-0.010,-0.055
0.844,0.005,-0.055
0.846,-0.010,-0.050
0.848,-0.030,-0.050
0.850,-0.025,-0.045
0.852,-0.020,-0.040
0.854,-0.010,-0.030
0.856,0.020,-0.025
0.858,0.030,-0.025
0.860,0.020,-0.020
0.862,0.015,-0.020
0.864,0.010,-0.025
0.866,-0.010,-0.025
0.868,-0.030,-0.030
0.870,-0.025,-0.035
0.872,0.005,-0.035
0.874,0.000,-0.035
0.876,0.010,-0.035
0.878,0.025,-0.035
0.880,0.005,-0.035
0.882,-0.015,-0.030
0.884,0.005,-0.025
0.886,0.015,-0.025
0.888,0.005,-0.020
0.890,0.015,-0.020
0.892,0.000,-0.020
0.894,-0.005,-0.020
0.896,0.030,-0.020
0.898,0.025,-0.025
0.900,-0.005,-0.025
0.902,0.000,-0.030
0.904,0.015,-0.035
0.906,-0.010,-0.035
0.908,-0.020,-0.040
0.910,0.000,-0.040
0.912,0.010,-0.040
0.914,-0.020,-0.040
0.916,0.020,-0.040
0.918,0.020,-0.040
0.920,0.005,-0.040
0.922,0.005,-0.035
0.924,0.005,-0.035
0.926,-0.010,-0.035
0.928,-0.005,-0.035
0.930,-0.015,-0.035
0.932,-0.005,-0.035
0.934,-0.010,-0.030
0.936,0.025,-0.030
0.938,0.030,-0.030
0.940,0.020,-0.030
0.942,0.010,-0.030
0.944,0.015,-0.030
0.946,-0.040,-0.035
0.948,-0.030,-0.040
0.950,-0.015,-0.040
0.952,0.000,-0.045
0.954,-0.010,-0.045
0.956,0.015,-0.045
0.958,0.015,-0.040
0.960,0.015,-0.040
0.962,0.010,-0.035
0.964,0.015,-0.035
0.966,-0.025,-0.030
0.968,-0.040,-0.030
0.970,-0.020,-0.035
0.972,0.005,-0.035
0.974,-0.010,-0.040
0.976,0.030,-0.040
0.978,0.010,-0.040
0.980,0.000,-0.040
0.982,-0.010,-0.035
0.984,0.015,-0.035
0.986,-0.010,-0.030
0.988,-0.020,-0.025
0.990,-0.015,-0.025
0.992,-0.010,-0.030
0.994,-0.020,-0.030
0.996,0.005,-0.035
0.998,0.005,-0.040
1.000,0.005,-0.045
1.002,-0.025,-0.050
1.004,-0.020,-0.050
1.006,-0.045,-0.045
1.008,-0.020,-0.045
1.010,-0.015,-0.040
1.012,-0.015,-0.035
1.014,-0.025,-0.030
1.016,0.005,-0.025
1.018,0.015,-0.025
1.020,0.010,-0.025
1.022,0.010,-0.030
1.024,0.010,-0.035
1.026,-0.025,-0.035
1.028,-0.020,-0.040
1.030,-0.025,-0.040
1.032,-0.010,-0.040
1.034,-0.020,-0.045
1.036,0.010,-0.045
1.038,-0.010,-0.045
1.040,-0.020,-0.045
1.042,-0.005,-0.045
1.044,0.010,-0.045
1.046,-0.030,-0.045
1.048,-0.010,-0.045
1.050,-0.025,-0.040
1.052,-0.030,-0.035
1.054,-0.010,-0.030
1.056,0.035,-0.020
1.058,0.030,-0.015
1.060,0.025,-0.005
1.062,0.015,0.000
1.064,0.035,0.000
1.066,0.015,0.005
1.068,0.025,0.005
1.070,0.050,0.010
1.072,0.055,0.010
1.074,0.045,0.015
1.076,0.090,0.025
1.078,0.080,0.030
1.080,0.085,0.035
1.082,0.075,0.035
1.084,0.040,0.035
1.086,0.020,0.030
1.088,0.025,0.025
1.090,0.035,0.020
1.092,0.030,0.015
1.094,0.050,0.015
1.096,0.090,0.015
1.098,0.085,0.020
1.100,0.090,0.025
1.102,0.095,0.035
1.104,0.070,0.045
1.106,0.060,0.050
1.108,0.075,0.050
1.110,0.065,0.050
1.112,0.035,0.040
1.114,0.045,0.030
1.116,0.060,0.020
1.118,0.055,0.010
1.120,0.030,0.000
1.122,0.030,-0.010
1.124,0.035,-0.015
1.126,0.020,-0.020
1.128,-0.005,-0.025
1.130,-0.020,-0.030
1.132,-0.030,-0.035
1.134,-0.020,-0.040
1.136,-0.010,-0.045
1.138,-0.035,-0.050
1.140,-0.035,-0.055
1.142,-0.010,-0.060
1.144,-0.030,-0.065
1.146,-0.050,-0.065
1.148,-0.045,-0.070
1.150,-0.035,-0.070
1.152,-0.045,-0.075
1.154,-0.025,-0.075
1.156,-0.020,-0.075
1.158,-0.015,-0.075
1.160,-0.010,-0.075
1.162,-0.025,-0.070
1.164,-0.030,-0.065
1.166,-0.045,-0.065
1.168,-0.035,-0.060
1.170,-0.040,-0.055
1.172,-0.055,-0.055
1.174,-0.025,-0.060
1.176,0.000,-0.065
1.178,-0.020,-0.065
1.180,-0.045,-0.070
1.182,-0.030,-0.070
1.184,-0.055,-0.065
1.186,-0.040,-0.065
1.188,-0.015,-0.055
1.190,-0.025,-0.055
1.192,-0.045,-0.050
1.194,-0.025,-0.055
1.196,-0.025,-0.060
1.198,-0.050,-0.070
1.200,-0.045,-0.075
1.202,-0.030,-0.075
1.204,-0.040,-0.065
1.206,-0.020,-0.045
1.208,0.025,-0.010
1.210,0.075,0.040
1.212,0.125,0.100
1.214,0.230,0.175
1.216,0.320,0.255
1.218,0.400,0.340
1.220,0.470,0.420
1.222,0.575,0.495
1.224,0.605,0.560
1.226,0.665,0.605
1.228,0.710,0.630
1.230,0.730,0.635
1.232,0.630,0.605
1.234,0.565,0.550
1.236,0.485,0.470
1.238,0.395,0.370
1.240,0.305,0.265
1.242,0.160,0.155
1.244,-0.035,0.060
1.246,-0.070,-0.020
1.248,-0.035,-0.075
1.250,-0.055,-0.100
1.252,-0.085,-0.110
1.254,-0.025,-0.095
1.256,-0.015,-0.080
1.258,-0.010,-0.055
1.260,-0.025,-0.040
1.262,-0.015,-0.035
1.264,-0.030,-0.035
1.266,-0.015,-0.040
1.268,-0.035,-0.050
1.270,-0.035,-0.060
1.272,-0.030,-0.070
1.274,-0.005,-0.070
1.276,-0.025,-0.070
1.278,-0.040,-0.070
1.280,-0.045,-0.065
1.282,-0.035,-0.060
1.284,-0.065,-0.060
1.286,-0.055,-0.065
1.288,-0.030,-0.070
1.290,-0.035,-0.070
1.292,-0.040,-0.075
1.294,-0.015,-0.075
1.296,-0.020,-0.070
1.298,-0.030,-0.070
1.300,-0.030,-0.065
1.302,-0.010,-0.060
1.304,-0.025,-0.055
1.306,-0.025,-0.055
1.308,-0.035,-0.050
1.310,-0.035,-0.050
1.312,-0.020,-0.050
1.314,0.015,-0.050
1.316,0.010,-0.045
1.318,0.005,-0.045
1.320,-0.015,-0.045
1.322,-0.020,-0.050
1.324,-0.040,-0.050
1.326,-0.035,-0.055
1.328,-0.025,-0.055
1.330,-0.040,-0.060
1.332,-0.055,-0.060
1.334,-0.015,-0.065
1.336,-0.010,-0.065
1.338,-0.015,-0.060
1.340,-0.015,-0.060
1.342,0.000,-0.055
1.344,-0.035,-0.050
1.346,-0.020,-0.045
1.348,-0.015,-0.045
1.350,-0.030,-0.040
1.352,-0.010,-0.040
1.354,0.025,-0.035
1.356,0.015,-0.030
1.358,0.000,-0.030
1.360,0.005,-0.025
1.362,0.005,-0.025
1.364,-0.010,-0.020
1.366,-0.010,-0.020
1.368,-0.015,-0.020
1.370,-0.005,-0.020
1.372,0.000,-0.020
1.374,0.035,-0.025
1.376,0.010,-0.025
1.378,0.020,-0.025
1.380,0.010,-0.025
1.382,-0.005,-0.020
1.384,-0.025,-0.020
1.386,-0.010,-0.015
1.388,0.010,-0.010
1.390,0.005,-0.010
1.392,0.015,-0.005
1.394,0.050,-0.005
1.396,0.055,-0.005
1.398,0.050,0.000
1.400,0.055,0.000
1.402,0.055,0.000
1.404,0.015,0.005
1.406,0.030,0.005
1.408,0.010,0.010
1.410,0.000,0.015
1.412,0.035,0.020
1.414,0.075,0.020
1.416,0.060,0.020
1.418,0.065,0.025
1.420,0.065,0.025
1.422,0.025,0.030
1.424,0.035,0.035
1.426,0.075,0.040
1.428,0.060,0.045
1.430,0.065,0.055
1.432,0.110,0.065
1.434,0.120,0.070
1.436,0.080,0.075
1.438,0.105,0.080
1.440,0.130,0.080
1.442,0.125,0.085
1.444,0.100,0.085
1.446,0.115,0.085
1.448,0.115,0.090
1.450,0.105,0.090
1.452,0.135,0.095
1.454,0.145,0.095
1.456,0.135,0.100
1.458,0.160,0.100
1.460,0.160,0.105
1.462,0.135,0.105
1.464,0.125,0.105
1.466,0.135,0.105
1.468,0.145,0.110
1.470,0.135,0.110
1.472,0.150,0.110
1.474,0.170,0.110
1.476,0.150,0.110
1.478,0.150,0.105
1.480,0.145,0.105
1.482,0.120,0.100
1.484,0.115,0.095
1.486,0.135,0.090
1.488,0.105,0.085
1.490,0.080,0.080
1.492,0.110,0.075
1.494,0.115,0.075
1.496,0.105,0.070
1.498,0.110,0.065
1.500,0.100,0.065
1.502,0.080,0.060
1.504,0.050,0.055
1.506,0.045,0.050
1.508,0.045,0.040
1.510,0.040,0.035
1.512,0.060,0.025
1.514,0.065,0.020
1.516,0.055,0.015
1.518,0.025,0.005
1.520,0.025,0.005
1.522,0.020,0.000
1.524,-0.010,-0.005
1.526,0.010,-0.005
1.528,0.015,-0.005
1.530,-0.005,-0.010
1.532,0.030,-0.010
1.534,0.030,-0.015
1.536,0.020,-0.020
1.538,-0.010,-0.025
1.540,-0.015,-0.030
1.542,-0.025,-0.035
1.544,-0.020,-0.045
1.546,-0.020,-0.050
1.548,-0.040,-0.055
1.550,-0.030,-0.055
1.552,-0.010,-0.055
1.554,-0.005,-0.050
1.556,-0.025,-0.050
1.558,-0.025,-0.045
1.560,0.005,-0.040
1.562,-0.005,-0.040
1.564,-0.035,-0.040
1.566,-0.050,-0.040
1.568,-0.020,-0.040
1.570,-0.035,-0.045
1.572,-0.010,-0.045
1.574,-0.010,-0.050
1.576,-0.010,-0.050
1.578,-0.025,-0.045
1.580,-0.010,-0.040
1.582,-0.025,-0.040
1.584,-0.040,-0.035
1.586,-0.040,-0.035
1.588,-0.030,-0.040
1.590,-0.030,-0.045
1.592,-0.015,-0.055
1.594,-0.030,-0.065
1.596,-0.030,-0.070
1.598,-0.045,-0.080
1.600,-0.045,-0.085
1.602,-0.035,-0.080
1.604,-0.035,-0.080
1.606,-0.030,-0.070
1.608,-0.010,-0.065
1.610,-0.030,-0.055
1.612,-0.010,-0.050
1.614,-0.005,-0.050
1.616,-0.010,-0.050
1.618,-0.030,-0.055
1.620,-0.025,-0.060
1.622,-0.050,-0.060
1.624,-0.025,-0.055
1.626,-0.015,-0.050
1.628,-0.020,-0.045
1.630,-0.025,-0.035
1.632,0.020,-0.025
1.634,0.010,-0.015
1.636,-0.005,-0.015
1.638,-0.010,-0.015
1.640,-0.020,-0.025
1.642,-0.045,-0.035
1.644,-0.025,-0.045
1.646,-0.025,-0.055
1.648,-0.035,-0.060
1.650,-0.020,-0.060
1.652,0.015,-0.060
1.654,-0.005,-0.055
1.656,0.000,-0.050
1.658,-0.015,-0.040
1.660,-0.005,-0.035
1.662,-0.025,-0.030
1.664,-0.010,-0.030
1.666,-0.010,-0.030
1.668,0.005,-0.030
1.670,0.005,-0.030
1.672,0.025,-0.030
1.674,-0.005,-0.025
1.676,0.010,-0.025
1.678,0.005,-0.025
1.680,0.010,-0.025
1.682,-0.020,-0.025
1.684,-0.025,-0.025
1.686,-0.015,-0.030
1.688,-0.005,-0.030
1.690,-0.015,-0.030
1.692,0.000,-0.035
1.694,0.000,-0.035
1.696,0.010,-0.035
1.698,0.000,-0.035
1.700,-0.010,-0.035
1.702,-0.020,-0.035
1.704,-0.010,-0.035
1.706,-0.005,-0.035
1.708,0.000,-0.035
1.710,0.010,-0.035
1.712,0.045,-0.030
1.714,0.010,-0.030
1.716,-0.015,-0.025
1.718,0.000,-0.025
1.720,0.005,-0.020
1.722,-0.015,-0.025
1.724,0.000,-0.030
1.726,-0.020,-0.035
1.728,-0.025,-0.040
1.730,-0.005,-0.045
1.732,0.020,-0.045
1.734,-0.010,-0.045
1.736,0.000,-0.045
1.738,0.015,-0.040
1.740,-0.010,-0.030
1.742,-0.035,-0.030
1.744,-0.020,-0.030
1.746,-0.035,-0.030
1.748,-0.040,-0.035
1.750,-0.005,-0.045
1.752,0.020,-0.055
1.754,-0.010,-0.060
1.756,-0.010,-0.065
1.758,0.005,-0.065
1.760,-0.005,-0.060
1.762,-0.020,-0.050
1.764,0.000,-0.040
1.766,0.005,-0.030
1.768,-0.015,-0.025
1.770,0.005,-0.020
1.772,0.000,-0.020
1.774,-0.015,-0.025
1.776,-0.010,-0.035
1.778,-0.015,-0.045
1.780,-0.030,-0.050
1.782,-0.025,-0.055
1.784,-0.005,-0.055
1.786,0.005,-0.055
1.788,-0.030,-0.050
1.790,-0.005,-0.050
1.792,0.010,-0.045
1.794,-0.025,-0.040
1.796,-0.015,-0.040
1.798,0.010,-0.040
1.800,-0.030,-0.040
1.802,-0.030,-0.040
1.804,-0.030,-0.040
1.806,-0.030,-0.045
1.808,-0.035,-0.045
1.810,-0.005,-0.045
1.812,0.015,-0.045
1.814,-0.005,-0.050
1.816,-0.005,-0.050
1.818,0.000,-0.050
1.820,-0.025,-0.050
1.822,-0.030,-0.050
1.824,-0.010,-0.050
1.826,-0.010,-0.045
1.828,-0.025,-0.040
1.830,-0.005,-0.040
1.832,-0.005,-0.035
1.834,0.005,-0.035
1.836,-0.010,-0.030
1.838,0.005,-0.035
1.840,-0.015,-0.035
1.842,-0.025,-0.035
1.844,-0.015,-0.030
1.846,-0.020,-0.025
1.848,-0.010,-0.015
1.850,0.060,-0.005
1.852,0.070,0.010
1.854,0.060,0.020
1.856,0.060,0.035
1.858,0.085,0.045
1.860,0.070,0.055
1.862,0.065,0.055
1.864,0.045,0.055
1.866,0.030,0.050
1.868,0.025,0.045
1.870,0.090,0.035
1.872,0.075,0.030
1.874,0.065,0.025
1.876,0.035,0.020
1.878,0.050,0.020
1.880,0.035,0.020
1.882,0.045,0.020
1.884,0.055,0.025
1.886,0.080,0.030
1.888,0.095,0.035
1.890,0.105,0.040
1.892,0.095,0.045
1.894,0.065,0.045
1.896,0.045,0.045
1.898,0.070,0.045
1.900,0.050,0.040
1.902,0.035,0.035
1.904,0.015,0.025
1.906,0.015,0.015
1.908,0.045,0.005
1.910,0.070,-0.005
1.912,0.050,-0.015
1.914,0.025,-0.020
1.916,-0.040,-0.025
1.918,-0.020,-0.030
1.920,-0.040,-0.035
1.922,-0.040,-0.035
1.924,-0.025,-0.040
1.926,-0.030,-0.045
1.928,-0.030,-0.050
1.930,-0.005,-0.055
1.932,-0.010,-0.060
1.934,-0.015,-0.060
1.936,-0.010,-0.065
1.938,-0.015,-0.065
1.940,-0.045,-0.065
1.942,-0.050,-0.065
1.944,-0.030,-0.060
1.946,-0.025,-0.060
1.948,-0.025,-0.055
1.950,-0.010,-0.055
1.952,0.000,-0.050
1.954,-0.005,-0.050
1.956,-0.030,-0.050
1.958,-0.035,-0.050
1.960,-0.065,-0.055
1.962,-0.050,-0.055
1.964,-0.040,-0.060
1.966,-0.040,-0.060
1.968,-0.020,-0.060
1.970,0.005,-0.060
1.972,-0.010,-0.055
1.974,-0.005,-0.050
1.976,-0.020,-0.050
1.978,-0.020,-0.045
1.980,-0.045,-0.045
1.982,-0.040,-0.045
1.984,-0.050,-0.050
1.986,-0.045,-0.055
1.988,-0.020,-0.055
1.990,0.010,-0.050
1.992,0.005,-0.040
1.994,0.030,-0.015
1.996,0.065,0.020
1.998,0.105,0.070
2.000,0.135,0.130
2.002,0.210,0.200
2.004,0.320,0.275
2.006,0.410,0.355
2.008,0.500,0.430
2.010,0.590,0.500
2.012,0.615,0.555
2.014,0.665,0.595
2.016,0.700,0.615
2.018,0.665,0.605
2.020,0.560,0.570
2.022,0.485,0.510
2.024,0.425,0.425
2.026,0.340,0.330
2.028,0.245,0.225
2.030,0.125,0.125
2.032,0.005,0.040
2.034,-0.025,-0.030
2.036,-0.055,-0.075
2.038,-0.090,-0.100
2.040,-0.095,-0.105
2.042,-0.060,-0.095
2.044,-0.025,-0.080
2.046,-0.040,-0.065
2.048,-0.020,-0.050
2.050,0.005,-0.045
2.052,-0.015,-0.045
2.054,-0.030,-0.050
2.056,-0.015,-0.055
2.058,-0.025,-0.060
2.060,-0.025,-0.060
2.062,-0.020,-0.060
2.064,-0.025,-0.050
2.066,-0.035,-0.045
2.068,-0.005,-0.040
2.070,0.005,-0.040
2.072,-0.025,-0.040
2.074,-0.030,-0.045
2.076,-0.010,-0.050
2.078,-0.035,-0.055
2.080,-0.040,-0.060
2.082,-0.040,-0.060
2.084,-0.030,-0.055
2.086,-0.035,-0.050
2.088,0.010,-0.045
2.090,0.020,-0.040
2.092,0.000,-0.035
2.094,0.005,-0.030
2.096,-0.010,-0.025
2.098,-0.035,-0.025
2.100,-0.015,-0.025
2.102,0.005,-0.030
2.104,-0.010,-0.030
2.106,0.010,-0.035
2.108,0.010,-0.035
2.110,-0.010,-0.040
2.112,-0.020,-0.040
2.114,-0.010,-0.040
2.116,0.015,-0.040
2.118,-0.005,-0.040
2.120,-0.025,-0.035
2.122,-0.020,-0.035
2.124,-0.015,-0.030
2.126,-0.010,-0.030
2.128,0.010,-0.025
2.130,0.020,-0.025
2.132,0.010,-0.025
2.134,0.000,-0.030
2.136,0.000,-0.030
2.138,-0.015,-0.035
2.140,-0.010,-0.035
2.142,-0.005,-0.040
2.144,-0.005,-0.040
2.146,0.000,-0.040
2.148,0.015,-0.035
2.150,0.015,-0.030
2.152,0.030,-0.025
2.154,0.025,-0.020
2.156,0.015,-0.020
2.158,-0.015,-0.020
2.160,-0.015,-0.020
2.162,-0.020,-0.025
2.164,-0.015,-0.030
2.166,0.010,-0.035
2.168,0.040,-0.035
2.170,0.020,-0.035
2.172,0.030,-0.030
2.174,0.020,-0.025
2.176,0.025,-0.015
2.178,0.035,-0.005
2.180,0.040,0.010
2.182,0.020,0.020
2.184,0.030,0.025
2.186,0.035,0.025
2.188,0.075,0.025
2.190,0.060,0.020
2.192,0.045,0.015
2.194,0.025,0.015
2.196,0.030,0.010
2.198,0.000,0.010
2.200,0.030,0.015
2.202,0.070,0.020
2.204,0.070,0.030
2.206,0.080,0.035
2.208,0.110,0.040
2.210,0.090,0.050
2.212,0.090,0.050
2.214,0.085,0.055
2.216,0.090,0.060
2.218,0.065,0.065
2.220,0.090,0.070
2.222,0.095,0.075
2.224,0.090,0.085
2.226,0.115,0.095
2.228,0.160,0.100
2.230,0.150,0.110
2.232,0.140,0.115
2.234,0.120,0.115
2.236,0.130,0.115
2.238,0.120,0.115
2.240,0.145,0.115
2.242,0.145,0.115
2.244,0.120,0.115
2.246,0.120,0.120
2.248,0.160,0.120
2.250,0.150,0.120
2.252,0.155,0.120
2.254,0.145,0.120
2.256,0.160,0.115
2.258,0.130,0.115
2.260,0.140,0.110
2.262,0.140,0.110
2.264,0.135,0.110
2.266,0.145,0.105
2.268,0.155,0.105
2.270,0.135,0.105
2.272,0.120,0.105
2.274,0.110,0.100
2.276,0.135,0.100
2.278,0.110,0.095
2.280,0.110,0.090
2.282,0.100,0.090
2.284,0.100,0.085
2.286,0.090,0.080
2.288,0.120,0.075
2.290,0.105,0.070
2.292,0.080,0.065
2.294,0.060,0.055
2.296,0.085,0.050
2.298,0.050,0.040
2.300,0.030,0.030
2.302,0.020,0.025
2.304,0.005,0.015
2.306,0.035,0.005
2.308,0.055,0.000
2.310,0.035,-0.010
2.312,0.030,-0.015
2.314,0.010,-0.020
2.316,-0.005,-0.020
2.318,-0.010,-0.025
2.320,0.010,-0.030
2.322,-0.020,-0.035
2.324,-0.040,-0.040
2.326,-0.020,-0.040
2.328,0.015,-0.045
2.330,0.020,-0.045
2.332,0.010,-0.045
2.334,0.005,-0.045
2.336,-0.025,-0.045
2.338,-0.035,-0.040
2.340,-0.025,-0.040
2.342,-0.035,-0.035
2.344,-0.045,-0.035
2.346,0.000,-0.035
2.348,0.005,-0.040
2.350,-0.020,-0.045
2.352,-0.010,-0.050
2.354,-0.005,-0.055
2.356,-0.030,-0.060
2.358,-0.030,-0.065
2.360,-0.025,-0.065
2.362,-0.040,-0.060
2.364,-0.050,-0.055
2.366,-0.015,-0.050
2.368,-0.015,-0.045
2.370,-0.005,-0.045
2.372,-0.005,-0.045
2.374,-0.015,-0.045
2.376,-0.070,-0.050
2.378,-0.055,-0.055
2.380,-0.030,-0.060
2.382,-0.030,-0.065
2.384,-0.045,-0.065
2.386,-0.020,-0.065
2.388,-0.010,-0.065
2.390,-0.025,-0.065
2.392,-0.020,-0.060
2.394,-0.015,-0.060
2.396,-0.045,-0.055
2.398,-0.045,-0.055
2.400,-0.040,-0.050
2.402,-0.025,-0.045
2.404,-0.030,-0.045
2.406,-0.005,-0.040
2.408,0.020,-0.040
2.410,0.015,-0.040
2.412,-0.015,-0.040
2.414,0.000,-0.040
2.416,-0.040,-0.040
2.418,-0.040,-0.040
2.420,-0.015,-0.045
2.422,-0.035,-0.045
2.424,-0.035,-0.045
2.426,0.010,-0.045
2.428,0.000,-0.045
2.430,0.000,-0.045
2.432,0.005,-0.045
2.434,0.010,-0.045
2.436,-0.040,-0.045
2.438,-0.015,-0.045
2.440,-0.005,-0.040
2.442,-0.005,-0.040
2.444,-0.015,-0.035
2.446,0.020,-0.030
2.448,0.020,-0.030
2.450,0.005,-0.025
2.452,0.000,-0.025
2.454,0.015,-0.025
2.456,-0.015,-0.030
2.458,-0.005,-0.035
2.460,0.005,-0.035
2.462,0.010,-0.040
2.464,0.015,-0.040
2.466,0.040,-0.035
2.468,0.030,-0.035
2.470,0.015,-0.030
2.472,-0.015,-0.025
2.474,-0.010,-0.020
2.476,-0.025,-0.020
2.478,-0.005,-0.020
2.480,0.000,-0.020
2.482,-0.020,-0.020
2.484,-0.020,-0.020
2.486,0.025,-0.020
2.488,0.020,-0.020
2.490,0.015,-0.020
2.492,0.000,-0.015
2.494,0.005,-0.015
2.496,-0.015,-0.010
2.498,-0.020,-0.010
2.500,-0.015,-0.015
2.502,-0.010,-0.020
2.504,-0.025,-0.025
2.506,0.015,-0.025
2.508,0.010,-0.030
2.510,0.005,-0.030
2.512,-0.015,-0.030
2.514,-0.005,-0.030
2.516,-0.015,-0.025
2.518,-0.005,-0.020
2.520,-0.005,-0.020
2.522,-0.005,-0.020
2.524,0.000,-0.025
2.526,0.005,-0.025
2.528,-0.010,-0.030
2.530,0.000,-0.035
2.532,-0.005,-0.035
2.534,-0.005,-0.040
2.536,-0.030,-0.040
2.538,-0.040,-0.035
2.540,-0.015,-0.035
2.542,-0.015,-0.030
2.544,-0.020,-0.030
2.546,0.010,-0.030
2.548,0.000,-0.030
2.550,0.010,-0.030
2.552,0.000,-0.030
2.554,-0.010,-0.030
2.556,-0.030,-0.030
2.558,-0.015,-0.035
2.560,-0.010,-0.035
2.562,-0.025,-0.040
2.564,0.005,-0.040
2.566,0.025,-0.045
2.568,0.000,-0.050
2.570,0.000,-0.050
2.572,-0.005,-0.050
2.574,-0.030,-0.050
2.576,-0.050,-0.050
2.578,-0.035,-0.045
2.580,-0.030,-0.045
2.582,-0.030,-0.040
2.584,-0.015,-0.040
2.586,0.015,-0.040
2.588,0.005,-0.040
2.590,-0.010,-0.045
2.592,-0.010,-0.045
2.594,-0.005,-0.045
2.596,-0.040,-0.045
2.598,-0.035,-0.040
2.600,0.000,-0.040
2.602,0.000,-0.035
2.604,-0.010,-0.030
2.606,-0.010,-0.030
2.608,-0.010,-0.030
2.610,-0.015,-0.030
2.612,0.000,-0.030
2.614,-0.015,-0.030
2.616,-0.015,-0.035
2.618,-0.025,-0.035
2.620,-0.025,-0.040
2.622,-0.035,-0.040
2.624,-0.005,-0.040
2.626,0.005,-0.045
2.628,-0.015,-0.045
2.630,-0.020,-0.050
2.632,-0.030,-0.050
2.634,-0.030,-0.050
2.636,-0.015,-0.045
2.638,-0.010,-0.045
2.640,-0.005,-0.040
2.642,-0.025,-0.035
2.644,0.010,-0.035
2.646,0.030,-0.030
2.648,0.000,-0.025
2.650,-0.025,-0.025
2.652,0.000,-0.025
2.654,-0.015,-0.025
2.656,-0.025,-0.030
2.658,-0.015,-0.030
2.660,-0.015,-0.030
2.662,-0.020,-0.035
2.664,0.005,-0.035
2.666,0.010,-0.030
2.668,-0.005,-0.030
2.670,-0.010,-0.030
2.672,0.020,-0.025
2.674,0.010,-0.020
2.676,0.015,-0.020
2.678,0.020,-0.015
2.680,0.040,-0.005
2.682,0.025,0.000
2.684,0.050,0.005
2.686,0.065,0.010
2.688,0.055,0.010
2.690,0.070,0.015
2.692,0.070,0.015
2.694,0.040,0.015
2.696,0.030,0.015
2.698,0.050,0.015
2.700,0.070,0.015
2.702,0.045,0.015
2.704,0.020,0.015
2.706,0.040,0.020
2.708,0.045,0.020
2.710,0.050,0.025
2.712,0.085,0.025
2.714,0.060,0.030
2.716,0.055,0.035
2.718,0.050,0.035
2.720,0.060,0.035
2.722,0.055,0.035
2.724,0.080,0.035
2.726,0.075,0.035
2.728,0.050,0.030
2.730,0.030,0.025
2.732,0.025,0.020
2.734,0.015,0.015
2.736,0.035,0.010
2.738,0.065,0.005
2.740,0.075,0.000
2.742,0.025,-0.005
2.744,-0.005,-0.010
2.746,-0.010,-0.020
2.748,-0.030,-0.025
2.750,-0.040,-0.035
2.752,-0.035,-0.045
2.754,-0.060,-0.050
2.756,-0.060,-0.060
2.758,-0.060,-0.065
2.760,-0.050,-0.070
2.762,-0.045,-0.070
2.764,-0.010,-0.070
2.766,-0.010,-0.065
2.768,-0.020,-0.065
2.770,-0.020,-0.060
2.772,-0.015,-0.060
2.774,-0.045,-0.055
2.776,-0.025,-0.055
2.778,-0.020,-0.050
2.780,-0.025,-0.050
2.782,-0.030,-0.045
2.784,-0.015,-0.045
2.786,-0.020,-0.045
2.788,-0.045,-0.045
2.790,-0.005,-0.045
2.792,-0.010,-0.045
2.794,-0.040,-0.045
2.796,-0.015,-0.045
2.798,-0.030,-0.045
2.800,-0.035,-0.045
2.802,-0.010,-0.045
2.804,-0.015,-0.045
2.806,-0.030,-0.050
2.808,-0.035,-0.055
2.810,-0.050,-0.060
2.812,-0.045,-0.065
2.814,-0.065,-0.070
2.816,-0.055,-0.070
2.818,-0.045,-0.060
2.820,0.000,-0.045
2.822,0.025,-0.010
2.824,0.085,0.035
2.826,0.145,0.095
2.828,0.210,0.170
2.830,0.300,0.250
2.832,0.405,0.335
2.834,0.465,0.420
2.836,0.565,0.500
2.838,0.615,0.565
2.840,0.650,0.610
2.842,0.690,0.635
2.844,0.735,0.635
2.846,0.680,0.605
2.848,0.575,0.555
2.850,0.500,0.480
2.852,0.405,0.390
2.854,0.295,0.290
2.856,0.160,0.190
2.858,0.025,0.100
2.860,-0.015,0.025
2.862,-0.015,-0.030
2.864,-0.010,-0.065
2.866,-0.040,-0.085
2.868,-0.040,-0.090
2.870,-0.015,-0.080
2.872,-0.025,-0.070
2.874,-0.045,-0.055
2.876,-0.035,-0.050
2.878,-0.045,-0.045
2.880,-0.050,-0.045
2.882,-0.030,-0.050
2.884,0.010,-0.055
2.886,0.000,-0.060
2.888,-0.020,-0.060
2.890,-0.020,-0.060
2.892,-0.045,-0.060
2.894,-0.035,-0.055
2.896,-0.020,-0.050
2.898,-0.040,-0.045
2.900,-0.035,-0.045
2.902,0.000,-0.040
2.904,-0.005,-0.040
2.906,-0.015,-0.035
2.908,-0.005,-0.040
2.910,-0.010,-0.040
2.912,-0.015,-0.045
2.914,-0.050,-0.045
2.916,-0.055,-0.050
2.918,-0.045,-0.055
2.920,-0.045,-0.055
2.922,-0.005,-0.055
2.924,0.030,-0.055
2.926,0.015,-0.050
2.928,0.010,-0.050
2.930,0.005,-0.045
2.932,-0.030,-0.045
2.934,-0.035,-0.045
2.936,-0.030,-0.050
2.938,-0.015,-0.050
2.940,-0.030,-0.055
2.942,-0.010,-0.060
2.944,0.005,-0.060
2.946,-0.010,-0.060
2.948,-0.010,-0.055
2.950,0.005,-0.050
2.952,-0.020,-0.045
2.954,-0.030,-0.040
2.956,-0.015,-0.035
2.958,0.005,-0.035
2.960,-0.010,-0.035
2.962,0.000,-0.035
2.964,0.000,-0.040
2.966,0.015,-0.040
2.968,0.030,-0.040
2.970,0.035,-0.040
2.972,-0.010,-0.035
2.974,-0.015,-0.035
2.976,0.000,-0.030
2.978,0.010,-0.030
2.980,-0.010,-0.025
2.982,0.010,-0.025
2.984,0.030,-0.030
2.986,0.025,-0.030
2.988,0.025,-0.035
2.990,0.025,-0.035
2.992,-0.020,-0.035
2.994,-0.030,-0.035
2.996,-0.015,-0.035
2.998,0.020,-0.035
3.000,0.020,-0.030
3.002,0.030,-0.025
3.004,0.030,-0.025
3.006,0.040,-0.015
3.008,0.040,-0.010
3.010,0.055,-0.005
3.012,0.040,0.000
3.014,0.035,0.005
3.016,0.040,0.010
3.018,0.030,0.010
3.020,0.000,0.010
3.022,0.035,0.005
3.024,0.055,0.000
3.026,0.040,-0.005
3.028,0.020,-0.010
3.030,0.040,-0.005
3.032,0.045,-0.005
3.034,0.055,0.005
3.036,0.080,0.015
3.038,0.080,0.030
3.040,0.080,0.040
3.042,0.120,0.050
3.044,0.125,0.060
3.046,0.090,0.065
3.048,0.090,0.065
3.050,0.105,0.065
3.052,0.100,0.070
3.054,0.100,0.070
3.056,0.120,0.075
3.058,0.110,0.085
3.060,0.105,0.090
3.062,0.150,0.100
3.064,0.145,0.105
3.066,0.145,0.105
3.068,0.125,0.105
3.070,0.140,0.105
3.072,0.125,0.100
3.074,0.135,0.095
3.076,0.145,0.095
3.078,0.135,0.095
3.080,0.140,0.100
3.082,0.170,0.105
3.084,0.170,0.110
3.086,0.180,0.115
3.088,0.150,0.120
3.090,0.140,0.120
3.092,0.120,0.115
3.094,0.145,0.115
3.096,0.160,0.110
3.098,0.145,0.100
3.100,0.105,0.100
3.102,0.140,0.095
3.104,0.155,0.090
3.106,0.145,0.090
3.108,0.110,0.090
3.110,0.085,0.085
3.112,0.065,0.080
3.114,0.095,0.070
3.116,0.070,0.060
3.118,0.065,0.050
3.120,0.070,0.040
3.122,0.085,0.025
3.124,0.085,0.020
3.126,0.080,0.010
3.128,0.035,0.010
3.130,0.040,0.010
3.132,0.005,0.010
3.134,0.030,0.010
3.136,0.030,0.005
3.138,0.015,0.005
3.140,0.010,0.000
3.142,0.045,-0.010
3.144,0.025,-0.015
3.146,0.025,-0.020
3.148,-0.005,-0.025
3.150,0.000,-0.030
3.152,-0.020,-0.035
3.154,-0.025,-0.035
3.156,-0.010,-0.035
3.158,-0.005,-0.035
3.160,-0.005,-0.035
3.162,0.025,-0.035
3.164,-0.005,-0.040
3.166,0.005,-0.040
3.168,0.005,-0.040
3.170,-0.015,-0.045
3.172,-0.030,-0.045
3.174,-0.005,-0.045
3.176,-0.015,-0.045
3.178,-0.020,-0.045
3.180,-0.010,-0.045
3.182,0.015,-0.045
3.184,0.005,-0.050
3.186,0.005,-0.050
3.188,0.005,-0.055
3.190,-0.025,-0.060
3.192,-0.035,-0.060
3.194,-0.010,-0.060
3.196,-0.015,-0.060
3.198,-0.035,-0.060
3.200,-0.015,-0.060
3.202,0.005,-0.060
3.204,-0.015,-0.055
3.206,-0.015,-0.055
3.208,-0.020,-0.055
3.210,-0.035,-0.055
3.212,-0.055,-0.055
3.214,-0.035,-0.055
3.216,-0.020,-0.060
3.218,-0.015,-0.060
3.220,-0.015,-0.065
3.222,0.000,-0.065
3.224,-0.035,-0.065
3.226,-0.030,-0.065
3.228,-0.005,-0.065
3.230,-0.015,-0.060
3.232,-0.020,-0.050
3.234,-0.025,-0.045
3.236,-0.030,-0.040
3.238,-0.045,-0.035
3.240,-0.010,-0.035
3.242,0.010,-0.035
3.244,0.005,-0.040
3.246,-0.010,-0.045
3.248,-0.015,-0.050
3.250,-0.030,-0.055
3.252,-0.035,-0.055
3.254,-0.015,-0.060
3.256,-0.020,-0.055
3.258,-0.035,-0.050
3.260,-0.005,-0.045
3.262,-0.005,-0.040
3.264,0.025,-0.030
3.266,0.055,-0.025
3.268,0.045,-0.020
3.270,0.000,-0.015
3.272,-0.005,-0.015
3.274,-0.005,-0.015
3.276,-0.005,-0.015
3.278,-0.015,-0.020
3.280,0.015,-0.025
3.282,0.025,-0.030
3.284,0.005,-0.040
3.286,0.000,-0.045
3.288,0.000,-0.045
3.290,-0.025,-0.045
3.292,-0.020,-0.045
3.294,0.010,-0.040
3.296,0.015,-0.035
3.298,-0.005,-0.030
3.300,0.015,-0.025
3.302,0.030,-0.025
3.304,0.015,-0.025
3.306,0.010,-0.025
3.308,0.015,-0.025
3.310,-0.005,-0.030
3.312,-0.015,-0.035
3.314,-0.005,-0.035
3.316,0.020,-0.040
3.318,0.005,-0.040
3.320,0.025,-0.035
3.322,0.020,-0.035
3.324,0.000,-0.030
3.326,-0.005,-0.030
3.328,0.020,-0.030
3.330,-0.005,-0.030
3.332,0.005,-0.035
3.334,0.005,-0.035
3.336,0.010,-0.040
3.338,0.005,-0.040
3.340,0.020,-0.040
3.342,0.020,-0.035
3.344,0.005,-0.035
3.346,-0.010,-0.030
3.348,0.010,-0.030
3.350,-0.005,-0.030
3.352,0.000,-0.030
3.354,-0.005,-0.030
3.356,-0.005,-0.035
3.358,-0.005,-0.035
3.360,0.015,-0.040
3.362,0.020,-0.040
3.364,0.015,-0.040
3.366,0.005,-0.035
3.368,0.005,-0.035
3.370,-0.010,-0.035
3.372,-0.005,-0.035
3.374,-0.010,-0.035
3.376,-0.005,-0.035
3.378,-0.025,-0.040
3.380,0.000,-0.040
3.382,0.025,-0.045
3.384,0.015,-0.045
3.386,0.005,-0.040
3.388,0.020,-0.040
3.390,-0.010,-0.035
3.392,0.005,-0.025
3.394,0.015,-0.020
3.396,0.020,-0.020
3.398,0.020,-0.020
3.400,0.030,-0.025
3.402,0.015,-0.030
3.404,-0.010,-0.035
3.406,-0.010,-0.045
3.408,0.020,-0.050
3.410,-0.010,-0.055
3.412,-0.010,-0.060
3.414,-0.015,-0.060
3.416,-0.015,-0.055
3.418,-0.005,-0.050
3.420,0.030,-0.045
3.422,0.010,-0.040
3.424,0.000,-0.040
3.426,0.000,-0.040
3.428,0.000,-0.040
3.430,-0.010,-0.040
3.432,-0.010,-0.045
3.434,-0.010,-0.045
3.436,-0.010,-0.045
3.438,0.000,-0.045
3.440,0.040,-0.045
3.442,0.025,-0.040
3.444,0.020,-0.040
3.446,0.005,-0.035
3.448,0.010,-0.035
3.450,-0.020,-0.035
3.452,-0.005,-0.040
3.454,0.005,-0.045
3.456,-0.015,-0.050
3.458,0.005,-0.055
3.460,0.030,-0.055
3.462,0.015,-0.060
3.464,0.010,-0.055
3.466,0.005,-0.055
3.468,-0.005,-0.050
3.470,-0.010,-0.045
3.472,0.010,-0.040
3.474,0.010,-0.040
3.476,0.000,-0.040
3.478,0.010,-0.040
3.480,0.020,-0.040
3.482,0.000,-0.045
3.484,0.005,-0.045
3.486,0.015,-0.050
3.488,0.005,-0.050
3.490,-0.020,-0.045
3.492,0.010,-0.045
3.494,0.010,-0.040
3.496,-0.015,-0.035
3.498,0.030,-0.025
3.500,0.060,-0.020
3.502,0.035,-0.015
3.504,0.030,-0.005
3.506,0.045,0.000
3.508,0.035,0.005
3.510,0.045,0.010
3.512,0.090,0.015
3.514,0.065,0.020
3.516,0.070,0.025
3.518,0.100,0.025
3.520,0.110,0.030
3.522,0.095,0.030
3.524,0.075,0.030
3.526,0.055,0.025
3.528,0.055,0.025
3.530,0.055,0.020
3.532,0.065,0.020
3.534,0.055,0.020
3.536,0.045,0.020
3.538,0.095,0.025
3.540,0.105,0.025
3.542,0.100,0.030
3.544,0.090,0.035
3.546,0.115,0.040
3.548,0.110,0.040
3.550,0.080,0.040
3.552,0.075,0.040
3.554,0.070,0.040
3.556,0.050,0.035
3.558,0.070,0.035
3.560,0.095,0.030
3.562,0.090,0.025
3.564,0.080,0.025
3.566,0.065,0.020
3.568,0.035,0.010
3.570,0.035,0.005
3.572,0.020,-0.005
3.574,0.005,-0.020
3.576,-0.015,-0.030
3.578,0.010,-0.040
3.580,0.000,-0.045
3.582,0.025,-0.050
3.584,0.025,-0.055
3.586,0.005,-0.050
3.588,-0.025,-0.050
3.590,-0.025,-0.045
3.592,-0.005,-0.045
3.594,-0.020,-0.040
3.596,-0.015,-0.045
3.598,0.020,-0.045
3.600,0.020,-0.050
3.602,0.015,-0.055
3.604,0.005,-0.055
3.606,0.005,-0.055
3.608,-0.010,-0.055
3.610,-0.005,-0.055
3.612,-0.015,-0.050
3.614,-0.015,-0.050
3.616,-0.015,-0.050
3.618,0.005,-0.050
3.620,0.005,-0.050
3.622,0.005,-0.055
3.624,0.010,-0.055
3.626,0.015,-0.055
3.628,-0.005,-0.055
3.630,-0.010,-0.055
3.632,0.010,-0.050
3.634,0.005,-0.045
3.636,-0.020,-0.045
3.638,0.005,-0.045
3.640,-0.010,-0.050
3.642,-0.005,-0.050
3.644,-0.010,-0.055
3.646,0.000,-0.050
3.648,-0.010,-0.035
3.650,0.020,-0.010
3.652,0.060,0.025
3.654,0.135,0.075
3.656,0.205,0.135
3.658,0.310,0.210
3.660,0.390,0.290
3.662,0.455,0.370
3.664,0.535,0.450
3.666,0.605,0.520
3.668,0.630,0.580
3.670,0.680,0.625
3.672,0.730,0.650
3.674,0.725,0.645
3.676,0.680,0.615
3.678,0.625,0.560
3.680,0.535,0.485
3.682,0.440,0.390
3.684,0.325,0.290
3.686,0.190,0.185
3.688,0.055,0.095
3.690,0.015,0.020
3.692,0.005,-0.030
3.694,-0.015,-0.060
3.696,-0.050,-0.070
3.698,0.010,-0.065
3.700,0.040,-0.050
3.702,0.025,-0.035
3.704,0.020,-0.025
3.706,0.030,-0.020
3.708,0.005,-0.025
3.710,0.015,-0.035
3.712,-0.005,-0.050
3.714,0.000,-0.060
3.716,0.010,-0.070
3.718,0.025,-0.070
3.720,0.015,-0.070
3.722,0.000,-0.060
3.724,-0.020,-0.055
3.726,-0.005,-0.045
3.728,-0.020,-0.040
3.730,-0.025,-0.040
3.732,-0.005,-0.040
3.734,0.005,-0.045
3.736,0.010,-0.050
3.738,0.030,-0.050
3.740,0.030,-0.055
3.742,0.025,-0.050
3.744,0.005,-0.045
3.746,-0.005,-0.045
3.748,-0.025,-0.040
3.750,0.010,-0.035
3.752,0.040,-0.035
3.754,0.025,-0.035
3.756,0.040,-0.035
3.758,0.060,-0.035
3.760,0.045,-0.035
3.762,0.020,-0.030
3.764,0.015,-0.030
3.766,-0.010,-0.030
3.768,-0.035,-0.035
3.770,-0.005,-0.040
3.772,-0.005,-0.045
3.774,-0.005,-0.050
3.776,0.025,-0.055
3.778,0.060,-0.055
3.780,0.045,-0.055
3.782,0.030,-0.045
3.784,0.035,-0.040
3.786,0.025,-0.030
3.788,0.005,-0.020
3.790,0.025,-0.010
3.792,0.020,-0.010
3.794,0.020,-0.010
3.796,0.040,-0.015
3.798,0.050,-0.020
3.800,0.040,-0.030
3.802,0.045,-0.035
3.804,0.045,-0.040
3.806,0.025,-0.040
3.808,0.015,-0.035
3.810,0.020,-0.030
3.812,0.045,-0.025
3.814,0.040,-0.020
3.816,0.045,-0.015
3.818,0.040,-0.015
3.820,0.020,-0.020
3.822,0.045,-0.025
3.824,0.055,-0.030
3.826,0.015,-0.035
3.828,0.020,-0.035
3.830,0.040,-0.035
3.832,0.050,-0.030
3.834,0.055,-0.025
3.836,0.085,-0.015
3.838,0.090,-0.010
3.840,0.080,0.000
3.842,0.080,0.010
3.844,0.080,0.015
3.846,0.060,0.015
3.848,0.055,0.020
3.850,0.055,0.020
3.852,0.050,0.020
3.854,0.065,0.015
3.856,0.110,0.020
3.858,0.110,0.020
3.860,0.080,0.020
3.862,0.085,0.025
3.864,0.105,0.030
3.866,0.090,0.035
3.868,0.070,0.040
3.870,0.090,0.050
3.872,0.115,0.055
3.874,0.110,0.065
3.876,0.150,0.070
3.878,0.155,0.075
3.880,0.145,0.075
3.882,0.135,0.080
3.884,0.160,0.080
3.886,0.130,0.080
3.888,0.135,0.080
3.890,0.150,0.085
3.892,0.170,0.090
3.894,0.155,0.095
3.896,0.185,0.100
3.898,0.200,0.110
3.900,0.205,0.115
3.902,0.180,0.120
3.904,0.195,0.125
3.906,0.160,0.125
3.908,0.155,0.120
3.910,0.185,0.120
3.912,0.180,0.115
3.914,0.170,0.115
3.916,0.190,0.115
3.918,0.170,0.115
3.920,0.155,0.115
3.922,0.190,0.120
3.924,0.205,0.125
3.926,0.180,0.125
3.928,0.170,0.125
3.930,0.155,0.120
3.932,0.170,0.115
3.934,0.160,0.110
3.936,0.180,0.100
3.938,0.195,0.095
3.940,0.160,0.085
3.942,0.145,0.080
3.944,0.130,0.075
3.946,0.115,0.070
3.948,0.115,0.065
3.950,0.090,0.060
3.952,0.085,0.055
3.954,0.090,0.050
3.956,0.115,0.040
3.958,0.120,0.030
3.960,0.090,0.020
3.962,0.060,0.010
3.964,0.055,0.000
3.966,0.035,-0.010
3.968,0.040,-0.015
3.970,0.040,-0.020
3.972,0.045,-0.020
3.974,0.030,-0.025
3.976,0.065,-0.025
3.978,0.045,-0.020
3.980,0.035,-0.020
3.982,0.035,-0.015
3.984,0.030,-0.015
3.986,0.025,-0.015
3.988,0.015,-0.015
3.990,0.020,-0.015
3.992,0.035,-0.020
3.994,0.040,-0.020
3.996,0.085,-0.025
3.998,0.060,-0.030
4.000,0.025,-0.035
4.002,0.020,-0.040
4.004,0.025,-0.040
4.006,0.005,-0.040
4.008,0.025,-0.040
4.010,0.040,-0.040
4.012,0.015,-0.040
4.014,0.005,-0.040
4.016,0.035,-0.040
4.018,0.025,-0.040
4.020,0.005,-0.045
4.022,0.010,-0.045
4.024,0.025,-0.050
4.026,0.010,-0.055
4.028,0.010,-0.055
4.030,0.010,-0.055
4.032,-0.010,-0.055
4.034,0.000,-0.050
4.036,0.050,-0.045
4.038,0.040,-0.040
4.040,0.045,-0.035
4.042,0.030,-0.035
4.044,0.010,-0.035
4.046,-0.020,-0.040
4.048,0.005,-0.045
4.050,0.035,-0.050
4.052,0.010,-0.050
4.054,0.005,-0.055
4.056,0.035,-0.055
4.058,0.025,-0.055
4.060,-0.005,-0.050
4.062,0.015,-0.050
4.064,0.015,-0.050
4.066,0.005,-0.045
4.068,0.025,-0.050
4.070,0.015,-0.050
4.072,0.025,-0.055
4.074,0.040,-0.055
4.076,0.025,-0.055
4.078,0.005,-0.055
4.080,-0.010,-0.055
4.082,0.015,-0.050
4.084,0.040,-0.045
4.086,0.025,-0.040
4.088,0.025,-0.035
4.090,0.030,-0.035
4.092,0.015,-0.035
4.094,0.045,-0.035
4.096,0.060,-0.030
4.098,0.050,-0.030
4.100,0.045,-0.030
4.102,0.060,-0.025
4.104,0.050,-0.020
4.106,0.025,-0.020
4.108,0.040,-0.015
4.110,0.030,-0.015
4.112,0.010,-0.015
4.114,0.045,-0.015
4.116,0.065,-0.020
4.118,0.045,-0.025
4.120,0.040,-0.030
4.122,0.050,-0.035
4.124,0.015,-0.035
4.126,-0.005,-0.040
4.128,0.020,-0.040
4.130,0.040,-0.040
4.132,0.020,-0.040
4.134,0.045,-0.040
4.136,0.075,-0.035
4.138,0.050,-0.030
4.140,0.050,-0.030
4.142,0.060,-0.025
4.144,0.040,-0.025
4.146,0.030,-0.025
4.148,0.040,-0.020
4.150,0.035,-0.025
4.152,0.020,-0.025
4.154,0.055,-0.025
4.156,0.075,-0.025
4.158,0.065,-0.020
4.160,0.050,-0.020
4.162,0.050,-0.020
4.164,0.035,-0.015
4.166,0.020,-0.015
4.168,0.030,-0.015
4.170,0.035,-0.015
4.172,0.045,-0.015
4.174,0.070,-0.015
4.176,0.065,-0.020
4.178,0.055,-0.020
4.180,0.030,-0.020
4.182,0.055,-0.020
4.184,0.025,-0.025
4.186,0.030,-0.025
4.188,0.030,-0.025
4.190,0.035,-0.025
4.192,0.020,-0.030
4.194,0.035,-0.035
4.196,0.050,-0.035
4.198,0.050,-0.035
4.200,0.040,-0.040
4.202,0.055,-0.035
4.204,0.025,-0.030
4.206,0.020,-0.025
4.208,0.040,-0.020
4.210,0.045,-0.015
4.212,0.050,-0.010
4.214,0.075,-0.010
4.216,0.080,-0.010
4.218,0.060,-0.015
4.220,0.020,-0.020
4.222,0.020,-0.030
4.224,0.010,-0.040
4.226,0.005,-0.045
4.228,-0.005,-0.050
4.230,-0.010,-0.050
4.232,0.015,-0.045
4.234,0.075,-0.040
4.236,0.070,-0.035
4.238,0.050,-0.030
4.240,0.030,-0.025
4.242,0.035,-0.025
4.244,0.010,-0.030
4.246,0.010,-0.035
4.248,0.015,-0.045
4.250,0.040,-0.050
4.252,0.020,-0.060
4.254,0.030,-0.065
4.256,0.050,-0.065
4.258,0.045,-0.060
4.260,0.015,-0.055
4.262,0.025,-0.050
4.264,0.020,-0.040
4.266,0.045,-0.030
4.268,0.030,-0.025
4.270,0.025,-0.020
4.272,0.045,-0.015
4.274,0.060,-0.015
4.276,0.060,-0.015
4.278,0.055,-0.020
4.280,0.050,-0.025
4.282,0.040,-0.030
4.284,0.015,-0.035
4.286,0.030,-0.040
4.288,0.015,-0.045
4.290,-0.010,-0.045
4.292,0.025,-0.045
4.294,0.055,-0.045
4.296,0.050,-0.040
4.298,0.040,-0.040
4.300,0.040,-0.035
4.302,0.030,-0.030
4.304,0.015,-0.025
4.306,0.030,-0.025
4.308,0.035,-0.025
4.310,0.010,-0.030
4.312,0.035,-0.030
4.314,0.055,-0.035
4.316,0.045,-0.040
4.318,0.055,-0.045
4.320,0.050,-0.045
4.322,0.030,-0.050
4.324,0.025,-0.050
4.326,0.025,-0.050
4.328,0.030,-0.045
4.330,0.045,-0.045
4.332,0.030,-0.040
4.334,0.070,-0.035
4.336,0.040,-0.035
4.338,0.020,-0.035
4.340,0.020,-0.035
4.342,0.040,-0.030
4.344,0.025,-0.030
4.346,0.035,-0.030
4.348,0.050,-0.020
4.350,0.045,-0.015
4.352,0.090,-0.005
4.354,0.130,0.005
4.356,0.125,0.015
4.358,0.125,0.025
4.360,0.125,0.030
4.362,0.105,0.035
4.364,0.095,0.035
4.366,0.100,0.030
4.368,0.105,0.025
4.370,0.085,0.020
4.372,0.090,0.015
4.374,0.125,0.015
4.376,0.110,0.015
4.378,0.115,0.015
4.380,0.105,0.020
4.382,0.105,0.030
4.384,0.095,0.035
4.386,0.120,0.040
4.388,0.130,0.050
4.390,0.110,0.050
4.392,0.140,0.055
4.394,0.140,0.050
4.396,0.115,0.045
4.398,0.095,0.040
4.400,0.090,0.035
4.402,0.065,0.025
4.404,0.060,0.015
4.406,0.090,0.010
4.408,0.090,0.000
4.410,0.080,-0.005
4.412,0.065,-0.010
4.414,0.060,-0.015
4.416,0.030,-0.015
4.418,0.040,-0.020
4.420,0.040,-0.025
4.422,0.035,-0.030
4.424,0.025,-0.035
4.426,0.020,-0.040
4.428,0.025,-0.045
4.430,0.010,-0.050
4.432,0.025,-0.055
4.434,0.020,-0.060
4.436,0.035,-0.060
4.438,0.045,-0.060
4.440,0.035,-0.060
4.442,-0.005,-0.060
4.444,-0.005,-0.060
4.446,0.000,-0.060
4.448,0.000,-0.060
4.450,-0.005,-0.065
4.452,0.010,-0.065
4.454,0.030,-0.070
4.456,0.035,-0.070
4.458,0.040,-0.065
4.460,0.040,-0.065
4.462,0.010,-0.055
4.464,0.010,-0.050
4.466,0.035,-0.040
4.468,0.030,-0.035
4.470,0.025,-0.025
4.472,0.045,-0.025
4.474,0.045,-0.025
4.476,0.045,-0.030
4.478,0.020,-0.035
4.480,0.010,-0.050
4.482,-0.005,-0.060
4.484,-0.020,-0.070
4.486,-0.015,-0.075
4.488,0.015,-0.070
4.490,0.025,-0.055
4.492,0.075,-0.030
4.494,0.095,0.010
4.496,0.140,0.060
4.498,0.195,0.125
4.500,0.305,0.200
4.502,0.385,0.285
4.504,0.465,0.370
4.506,0.550,0.450
4.508,0.635,0.530
4.510,0.675,0.590
4.512,0.750,0.635
4.514,0.810,0.660
4.516,0.790,0.655
4.518,0.685,0.625
4.520,0.620,0.565
4.522,0.505,0.485
4.524,0.460,0.390
4.526,0.360,0.285
4.528,0.220,0.180
4.530,0.060,0.085
4.532,0.025,0.010
4.534,0.035,-0.050
4.536,0.015,-0.080
4.538,-0.010,-0.095
4.540,0.015,-0.095
4.542,0.015,-0.085
4.544,0.015,-0.065
4.546,0.010,-0.055
4.548,-0.005,-0.040
4.550,0.020,-0.040
4.552,0.050,-0.040
4.554,0.045,-0.045
4.556,0.025,-0.050
4.558,0.045,-0.055
4.560,0.055,-0.060
4.562,0.005,-0.065
4.564,0.005,-0.065
4.566,0.000,-0.065
4.568,0.000,-0.065
4.570,0.015,-0.065
4.572,0.040,-0.065
4.574,0.030,-0.060
4.576,0.020,-0.060
4.578,0.015,-0.060
4.580,0.030,-0.055
4.582,-0.005,-0.055
4.584,0.025,-0.055
4.586,0.025,-0.055
4.588,0.035,-0.055
4.590,0.025,-0.055
4.592,0.030,-0.060
4.594,0.015,-0.060
4.596,0.015,-0.060
4.598,0.010,-0.055
4.600,0.065,-0.055
4.602,0.045,-0.050
4.604,0.040,-0.045
4.606,0.055,-0.045
4.608,0.030,-0.040
4.610,0.005,-0.040
4.612,0.015,-0.045
4.614,0.025,-0.045
4.616,0.015,-0.050
4.618,0.045,-0.050
4.620,0.075,-0.050
4.622,0.060,-0.045
4.624,0.040,-0.040
4.626,0.040,-0.035
4.628,0.040,-0.030
4.630,0.020,-0.025
4.632,0.030,-0.025
4.634,0.045,-0.025
4.636,0.045,-0.030
4.638,0.060,-0.030
4.640,0.060,-0.035
4.642,0.055,-0.040
4.644,0.055,-0.045
4.646,0.030,-0.045
4.648,0.025,-0.045
4.650,0.040,-0.040
4.652,0.055,-0.035
4.654,0.050,-0.030
4.656,0.045,-0.025
4.658,0.075,-0.020
4.660,0.090,-0.020
4.662,0.075,-0.020
4.664,0.065,-0.020
4.666,0.065,-0.020
4.668,0.050,-0.020
4.670,0.050,-0.020
4.672,0.075,-0.015
4.674,0.085,-0.015
4.676,0.070,-0.010
4.678,0.075,0.000
4.680,0.110,0.005
4.682,0.100,0.010
4.684,0.075,0.015
4.686,0.080,0.015
4.688,0.065,0.015
4.690,0.075,0.015
4.692,0.110,0.015
4.694,0.095,0.015
4.696,0.075,0.015
4.698,0.130,0.020
4.700,0.140,0.025
4.702,0.135,0.030
4.704,0.130,0.040
4.706,0.145,0.050
4.708,0.130,0.055
4.710,0.135,0.065
4.712,0.160,0.070
4.714,0.135,0.080
4.716,0.150,0.085
4.718,0.200,0.090
4.720,0.195,0.095
4.722,0.180,0.100
4.724,0.175,0.105
4.726,0.185,0.100
4.728,0.175,0.100
4.730,0.185,0.100
4.732,0.200,0.095
4.734,0.170,0.095
4.736,0.170,0.100
4.738,0.200,0.105
4.740,0.220,0.110
4.742,0.205,0.120
4.744,0.185,0.125
4.746,0.200,0.135
4.748,0.190,0.140
4.750,0.190,0.140
4.752,0.190,0.140
4.754,0.200,0.135
4.756,0.175,0.130
4.758,0.185,0.120
4.760,0.185,0.110
4.762,0.180,0.100
4.764,0.160,0.095
4.766,0.170,0.085
4.768,0.150,0.080
4.770,0.155,0.070
4.772,0.145,0.065
4.774,0.120,0.060
4.776,0.090,0.055
4.778,0.130,0.055
4.780,0.145,0.050
4.782,0.140,0.045
4.784,0.125,0.045
4.786,0.130,0.040
4.788,0.110,0.040
4.790,0.085,0.035
4.792,0.065,0.030
4.794,0.060,0.020
4.796,0.055,0.010
4.798,0.085,0.000
4.800,0.065,-0.010
4.802,0.050,-0.025
4.804,0.040,-0.035
4.806,0.050,-0.045
4.808,0.035,-0.050
4.810,0.035,-0.050
4.812,0.040,-0.045
4.814,0.045,-0.040
4.816,0.030,-0.030
4.818,0.070,-0.020
4.820,0.065,-0.015
4.822,0.050,-0.010
4.824,0.040,-0.010
4.826,0.030,-0.010
4.828,0.020,-0.020
4.830,0.035,-0.025
4.832,0.020,-0.035
4.834,0.005,-0.045
4.836,0.010,-0.050
4.838,0.045,-0.055
4.840,0.040,-0.055
4.842,0.030,-0.055
4.844,0.035,-0.055
4.846,0.035,-0.050
4.848,0.010,-0.050
4.850,0.025,-0.050
4.852,0.020,-0.050
4.854,0.010,-0.050
4.856,0.015,-0.055
4.858,0.045,-0.055
4.860,0.030,-0.060
4.862,0.035,-0.060
4.864,0.030,-0.060
4.866,0.005,-0.060
4.868,-0.005,-0.055
4.870,0.025,-0.055
4.872,0.045,-0.055
4.874,0.015,-0.055
4.876,0.025,-0.055
4.878,0.075,-0.060
4.880,0.025,-0.065
4.882,0.025,-0.065
4.884,0.030,-0.070
4.886,0.020,-0.070
4.888,-0.025,-0.070
4.890,0.000,-0.070
4.892,0.010,-0.070
4.894,0.010,-0.065
4.896,0.010,-0.060
4.898,0.040,-0.055
4.900,0.030,-0.050
4.902,0.035,-0.050
4.904,0.020,-0.045
4.906,0.010,-0.045
4.908,0.005,-0.040
4.910,0.025,-0.040
4.912,0.025,-0.040
4.914,0.045,-0.045
4.916,0.055,-0.045
4.918,0.065,-0.045
4.920,0.040,-0.050
4.922,0.030,-0.050
4.924,0.015,-0.050
4.926,0.020,-0.055
4.928,-0.010,-0.055
4.930,0.005,-0.055
4.932,0.015,-0.055
4.934,0.030,-0.055
4.936,0.050,-0.050
4.938,0.090,-0.045
4.940,0.070,-0.040
4.942,0.065,-0.035
4.944,0.060,-0.035
4.946,0.020,-0.035
4.948,0.010,-0.040
4.950,0.020,-0.045
4.952,0.010,-0.045
4.954,0.020,-0.050
4.956,0.045,-0.050
4.958,0.030,-0.045
4.960,0.030,-0.040
4.962,0.065,-0.030
4.964,0.055,-0.020
4.966,0.040,-0.015
4.968,0.025,-0.005
4.970,0.055,-0.005
4.972,0.070,-0.005
4.974,0.045,-0.010
4.976,0.050,-0.020
4.978,0.050,-0.030
4.980,0.040,-0.035
4.982,0.040,-0.040
4.984,0.055,-0.040
4.986,0.035,-0.040
4.988,0.015,-0.040
4.990,0.040,-0.035
4.992,0.040,-0.035
4.994,0.040,-0.030
4.996,0.060,-0.030
4.998,0.060,-0.030
5.000,0.070,-0.030
5.002,0.065,-0.035
5.004,0.055,-0.035
5.006,0.025,-0.035
5.008,0.015,-0.035
5.010,0.010,-0.035
5.012,0.040,-0.035
5.014,0.050,-0.040
5.016,0.075,-0.040
5.018,0.035,-0.040
5.020,0.040,-0.045
5.022,0.070,-0.045
5.024,0.075,-0.040
5.026,0.040,-0.040
5.028,0.010,-0.035
5.030,0.020,-0.030
5.032,0.010,-0.030
5.034,0.010,-0.035
5.036,0.045,-0.040
5.038,0.040,-0.045
5.040,0.030,-0.050
5.042,0.015,-0.055
5.044,0.035,-0.060
5.046,0.045,-0.060
5.048,0.025,-0.055
5.050,0.020,-0.050
5.052,0.035,-0.045
5.054,0.030,-0.040
5.056,0.050,-0.040
5.058,0.030,-0.040
5.060,0.045,-0.045
5.062,0.010,-0.050
5.064,0.050,-0.055
5.066,0.015,-0.055
5.068,0.030,-0.055
5.070,0.045,-0.050
5.072,0.040,-0.045
5.074,0.025,-0.035
5.076,0.030,-0.030
5.078,0.030,-0.030
5.080,0.025,-0.035
5.082,0.015,-0.040
5.084,0.030,-0.050
5.086,0.010,-0.060
5.088,0.030,-0.065
5.090,0.035,-0.065
5.092,0.030,-0.060
5.094,0.030,-0.055
5.096,0.055,-0.040
5.098,0.040,-0.030
5.100,0.070,-0.020
5.102,0.080,-0.015
5.104,0.100,-0.015
5.106,0.045,-0.020
5.108,0.025,-0.025
5.110,0.015,-0.035
5.112,0.015,-0.045
5.114,0.005,-0.050
5.116,0.040,-0.050
5.118,0.040,-0.050
5.120,0.040,-0.050
5.122,0.010,-0.050
5.124,0.020,-0.050
5.126,0.015,-0.050
5.128,0.005,-0.055
5.130,0.025,-0.055
5.132,-0.005,-0.060
5.134,-0.005,-0.065
5.136,0.010,-0.065
5.138,0.055,-0.065
5.140,0.045,-0.065
5.142,0.005,-0.060
5.144,0.010,-0.050
5.146,0.035,-0.045
5.148,0.030,-0.040
5.150,0.020,-0.035
5.152,0.035,-0.030
5.154,0.050,-0.030
5.156,0.105,-0.025
5.158,0.090,-0.020
5.160,0.090,-0.015
5.162,0.085,-0.005
5.164,0.105,0.000
5.166,0.075,0.010
5.168,0.090,0.015
5.170,0.110,0.020
5.172,0.080,0.025
5.174,0.050,0.025
5.176,0.115,0.025
5.178,0.110,0.025
5.180,0.110,0.025
5.182,0.110,0.020
5.184,0.115,0.020
5.186,0.110,0.020
5.188,0.090,0.020
5.190,0.090,0.025
5.192,0.095,0.025
5.194,0.115,0.025
5.196,0.140,0.025
5.198,0.130,0.025
5.200,0.105,0.020
5.202,0.095,0.020
5.204,0.100,0.015
5.206,0.060,0.010
5.208,0.070,0.010
5.210,0.075,0.005
5.212,0.060,0.005
5.214,0.090,0.000
5.216,0.130,-0.005
5.218,0.075,-0.010
5.220,0.055,-0.015
5.222,0.040,-0.020
5.224,0.005,-0.030
5.226,0.000,-0.035
5.228,0.000,-0.045
5.230,0.050,-0.050
5.232,0.030,-0.055
5.234,0.050,-0.055
5.236,0.075,-0.055
5.238,0.060,-0.055
5.240,0.050,-0.050
5.242,0.035,-0.045
5.244,0.020,-0.045
5.246,0.005,-0.045
5.248,0.025,-0.050
5.250,0.000,-0.050
5.252,0.000,-0.055
5.254,0.020,-0.060
5.256,0.040,-0.060
5.258,0.055,-0.060
5.260,0.055,-0.055
5.262,0.060,-0.050
5.264,0.040,-0.045
5.266,0.020,-0.040
5.268,0.040,-0.035
5.270,0.020,-0.035
5.272,-0.005,-0.035
5.274,0.025,-0.040
5.276,0.045,-0.050
5.278,0.030,-0.055
5.280,0.015,-0.065
5.282,0.015,-0.070
5.284,0.010,-0.070
5.286,0.010,-0.070
5.288,0.015,-0.065
5.290,0.010,-0.060
5.292,-0.015,-0.055
5.294,0.040,-0.050
5.296,0.060,-0.040
5.298,0.045,-0.030
5.300,0.040,-0.015
5.302,0.095,0.010
5.304,0.110,0.045
5.306,0.160,0.095
5.308,0.255,0.160
5.310,0.355,0.235
5.312,0.435,0.315
5.314,0.525,0.395
5.316,0.600,0.475
5.318,0.640,0.535
5.320,0.680,0.580
5.322,0.700,0.600
5.324,0.680,0.595
5.326,0.640,0.560
5.328,0.570,0.505
5.330,0.490,0.430
5.332,0.400,0.345
5.334,0.345,0.250
5.336,0.230,0.160
5.338,0.095,0.080
5.340,0.020,0.010
5.342,0.020,-0.040
5.344,-0.025,-0.080
5.346,-0.050,-0.100
5.348,-0.035,-0.110
5.350,-0.010,-0.110
5.352,0.005,-0.100
5.354,0.035,-0.090
5.356,0.045,-0.075
5.358,0.055,-0.060
5.360,0.055,-0.045
5.362,0.065,-0.035
5.364,0.020,-0.030
5.366,0.040,-0.025
5.368,0.025,-0.025
5.370,0.005,-0.030
5.372,0.005,-0.035
5.374,0.055,-0.040
5.376,0.035,-0.050
5.378,0.035,-0.055
5.380,0.030,-0.060
5.382,0.025,-0.065
5.384,0.025,-0.065
5.386,0.010,-0.060
5.388,0.015,-0.055
5.390,0.030,-0.050
5.392,0.045,-0.045
5.394,0.080,-0.045
5.396,0.055,-0.045
5.398,0.025,-0.045
5.400,0.020,-0.050
5.402,0.035,-0.050
5.404,0.000,-0.055
5.406,0.020,-0.050
5.408,0.045,-0.045
5.410,0.075,-0.040
5.412,0.060,-0.030
5.414,0.085,-0.025
5.416,0.055,-0.015
5.418,0.075,-0.015
5.420,0.055,-0.015
5.422,0.055,-0.020
5.424,0.025,-0.025
5.426,0.040,-0.035
5.428,0.030,-0.040
5.430,0.025,-0.045
5.432,0.035,-0.045
5.434,0.065,-0.045
5.436,0.065,-0.040
5.438,0.070,-0.030
5.440,0.050,-0.020
5.442,0.075,-0.010
5.444,0.055,-0.005
5.446,0.060,-0.005
5.448,0.035,-0.010
5.450,0.045,-0.010
5.452,0.040,-0.015
5.454,0.085,-0.020
5.456,0.075,-0.025
5.458,0.055,-0.025
5.460,0.060,-0.025
5.462,0.055,-0.025
5.464,0.045,-0.020
5.466,0.075,-0.020
5.468,0.090,-0.015
5.470,0.065,-0.015
5.472,0.065,-0.015
5.474,0.095,-0.010
5.476,0.060,-0.010
5.478,0.080,-0.010
5.480,0.105,-0.005
5.482,0.110,0.000
5.484,0.070,0.005
5.486,0.060,0.005
5.488,0.080,0.005
5.490,0.065,0.005
5.492,0.080,0.005
5.494,0.105,0.005
5.496,0.095,0.000
5.498,0.090,0.000
5.500,0.095,0.005
5.502,0.100,0.010
5.504,0.085,0.015
5.506,0.115,0.025
5.508,0.115,0.035
5.510,0.100,0.040
5.512,0.145,0.050
5.514,0.175,0.050
5.516,0.140,0.055
5.518,0.150,0.055
5.520,0.145,0.050
5.522,0.155,0.050
5.524,0.140,0.055
5.526,0.135,0.060
5.528,0.150,0.065
5.530,0.155,0.075
5.532,0.180,0.085
5.534,0.220,0.095
5.536,0.205,0.105
5.538,0.210,0.110
5.540,0.205,0.110
5.542,0.190,0.110
5.544,0.180,0.110
5.546,0.185,0.110
5.548,0.200,0.105
5.550,0.170,0.110
5.552,0.210,0.110
5.554,0.235,0.115
5.556,0.255,0.120
5.558,0.235,0.130
5.560,0.220,0.135
5.562,0.205,0.145
5.564,0.200,0.150
5.566,0.225,0.155
5.568,0.230,0.155
5.570,0.210,0.150
5.572,0.245,0.150
5.574,0.235,0.145
5.576,0.215,0.140
5.578,0.195,0.130
5.580,0.210,0.125
5.582,0.185,0.120
5.584,0.180,0.115
5.586,0.195,0.110
5.588,0.180,0.105
5.590,0.145,0.105
5.592,0.190,0.100
5.594,0.185,0.095
5.596,0.175,0.085
5.598,0.155,0.075
5.600,0.150,0.065
5.602,0.100,0.050
5.604,0.085,0.040
5.606,0.105,0.025
5.608,0.135,0.015
5.610,0.090,0.010
5.612,0.115,0.005
5.614,0.105,0.005
5.616,0.095,0.005
5.618,0.105,0.005
5.620,0.080,0.005
5.622,0.050,0.000
5.624,0.050,-0.005
5.626,0.055,-0.010
5.628,0.045,-0.015
5.630,0.030,-0.025
5.632,0.065,-0.030
5.634,0.070,-0.040
5.636,0.070,-0.040
5.638,0.050,-0.045
5.640,0.060,-0.045
5.642,0.025,-0.040
5.644,0.025,-0.035
5.646,0.040,-0.035
5.648,0.040,-0.030
5.650,0.035,-0.025
5.652,0.085,-0.025
5.654,0.070,-0.025
5.656,0.055,-0.030
5.658,0.020,-0.035
5.660,0.035,-0.045
5.662,0.015,-0.050
5.664,0.025,-0.060
5.666,0.015,-0.060
5.668,0.015,-0.060
5.670,-0.005,-0.060
5.672,0.020,-0.055
5.674,0.060,-0.050
5.676,0.065,-0.040
5.678,0.040,-0.035
5.680,0.030,-0.035
5.682,0.020,-0.030
5.684,0.030,-0.035
5.686,0.040,-0.035
5.688,0.015,-0.040
5.690,0.015,-0.045
5.692,0.055,-0.050
5.694,0.050,-0.050
5.696,0.040,-0.050
5.698,0.020,-0.050
5.700,0.030,-0.050
5.702,0.010,-0.050
5.704,0.035,-0.045
5.706,0.030,-0.050
5.708,0.015,-0.050
5.710,0.015,-0.050
5.712,0.050,-0.050
5.714,0.030,-0.050
5.716,0.055,-0.045
5.718,0.050,-0.045
5.720,0.030,-0.040
5.722,0.040,-0.040
5.724,0.050,-0.035
5.726,0.040,-0.035
5.728,0.040,-0.035
5.730,0.040,-0.035
5.732,0.080,-0.035
5.734,0.070,-0.035
5.736,0.065,-0.035
5.738,0.055,-0.030
5.740,0.060,-0.030
5.742,0.040,-0.025
5.744,0.050,-0.020
5.746,0.055,-0.020
5.748,0.045,-0.015
5.750,0.065,-0.015
5.752,0.090,-0.020
5.754,0.080,-0.025
5.756,0.075,-0.030
5.758,0.065,-0.035
5.760,0.065,-0.035
5.762,0.025,-0.035
5.764,0.025,-0.030
5.766,0.075,-0.025
5.768,0.065,-0.020
5.770,0.060,-0.015
5.772,0.090,-0.010
5.774,0.080,-0.005
5.776,0.065,-0.005
5.778,0.070,-0.010
5.780,0.060,-0.015
5.782,0.045,-0.020
5.784,0.060,-0.025
5.786,0.050,-0.025
5.788,0.040,-0.025
5.790,0.070,-0.020
5.792,0.110,-0.015
5.794,0.080,-0.010
5.796,0.065,-0.005
5.798,0.080,-0.005
5.800,0.075,-0.005
5.802,0.055,-0.005
5.804,0.060,-0.010
5.806,0.065,-0.015
5.808,0.040,-0.020
5.810,0.075,-0.020
5.812,0.115,-0.020
5.814,0.080,-0.025
5.816,0.055,-0.025
5.818,0.070,-0.025
5.820,0.050,-0.030
5.822,0.005,-0.030
5.824,0.015,-0.035
5.826,0.050,-0.040
5.828,0.050,-0.040
5.830,0.060,-0.040
5.832,0.090,-0.035
5.834,0.065,-0.030
5.836,0.045,-0.025
5.838,0.060,-0.020
5.840,0.060,-0.020
5.842,0.050,-0.015
5.844,0.055,-0.020
5.846,0.040,-0.020
5.848,0.030,-0.025
5.850,0.065,-0.025
5.852,0.075,-0.030
5.854,0.065,-0.030
5.856,0.065,-0.030
5.858,0.060,-0.025
5.860,0.045,-0.025
5.862,0.035,-0.020
5.864,0.050,-0.015
5.866,0.060,-0.015
5.868,0.050,-0.020
5.870,0.075,-0.020
5.872,0.080,-0.025
5.874,0.055,-0.030
5.876,0.040,-0.035
5.878,0.050,-0.035
5.880,0.045,-0.035
5.882,0.045,-0.035
5.884,0.035,-0.035
5.886,0.040,-0.030
5.888,0.035,-0.025
5.890,0.065,-0.020
5.892,0.075,-0.020
5.894,0.060,-0.020
5.896,0.070,-0.025
5.898,0.075,-0.030
5.900,0.050,-0.030
5.902,0.045,-0.035
5.904,0.035,-0.040
5.906,0.040,-0.040
5.908,0.020,-0.045
5.910,0.060,-0.045
5.912,0.070,-0.045
5.914,0.065,-0.050
5.916,0.065,-0.050
5.918,0.065,-0.050
5.920,0.025,-0.050
5.922,0.030,-0.050
5.924,0.030,-0.045
5.926,0.030,-0.040
5.928,0.025,-0.030
5.930,0.075,-0.025
5.932,0.075,-0.020
5.934,0.070,-0.015
5.936,0.060,-0.015
5.938,0.060,-0.015
5.940,0.035,-0.020
5.942,0.045,-0.030
5.944,0.040,-0.035
5.946,0.040,-0.040
5.948,0.035,-0.045
5.950,0.045,-0.050
5.952,0.055,-0.050
5.954,0.055,-0.050
5.956,0.070,-0.050
5.958,0.080,-0.045
5.960,0.025,-0.045
5.962,0.040,-0.045
5.964,0.050,-0.040
5.966,0.055,-0.040
5.968,0.065,-0.040
5.970,0.100,-0.035
5.972,0.105,-0.030
5.974,0.105,-0.025
5.976,0.090,-0.020
5.978,0.105,-0.010
5.980,0.090,0.000
5.982,0.105,0.010
5.984,0.115,0.015
5.986,0.095,0.025
5.988,0.105,0.030
5.990,0.145,0.030
5.992,0.145,0.030
5.994,0.120,0.030
5.996,0.095,0.030
5.998,0.100,0.025
6.000,0.085,0.025
6.002,0.115,0.025
6.004,0.135,0.025
6.006,0.125,0.030
6.008,0.120,0.030
6.010,0.150,0.035
6.012,0.145,0.040
6.014,0.140,0.040
6.016,0.135,0.035
6.018,0.150,0.035
6.020,0.095,0.030
6.022,0.100,0.025
6.024,0.125,0.025
6.026,0.105,0.025
6.028,0.100,0.025
6.030,0.130,0.025
6.032,0.120,0.025
6.034,0.110,0.020
6.036,0.105,0.015
6.038,0.100,0.005
6.040,0.045,-0.010
6.042,0.030,-0.025
6.044,0.015,-0.040
6.046,0.005,-0.055
6.048,0.030,-0.065
6.050,0.055,-0.070
6.052,0.035,-0.075
6.054,0.050,-0.070
6.056,0.075,-0.065
6.058,0.065,-0.055
6.060,0.020,-0.050
6.062,0.030,-0.045
6.064,0.030,-0.045
6.066,0.045,-0.045
6.068,0.050,-0.045
6.070,0.070,-0.050
6.072,0.050,-0.050
6.074,0.050,-0.050
6.076,0.045,-0.050
6.078,0.030,-0.045
6.080,0.010,-0.045
6.082,0.025,-0.045
6.084,0.045,-0.045
6.086,0.030,-0.050
6.088,0.045,-0.055
6.090,0.070,-0.060
6.092,0.045,-0.065
6.094,0.040,-0.065
6.096,0.045,-0.065
6.098,0.040,-0.065
6.100,0.015,-0.055
6.102,0.040,-0.050
6.104,0.050,-0.045
6.106,0.045,-0.040
6.108,0.040,-0.040
6.110,0.050,-0.045
6.112,0.030,-0.050
6.114,0.020,-0.050
6.116,0.020,-0.050
6.118,0.060,-0.035
6.120,0.075,-0.005
6.122,0.130,0.035
6.124,0.215,0.095
6.126,0.285,0.170
6.128,0.375,0.250
6.130,0.470,0.335
6.132,0.535,0.420
6.134,0.620,0.495
6.136,0.690,0.560
6.138,0.700,0.605
6.140,0.730,0.630
6.142,0.765,0.630
6.144,0.745,0.610
6.146,0.655,0.565
6.148,0.590,0.500
6.150,0.495,0.420
6.152,0.405,0.330
6.154,0.320,0.235
6.156,0.165,0.140
6.158,0.075,0.060
6.160,0.020,-0.005
6.162,0.030,-0.055
6.164,0.005,-0.085
6.166,0.000,-0.095
6.168,0.060,-0.090
6.170,0.070,-0.080
6.172,0.065,-0.065
6.174,0.060,-0.050
6.176,0.065,-0.035
6.178,0.035,-0.030
6.180,0.020,-0.030
6.182,0.040,-0.035
6.184,0.040,-0.040
6.186,0.020,-0.045
6.188,0.050,-0.050
6.190,0.055,-0.055
6.192,0.040,-0.060
6.194,0.025,-0.065
6.196,0.030,-0.065
6.198,0.010,-0.065
6.200,0.015,-0.065
6.202,0.035,-0.065
6.204,0.030,-0.065
6.206,0.015,-0.060
6.208,0.045,-0.060
6.210,0.065,-0.055
6.212,0.055,-0.050
6.214,0.040,-0.050
6.216,0.040,-0.050
6.218,0.015,-0.050
6.220,0.010,-0.045
6.222,0.035,-0.045
6.224,0.040,-0.045
6.226,0.045,-0.040
6.228,0.080,-0.040
6.230,0.065,-0.035
6.232,0.050,-0.035
6.234,0.060,-0.040
6.236,0.065,-0.040
6.238,0.045,-0.045
6.240,0.055,-0.045
6.242,0.045,-0.050
6.244,0.040,-0.050
6.246,0.020,-0.055
6.248,0.050,-0.050
6.250,0.060,-0.050
6.252,0.050,-0.045
6.254,0.040,-0.045
6.256,0.055,-0.045
6.258,0.045,-0.040
6.260,0.055,-0.040
6.262,0.045,-0.040
6.264,0.030,-0.035
6.266,0.045,-0.035
6.268,0.090,-0.030
6.270,0.080,-0.030
6.272,0.075,-0.025
6.274,0.085,-0.025
6.276,0.085,-0.025
6.278,0.065,-0.025
6.280,0.045,-0.025
6.282,0.040,-0.025
6.284,0.045,-0.030
6.286,0.065,-0.030
6.288,0.075,-0.030
6.290,0.075,-0.025
6.292,0.080,-0.025
6.294,0.070,-0.025
6.296,0.070,-0.025
6.298,0.055,-0.025
6.300,0.070,-0.025
6.302,0.070,-0.030
6.304,0.070,-0.030
6.306,0.075,-0.030
6.308,0.085,-0.030
6.310,0.075,-0.030
6.312,0.085,-0.025
6.314,0.095,-0.020
6.316,0.100,-0.015
6.318,0.080,-0.005
6.320,0.080,0.005
6.322,0.110,0.010
6.324,0.110,0.020
6.326,0.100,0.025
6.328,0.135,0.030
6.330,0.135,0.035
6.332,0.115,0.040
6.334,0.110,0.045
6.336,0.110,0.045
6.338,0.105,0.045
6.340,0.130,0.045
6.342,0.140,0.040
6.344,0.135,0.040
6.346,0.120,0.040
6.348,0.160,0.045
6.350,0.160,0.045
6.352,0.180,0.055
6.354,0.165,0.060
6.356,0.175,0.070
6.358,0.145,0.080
6.360,0.175,0.090
6.362,0.195,0.095
6.364,0.185,0.100
6.366,0.205,0.100
6.368,0.225,0.105
6.370,0.225,0.105
6.372,0.205,0.105
6.374,0.195,0.105
6.376,0.195,0.105
6.378,0.180,0.110
6.380,0.200,0.110
6.382,0.205,0.115
6.384,0.205,0.115
6.386,0.200,0.115
6.388,0.185,0.115
6.390,0.195,0.115
6.392,0.205,0.115
6.394,0.205,0.110
6.396,0.190,0.105
6.398,0.175,0.105
6.400,0.195,0.100
6.402,0.180,0.095
6.404,0.170,0.090
6.406,0.180,0.080
6.408,0.200,0.075
6.410,0.175,0.065
6.412,0.150,0.060
6.414,0.145,0.050
6.416,0.140,0.045
6.418,0.135,0.040
6.420,0.135,0.040
6.422,0.110,0.040
6.424,0.105,0.035
6.426,0.135,0.035
6.428,0.135,0.030
6.430,0.105,0.030
6.432,0.095,0.020
6.434,0.090,0.015
6.436,0.080,0.005
6.438,0.055,0.000
6.440,0.045,-0.010
6.442,0.075,-0.020
6.444,0.085,-0.025
6.446,0.065,-0.030
6.448,0.075,-0.040
6.450,0.085,-0.045
6.452,0.085,-0.050
6.454,0.090,-0.055
6.456,0.030,-0.055
6.458,0.010,-0.055
6.460,0.040,-0.055
6.462,0.015,-0.050
6.464,0.010,-0.045
6.466,0.055,-0.040
6.468,0.065,-0.035
6.470,0.055,-0.030
6.472,0.060,-0.030
6.474,0.060,-0.035
6.476,0.025,-0.035
6.478,0.020,-0.040
6.480,0.035,-0.050
6.482,0.055,-0.055
6.484,0.045,-0.055
6.486,0.065,-0.060
6.488,0.080,-0.055
6.490,0.065,-0.055
6.492,0.055,-0.050
6.494,0.055,-0.045
6.496,0.035,-0.040
6.498,0.035,-0.035
6.500,0.025,-0.035
6.502,0.030,-0.040
6.504,0.020,-0.040
6.506,0.050,-0.045
6.508,0.060,-0.055
6.510,0.050,-0.060
6.512,0.055,-0.065
6.514,0.060,-0.070
6.516,0.015,-0.075
6.518,0.010,-0.075
6.520,0.010,-0.075
6.522,0.020,-0.075
6.524,0.015,-0.070
6.526,0.045,-0.070
6.528,0.065,-0.065
6.530,0.040,-0.060
6.532,0.045,-0.060
6.534,0.055,-0.055
6.536,0.030,-0.050
6.538,0.055,-0.040
6.540,0.070,-0.035
6.542,0.060,-0.030
6.544,0.045,-0.030
6.546,0.065,-0.030
6.548,0.055,-0.030
6.550,0.045,-0.035
6.552,0.035,-0.040
6.554,0.030,-0.045
6.556,0.015,-0.050
6.558,0.015,-0.050
6.560,0.030,-0.055
6.562,0.040,-0.055
6.564,0.035,-0.060
6.566,0.065,-0.060
6.568,0.065,-0.060
6.570,0.040,-0.060
6.572,0.045,-0.060
6.574,0.050,-0.055
6.576,0.025,-0.050
6.578,0.035,-0.045
6.580,0.060,-0.040
6.582,0.055,-0.030
6.584,0.050,-0.025
6.586,0.085,-0.020
6.588,0.070,-0.020
6.590,0.065,-0.025
6.592,0.065,-0.030
6.594,0.060,-0.040
6.596,0.015,-0.050
6.598,0.025,-0.055
6.600,0.045,-0.055
6.602,0.065,-0.055
6.604,0.060,-0.055
6.606,0.080,-0.050
6.608,0.075,-0.040
6.610,0.075,-0.035
6.612,0.075,-0.030
6.614,0.090,-0.030
6.616,0.055,-0.030
6.618,0.060,-0.030
6.620,0.040,-0.030
6.622,0.045,-0.030
6.624,0.045,-0.030
6.626,0.085,-0.025
6.628,0.080,-0.025
6.630,0.075,-0.020
6.632,0.065,-0.025
6.634,0.065,-0.025
6.636,0.040,-0.030
6.638,0.050,-0.035
6.640,0.045,-0.035
6.642,0.040,-0.040
6.644,0.060,-0.040
6.646,0.090,-0.040
6.648,0.085,-0.035
6.650,0.075,-0.030
6.652,0.045,-0.030
6.654,0.065,-0.025
6.656,0.050,-0.025
6.658,0.050,-0.030
6.660,0.040,-0.030
6.662,0.070,-0.035
6.664,0.095,-0.035
6.666,0.085,-0.035
6.668,0.060,-0.035
6.670,0.065,-0.030
6.672,0.060,-0.030
6.674,0.050,-0.025
6.676,0.035,-0.025
6.678,0.060,-0.025
6.680,0.065,-0.030
6.682,0.045,-0.035
6.684,0.060,-0.040
6.686,0.075,-0.045
6.688,0.060,-0.050
6.690,0.065,-0.050
6.692,0.070,-0.050
6.694,0.065,-0.050
6.696,0.035,-0.045
6.698,0.050,-0.040
6.700,0.050,-0.035
6.702,0.035,-0.035
6.704,0.045,-0.035
6.706,0.090,-0.035
6.708,0.085,-0.040
6.710,0.045,-0.045
6.712,0.060,-0.045
6.714,0.055,-0.045
6.716,0.025,-0.045
6.718,0.040,-0.045
6.720,0.055,-0.045
6.722,0.040,-0.045
6.724,0.065,-0.045
6.726,0.060,-0.045
6.728,0.055,-0.045
6.730,0.065,-0.045
6.732,0.070,-0.050
6.734,0.050,-0.050
6.736,0.040,-0.045
6.738,0.055,-0.045
6.740,0.050,-0.040
6.742,0.045,-0.035
6.744,0.070,-0.030
6.746,0.095,-0.030
6.748,0.080,-0.025
6.750,0.070,-0.025
6.752,0.075,-0.025
6.754,0.035,-0.025
6.756,0.050,-0.030
6.758,0.060,-0.030
6.760,0.065,-0.030
6.762,0.045,-0.030
6.764,0.085,-0.030
6.766,0.080,-0.030
6.768,0.035,-0.030
6.770,0.050,-0.030
6.772,0.045,-0.035
6.774,0.035,-0.035
6.776,0.040,-0.040
6.778,0.050,-0.040
6.780,0.045,-0.045
6.782,0.020,-0.045
6.784,0.040,-0.050
6.786,0.070,-0.045
6.788,0.085,-0.045
6.790,0.075,-0.040
6.792,0.070,-0.040
6.794,0.045,-0.035
6.796,0.040,-0.035
6.798,0.055,-0.030
6.800,0.070,-0.030
6.802,0.055,-0.035
6.804,0.070,-0.035
6.806,0.085,-0.040
6.808,0.070,-0.040
6.810,0.065,-0.040
6.812,0.080,-0.040
6.814,0.035,-0.035
6.816,0.040,-0.030
6.818,0.065,-0.025
6.820,0.065,-0.020
6.822,0.075,-0.010
6.824,0.115,0.000
6.826,0.140,0.005
6.828,0.140,0.015
6.830,0.130,0.020
6.832,0.145,0.030
6.834,0.115,0.035
6.836,0.110,0.045
6.838,0.125,0.050
6.840,0.125,0.050
6.842,0.120,0.050
6.844,0.155,0.050
6.846,0.165,0.045
6.848,0.130,0.040
6.850,0.125,0.035
6.852,0.130,0.030
6.854,0.130,0.030
6.856,0.130,0.030
6.858,0.135,0.035
6.860,0.140,0.040
6.862,0.145,0.045
6.864,0.190,0.045
6.866,0.170,0.050
6.868,0.125,0.045
6.870,0.105,0.040
6.872,0.110,0.035
6.874,0.085,0.025
6.876,0.085,0.020
6.878,0.090,0.010
6.880,0.100,0.005
6.882,0.095,0.005
6.884,0.125,0.000
6.886,0.115,0.000
6.888,0.080,0.000
6.890,0.050,-0.005
6.892,0.050,-0.010
6.894,0.040,-0.020
6.896,0.030,-0.030
6.898,0.035,-0.035
6.900,0.030,-0.045
6.902,0.030,-0.045
6.904,0.070,-0.045
6.906,0.060,-0.045
6.908,0.045,-0.040
6.910,0.030,-0.035
6.912,0.050,-0.030
6.914,0.050,-0.030
6.916,0.035,-0.030
6.918,0.045,-0.035
6.920,0.035,-0.040
6.922,0.040,-0.045
6.924,0.065,-0.050
6.926,0.050,-0.050
6.928,0.055,-0.050
6.930,0.055,-0.045
6.932,0.050,-0.040
6.934,0.030,-0.035
6.936,0.035,-0.035
6.938,0.030,-0.030
6.940,0.030,-0.030
6.942,0.035,-0.030
6.944,0.080,-0.030
6.946,0.065,-0.035
6.948,0.055,-0.035
6.950,0.065,-0.040
6.952,0.060,-0.040
6.954,0.015,-0.045
6.956,0.025,-0.050
6.958,0.030,-0.060
6.960,0.010,-0.065
6.962,0.030,-0.065
6.964,0.070,-0.060
6.966,0.090,-0.045
6.968,0.100,-0.020
6.970,0.120,0.020
6.972,0.150,0.070
6.974,0.200,0.135
6.976,0.305,0.215
6.978,0.410,0.295
6.980,0.480,0.385
6.982,0.585,0.470
6.984,0.695,0.545
6.986,0.725,0.610
6.988,0.785,0.655
6.990,0.840,0.675
6.992,0.810,0.670
6.994,0.720,0.635
6.996,0.610,0.575
6.998,0.515,0.490
7.000,0.435,0.390
7.002,0.370,0.285
7.004,0.255,0.180
7.006,0.135,0.085
7.008,0.080,0.010
7.010,0.040,-0.040
7.012,0.015,-0.070
7.014,0.010,-0.075
7.016,0.030,-0.070
7.018,0.030,-0.055
7.020,0.035,-0.035
7.022,0.060,-0.025
7.024,0.070,-0.020
7.026,0.065,-0.025
7.028,0.060,-0.035
7.030,0.060,-0.050
7.032,0.000,-0.060
7.034,0.000,-0.070
7.036,0.015,-0.075
7.038,0.040,-0.075
7.040,0.040,-0.070
7.042,0.050,-0.065
7.044,0.060,-0.055
7.046,0.040,-0.050
7.048,0.045,-0.045
7.050,0.045,-0.045
7.052,0.020,-0.045
7.054,0.015,-0.045
7.056,0.030,-0.050
7.058,0.035,-0.050
7.060,0.025,-0.050
7.062,0.035,-0.050
7.064,0.045,-0.050
7.066,0.040,-0.055
7.068,0.045,-0.055
7.070,0.045,-0.060
7.072,0.030,-0.060
7.074,0.030,-0.060
7.076,0.035,-0.055
7.078,0.040,-0.050
7.080,0.040,-0.045
7.082,0.075,-0.040
7.084,0.090,-0.035
7.086,0.055,-0.035
7.088,0.055,-0.035
7.090,0.065,-0.035
7.092,0.030,-0.040
7.094,0.015,-0.050
7.096,0.015,-0.055
7.098,0.030,-0.055
7.100,0.035,-0.055
7.102,0.075,-0.055
7.104,0.080,-0.050
7.106,0.060,-0.040
7.108,0.060,-0.035
7.110,0.055,-0.030
7.112,0.035,-0.030
7.114,0.045,-0.030
7.116,0.045,-0.030
7.118,0.055,-0.030
7.120,0.050,-0.035
7.122,0.075,-0.030
7.124,0.070,-0.030
7.126,0.070,-0.025
7.128,0.065,-0.020
7.130,0.075,-0.015
7.132,0.065,-0.010
7.134,0.055,-0.010
7.136,0.045,-0.010
7.138,0.060,-0.010
7.140,0.050,-0.015
7.142,0.085,-0.020
7.144,0.085,-0.025
7.146,0.060,-0.030
7.148,0.060,-0.035
7.150,0.080,-0.030
7.152,0.055,-0.030
7.154,0.060,-0.025
7.156,0.070,-0.020
7.158,0.085,-0.010
7.160,0.075,-0.005
7.162,0.100,0.000
7.164,0.115,0.000
7.166,0.100,0.005
7.168,0.085,0.005
7.170,0.085,0.005
7.172,0.090,0.005
7.174,0.105,0.010
7.176,0.100,0.010
7.178,0.080,0.015
7.180,0.095,0.020
7.182,0.145,0.025
7.184,0.145,0.035
7.186,0.140,0.040
7.188,0.120,0.045
7.190,0.135,0.050
7.192,0.120,0.055
7.194,0.110,0.060
7.196,0.140,0.065
7.198,0.150,0.075
7.200,0.155,0.080
7.202,0.200,0.090
7.204,0.200,0.100
7.206,0.185,0.105
7.208,0.170,0.115
7.210,0.195,0.120
7.212,0.195,0.120
7.214,0.190,0.125
7.216,0.190,0.120
7.218,0.180,0.120
7.220,0.170,0.120
7.222,0.205,0.115
7.224,0.210,0.115
7.226,0.235,0.115
7.228,0.230,0.115
7.230,0.205,0.120
7.232,0.165,0.120
7.234,0.190,0.125
7.236,0.195,0.125
7.238,0.195,0.125
7.240,0.210,0.125
7.242,0.235,0.120
7.244,0.215,0.115
7.246,0.200,0.115
7.248,0.195,0.110
7.250,0.200,0.105
7.252,0.170,0.100
7.254,0.185,0.095
7.256,0.175,0.090
7.258,0.155,0.085
7.260,0.155,0.075
7.262,0.170,0.070
7.264,0.155,0.065
7.266,0.170,0.060
7.268,0.145,0.060
7.270,0.130,0.055
7.272,0.105,0.055
7.274,0.125,0.055
7.276,0.120,0.050
7.278,0.095,0.045
7.280,0.100,0.040
7.282,0.115,0.030
7.284,0.090,0.020
7.286,0.080,0.010
7.288,0.080,0.000
7.290,0.070,-0.010
7.292,0.040,-0.015
7.294,0.050,-0.020
7.296,0.040,-0.025
7.298,0.050,-0.025
7.300,0.080,-0.030
7.302,0.105,-0.030
7.304,0.050,-0.030
7.306,0.035,-0.035
7.308,0.065,-0.035
7.310,0.060,-0.035
7.312,0.035,-0.035
7.314,0.040,-0.035
7.316,0.040,-0.035
7.318,0.025,-0.035
7.320,0.045,-0.040
7.322,0.070,-0.040
7.324,0.060,-0.045
7.326,0.045,-0.050
7.328,0.035,-0.050
7.330,0.020,-0.055
7.332,0.020,-0.055
7.334,0.030,-0.055
7.336,0.020,-0.050
7.338,0.035,-0.050
7.340,0.080,-0.045
7.342,0.070,-0.040
7.344,0.065,-0.035
7.346,0.075,-0.035
7.348,0.060,-0.030
7.350,0.025,-0.030
7.352,0.020,-0.030
7.354,0.045,-0.030
7.356,0.050,-0.035
7.358,0.035,-0.040
7.360,0.055,-0.045
7.362,0.065,-0.050
7.364,0.030,-0.055
7.366,0.035,-0.060
7.368,0.010,-0.060
7.370,0.000,-0.065
7.372,0.020,-0.065
7.374,0.020,-0.065
7.376,0.040,-0.060
7.378,0.020,-0.060
7.380,0.050,-0.060
7.382,0.055,-0.060
7.384,0.055,-0.060
7.386,0.035,-0.060
7.388,0.020,-0.060
7.390,0.020,-0.055
7.392,0.040,-0.055
7.394,0.040,-0.055
7.396,0.035,-0.055
7.398,0.030,-0.050
7.400,0.035,-0.055
7.402,0.040,-0.055
7.404,0.035,-0.055
7.406,0.020,-0.060
7.408,0.025,-0.060
7.410,0.015,-0.060
7.412,0.025,-0.055
7.414,0.035,-0.050
7.416,0.040,-0.045
7.418,0.040,-0.040
7.420,0.060,-0.035
7.422,0.055,-0.030
7.424,0.045,-0.030
7.426,0.040,-0.030
7.428,0.040,-0.030
7.430,0.025,-0.035
7.432,0.040,-0.035
7.434,0.050,-0.040
7.436,0.040,-0.040
7.438,0.040,-0.045
7.440,0.070,-0.045
7.442,0.060,-0.045
7.444,0.060,-0.040
7.446,0.045,-0.040
7.448,0.040,-0.040
7.450,0.015,-0.035
7.452,0.030,-0.035
7.454,0.065,-0.035
7.456,0.055,-0.035
7.458,0.055,-0.035
7.460,0.070,-0.035
7.462,0.075,-0.035
7.464,0.060,-0.035
7.466,0.050,-0.035
7.468,0.065,-0.035
7.470,0.035,-0.035
7.472,0.045,-0.035
7.474,0.060,-0.035
7.476,0.055,-0.035
7.478,0.050,-0.030
7.480,0.095,-0.030
7.482,0.070,-0.025
7.484,0.050,-0.025
7.486,0.045,-0.020
7.488,0.040,-0.020
7.490,0.030,-0.025
7.492,0.040,-0.025
7.494,0.045,-0.030
7.496,0.050,-0.035
7.498,0.050,-0.035
7.500,0.050,-0.040
7.502,0.050,-0.040
7.504,0.060,-0.035
7.506,0.050,-0.035
7.508,0.055,-0.030
7.510,0.045,-0.025
7.512,0.040,-0.025
7.514,0.020,-0.025
7.516,0.045,-0.030
7.518,0.045,-0.035
7.520,0.070,-0.040
7.522,0.050,-0.045
7.524,0.035,-0.045
7.526,0.035,-0.045
7.528,0.060,-0.045
7.530,0.045,-0.040
7.532,0.050,-0.035
7.534,0.065,-0.025
7.536,0.065,-0.020
7.538,0.055,-0.015
7.540,0.070,-0.015
7.542,0.055,-0.015
7.544,0.045,-0.020
7.546,0.030,-0.025
7.548,0.030,-0.030
7.550,0.020,-0.040
7.552,0.040,-0.045
7.554,0.050,-0.045
7.556,0.035,-0.045
7.558,0.045,-0.040
7.560,0.080,-0.035
7.562,0.075,-0.030
7.564,0.050,-0.025
7.566,0.060,-0.025
7.568,0.040,-0.025
7.570,0.000,-0.030
7.572,0.030,-0.035
7.574,0.065,-0.040
7.576,0.055,-0.045
7.578,0.050,-0.050
7.580,0.050,-0.055
7.582,0.035,-0.055
7.584,0.040,-0.050
7.586,0.045,-0.045
7.588,0.025,-0.040
7.590,0.020,-0.035
7.592,0.040,-0.030
7.594,0.050,-0.025
7.596,0.040,-0.030
7.598,0.040,-0.030
7.600,0.060,-0.035
7.602,0.055,-0.040
7.604,0.045,-0.045
7.606,0.050,-0.045
7.608,0.050,-0.045
7.610,0.040,-0.045
7.612,0.025,-0.040
7.614,0.025,-0.040
7.616,0.020,-0.035
7.618,0.060,-0.035
7.620,0.085,-0.035
7.622,0.075,-0.040
7.624,0.045,-0.040
7.626,0.045,-0.050
7.628,0.040,-0.055
7.630,0.010,-0.055
7.632,0.015,-0.055
7.634,0.050,-0.055
7.636,0.020,-0.050
7.638,0.040,-0.040
7.640,0.090,-0.035
7.642,0.090,-0.025
7.644,0.070,-0.020
7.646,0.060,-0.015
7.648,0.040,-0.015
7.650,0.025,-0.020
7.652,0.035,-0.025
7.654,0.045,-0.030
7.656,0.040,-0.035
7.658,0.065,-0.045
7.660,0.085,-0.050
7.662,0.060,-0.055
7.664,0.055,-0.055
7.666,0.040,-0.055
7.668,0.035,-0.055
7.670,0.040,-0.055
7.672,0.040,-0.055
7.674,0.045,-0.050
7.676,0.005,-0.050
7.678,0.050,-0.050
7.680,0.080,-0.045
7.682,0.060,-0.045
7.684,0.050,-0.040
7.686,0.060,-0.035
7.688,0.030,-0.030
7.690,0.045,-0.025
7.692,0.075,-0.020
7.694,0.075,-0.015
7.696,0.065,-0.005
7.698,0.100,0.000
7.700,0.110,0.010
7.702,0.120,0.015
7.704,0.125,0.020
7.706,0.100,0.030
7.708,0.115,0.035
7.710,0.105,0.040
7.712,0.125,0.045
7.714,0.110,0.045
7.716,0.110,0.045
7.718,0.145,0.045
7.720,0.125,0.040
7.722,0.115,0.035
7.724,0.105,0.030
7.726,0.110,0.025
7.728,0.080,0.025
7.730,0.100,0.025
7.732,0.135,0.030
7.734,0.140,0.035
7.736,0.135,0.040
7.738,0.165,0.045
7.740,0.145,0.045
7.742,0.135,0.045
7.744,0.130,0.040
7.746,0.135,0.035
7.748,0.100,0.030
7.750,0.110,0.020
7.752,0.095,0.015
7.754,0.090,0.010
7.756,0.070,0.005
7.758,0.105,0.000
7.760,0.105,-0.005
7.762,0.070,-0.010
7.764,0.035,-0.015
7.766,0.040,-0.025
7.768,0.020,-0.030
7.770,0.025,-0.040
7.772,0.030,-0.045
7.774,0.030,-0.050
7.776,0.030,-0.055
7.778,0.060,-0.050
7.780,0.055,-0.050
7.782,0.055,-0.045
7.784,0.050,-0.045
7.786,0.055,-0.040
7.788,0.030,-0.040
7.790,0.020,-0.040
7.792,0.020,-0.045
7.794,0.030,-0.045
7.796,0.030,-0.050
7.798,0.065,-0.050
7.800,0.050,-0.055
7.802,0.030,-0.055
7.804,0.030,-0.050
7.806,0.045,-0.050
7.808,0.030,-0.050
7.810,0.035,-0.050
7.812,0.020,-0.050
7.814,0.005,-0.050
7.816,0.020,-0.050
7.818,0.080,-0.050
7.820,0.060,-0.045
7.822,0.040,-0.045
7.824,0.030,-0.040
7.826,0.045,-0.035
7.828,0.025,-0.035
7.830,0.035,-0.035
7.832,0.025,-0.040
7.834,0.025,-0.050
7.836,0.020,-0.055
7.838,0.045,-0.060
7.840,0.025,-0.060
7.842,0.040,-0.050
7.844,0.075,-0.020
7.846,0.110,0.020
7.848,0.175,0.080
7.850,0.240,0.155
7.852,0.325,0.235
7.854,0.435,0.325
7.856,0.530,0.415
7.858,0.640,0.495
7.860,0.705,0.565
7.862,0.725,0.620
7.864,0.770,0.650
7.866,0.795,0.660
7.868,0.745,0.645
7.870,0.670,0.605
7.872,0.605,0.545
7.874,0.540,0.470
7.876,0.455,0.375
7.878,0.375,0.280
7.880,0.215,0.180
7.882,0.095,0.090
7.884,0.060,0.015
7.886,0.035,-0.040
7.888,-0.005,-0.075
7.890,0.015,-0.090
7.892,0.035,-0.090
7.894,0.025,-0.075
7.896,0.045,-0.055
7.898,0.065,-0.040
7.900,0.065,-0.030
7.902,0.050,-0.025
7.904,0.050,-0.030
7.906,0.015,-0.040
7.908,0.005,-0.050
7.910,0.015,-0.060
7.912,0.015,-0.070
7.914,0.025,-0.070
7.916,0.050,-0.070
7.918,0.055,-0.070
7.920,0.045,-0.065
7.922,0.045,-0.060
7.924,0.055,-0.055
7.926,0.015,-0.055
7.928,0.010,-0.055
7.930,0.020,-0.060
7.932,0.035,-0.060
7.934,0.020,-0.055
7.936,0.055,-0.055
7.938,0.055,-0.050
7.940,0.040,-0.045
7.942,0.045,-0.040
7.944,0.055,-0.040
7.946,0.030,-0.040
7.948,0.020,-0.040
7.950,0.010,-0.045
7.952,0.020,-0.050
7.954,0.040,-0.055
7.956,0.070,-0.055
7.958,0.090,-0.060
7.960,0.075,-0.055
7.962,0.050,-0.055
7.964,0.055,-0.050
7.966,0.035,-0.040
7.968,0.040,-0.035
7.970,0.045,-0.030
7.972,0.050,-0.025
7.974,0.025,-0.025
7.976,0.075,-0.025
7.978,0.080,-0.030
7.980,0.050,-0.035
7.982,0.060,-0.035
7.984,0.065,-0.035
7.986,0.040,-0.035
7.988,0.030,-0.035
7.990,0.050,-0.025
7.992,0.050,-0.020
7.994,0.045,-0.015
7.996,0.080,-0.010
7.998,0.085,-0.010
8.000,0.070,-0.010
8.002,0.060,-0.015
8.004,0.065,-0.025
8.006,0.035,-0.030
8.008,0.035,-0.035
8.010,0.050,-0.040
8.012,0.065,-0.040
8.014,0.050,-0.035
8.016,0.070,-0.025
8.018,0.085,-0.020
8.020,0.120,-0.010
8.022,0.115,-0.005
8.024,0.065,0.000
8.026,0.050,0.000
8.028,0.065,-0.005
8.030,0.065,-0.010
8.032,0.080,-0.015
8.034,0.065,-0.020
8.036,0.095,-0.020
8.038,0.110,-0.015
8.040,0.100,-0.010
8.042,0.095,-0.005
8.044,0.090,0.005
8.046,0.080,0.015
8.048,0.100,0.025
8.050,0.100,0.035
8.052,0.100,0.040
8.054,0.125,0.045
8.056,0.140,0.050
8.058,0.145,0.050
8.060,0.135,0.050
8.062,0.115,0.050
8.064,0.135,0.045
8.066,0.105,0.045
8.068,0.105,0.045
8.070,0.120,0.045
8.072,0.130,0.045
8.074,0.140,0.050
8.076,0.190,0.055
8.078,0.185,0.065
8.080,0.180,0.075
8.082,0.185,0.085
8.084,0.170,0.100
8.086,0.140,0.110
8.088,0.185,0.115
8.090,0.190,0.120
8.092,0.195,0.125
8.094,0.215,0.125
8.096,0.255,0.125
8.098,0.235,0.120
8.100,0.225,0.120
8.102,0.210,0.120
8.104,0.220,0.120
8.106,0.190,0.125
8.108,0.205,0.130
8.110,0.205,0.135
8.112,0.200,0.140
8.114,0.190,0.145
8.116,0.205,0.140
8.118,0.215,0.135
8.120,0.220,0.130
8.122,0.200,0.120
8.124,0.195,0.110
8.126,0.150,0.105
8.128,0.175,0.095
8.130,0.205,0.095
8.132,0.190,0.095
8.134,0.185,0.095
8.136,0.190,0.095
8.138,0.180,0.100
8.140,0.160,0.095
8.142,0.145,0.090
8.144,0.140,0.080
8.146,0.120,0.065
8.148,0.140,0.050
8.150,0.110,0.035
8.152,0.085,0.015
8.154,0.115,0.005
8.156,0.135,-0.005
8.158,0.110,-0.010
8.160,0.110,-0.010
8.162,0.085,-0.005
8.164,0.070,0.000
8.166,0.045,0.000
8.168,0.040,0.000
8.170,0.075,0.000
8.172,0.070,-0.010
8.174,0.075,-0.020
8.176,0.105,-0.025
8.178,0.060,-0.035
8.180,0.060,-0.040
8.182,0.065,-0.040
8.184,0.055,-0.035
8.186,0.040,-0.030
8.188,0.060,-0.020
8.190,0.060,-0.015
8.192,0.055,-0.010
8.194,0.085,-0.010
8.196,0.095,-0.015
8.198,0.050,-0.020
8.200,0.035,-0.030
8.202,0.040,-0.045
8.204,0.015,-0.055
8.206,0.010,-0.060
8.208,0.035,-0.065
8.210,0.050,-0.065
8.212,0.015,-0.060
8.214,0.050,-0.055
8.216,0.075,-0.050
8.218,0.050,-0.045
8.220,0.050,-0.040
8.222,0.060,-0.040
8.224,0.035,-0.040
8.226,0.035,-0.040
8.228,0.050,-0.045
8.230,0.055,-0.045
8.232,0.030,-0.045
8.234,0.040,-0.045
8.236,0.050,-0.045
8.238,0.050,-0.045
8.240,0.055,-0.050
8.242,0.060,-0.050
8.244,0.035,-0.050
8.246,0.015,-0.055
8.248,0.010,-0.055
8.250,0.055,-0.050
8.252,0.030,-0.050
8.254,0.040,-0.045
8.256,0.065,-0.040
8.258,0.070,-0.040
8.260,0.055,-0.035
8.262,0.060,-0.035
8.264,0.040,-0.035
8.266,0.010,-0.035
8.268,0.025,-0.040
8.270,0.035,-0.040
8.272,0.025,-0.045
8.274,0.045,-0.045
8.276,0.045,-0.050
8.278,0.045,-0.050
8.280,0.060,-0.050
8.282,0.070,-0.050
8.284,0.035,-0.055
8.286,0.025,-0.055
8.288,0.035,-0.055
8.290,0.040,-0.050
8.292,0.030,-0.050
8.294,0.070,-0.045
8.296,0.065,-0.035
8.298,0.060,-0.030
8.300,0.055,-0.020
8.302,0.065,-0.015
8.304,0.060,-0.015
8.306,0.055,-0.010
8.308,0.050,-0.015
8.310,0.070,-0.020
8.312,0.055,-0.025
8.314,0.060,-0.030
8.316,0.045,-0.030
8.318,0.060,-0.035
8.320,0.050,-0.030
8.322,0.060,-0.030
8.324,0.060,-0.025
8.326,0.050,-0.025
8.328,0.055,-0.025
8.330,0.055,-0.020
8.332,0.050,-0.020
8.334,0.070,-0.020
8.336,0.085,-0.020
8.338,0.080,-0.020
8.340,0.080,-0.015
8.342,0.095,-0.005
8.344,0.070,0.000
8.346,0.055,0.010
8.348,0.085,0.015
8.350,0.090,0.015
8.352,0.090,0.010
8.354,0.100,0.000
8.356,0.060,-0.010
8.358,0.045,-0.025
8.360,0.000,-0.035
8.362,0.030,-0.045
8.364,0.035,-0.050
8.366,0.070,-0.050
8.368,0.065,-0.045
8.370,0.055,-0.035
8.372,0.050,-0.030
8.374,0.065,-0.020
8.376,0.065,-0.015
8.378,0.080,-0.015
8.380,0.080,-0.015
8.382,0.065,-0.015
8.384,0.035,-0.020
8.386,0.055,-0.020
8.388,0.070,-0.025
8.390,0.070,-0.020
8.392,0.070,-0.020
8.394,0.085,-0.020
8.396,0.080,-0.020
8.398,0.075,-0.020
8.400,0.060,-0.020
8.402,0.040,-0.025
8.404,0.020,-0.030
8.406,0.030,-0.035
8.408,0.040,-0.040
8.410,0.025,-0.045
8.412,0.060,-0.050
8.414,0.085,-0.050
8.416,0.070,-0.050
8.418,0.065,-0.045
8.420,0.065,-0.040
8.422,0.065,-0.035
8.424,0.040,-0.030
8.426,0.050,-0.025
8.428,0.070,-0.020
8.430,0.050,-0.015
8.432,0.055,-0.015
8.434,0.085,-0.015
8.436,0.070,-0.020
8.438,0.070,-0.025
8.440,0.070,-0.030
8.442,0.050,-0.035
8.444,0.025,-0.040
8.446,0.025,-0.045
8.448,0.040,-0.045
8.450,0.045,-0.045
8.452,0.060,-0.045
8.454,0.050,-0.045
8.456,0.070,-0.045
8.458,0.070,-0.040
8.460,0.065,-0.035
8.462,0.040,-0.035
8.464,0.025,-0.030
8.466,0.040,-0.025
8.468,0.055,-0.025
8.470,0.050,-0.025
8.472,0.085,-0.025
8.474,0.090,-0.025
8.476,0.060,-0.025
8.478,0.070,-0.030
8.480,0.070,-0.035
8.482,0.025,-0.035
8.484,0.015,-0.035
8.486,0.055,-0.040
8.488,0.050,-0.040
8.490,0.030,-0.040
8.492,0.050,-0.040
8.494,0.070,-0.035
8.496,0.060,-0.035
8.498,0.055,-0.035
8.500,0.060,-0.040
8.502,0.050,-0.040
8.504,0.040,-0.045
8.506,0.040,-0.045
8.508,0.035,-0.045
8.510,0.040,-0.045
8.512,0.075,-0.045
8.514,0.090,-0.045
8.516,0.060,-0.045
8.518,0.045,-0.040
8.520,0.070,-0.035
8.522,0.055,-0.035
8.524,0.045,-0.035
8.526,0.025,-0.035
8.528,0.035,-0.035
8.530,0.035,-0.040
8.532,0.065,-0.045
8.534,0.085,-0.045
8.536,0.060,-0.050
8.538,0.035,-0.055
8.540,0.040,-0.055
8.542,0.030,-0.055
8.544,0.025,-0.055
8.546,0.045,-0.055
8.548,0.065,-0.050
8.550,0.045,-0.050
8.552,0.065,-0.045
8.554,0.070,-0.040
8.556,0.060,-0.040
8.558,0.050,-0.035
8.560,0.060,-0.035
8.562,0.045,-0.030
8.564,0.040,-0.030
8.566,0.045,-0.030
8.568,0.040,-0.030
8.570,0.045,-0.025
8.572,0.070,-0.025
8.574,0.095,-0.025
8.576,0.090,-0.020
8.578,0.075,-0.020
8.580,0.080,-0.015
8.582,0.080,-0.015
8.584,0.080,-0.010
8.586,0.095,0.000
8.588,0.120,0.005
8.590,0.115,0.015
8.592,0.130,0.020
8.594,0.145,0.030
8.596,0.145,0.035
8.598,0.120,0.035
8.600,0.135,0.035
8.602,0.090,0.030
8.604,0.075,0.025
8.606,0.090,0.020
8.608,0.115,0.015
8.610,0.105,0.015
8.612,0.145,0.015
8.614,0.155,0.015
8.616,0.155,0.020
8.618,0.140,0.025
8.620,0.140,0.030
8.622,0.125,0.035
8.624,0.135,0.040
8.626,0.130,0.040
8.628,0.140,0.040
8.630,0.135,0.040
8.632,0.135,0.035
8.634,0.115,0.030
8.636,0.125,0.025
8.638,0.100,0.020
8.640,0.115,0.015
8.642,0.085,0.005
8.644,0.070,-0.005
8.646,0.075,-0.010
8.648,0.055,-0.020
8.650,0.025,-0.025
8.652,0.065,-0.035
8.654,0.050,-0.040
8.656,0.045,-0.045
8.658,0.055,-0.045
8.660,0.040,-0.050
8.662,0.010,-0.050
8.664,0.030,-0.050
8.666,0.045,-0.050
8.668,0.035,-0.050
8.670,0.045,-0.050
8.672,0.085,-0.050
8.674,0.055,-0.050
8.676,0.035,-0.050
8.678,0.020,-0.050
8.680,0.030,-0.050
8.682,0.020,-0.050
8.684,0.040,-0.050
8.686,0.035,-0.050
8.688,0.040,-0.050
8.690,0.045,-0.050
8.692,0.075,-0.055
8.694,0.040,-0.055
8.696,0.035,-0.055
8.698,0.025,-0.055
8.700,0.030,-0.055
8.702,0.020,-0.055
8.704,0.030,-0.050
8.706,0.035,-0.045
8.708,0.030,-0.040
8.710,0.025,-0.040
8.712,0.060,-0.035
8.714,0.060,-0.035
8.716,0.050,-0.035
8.718,0.035,-0.040
8.720,0.025,-0.045
8.722,0.005,-0.050
8.724,0.020,-0.050
8.726,0.030,-0.050
8.728,0.030,-0.040
8.730,0.070,-0.020
8.732,0.125,0.015
8.734,0.170,0.060
8.736,0.235,0.125
8.738,0.305,0.195
8.740,0.400,0.280
8.742,0.480,0.370
8.744,0.570,0.455
8.746,0.640,0.530
8.748,0.685,0.595
8.750,0.745,0.640
8.752,0.815,0.660
8.754,0.795,0.650
8.756,0.725,0.610
8.758,0.625,0.550
8.760,0.525,0.465
8.762,0.435,0.365
8.764,0.335,0.265
8.766,0.185,0.165
8.768,0.060,0.080
8.770,0.075,0.015
8.772,0.075,-0.035
8.774,0.035,-0.060
8.776,0.015,-0.070
8.778,0.040,-0.065
8.780,0.040,-0.055
8.782,0.025,-0.045
8.784,0.050,-0.040
8.786,0.055,-0.040
8.788,0.005,-0.040
8.790,0.025,-0.050
8.792,0.055,-0.055
8.794,0.055,-0.065
8.796,0.055,-0.065
8.798,0.050,-0.065
8.800,0.050,-0.065
8.802,0.065,-0.060
8.804,0.055,-0.055
8.806,0.020,-0.050
8.808,-0.015,-0.045
8.810,0.030,-0.045
8.812,0.050,-0.045
8.814,0.045,-0.045
8.816,0.045,-0.045
8.818,0.045,-0.050
8.820,0.025,-0.050
8.822,0.015,-0.050
8.824,0.025,-0.050
8.826,0.030,-0.050
8.828,-0.005,-0.055
8.830,0.040,-0.055
8.832,0.050,-0.060
8.834,0.030,-0.060
8.836,0.020,-0.060
8.838,0.030,-0.060
8.840,0.005,-0.055
8.842,0.040,-0.050
8.844,0.060,-0.045
8.846,0.060,-0.040
8.848,0.045,-0.040
8.850,0.065,-0.035
8.852,0.045,-0.035
8.854,0.045,-0.040
8.856,0.060,-0.040
8.858,0.065,-0.040
8.860,0.040,-0.040
8.862,0.020,-0.040
8.864,0.035,-0.035
8.866,0.050,-0.035
8.868,0.055,-0.030
8.870,0.090,-0.030
8.872,0.095,-0.025
8.874,0.085,-0.030
8.876,0.070,-0.030
8.878,0.065,-0.030
8.880,0.020,-0.035
8.882,0.025,-0.035
8.884,0.050,-0.035
8.886,0.045,-0.035
8.888,0.050,-0.035
8.890,0.075,-0.040
8.892,0.070,-0.040
8.894,0.060,-0.040
8.896,0.065,-0.045
8.898,0.065,-0.045
8.900,0.045,-0.045
8.902,0.045,-0.045
8.904,0.050,-0.040
8.906,0.070,-0.030
8.908,0.050,-0.025
8.910,0.095,-0.015
8.912,0.120,-0.005
8.914,0.105,0.005
8.916,0.075,0.010
8.918,0.100,0.010
8.920,0.070,0.010
8.922,0.060,0.005
8.924,0.065,0.000
8.926,0.080,-0.005
8.928,0.075,-0.010
8.930,0.100,-0.015
8.932,0.090,-0.015
8.934,0.100,-0.015
8.936,0.105,-0.010
8.938,0.115,-0.005
8.940,0.085,0.000
8.942,0.095,0.010
8.944,0.100,0.015
8.946,0.105,0.025
8.948,0.105,0.030
8.950,0.150,0.035
8.952,0.160,0.045
8.954,0.160,0.050
8.956,0.170,0.055
8.958,0.170,0.060
8.960,0.135,0.065
8.962,0.150,0.065
8.964,0.165,0.070
8.966,0.150,0.075
8.968,0.160,0.080
8.970,0.210,0.085
8.972,0.195,0.090
8.974,0.185,0.100
8.976,0.200,0.105
8.978,0.215,0.105
8.980,0.180,0.110
8.982,0.200,0.110
8.984,0.210,0.110
8.986,0.205,0.115
8.988,0.220,0.115
8.990,0.240,0.115
8.992,0.220,0.115
8.994,0.190,0.120
8.996,0.185,0.120
8.998,0.210,0.120
9.000,0.195,0.120
9.002,0.195,0.120
9.004,0.195,0.120
9.006,0.185,0.120
9.008,0.200,0.120
9.010,0.250,0.115
9.012,0.215,0.115
9.014,0.205,0.110
9.016,0.190,0.105
9.018,0.180,0.100
9.020,0.150,0.095
9.022,0.155,0.085
9.024,0.170,0.075
9.026,0.150,0.065
9.028,0.125,0.060
9.030,0.150,0.050
9.032,0.135,0.045
9.034,0.130,0.040
9.036,0.120,0.035
9.038,0.115,0.035
9.040,0.090,0.030
9.042,0.105,0.020
9.044,0.100,0.015
9.046,0.095,0.005
9.048,0.095,-0.010
9.050,0.105,-0.020
9.052,0.070,-0.030
9.054,0.065,-0.035
9.056,0.060,-0.040
9.058,0.060,-0.045
9.060,0.035,-0.045
9.062,0.045,-0.045
9.064,0.040,-0.040
9.066,0.045,-0.040
9.068,0.065,-0.040
9.070,0.055,-0.040
9.072,0.050,-0.040
9.074,0.055,-0.040
9.076,0.070,-0.040
9.078,0.050,-0.040
9.080,0.030,-0.040
9.082,0.050,-0.035
9.084,0.045,-0.035
9.086,0.050,-0.035
9.088,0.080,-0.035
9.090,0.070,-0.035
9.092,0.045,-0.040
9.094,0.050,-0.045
9.096,0.040,-0.050
9.098,0.015,-0.055
9.100,0.010,-0.055
9.102,0.030,-0.055
9.104,0.035,-0.055
9.106,0.025,-0.050
9.108,0.070,-0.045
9.110,0.080,-0.045
9.112,0.060,-0.045
9.114,0.045,-0.050
9.116,0.030,-0.050
9.118,0.000,-0.055
9.120,0.005,-0.060
9.122,0.040,-0.065
9.124,0.030,-0.065
9.126,0.000,-0.065
9.128,0.070,-0.060
9.130,0.070,-0.055
9.132,0.055,-0.045
9.134,0.055,-0.045
9.136,0.065,-0.040
9.138,0.035,-0.040
9.140,0.015,-0.045
9.142,0.030,-0.045
9.144,0.050,-0.050
9.146,0.040,-0.050
9.148,0.060,-0.055
9.150,0.050,-0.050
9.152,0.040,-0.050
9.154,0.020,-0.045
9.156,0.040,-0.040
9.158,0.030,-0.035
9.160,0.030,-0.035
9.162,0.025,-0.035
9.164,0.035,-0.035
9.166,0.030,-0.040
9.168,0.050,-0.045
9.170,0.065,-0.045
9.172,0.055,-0.050
9.174,0.060,-0.050
9.176,0.065,-0.050
9.178,0.035,-0.045
9.180,0.045,-0.045
9.182,0.055,-0.040
9.184,0.065,-0.040
9.186,0.040,-0.045
9.188,0.055,-0.045
9.190,0.045,-0.045
9.192,0.055,-0.050
9.194,0.065,-0.050
9.196,0.065,-0.050
9.198,0.040,-0.050
9.200,0.050,-0.045
9.202,0.040,-0.035
9.204,0.040,-0.030
9.206,0.035,-0.025
9.208,0.100,-0.020
9.210,0.085,-0.015
9.212,0.070,-0.015
9.214,0.065,-0.015
9.216,0.080,-0.020
9.218,0.035,-0.025
9.220,0.040,-0.030
9.222,0.050,-0.030
9.224,0.050,-0.035
9.226,0.045,-0.035
9.228,0.080,-0.035
9.230,0.090,-0.030
9.232,0.080,-0.030
9.234,0.075,-0.030
9.236,0.080,-0.025
9.238,0.055,-0.025
9.240,0.060,-0.025
9.242,0.050,-0.025
9.244,0.040,-0.025
9.246,0.050,-0.020
9.248,0.090,-0.020
9.250,0.080,-0.020
9.252,0.080,-0.025
9.254,0.065,-0.025
9.256,0.065,-0.025
9.258,0.035,-0.025
9.260,0.055,-0.030
9.262,0.060,-0.030
9.264,0.065,-0.030
9.266,0.060,-0.025
9.268,0.085,-0.025
9.270,0.085,-0.025
9.272,0.085,-0.025
9.274,0.055,-0.025
9.276,0.060,-0.030
9.278,0.035,-0.035
9.280,0.040,-0.035
9.282,0.045,-0.040
9.284,0.055,-0.040
9.286,0.080,-0.040
9.288,0.110,-0.035
9.290,0.080,-0.035
9.292,0.070,-0.030
9.294,0.055,-0.025
9.296,0.060,-0.020
9.298,0.045,-0.020
9.300,0.035,-0.020
9.302,0.035,-0.020
9.304,0.050,-0.025
9.306,0.060,-0.030
9.308,0.075,-0.040
9.310,0.055,-0.045
9.312,0.060,-0.045
9.314,0.065,-0.050
9.316,0.055,-0.050
9.318,0.020,-0.045
9.320,0.025,-0.045
9.322,0.045,-0.040
9.324,0.060,-0.040
9.326,0.060,-0.040
9.328,0.090,-0.040
9.330,0.070,-0.045
9.332,0.060,-0.045
9.334,0.065,-0.050
9.336,0.060,-0.050
9.338,0.030,-0.050
9.340,0.030,-0.045
9.342,0.040,-0.040
9.344,0.040,-0.035
9.346,0.075,-0.030
9.348,0.075,-0.025
9.350,0.070,-0.020
9.352,0.055,-0.020
9.354,0.065,-0.020
9.356,0.055,-0.025
9.358,0.040,-0.025
9.360,0.050,-0.030
9.362,0.065,-0.035
9.364,0.045,-0.035
9.366,0.040,-0.035
9.368,0.060,-0.035
9.370,0.075,-0.035
9.372,0.075,-0.035
9.374,0.075,-0.035
9.376,0.055,-0.035
9.378,0.020,-0.040
9.380,0.035,-0.040
9.382,0.050,-0.040
9.384,0.045,-0.045
9.386,0.060,-0.045
9.388,0.065,-0.045
9.390,0.050,-0.045
9.392,0.055,-0.045
9.394,0.055,-0.045
9.396,0.035,-0.045
9.398,0.055,-0.045
9.400,0.045,-0.045
9.402,0.045,-0.045
9.404,0.025,-0.045
9.406,0.065,-0.040
9.408,0.090,-0.040
9.410,0.060,-0.040
9.412,0.070,-0.035
9.414,0.055,-0.035
9.416,0.035,-0.035
9.418,0.040,-0.030
9.420,0.050,-0.030
9.422,0.060,-0.030
9.424,0.050,-0.030
9.426,0.070,-0.030
9.428,0.075,-0.030
9.430,0.065,-0.030
9.432,0.060,-0.030
9.434,0.075,-0.030
9.436,0.045,-0.035
9.438,0.040,-0.035
9.440,0.035,-0.035
9.442,0.040,-0.035
9.444,0.025,-0.040
9.446,0.070,-0.040
9.448,0.095,-0.045
9.450,0.070,-0.040
9.452,0.070,-0.035
9.454,0.100,-0.030
9.456,0.090,-0.020
9.458,0.095,-0.010
9.460,0.080,0.005
9.462,0.105,0.015
9.464,0.085,0.025
9.466,0.120,0.030
9.468,0.110,0.030
9.470,0.110,0.030
9.472,0.130,0.025
9.474,0.135,0.020
9.476,0.110,0.015
9.478,0.105,0.010
9.480,0.110,0.010
9.482,0.115,0.010
9.484,0.100,0.015
9.486,0.125,0.015
9.488,0.135,0.020
9.490,0.135,0.025
9.492,0.125,0.025
9.494,0.135,0.025
9.496,0.110,0.025
9.498,0.105,0.025
9.500,0.110,0.025
9.502,0.130,0.030
9.504,0.120,0.035
9.506,0.185,0.040
9.508,0.155,0.045
9.510,0.135,0.050
9.512,0.130,0.050
9.514,0.115,0.055
9.516,0.100,0.050
9.518,0.100,0.045
9.520,0.110,0.040
9.522,0.120,0.035
9.524,0.110,0.025
9.526,0.115,0.015
9.528,0.100,0.005
9.530,0.055,-0.010
9.532,0.050,-0.025
9.534,0.055,-0.035
9.536,0.015,-0.050
9.538,0.020,-0.060
9.540,0.030,-0.065
9.542,0.030,-0.070
9.544,0.040,-0.065
9.546,0.065,-0.060
9.548,0.060,-0.050
9.550,0.050,-0.045
9.552,0.075,-0.035
9.554,0.080,-0.035
9.556,0.055,-0.035
9.558,0.065,-0.035
9.560,0.030,-0.040
9.562,0.025,-0.050
9.564,0.025,-0.055
9.566,0.045,-0.060
9.568,0.035,-0.060
9.570,0.035,-0.065
9.572,0.025,-0.060
9.574,0.035,-0.060
9.576,0.030,-0.055
9.578,0.030,-0.055
9.580,0.025,-0.050
9.582,0.025,-0.050
9.584,0.015,-0.050
9.586,0.060,-0.050
9.588,0.075,-0.050
9.590,0.060,-0.050
9.592,0.050,-0.050
9.594,0.045,-0.050
9.596,0.010,-0.050
9.598,0.025,-0.055
9.600,0.025,-0.055
9.602,0.025,-0.060
9.604,0.030,-0.055
9.606,0.060,-0.050
9.608,0.060,-0.035
9.610,0.110,-0.005
9.612,0.145,0.035
9.614,0.200,0.090
9.616,0.245,0.160
9.618,0.335,0.235
9.620,0.435,0.320
9.622,0.515,0.405
9.624,0.615,0.485
9.626,0.700,0.550
9.628,0.725,0.605
9.630,0.770,0.635
9.632,0.815,0.640
9.634,0.745,0.620
9.636,0.635,0.580
9.638,0.560,0.510
9.640,0.495,0.425
9.642,0.410,0.330
9.644,0.310,0.230
9.646,0.175,0.130
9.648,0.095,0.050
9.650,0.040,-0.015
9.652,0.020,-0.060
9.654,0.005,-0.085
9.656,0.010,-0.090
9.658,0.035,-0.080
9.660,0.060,-0.065
9.662,0.045,-0.045
9.664,0.060,-0.030
9.666,0.060,-0.025
9.668,0.075,-0.020
9.670,0.070,-0.030
9.672,0.080,-0.040
9.674,0.035,-0.050
9.676,0.005,-0.060
9.678,0.020,-0.070
9.680,0.040,-0.070
9.682,0.015,-0.070
9.684,0.045,-0.065
9.686,0.070,-0.060
9.688,0.050,-0.055
9.690,0.020,-0.050
9.692,0.050,-0.050
9.694,0.015,-0.050
9.696,0.025,-0.050
9.698,0.055,-0.055
9.700,0.060,-0.055
9.702,0.030,-0.055
9.704,0.050,-0.055
9.706,0.060,-0.055
9.708,0.060,-0.050
9.710,0.040,-0.040
9.712,0.050,-0.035
9.714,0.035,-0.030
9.716,0.060,-0.025
9.718,0.070,-0.025
9.720,0.060,-0.025
9.722,0.045,-0.030
9.724,0.065,-0.040
9.726,0.065,-0.050
9.728,0.040,-0.055
9.730,0.035,-0.060
9.732,0.040,-0.060
9.734,0.030,-0.060
9.736,0.045,-0.050
9.738,0.080,-0.040
9.740,0.055,-0.030
9.742,0.040,-0.020
9.744,0.095,-0.015
9.746,0.100,-0.010
9.748,0.100,-0.015
9.750,0.065,-0.015
9.752,0.070,-0.025
9.754,0.050,-0.030
9.756,0.045,-0.035
9.758,0.055,-0.035
9.760,0.050,-0.035
9.762,0.055,-0.035
9.764,0.095,-0.030
9.766,0.090,-0.030
9.768,0.075,-0.025
9.770,0.070,-0.025
9.772,0.085,-0.020
9.774,0.070,-0.020
9.776,0.070,-0.020
9.778,0.065,-0.020
9.780,0.080,-0.015
9.782,0.060,-0.015
9.784,0.095,-0.015
9.786,0.095,-0.015
9.788,0.105,-0.010
9.790,0.100,-0.010
9.792,0.095,-0.010
9.794,0.050,-0.010
9.796,0.070,-0.010
9.798,0.100,-0.010
9.800,0.090,-0.005
9.802,0.085,-0.005
9.804,0.115,0.000
9.806,0.120,0.005
9.808,0.105,0.010
9.810,0.115,0.010
9.812,0.105,0.010
9.814,0.085,0.015
9.816,0.105,0.020
9.818,0.125,0.020
9.820,0.120,0.030
9.822,0.110,0.035
9.824,0.160,0.045
9.826,0.150,0.050
9.828,0.170,0.060
9.830,0.160,0.065
9.832,0.155,0.070
9.834,0.140,0.075
9.836,0.155,0.075
9.838,0.160,0.080
9.840,0.160,0.080
9.842,0.160,0.080
9.844,0.180,0.080
9.846,0.190,0.080
9.848,0.210,0.085
9.850,0.190,0.085
9.852,0.195,0.090
9.854,0.175,0.095
9.856,0.195,0.100
9.858,0.205,0.105
9.860,0.205,0.115
9.862,0.225,0.120
9.864,0.260,0.125
9.866,0.235,0.130
9.868,0.250,0.135
9.870,0.240,0.135
9.872,0.240,0.135
9.874,0.205,0.130
9.876,0.210,0.130
9.878,0.195,0.125
9.880,0.195,0.120
9.882,0.220,0.115
9.884,0.245,0.115
9.886,0.235,0.115
9.888,0.215,0.115
9.890,0.200,0.115
9.892,0.200,0.115
9.894,0.175,0.115
9.896,0.170,0.110
9.898,0.170,0.100
9.900,0.165,0.090
9.902,0.185,0.080
9.904,0.215,0.070
9.906,0.190,0.060
9.908,0.150,0.050
9.910,0.125,0.045
9.912,0.135,0.045
9.914,0.130,0.045
9.916,0.125,0.045
9.918,0.145,0.045
9.920,0.125,0.045
9.922,0.125,0.040
9.924,0.130,0.035
9.926,0.115,0.025
9.928,0.105,0.010
9.930,0.100,0.000
9.932,0.075,-0.010
9.934,0.045,-0.020
9.936,0.060,-0.025
9.938,0.065,-0.030
9.940,0.045,-0.035
9.942,0.070,-0.040
9.944,0.090,-0.040
9.946,0.095,-0.040
9.948,0.075,-0.040
9.950,0.075,-0.040
9.952,0.070,-0.035
9.954,0.060,-0.035
9.956,0.075,-0.030
9.958,0.065,-0.030
9.960,0.035,-0.030
9.962,0.070,-0.030
9.964,0.075,-0.035
9.966,0.060,-0.040
9.968,0.070,-0.050
9.970,0.090,-0.055
9.972,0.045,-0.055
9.974,0.035,-0.060
9.976,0.050,-0.055
9.978,0.035,-0.055
9.980,0.030,-0.050
9.982,0.060,-0.050
9.984,0.085,-0.045
9.986,0.060,-0.050
9.988,0.065,-0.050
9.990,0.070,-0.055
9.992,0.040,-0.060
9.994,0.040,-0.065
9.996,0.040,-0.065
9.998,0.010,-0.065
