'Elapsed time','ECG I','ECG I filtered'
'seconds','mV','mV'
0.000,-0.015,-0.065
0.002,0.065,-0.045
0.004,0.035,-0.035
0.006,-0.005,-0.025
0.008,0.025,-0.020
0.010,0.055,-0.025
0.012,0.040,-0.030
0.014,-0.025,-0.040
0.016,0.015,-0.040
0.018,-0.015,-0.040
0.020,-0.005,-0.035
0.022,0.085,-0.020
0.024,0.105,-0.005
0.026,0.055,0.005
0.028,0.070,0.015
0.030,0.100,0.015
0.032,0.065,0.010
0.034,0.065,0.000
0.036,0.095,-0.015
0.038,0.015,-0.030
0.040,-0.100,-0.040
0.042,-0.050,-0.045
0.044,0.045,-0.040
0.046,0.115,-0.025
0.048,0.085,-0.015
0.050,0.105,0.000
0.052,0.055,0.010
0.054,-0.010,0.015
0.056,0.110,0.015
0.058,0.000,0.005
0.060,0.000,-0.005
0.062,0.005,-0.020
0.064,0.035,-0.030
0.066,0.045,-0.040
0.068,0.000,-0.045
0.070,0.065,-0.045
0.072,0.055,-0.040
0.074,0.020,-0.035
0.076,0.000,-0.030
0.078,0.030,-0.025
0.080,0.080,-0.020
0.082,0.030,-0.020
0.084,0.015,-0.020
0.086,-0.070,-0.025
0.088,0.020,-0.025
0.090,0.120,-0.025
0.092,0.045,-0.025
0.094,0.050,-0.025
0.096,0.045,-0.030
0.098,0.070,-0.030
0.100,-0.025,-0.035
0.102,-0.015,-0.040
0.104,0.005,-0.045
0.106,-0.015,-0.045
0.108,0.000,-0.045
0.110,0.095,-0.040
0.112,0.075,-0.035
0.114,0.010,-0.025
0.116,0.035,-0.020
0.118,0.000,-0.015
0.120,0.060,-0.020
0.122,-0.010,-0.025
0.124,0.000,-0.030
0.126,0.000,-0.040
0.128,0.000,-0.045
0.130,-0.055,-0.050
0.132,0.015,-0.045
0.134,0.095,-0.040
0.136,0.145,-0.025
0.138,0.030,-0.010
0.140,0.030,0.010
0.142,0.090,0.020
0.144,0.055,0.025
0.146,0.130,0.025
0.148,0.080,0.010
0.150,0.020,-0.005
0.152,0.040,-0.025
0.154,-0.095,-0.050
0.156,0.060,-0.065
0.158,-0.010,-0.075
0.160,-0.020,-0.080
0.162,0.035,-0.075
0.164,-0.045,-0.065
0.166,-0.025,-0.055
0.168,0.015,-0.045
0.170,0.085,-0.035
0.172,0.005,-0.030
0.174,0.010,-0.030
0.176,0.000,-0.030
0.178,0.085,-0.030
0.180,-0.005,-0.030
0.182,0.060,-0.030
0.184,0.085,-0.025
0.186,0.005,-0.025
0.188,-0.030,-0.025
0.190,0.050,-0.025
0.192,0.045,-0.035
0.194,-0.010,-0.045
0.196,0.015,-0.055
0.198,0.035,-0.070
0.200,0.100,-0.075
0.202,-0.040,-0.080
0.204,-0.200,-0.075
0.206,-0.030,-0.065
0.208,0.110,-0.050
0.210,0.065,-0.035
0.212,0.045,-0.020
0.214,0.055,-0.010
0.216,-0.015,0.000
0.218,0.090,0.000
0.220,0.060,-0.005
0.222,0.050,-0.010
0.224,0.010,-0.015
0.226,0.060,-0.025
0.228,0.060,-0.030
0.230,0.035,-0.030
0.232,-0.010,-0.035
0.234,0.020,-0.035
0.236,0.045,-0.040
0.238,0.030,-0.045
0.240,0.045,-0.045
0.242,0.030,-0.050
0.244,-0.045,-0.055
0.246,-0.020,-0.055
0.248,0.025,-0.060
0.250,0.005,-0.060
0.252,-0.005,-0.055
0.254,-0.035,-0.055
0.256,0.015,-0.050
0.258,0.040,-0.045
0.260,0.055,-0.040
0.262,0.035,-0.035
0.264,0.040,-0.025
0.266,-0.005,-0.015
0.268,0.065,-0.005
0.270,0.100,0.010
0.272,0.055,0.020
0.274,0.035,0.030
0.276,0.160,0.035
0.278,0.195,0.040
0.280,0.110,0.035
0.282,0.085,0.030
0.284,0.100,0.020
0.286,-0.055,0.010
0.288,-0.010,-0.005
0.290,0.150,-0.015
0.292,0.115,-0.025
0.294,0.020,-0.030
0.296,0.010,-0.035
0.298,0.030,-0.035
0.300,0.015,-0.030
0.302,-0.015,-0.030
0.304,-0.060,-0.025
0.306,0.020,-0.025
0.308,0.140,-0.025
0.310,0.090,-0.025
0.312,0.115,-0.030
0.314,0.025,-0.035
0.316,0.035,-0.040
0.318,-0.060,-0.045
0.320,-0.065,-0.050
0.322,0.070,-0.045
0.324,0.130,-0.040
0.326,-0.055,-0.035
0.328,0.060,-0.025
0.330,0.045,-0.015
0.332,0.130,-0.010
0.334,0.070,-0.010
0.336,0.005,-0.010
0.338,0.035,-0.015
0.340,0.005,-0.020
0.342,0.045,-0.025
0.344,0.015,-0.030
0.346,0.065,-0.035
0.348,0.060,-0.040
0.350,0.020,-0.045
0.352,0.005,-0.060
0.354,0.030,-0.075
0.356,0.005,-0.095
0.358,-0.090,-0.120
0.360,-0.165,-0.140
0.362,-0.220,-0.155
0.364,-0.090,-0.160
0.366,0.005,-0.150
0.368,0.040,-0.120
0.370,-0.035,-0.080
0.372,0.005,-0.030
0.374,0.095,0.025
0.376,0.210,0.090
0.378,0.240,0.150
0.380,0.310,0.210
0.382,0.355,0.275
0.384,0.340,0.335
0.386,0.355,0.400
0.388,0.560,0.460
0.390,0.680,0.515
0.392,0.705,0.555
0.394,0.675,0.570
0.396,0.665,0.560
0.398,0.610,0.515
0.400,0.490,0.430
0.402,0.385,0.320
0.404,0.215,0.190
0.406,0.085,0.055
0.408,-0.115,-0.070
0.410,-0.180,-0.170
0.412,-0.220,-0.235
0.414,-0.140,-0.265
0.416,-0.130,-0.255
0.418,-0.155,-0.225
0.420,-0.135,-0.175
0.422,-0.005,-0.125
0.424,-0.005,-0.085
0.426,-0.025,-0.060
0.428,0.025,-0.050
0.430,0.035,-0.055
0.432,-0.010,-0.065
0.434,-0.125,-0.075
0.436,-0.035,-0.080
0.438,0.100,-0.075
0.440,0.120,-0.060
0.442,0.015,-0.040
0.444,0.025,-0.015
0.446,0.090,0.005
0.448,0.055,0.015
0.450,0.130,0.020
0.452,0.090,0.015
0.454,-0.035,0.000
0.456,0.060,-0.015
0.458,0.095,-0.035
0.460,0.020,-0.045
0.462,0.025,-0.045
0.464,-0.005,-0.045
0.466,0.030,-0.035
0.468,0.055,-0.025
0.470,0.080,-0.015
0.472,0.000,-0.010
0.474,0.110,-0.005
0.476,0.150,0.000
0.478,0.080,-0.005
0.480,0.010,-0.010
0.482,-0.020,-0.015
0.484,0.070,-0.020
0.486,0.020,-0.025
0.488,-0.005,-0.030
0.490,-0.010,-0.035
0.492,0.055,-0.035
0.494,0.100,-0.035
0.496,0.070,-0.035
0.498,0.080,-0.030
0.500,0.085,-0.020
0.502,0.090,-0.010
0.504,-0.015,0.000
0.506,0.010,0.010
0.508,0.140,0.020
0.510,0.120,0.025
0.512,0.110,0.030
0.514,0.090,0.035
0.516,-0.040,0.035
0.518,0.130,0.035
0.520,0.225,0.035
0.522,0.135,0.040
0.524,0.055,0.045
0.526,0.125,0.050
0.528,0.135,0.055
0.530,0.095,0.060
0.532,0.140,0.060
0.534,0.160,0.065
0.536,0.165,0.060
0.538,0.145,0.060
0.540,0.030,0.055
0.542,0.100,0.050
0.544,0.130,0.050
0.546,0.185,0.050
0.548,0.150,0.055
0.550,0.170,0.055
0.552,0.080,0.060
0.554,0.105,0.060
0.556,0.150,0.065
0.558,0.145,0.065
0.560,0.160,0.070
0.562,0.125,0.075
0.564,0.165,0.085
0.566,0.180,0.095
0.568,0.150,0.110
0.570,0.155,0.120
0.572,0.295,0.135
0.574,0.240,0.145
0.576,0.205,0.150
0.578,0.220,0.155
0.580,0.195,0.155
0.582,0.220,0.160
0.584,0.200,0.165
0.586,0.210,0.175
0.588,0.210,0.190
0.590,0.300,0.210
0.592,0.375,0.235
0.594,0.370,0.260
0.596,0.345,0.280
0.598,0.360,0.300
0.600,0.385,0.310
0.602,0.395,0.315
0.604,0.390,0.320
0.606,0.400,0.315
0.608,0.415,0.310
0.610,0.360,0.300
0.612,0.340,0.290
0.614,0.285,0.280
0.616,0.375,0.270
0.618,0.385,0.260
0.620,0.240,0.255
0.622,0.310,0.250
0.624,0.380,0.250
0.626,0.430,0.250
0.628,0.300,0.250
0.630,0.285,0.255
0.632,0.325,0.260
0.634,0.375,0.260
0.636,0.340,0.260
0.638,0.350,0.255
0.640,0.315,0.245
0.642,0.240,0.225
0.644,0.180,0.205
0.646,0.280,0.185
0.648,0.260,0.160
0.650,0.235,0.135
0.652,0.150,0.110
0.654,0.160,0.090
0.656,0.170,0.070
0.658,0.110,0.060
0.660,0.115,0.050
0.662,0.090,0.040
0.664,0.030,0.040
0.666,0.060,0.040
0.668,0.150,0.040
0.670,0.145,0.040
0.672,0.145,0.035
0.674,0.105,0.030
0.676,0.115,0.020
0.678,0.010,0.005
0.680,0.020,-0.005
0.682,0.050,-0.015
0.684,0.105,-0.025
0.686,0.155,-0.030
0.688,0.030,-0.030
0.690,-0.020,-0.035
0.692,0.000,-0.035
0.694,0.070,-0.035
0.696,0.065,-0.040
0.698,0.025,-0.045
0.700,-0.005,-0.055
0.702,-0.025,-0.065
0.704,-0.080,-0.070
0.706,-0.015,-0.075
0.708,0.040,-0.075
0.710,0.015,-0.070
0.712,0.080,-0.065
0.714,0.055,-0.065
0.716,-0.045,-0.065
0.718,-0.065,-0.070
0.720,0.010,-0.080
0.722,-0.065,-0.090
0.724,0.020,-0.100
0.726,-0.020,-0.105
0.728,-0.110,-0.105
0.730,-0.030,-0.095
0.732,0.085,-0.080
0.734,0.000,-0.060
0.736,0.020,-0.040
0.738,0.065,-0.025
0.740,0.095,-0.010
0.742,0.065,-0.005
0.744,0.085,-0.005
0.746,0.030,-0.015
0.748,0.015,-0.025
0.750,-0.025,-0.040
0.752,0.055,-0.050
0.754,0.010,-0.055
0.756,-0.015,-0.050
0.758,0.030,-0.045
0.760,0.035,-0.035
0.762,0.035,-0.020
0.764,0.085,-0.015
0.766,0.015,-0.005
0.768,0.100,-0.005
0.770,0.115,-0.010
0.772,0.125,-0.015
0.774,0.045,-0.025
0.776,-0.035,-0.035
0.778,0.005,-0.040
0.780,0.030,-0.045
0.782,0.000,-0.050
0.784,0.050,-0.050
0.786,0.015,-0.055
0.788,0.050,-0.060
0.790,0.025,-0.065
0.792,-0.005,-0.070
0.794,-0.055,-0.075
0.796,-0.010,-0.080
0.798,-0.060,-0.080
0.800,-0.085,-0.080
0.802,-0.045,-0.075
0.804,0.110,-0.065
0.806,0.135,-0.060
0.808,0.065,-0.050
0.810,0.030,-0.045
0.812,0.035,-0.035
0.814,-0.115,-0.030
0.816,-0.065,-0.025
0.818,0.170,-0.015
0.820,0.075,-0.010
0.822,0.075,-0.005
0.824,0.095,0.005
0.826,0.095,0.005
0.828,0.065,0.005
0.830,0.060,-0.005
0.832,0.040,-0.015
0.834,0.025,-0.030
0.836,0.040,-0.050
0.838,0.075,-0.065
0.840,-0.015,-0.075
0.842,-0.075,-0.075
0.844,-0.020,-0.070
0.846,0.045,-0.060
0.848,0.080,-0.040
0.850,0.045,-0.025
0.852,0.085,-0.010
0.854,0.125,0.000
0.856,0.040,0.000
0.858,0.005,-0.010
0.860,-0.040,-0.020
0.862,0.045,-0.035
0.864,0.060,-0.050
0.866,0.010,-0.060
0.868,0.040,-0.065
0.870,-0.030,-0.060
0.872,0.030,-0.055
0.874,0.040,-0.050
0.876,0.020,-0.045
0.878,0.050,-0.045
0.880,-0.010,-0.050
0.882,0.015,-0.055
0.884,0.040,-0.065
0.886,-0.025,-0.075
0.888,0.065,-0.080
0.890,-0.065,-0.075
0.892,-0.045,-0.065
0.894,-0.060,-0.050
0.896,0.085,-0.035
0.898,0.185,-0.015
0.900,0.110,0.005
0.902,0.020,0.015
0.904,0.055,0.020
0.906,0.080,0.020
0.908,0.070,0.010
0.910,0.070,0.000
0.912,0.130,-0.015
0.914,0.015,-0.025
0.916,0.010,-0.035
0.918,0.020,-0.045
0.920,-0.005,-0.050
0.922,-0.005,-0.050
0.924,-0.025,-0.055
0.926,0.020,-0.055
0.928,0.025,-0.060
0.930,0.040,-0.065
0.932,0.010,-0.065
0.934,-0.050,-0.070
0.936,0.010,-0.070
0.938,0.025,-0.070
0.940,0.065,-0.065
0.942,-0.015,-0.060
0.944,-0.045,-0.055
0.946,-0.035,-0.050
0.948,0.090,-0.050
0.950,0.055,-0.050
0.952,0.035,-0.050
0.954,-0.055,-0.050
0.956,-0.015,-0.055
0.958,0.025,-0.060
0.960,0.045,-0.060
0.962,0.040,-0.065
0.964,0.010,-0.065
0.966,0.045,-0.065
0.968,-0.055,-0.065
0.970,-0.005,-0.065
0.972,-0.045,-0.060
0.974,-0.070,-0.055
0.976,0.050,-0.050
0.978,0.130,-0.045
0.980,0.080,-0.035
0.982,0.010,-0.030
0.984,-0.015,-0.030
0.986,-0.020,-0.030
0.988,0.085,-0.030
0.990,0.035,-0.040
0.992,0.055,-0.050
0.994,0.020,-0.060
0.996,0.040,-0.065
0.998,-0.075,-0.070
1.000,-0.050,-0.065
1.002,0.045,-0.055
1.004,0.125,-0.045
1.006,0.035,-0.030
1.008,0.040,-0.015
1.010,0.110,-0.005
1.012,0.090,-0.005
1.014,-0.010,-0.010
1.016,-0.015,-0.020
1.018,0.025,-0.040
1.020,-0.010,-0.055
1.022,-0.025,-0.075
1.024,0.055,-0.085
1.026,-0.045,-0.090
1.028,0.015,-0.090
1.030,0.010,-0.085
1.032,0.010,-0.070
1.034,0.035,-0.060
1.036,-0.015,-0.050
1.038,0.040,-0.040
1.040,-0.010,-0.035
1.042,-0.035,-0.035
1.044,0.070,-0.030
1.046,0.060,-0.030
1.048,0.075,-0.030
1.050,0.020,-0.025
1.052,-0.005,-0.020
1.054,0.045,-0.010
1.056,0.145,-0.005
1.058,0.075,-0.005
1.060,0.035,0.000
1.062,0.055,-0.005
1.064,0.105,-0.010
1.066,-0.015,-0.020
1.068,0.050,-0.025
1.070,0.095,-0.035
1.072,0.025,-0.045
1.074,-0.035,-0.055
1.076,0.005,-0.065
1.078,-0.020,-0.070
1.080,0.000,-0.075
1.082,0.095,-0.075
1.084,-0.095,-0.070
1.086,-0.080,-0.065
1.088,0.040,-0.055
1.090,0.065,-0.045
1.092,0.050,-0.035
1.094,0.020,-0.025
1.096,0.100,-0.025
1.098,0.035,-0.025
1.100,-0.005,-0.030
1.102,-0.075,-0.035
1.104,-0.015,-0.045
1.106,0.050,-0.055
1.108,0.070,-0.060
1.110,0.030,-0.060
1.112,0.010,-0.060
1.114,0.010,-0.060
1.116,-0.015,-0.065
1.118,-0.050,-0.080
1.120,0.010,-0.100
1.122,-0.080,-0.125
1.124,-0.140,-0.160
1.126,-0.200,-0.190
1.128,-0.120,-0.215
1.130,-0.075,-0.230
1.132,-0.170,-0.230
1.134,-0.125,-0.210
1.136,-0.140,-0.180
1.138,-0.105,-0.135
1.140,-0.015,-0.080
1.142,0.040,-0.020
1.144,0.130,0.040
1.146,0.245,0.100
1.148,0.300,0.165
1.150,0.310,0.235
1.152,0.370,0.305
1.154,0.420,0.380
1.156,0.505,0.450
1.158,0.640,0.510
1.160,0.655,0.555
1.162,0.605,0.575
1.164,0.715,0.560
1.166,0.725,0.510
1.168,0.480,0.435
1.170,0.355,0.325
1.172,0.210,0.205
1.174,0.140,0.080
1.176,-0.020,-0.030
1.178,-0.165,-0.125
1.180,-0.220,-0.190
1.182,-0.240,-0.230
1.184,-0.120,-0.240
1.186,-0.055,-0.230
1.188,-0.070,-0.200
1.190,-0.100,-0.165
1.192,-0.230,-0.125
1.194,-0.120,-0.090
1.196,0.105,-0.060
1.198,0.040,-0.040
1.200,0.050,-0.030
1.202,0.030,-0.020
1.204,0.115,-0.020
1.206,0.080,-0.030
1.208,-0.035,-0.040
1.210,-0.070,-0.050
1.212,-0.045,-0.065
1.214,0.030,-0.080
1.216,0.070,-0.090
1.218,-0.015,-0.100
1.220,-0.140,-0.105
1.222,-0.065,-0.105
1.224,0.020,-0.095
1.226,-0.030,-0.085
1.228,-0.020,-0.075
1.230,-0.015,-0.065
1.232,0.085,-0.060
1.234,0.040,-0.055
1.236,0.045,-0.055
1.238,-0.055,-0.060
1.240,-0.030,-0.065
1.242,-0.065,-0.070
1.244,0.000,-0.070
1.246,-0.005,-0.065
1.248,0.020,-0.055
1.250,0.080,-0.045
1.252,0.060,-0.030
1.254,0.025,-0.010
1.256,-0.005,0.005
1.258,0.075,0.015
1.260,0.095,0.020
1.262,0.080,0.020
1.264,0.045,0.015
1.266,0.050,0.005
1.268,0.055,-0.005
1.270,0.110,-0.015
1.272,0.085,-0.025
1.274,0.030,-0.030
1.276,-0.050,-0.035
1.278,-0.055,-0.035
1.280,0.045,-0.035
1.282,0.030,-0.035
1.284,0.055,-0.030
1.286,0.070,-0.030
1.288,0.010,-0.025
1.290,0.040,-0.020
1.292,0.015,-0.020
1.294,0.045,-0.015
1.296,0.120,-0.015
1.298,0.035,-0.010
1.300,-0.025,-0.010
1.302,0.080,-0.005
1.304,-0.010,-0.005
1.306,0.040,0.000
1.308,0.190,0.005
1.310,0.100,0.015
1.312,0.080,0.025
1.314,0.060,0.035
1.316,0.025,0.050
1.318,0.045,0.065
1.320,0.145,0.075
1.322,0.165,0.085
1.324,0.180,0.095
1.326,0.205,0.095
1.328,0.220,0.095
1.330,0.165,0.095
1.332,0.145,0.095
1.334,0.130,0.095
1.336,0.155,0.095
1.338,0.160,0.100
1.340,0.125,0.110
1.342,0.195,0.120
1.344,0.230,0.135
1.346,0.235,0.150
1.348,0.215,0.160
1.350,0.220,0.170
1.352,0.180,0.175
1.354,0.250,0.180
1.356,0.275,0.185
1.358,0.230,0.190
1.360,0.265,0.190
1.362,0.285,0.195
1.364,0.260,0.200
1.366,0.245,0.210
1.368,0.265,0.220
1.370,0.320,0.230
1.372,0.295,0.240
1.374,0.320,0.250
1.376,0.215,0.260
1.378,0.345,0.265
1.380,0.435,0.270
1.382,0.300,0.275
1.384,0.355,0.275
1.386,0.335,0.280
1.388,0.395,0.280
1.390,0.295,0.280
1.392,0.230,0.280
1.394,0.290,0.275
1.396,0.355,0.270
1.398,0.380,0.265
1.400,0.350,0.255
1.402,0.295,0.245
1.404,0.255,0.230
1.406,0.210,0.220
1.408,0.230,0.205
1.410,0.235,0.195
1.412,0.200,0.185
1.414,0.250,0.175
1.416,0.270,0.170
1.418,0.220,0.165
1.420,0.170,0.160
1.422,0.215,0.150
1.424,0.200,0.130
1.426,0.155,0.110
1.428,0.090,0.085
1.430,0.070,0.055
1.432,0.015,0.020
1.434,0.050,-0.005
1.436,0.090,-0.025
1.438,-0.025,-0.035
1.440,-0.075,-0.035
1.442,0.065,-0.030
1.444,0.130,-0.015
1.446,0.075,0.000
1.448,0.020,0.015
1.450,0.045,0.020
1.452,0.035,0.015
1.454,0.020,0.005
1.456,0.065,-0.015
1.458,0.000,-0.035
1.460,0.005,-0.060
1.462,-0.015,-0.080
1.464,-0.030,-0.095
1.466,-0.060,-0.100
1.468,-0.070,-0.100
1.470,-0.030,-0.095
1.472,-0.055,-0.085
1.474,0.000,-0.080
1.476,-0.065,-0.075
1.478,-0.090,-0.070
1.480,0.030,-0.075
1.482,0.060,-0.075
1.484,0.080,-0.080
1.486,-0.090,-0.080
1.488,-0.140,-0.080
1.490,-0.050,-0.070
1.492,0.050,-0.060
1.494,0.035,-0.050
1.496,-0.050,-0.040
1.498,-0.060,-0.035
1.500,0.070,-0.035
1.502,0.095,-0.040
1.504,0.015,-0.050
1.506,-0.065,-0.065
1.508,-0.085,-0.075
1.510,-0.060,-0.080
1.512,-0.010,-0.080
1.514,0.020,-0.075
1.516,0.055,-0.070
1.518,-0.015,-0.055
1.520,-0.005,-0.045
1.522,0.065,-0.040
1.524,0.000,-0.040
1.526,-0.045,-0.045
1.528,-0.085,-0.055
1.530,-0.060,-0.065
1.532,0.030,-0.075
1.534,0.040,-0.080
1.536,-0.050,-0.085
1.538,-0.085,-0.080
1.540,-0.025,-0.070
1.542,0.030,-0.060
1.544,-0.060,-0.055
1.546,0.045,-0.050
1.548,0.030,-0.055
1.550,-0.060,-0.065
1.552,-0.045,-0.075
1.554,-0.065,-0.080
1.556,-0.040,-0.085
1.558,-0.010,-0.085
1.560,0.005,-0.075
1.562,0.000,-0.065
1.564,0.000,-0.050
1.566,0.090,-0.040
1.568,0.040,-0.035
1.570,-0.040,-0.040
1.572,-0.090,-0.050
1.574,-0.185,-0.065
1.576,-0.030,-0.075
1.578,0.030,-0.080
1.580,0.000,-0.080
1.582,0.105,-0.060
1.584,0.040,-0.035
1.586,-0.020,-0.005
1.588,0.045,0.025
1.590,0.100,0.045
1.592,0.080,0.055
1.594,0.025,0.050
1.596,0.015,0.035
1.598,0.050,0.010
1.600,0.090,-0.020
1.602,0.040,-0.050
1.604,0.060,-0.070
1.606,-0.020,-0.085
1.608,-0.090,-0.090
1.610,-0.135,-0.090
1.612,-0.080,-0.085
1.614,-0.095,-0.080
1.616,-0.015,-0.075
1.618,0.000,-0.075
1.620,-0.010,-0.070
1.622,0.045,-0.065
1.624,0.005,-0.060
1.626,-0.015,-0.050
1.628,-0.005,-0.035
1.630,0.035,-0.025
1.632,0.010,-0.015
1.634,0.035,-0.010
1.636,0.015,-0.020
1.638,-0.020,-0.035
1.640,-0.005,-0.055
1.642,-0.010,-0.085
1.644,-0.030,-0.110
1.646,-0.135,-0.135
1.648,-0.130,-0.145
1.650,-0.120,-0.140
1.652,-0.155,-0.125
1.654,-0.080,-0.100
1.656,0.075,-0.075
1.658,0.040,-0.045
1.660,0.085,-0.015
1.662,0.040,0.000
1.664,-0.060,0.010
1.666,0.060,0.010
1.668,0.075,0.005
1.670,0.010,-0.005
1.672,0.005,-0.015
1.674,0.030,-0.025
1.676,0.015,-0.035
1.678,0.040,-0.040
1.680,0.025,-0.045
1.682,-0.020,-0.050
1.684,-0.135,-0.060
1.686,-0.075,-0.070
1.688,-0.015,-0.080
1.690,-0.045,-0.090
1.692,0.025,-0.095
1.694,-0.030,-0.095
1.696,-0.020,-0.090
1.698,-0.100,-0.080
1.700,-0.135,-0.060
1.702,0.005,-0.035
1.704,0.070,-0.010
1.706,0.105,0.010
1.708,0.085,0.025
1.710,0.060,0.030
1.712,0.060,0.025
1.714,0.060,0.015
1.716,-0.005,-0.005
1.718,0.000,-0.025
1.720,0.040,-0.050
1.722,-0.030,-0.075
1.724,-0.120,-0.100
1.726,-0.050,-0.120
1.728,-0.065,-0.135
1.730,-0.160,-0.145
1.732,-0.135,-0.150
1.734,-0.150,-0.145
1.736,-0.155,-0.135
1.738,-0.055,-0.125
1.740,-0.080,-0.105
1.742,0.015,-0.085
1.744,-0.050,-0.065
1.746,0.030,-0.050
1.748,0.005,-0.035
1.750,0.015,-0.025
1.752,0.010,-0.020
1.754,-0.045,-0.025
1.756,0.000,-0.030
1.758,-0.010,-0.040
1.760,-0.040,-0.050
1.762,-0.055,-0.055
1.764,0.015,-0.065
1.766,0.015,-0.070
1.768,-0.075,-0.075
1.770,0.000,-0.080
1.772,-0.115,-0.085
1.774,-0.110,-0.085
1.776,-0.020,-0.090
1.778,0.000,-0.095
1.780,-0.005,-0.095
1.782,-0.060,-0.100
1.784,-0.130,-0.095
1.786,-0.090,-0.090
1.788,-0.085,-0.080
1.790,-0.020,-0.070
1.792,0.065,-0.055
1.794,0.035,-0.040
1.796,-0.075,-0.030
1.798,0.010,-0.015
1.800,0.150,-0.010
1.802,0.045,0.000
1.804,-0.075,0.000
1.806,-0.015,0.005
1.808,0.050,0.005
1.810,0.055,0.005
1.812,0.030,0.010
1.814,0.080,0.010
1.816,0.090,0.005
1.818,0.105,0.000
1.820,0.030,-0.010
1.822,-0.030,-0.025
1.824,-0.080,-0.045
1.826,-0.075,-0.065
1.828,-0.110,-0.080
1.830,-0.055,-0.090
1.832,-0.095,-0.090
1.834,0.035,-0.080
1.836,0.085,-0.065
1.838,-0.035,-0.045
1.840,0.025,-0.030
1.842,0.045,-0.015
1.844,-0.010,-0.010
1.846,-0.055,-0.010
1.848,-0.030,-0.020
1.850,-0.065,-0.040
1.852,0.030,-0.060
1.854,-0.005,-0.075
1.856,-0.090,-0.085
1.858,-0.005,-0.090
1.860,-0.005,-0.090
1.862,-0.025,-0.080
1.864,-0.045,-0.075
1.866,-0.070,-0.070
1.868,-0.040,-0.070
1.870,0.000,-0.075
1.872,0.060,-0.080
1.874,-0.140,-0.090
1.876,-0.170,-0.095
1.878,-0.030,-0.095
1.880,0.035,-0.085
1.882,-0.080,-0.075
1.884,-0.030,-0.060
1.886,0.015,-0.045
1.888,-0.030,-0.040
1.890,-0.025,-0.045
1.892,-0.065,-0.060
1.894,-0.110,-0.090
1.896,-0.110,-0.125
1.898,-0.120,-0.160
1.900,-0.150,-0.190
1.902,-0.210,-0.205
1.904,-0.250,-0.210
1.906,-0.245,-0.195
1.908,-0.250,-0.165
1.910,-0.095,-0.125
1.912,0.025,-0.065
1.914,0.110,0.000
1.916,0.225,0.075
1.918,0.235,0.160
1.920,0.235,0.245
1.922,0.280,0.340
1.924,0.475,0.425
1.926,0.590,0.510
1.928,0.595,0.570
1.930,0.710,0.610
1.932,0.675,0.615
1.934,0.630,0.585
1.936,0.605,0.520
1.938,0.470,0.420
1.940,0.275,0.295
1.942,0.140,0.160
1.944,0.015,0.030
1.946,-0.165,-0.085
1.948,-0.330,-0.175
1.950,-0.140,-0.230
1.952,-0.085,-0.255
1.954,-0.190,-0.250
1.956,-0.250,-0.220
1.958,-0.175,-0.180
1.960,-0.175,-0.135
1.962,-0.055,-0.095
1.964,0.060,-0.060
1.966,-0.020,-0.040
1.968,-0.040,-0.025
1.970,-0.055,-0.025
1.972,0.010,-0.025
1.974,0.010,-0.030
1.976,0.010,-0.040
1.978,-0.005,-0.045
1.980,-0.060,-0.045
1.982,-0.015,-0.050
1.984,0.025,-0.050
1.986,-0.070,-0.055
1.988,-0.120,-0.055
1.990,-0.005,-0.060
1.992,-0.005,-0.065
1.994,-0.090,-0.070
1.996,-0.100,-0.070
1.998,-0.025,-0.075
2.000,-0.065,-0.075
2.002,-0.055,-0.070
2.004,-0.005,-0.065
2.006,-0.075,-0.060
2.008,-0.080,-0.055
2.010,0.000,-0.050
2.012,-0.025,-0.050
2.014,0.000,-0.050
2.016,-0.035,-0.055
2.018,-0.065,-0.065
2.020,-0.155,-0.070
2.022,-0.030,-0.075
2.024,-0.005,-0.075
2.026,-0.040,-0.075
2.028,-0.055,-0.060
2.030,-0.005,-0.045
2.032,-0.035,-0.025
2.034,-0.080,-0.005
2.036,0.015,0.015
2.038,0.155,0.025
2.040,0.095,0.030
2.042,0.005,0.025
2.044,0.005,0.020
2.046,0.030,0.015
2.048,0.000,0.005
2.050,0.005,0.005
2.052,0.085,0.005
2.054,0.050,0.010
2.056,0.020,0.020
2.058,-0.030,0.025
2.060,0.070,0.030
2.062,0.055,0.030
2.064,0.035,0.025
2.066,-0.080,0.020
2.068,0.065,0.010
2.070,0.060,0.000
2.072,0.010,-0.005
2.074,0.020,-0.005
2.076,0.025,0.000
2.078,0.040,0.010
2.080,0.015,0.020
2.082,0.130,0.030
2.084,0.020,0.040
2.086,0.015,0.040
2.088,0.065,0.045
2.090,0.090,0.045
2.092,0.080,0.045
2.094,0.075,0.045
2.096,0.070,0.055
2.098,0.050,0.065
2.100,0.065,0.075
2.102,0.140,0.090
2.104,0.145,0.105
2.106,0.090,0.115
2.108,0.110,0.120
2.110,0.175,0.125
2.112,0.170,0.130
2.114,0.185,0.130
2.116,0.125,0.140
2.118,0.165,0.150
2.120,0.185,0.165
2.122,0.225,0.185
2.124,0.245,0.205
2.126,0.240,0.230
2.128,0.230,0.250
2.130,0.280,0.265
2.132,0.275,0.270
2.134,0.260,0.275
2.136,0.355,0.270
2.138,0.265,0.265
2.140,0.280,0.260
2.142,0.240,0.260
2.144,0.270,0.260
2.146,0.240,0.260
2.148,0.355,0.270
2.150,0.320,0.280
2.152,0.280,0.285
2.154,0.270,0.295
2.156,0.310,0.300
2.158,0.265,0.300
2.160,0.355,0.295
2.162,0.370,0.290
2.164,0.295,0.280
2.166,0.185,0.270
2.168,0.280,0.260
2.170,0.265,0.250
2.172,0.305,0.240
2.174,0.225,0.235
2.176,0.110,0.225
2.178,0.290,0.220
2.180,0.315,0.210
2.182,0.205,0.200
2.184,0.230,0.190
2.186,0.165,0.170
2.188,0.200,0.145
2.190,0.110,0.120
2.192,0.040,0.090
2.194,0.060,0.065
2.196,0.050,0.040
2.198,-0.060,0.025
2.200,0.025,0.015
2.202,0.140,0.015
2.204,0.095,0.015
2.206,0.040,0.025
2.208,0.005,0.030
2.210,0.040,0.030
2.212,-0.005,0.025
2.214,-0.030,0.010
2.216,-0.010,-0.010
2.218,0.055,-0.035
2.220,-0.060,-0.060
2.222,-0.035,-0.080
2.224,-0.015,-0.090
2.226,-0.075,-0.090
2.228,-0.045,-0.080
2.230,-0.075,-0.065
2.232,-0.095,-0.055
2.234,-0.115,-0.040
2.236,0.020,-0.035
2.238,0.040,-0.040
2.240,-0.070,-0.045
2.242,-0.015,-0.060
2.244,0.010,-0.070
2.246,-0.090,-0.075
2.248,-0.095,-0.075
2.250,-0.020,-0.070
2.252,-0.070,-0.065
2.254,-0.100,-0.055
2.256,-0.140,-0.050
2.258,0.035,-0.050
2.260,-0.010,-0.055
2.262,-0.095,-0.065
2.264,-0.085,-0.075
2.266,-0.115,-0.080
2.268,-0.030,-0.080
2.270,-0.030,-0.075
2.272,-0.095,-0.070
2.274,-0.055,-0.060
2.276,0.025,-0.050
2.278,-0.025,-0.050
2.280,-0.065,-0.050
2.282,-0.035,-0.055
2.284,-0.110,-0.065
2.286,-0.095,-0.075
2.288,-0.055,-0.080
2.290,-0.035,-0.080
2.292,0.000,-0.070
2.294,0.020,-0.055
2.296,0.015,-0.040
2.298,0.015,-0.025
2.300,-0.035,-0.020
2.302,-0.040,-0.015
2.304,-0.075,-0.020
2.306,-0.065,-0.030
2.308,-0.030,-0.045
2.310,-0.080,-0.060
2.312,-0.025,-0.070
2.314,-0.010,-0.075
2.316,0.000,-0.075
2.318,0.055,-0.070
2.320,-0.040,-0.065
2.322,-0.185,-0.055
2.324,-0.105,-0.050
2.326,-0.035,-0.050
2.328,-0.125,-0.050
2.330,-0.025,-0.055
2.332,0.000,-0.060
2.334,0.015,-0.065
2.336,-0.060,-0.070
2.338,-0.045,-0.070
2.340,-0.095,-0.070
2.342,-0.115,-0.065
2.344,-0.075,-0.060
2.346,-0.005,-0.050
2.348,-0.015,-0.045
2.350,-0.015,-0.035
2.352,-0.060,-0.030
2.354,0.025,-0.020
2.356,-0.015,-0.010
2.358,-0.065,-0.005
2.360,-0.020,0.000
2.362,0.095,0.005
2.364,0.050,0.005
2.366,-0.020,0.000
2.368,0.005,-0.005
2.370,0.015,-0.015
2.372,-0.030,-0.030
2.374,-0.025,-0.045
2.376,-0.075,-0.060
2.378,-0.085,-0.075
2.380,-0.025,-0.080
2.382,-0.015,-0.085
2.384,-0.115,-0.080
2.386,-0.080,-0.070
2.388,-0.055,-0.060
2.390,-0.055,-0.045
2.392,-0.010,-0.030
2.394,0.050,-0.020
2.396,0.040,-0.015
2.398,-0.030,-0.015
2.400,-0.050,-0.020
2.402,-0.095,-0.030
2.404,-0.095,-0.040
2.406,-0.105,-0.050
2.408,-0.090,-0.060
2.410,0.030,-0.060
2.412,0.010,-0.060
2.414,-0.050,-0.055
2.416,-0.035,-0.045
2.418,-0.010,-0.035
2.420,-0.030,-0.025
2.422,-0.015,-0.020
2.424,0.000,-0.015
2.426,0.000,-0.020
2.428,-0.045,-0.025
2.430,-0.105,-0.030
2.432,-0.010,-0.040
2.434,-0.015,-0.045
2.436,-0.005,-0.050
2.438,-0.050,-0.050
2.440,-0.070,-0.045
2.442,-0.025,-0.040
2.444,-0.010,-0.035
2.446,-0.020,-0.025
2.448,0.010,-0.020
2.450,-0.050,-0.020
2.452,-0.060,-0.015
2.454,0.025,-0.015
2.456,0.040,-0.020
2.458,-0.015,-0.025
2.460,-0.075,-0.030
2.462,0.025,-0.035
2.464,-0.030,-0.045
2.466,-0.105,-0.050
2.468,-0.045,-0.060
2.470,-0.120,-0.065
2.472,-0.050,-0.070
2.474,-0.045,-0.075
2.476,-0.060,-0.080
2.478,-0.035,-0.080
2.480,-0.070,-0.080
2.482,-0.075,-0.075
2.484,-0.150,-0.070
2.486,-0.115,-0.065
2.488,0.075,-0.055
2.490,0.020,-0.050
2.492,-0.130,-0.040
2.494,-0.005,-0.030
2.496,0.030,-0.025
2.498,-0.010,-0.020
2.500,-0.080,-0.020
2.502,-0.025,-0.020
2.504,0.055,-0.020
2.506,0.020,-0.025
2.508,-0.080,-0.035
2.510,-0.090,-0.045
2.512,0.010,-0.055
2.514,-0.095,-0.060
2.516,-0.095,-0.070
2.518,-0.075,-0.075
2.520,-0.065,-0.080
2.522,-0.065,-0.085
2.524,-0.060,-0.080
2.526,-0.085,-0.080
2.528,-0.105,-0.075
2.530,-0.095,-0.065
2.532,-0.040,-0.055
2.534,0.060,-0.045
2.536,0.025,-0.035
2.538,-0.050,-0.025
2.540,-0.040,-0.020
2.542,-0.075,-0.015
2.544,0.000,-0.015
2.546,0.030,-0.015
2.548,0.015,-0.020
2.550,-0.060,-0.020
2.552,0.030,-0.025
2.554,0.005,-0.030
2.556,-0.070,-0.030
2.558,-0.115,-0.035
2.560,-0.025,-0.035
2.562,-0.020,-0.040
2.564,-0.030,-0.040
2.566,-0.060,-0.045
2.568,-0.065,-0.050
2.570,-0.080,-0.055
2.572,-0.040,-0.065
2.574,-0.095,-0.070
2.576,-0.045,-0.075
2.578,0.050,-0.075
2.580,-0.040,-0.075
2.582,-0.155,-0.075
2.584,-0.170,-0.065
2.586,-0.025,-0.055
2.588,0.120,-0.040
2.590,-0.050,-0.025
2.592,-0.055,-0.005
2.594,0.060,0.020
2.596,0.000,0.040
2.598,0.095,0.060
2.600,0.090,0.075
2.602,0.050,0.085
2.604,0.120,0.085
2.606,0.135,0.080
2.608,0.110,0.065
2.610,0.020,0.045
2.612,0.035,0.020
2.614,-0.015,-0.005
2.616,-0.050,-0.030
2.618,-0.110,-0.050
2.620,-0.040,-0.065
2.622,-0.040,-0.075
2.624,-0.100,-0.080
2.626,-0.115,-0.080
2.628,-0.070,-0.075
2.630,-0.065,-0.065
2.632,0.000,-0.065
2.634,-0.040,-0.060
2.636,-0.060,-0.065
2.638,-0.060,-0.070
2.640,-0.075,-0.080
2.642,-0.150,-0.085
2.644,-0.125,-0.085
2.646,-0.050,-0.085
2.648,-0.045,-0.075
2.650,0.040,-0.065
2.652,-0.010,-0.050
2.654,-0.065,-0.030
2.656,-0.035,-0.020
2.658,-0.095,-0.010
2.660,0.025,-0.010
2.662,0.030,-0.010
2.664,-0.025,-0.020
2.666,-0.025,-0.030
2.668,-0.005,-0.035
2.670,-0.055,-0.040
2.672,0.020,-0.045
2.674,-0.065,-0.040
2.676,-0.100,-0.040
2.678,-0.005,-0.040
2.680,0.015,-0.045
2.682,-0.040,-0.060
2.684,-0.030,-0.080
2.686,-0.120,-0.105
2.688,-0.160,-0.130
2.690,-0.135,-0.155
2.692,-0.195,-0.170
2.694,-0.205,-0.175
2.696,-0.160,-0.160
2.698,-0.105,-0.130
2.700,-0.075,-0.085
2.702,-0.015,-0.020
2.704,0.145,0.055
2.706,0.220,0.140
2.708,0.200,0.235
2.710,0.270,0.330
2.712,0.480,0.425
2.714,0.555,0.505
2.716,0.645,0.570
2.718,0.620,0.610
2.720,0.685,0.620
2.722,0.620,0.600
2.724,0.585,0.545
2.726,0.410,0.455
2.728,0.420,0.345
2.730,0.260,0.215
2.732,0.100,0.085
2.734,-0.060,-0.035
2.736,-0.280,-0.135
2.738,-0.310,-0.210
2.740,-0.255,-0.250
2.742,-0.195,-0.260
2.744,-0.190,-0.240
2.746,-0.230,-0.205
2.748,-0.105,-0.160
2.750,-0.040,-0.115
2.752,-0.055,-0.070
2.754,-0.120,-0.040
2.756,-0.080,-0.025
2.758,0.030,-0.020
2.760,0.040,-0.025
2.762,-0.010,-0.035
2.764,-0.005,-0.045
2.766,-0.005,-0.055
2.768,-0.080,-0.060
2.770,-0.130,-0.060
2.772,-0.090,-0.060
2.774,-0.025,-0.055
2.776,0.010,-0.045
2.778,0.035,-0.040
2.780,-0.040,-0.030
2.782,-0.020,-0.025
2.784,-0.060,-0.025
2.786,0.050,-0.025
2.788,0.015,-0.030
2.790,-0.110,-0.035
2.792,-0.065,-0.040
2.794,0.020,-0.040
2.796,-0.005,-0.040
2.798,-0.025,-0.035
2.800,-0.065,-0.030
2.802,-0.055,-0.020
2.804,0.080,-0.010
2.806,0.065,0.000
2.808,-0.005,0.005
2.810,-0.005,0.005
2.812,-0.005,0.000
2.814,0.020,-0.005
2.816,0.005,-0.020
2.818,-0.035,-0.030
2.820,-0.090,-0.040
2.822,-0.015,-0.045
2.824,-0.055,-0.050
2.826,0.020,-0.050
2.828,0.025,-0.050
2.830,-0.060,-0.045
2.832,-0.015,-0.035
2.834,-0.040,-0.030
2.836,-0.050,-0.020
2.838,0.025,-0.015
2.840,-0.035,-0.010
2.842,0.015,-0.005
2.844,0.055,0.000
2.846,0.115,0.005
2.848,0.010,0.005
2.850,-0.010,0.005
2.852,0.015,0.005
2.854,0.045,0.000
2.856,0.065,0.000
2.858,-0.035,0.005
2.860,-0.020,0.005
2.862,-0.010,0.010
2.864,0.035,0.020
2.866,0.150,0.025
2.868,0.115,0.035
2.870,0.055,0.040
2.872,0.040,0.045
2.874,0.015,0.045
2.876,-0.070,0.045
2.878,-0.020,0.040
2.880,0.140,0.040
2.882,0.235,0.040
2.884,0.095,0.050
2.886,0.105,0.065
2.888,0.020,0.085
2.890,0.080,0.110
2.892,0.150,0.135
2.894,0.250,0.160
2.896,0.150,0.180
2.898,0.225,0.195
2.900,0.230,0.200
2.902,0.235,0.200
2.904,0.255,0.190
2.906,0.140,0.175
2.908,0.165,0.165
2.910,0.200,0.155
2.912,0.225,0.150
2.914,0.170,0.150
2.916,0.155,0.165
2.918,0.220,0.180
2.920,0.225,0.200
2.922,0.220,0.225
2.924,0.295,0.245
2.926,0.315,0.265
2.928,0.280,0.280
2.930,0.315,0.285
2.932,0.330,0.290
2.934,0.365,0.285
2.936,0.315,0.275
2.938,0.315,0.270
2.940,0.190,0.260
2.942,0.240,0.255
2.944,0.295,0.250
2.946,0.345,0.250
2.948,0.250,0.250
2.950,0.295,0.255
2.952,0.300,0.255
2.954,0.290,0.260
2.956,0.290,0.255
2.958,0.245,0.250
2.960,0.215,0.240
2.962,0.255,0.230
2.964,0.210,0.215
2.966,0.205,0.200
2.968,0.210,0.190
2.970,0.190,0.175
2.972,0.120,0.170
2.974,0.190,0.165
2.976,0.260,0.160
2.978,0.195,0.155
2.980,0.195,0.145
2.982,0.170,0.130
2.984,0.085,0.115
2.986,0.045,0.095
2.988,0.030,0.075
2.990,0.055,0.050
2.992,0.120,0.030
2.994,0.050,0.015
2.996,0.040,0.000
2.998,0.055,-0.005
3.000,0.005,-0.010
3.002,0.000,-0.010
3.004,-0.020,-0.010
3.006,0.040,-0.010
3.008,0.010,-0.015
3.010,0.025,-0.025
3.012,-0.040,-0.040
3.014,-0.015,-0.050
3.016,0.005,-0.060
3.018,-0.025,-0.070
3.020,-0.110,-0.070
3.022,-0.050,-0.070
3.024,-0.035,-0.070
3.026,-0.070,-0.065
3.028,-0.035,-0.065
3.030,-0.005,-0.065
3.032,0.040,-0.065
3.034,-0.035,-0.070
3.036,-0.040,-0.080
3.038,-0.080,-0.085
3.040,-0.095,-0.095
3.042,-0.080,-0.100
3.044,-0.130,-0.105
3.046,-0.030,-0.105
3.048,-0.095,-0.100
3.050,-0.085,-0.095
3.052,-0.065,-0.090
3.054,-0.030,-0.080
3.056,-0.060,-0.075
3.058,0.025,-0.065
3.060,-0.045,-0.065
3.062,-0.020,-0.060
3.064,-0.060,-0.060
3.066,-0.100,-0.065
3.068,-0.060,-0.070
3.070,-0.060,-0.075
3.072,-0.075,-0.080
3.074,-0.065,-0.085
3.076,-0.015,-0.085
3.078,0.005,-0.080
3.080,0.005,-0.070
3.082,-0.110,-0.065
3.084,-0.095,-0.055
3.086,0.025,-0.045
3.088,-0.025,-0.040
3.090,-0.030,-0.040
3.092,0.030,-0.045
3.094,0.000,-0.050
3.096,-0.075,-0.060
3.098,-0.090,-0.065
3.100,-0.090,-0.065
3.102,0.020,-0.065
3.104,0.045,-0.060
3.106,0.000,-0.050
3.108,0.000,-0.045
3.110,0.025,-0.040
3.112,-0.030,-0.040
3.114,-0.080,-0.040
3.116,-0.045,-0.050
3.118,-0.030,-0.055
3.120,-0.025,-0.065
3.122,0.005,-0.065
3.124,-0.025,-0.065
3.126,-0.040,-0.060
3.128,-0.025,-0.055
3.130,0.025,-0.045
3.132,-0.065,-0.040
3.134,-0.080,-0.040
3.136,0.030,-0.040
3.138,0.035,-0.050
3.140,-0.060,-0.060
3.142,-0.105,-0.070
3.144,-0.025,-0.075
3.146,-0.060,-0.080
3.148,-0.065,-0.080
3.150,-0.045,-0.070
3.152,-0.020,-0.060
3.154,0.035,-0.050
3.156,0.020,-0.045
3.158,0.030,-0.035
3.160,-0.025,-0.035
3.162,-0.050,-0.040
3.164,-0.080,-0.045
3.166,-0.055,-0.050
3.168,-0.040,-0.050
3.170,-0.010,-0.055
3.172,0.000,-0.055
3.174,0.075,-0.050
3.176,0.015,-0.050
3.178,-0.020,-0.050
3.180,-0.070,-0.050
3.182,-0.110,-0.055
3.184,-0.155,-0.060
3.186,-0.025,-0.070
3.188,0.005,-0.075
3.190,-0.075,-0.080
3.192,0.020,-0.080
3.194,-0.005,-0.070
3.196,-0.055,-0.060
3.198,-0.020,-0.050
3.200,0.000,-0.035
3.202,0.065,-0.025
3.204,-0.010,-0.020
3.206,-0.055,-0.020
3.208,-0.005,-0.025
3.210,-0.020,-0.035
3.212,0.045,-0.045
3.214,0.005,-0.050
3.216,-0.040,-0.055
3.218,-0.010,-0.060
3.220,-0.045,-0.060
3.222,-0.035,-0.060
3.224,-0.055,-0.060
3.226,0.000,-0.055
3.228,-0.040,-0.055
3.230,-0.010,-0.055
3.232,-0.010,-0.055
3.234,-0.050,-0.055
3.236,-0.035,-0.050
3.238,0.020,-0.050
3.240,0.055,-0.045
3.242,0.060,-0.045
3.244,-0.035,-0.050
3.246,-0.030,-0.055
3.248,-0.070,-0.065
3.250,-0.065,-0.075
3.252,-0.030,-0.090
3.254,-0.010,-0.105
3.256,-0.040,-0.120
3.258,-0.140,-0.130
3.260,-0.125,-0.140
3.262,-0.090,-0.145
3.264,-0.120,-0.145
3.266,-0.105,-0.145
3.268,-0.130,-0.135
3.270,-0.080,-0.125
3.272,-0.050,-0.110
3.274,0.000,-0.090
3.276,-0.025,-0.075
3.278,-0.070,-0.060
3.280,-0.010,-0.045
3.282,0.075,-0.040
3.284,-0.060,-0.040
3.286,-0.030,-0.045
3.288,0.010,-0.055
3.290,0.000,-0.065
3.292,0.030,-0.075
3.294,-0.135,-0.085
3.296,-0.015,-0.085
3.298,-0.015,-0.085
3.300,-0.060,-0.080
3.302,-0.090,-0.070
3.304,-0.050,-0.065
3.306,0.005,-0.060
3.308,0.015,-0.060
3.310,-0.025,-0.060
3.312,0.000,-0.060
3.314,-0.030,-0.060
3.316,-0.095,-0.065
3.318,-0.010,-0.060
3.320,-0.015,-0.060
3.322,0.035,-0.055
3.324,0.015,-0.050
3.326,-0.055,-0.050
3.328,-0.005,-0.050
3.330,0.020,-0.050
3.332,-0.010,-0.055
3.334,-0.055,-0.060
3.336,-0.015,-0.065
3.338,-0.065,-0.070
3.340,-0.120,-0.070
3.342,0.015,-0.070
3.344,0.040,-0.070
3.346,-0.020,-0.065
3.348,-0.010,-0.060
3.350,-0.015,-0.055
3.352,-0.045,-0.055
3.354,-0.045,-0.055
3.356,0.030,-0.060
3.358,-0.030,-0.070
3.360,-0.040,-0.080
3.362,-0.110,-0.090
3.364,-0.120,-0.100
3.366,-0.090,-0.115
3.368,-0.020,-0.120
3.370,-0.025,-0.125
3.372,-0.100,-0.120
3.374,-0.090,-0.115
3.376,-0.050,-0.100
3.378,-0.025,-0.085
3.380,0.010,-0.065
3.382,0.015,-0.050
3.384,-0.005,-0.040
3.386,0.045,-0.035
3.388,-0.015,-0.035
3.390,-0.090,-0.045
3.392,-0.080,-0.055
3.394,0.095,-0.060
3.396,0.130,-0.065
3.398,-0.100,-0.065
3.400,-0.070,-0.055
3.402,0.025,-0.040
3.404,0.000,-0.025
3.406,0.080,-0.005
3.408,0.080,0.010
3.410,0.080,0.025
3.412,0.080,0.030
3.414,0.050,0.030
3.416,0.015,0.025
3.418,-0.015,0.020
3.420,0.075,0.010
3.422,0.175,0.005
3.424,0.010,0.000
3.426,0.000,-0.010
3.428,0.055,-0.015
3.430,-0.010,-0.025
3.432,0.030,-0.035
3.434,-0.005,-0.045
3.436,-0.005,-0.060
3.438,-0.005,-0.070
3.440,-0.125,-0.075
3.442,-0.065,-0.075
3.444,0.030,-0.070
3.446,0.025,-0.065
3.448,-0.025,-0.055
3.450,-0.010,-0.045
3.452,-0.025,-0.045
3.454,0.035,-0.045
3.456,0.015,-0.055
3.458,-0.055,-0.070
3.460,-0.080,-0.090
3.462,-0.165,-0.105
3.464,-0.065,-0.120
3.466,-0.040,-0.130
3.468,0.000,-0.130
3.470,-0.100,-0.120
3.472,-0.080,-0.105
3.474,0.025,-0.090
3.476,0.020,-0.070
3.478,-0.040,-0.055
3.480,0.005,-0.040
3.482,0.015,-0.040
3.484,-0.030,-0.045
3.486,-0.065,-0.065
3.488,-0.030,-0.090
3.490,-0.065,-0.120
3.492,-0.080,-0.155
3.494,-0.110,-0.185
3.496,-0.230,-0.205
3.498,-0.220,-0.220
3.500,-0.175,-0.215
3.502,-0.125,-0.190
3.504,-0.060,-0.155
3.506,-0.080,-0.105
3.508,-0.010,-0.040
3.510,0.070,0.030
3.512,0.200,0.100
3.514,0.305,0.170
3.516,0.260,0.240
3.518,0.340,0.310
3.520,0.385,0.380
3.522,0.485,0.445
3.524,0.600,0.500
3.526,0.700,0.550
3.528,0.705,0.580
3.530,0.685,0.580
3.532,0.660,0.550
3.534,0.555,0.485
3.536,0.425,0.390
3.538,0.270,0.270
3.540,0.165,0.135
3.542,-0.065,0.005
3.544,-0.165,-0.110
3.546,-0.185,-0.195
3.548,-0.240,-0.245
3.550,-0.145,-0.260
3.552,-0.200,-0.245
3.554,-0.105,-0.210
3.556,-0.070,-0.165
3.558,-0.075,-0.125
3.560,-0.100,-0.095
3.562,-0.055,-0.080
3.564,-0.040,-0.075
3.566,-0.015,-0.085
3.568,-0.130,-0.090
3.570,-0.040,-0.095
3.572,0.000,-0.095
3.574,0.060,-0.085
3.576,0.020,-0.070
3.578,0.010,-0.050
3.580,-0.035,-0.035
3.582,0.000,-0.025
3.584,-0.025,-0.020
3.586,-0.015,-0.030
3.588,-0.010,-0.040
3.590,-0.015,-0.050
3.592,0.075,-0.060
3.594,-0.075,-0.065
3.596,0.015,-0.065
3.598,0.025,-0.065
3.600,0.060,-0.060
3.602,-0.015,-0.060
3.604,-0.030,-0.060
3.606,-0.015,-0.065
3.608,0.025,-0.070
3.610,-0.080,-0.070
3.612,-0.050,-0.070
3.614,0.020,-0.065
3.616,0.020,-0.055
3.618,0.045,-0.040
3.620,0.030,-0.020
3.622,-0.010,-0.005
3.624,0.050,0.005
3.626,0.045,0.010
3.628,0.070,0.010
3.630,0.055,0.010
3.632,0.075,0.005
3.634,-0.010,0.000
3.636,0.045,0.005
3.638,0.120,0.010
3.640,0.130,0.020
3.642,0.070,0.030
3.644,0.095,0.035
3.646,0.075,0.030
3.648,0.035,0.015
3.650,0.035,-0.005
3.652,0.055,-0.025
3.654,-0.010,-0.045
3.656,0.030,-0.060
3.658,-0.020,-0.060
3.660,-0.060,-0.050
3.662,-0.035,-0.025
3.664,0.070,0.005
3.666,0.205,0.040
3.668,0.215,0.070
3.670,0.130,0.090
3.672,0.100,0.095
3.674,0.140,0.095
3.676,0.070,0.080
3.678,0.145,0.065
3.680,0.080,0.050
3.682,0.060,0.040
3.684,0.150,0.035
3.686,0.090,0.040
3.688,0.070,0.050
3.690,0.070,0.060
3.692,0.205,0.070
3.694,0.115,0.080
3.696,0.110,0.090
3.698,0.150,0.095
3.700,0.150,0.100
3.702,0.195,0.105
3.704,0.215,0.115
3.706,0.205,0.125
3.708,0.215,0.140
3.710,0.205,0.155
3.712,0.135,0.175
3.714,0.310,0.190
3.716,0.250,0.205
3.718,0.200,0.215
3.720,0.275,0.225
3.722,0.340,0.230
3.724,0.300,0.235
3.726,0.285,0.240
3.728,0.305,0.245
3.730,0.350,0.250
3.732,0.250,0.255
3.734,0.315,0.260
3.736,0.410,0.270
3.738,0.315,0.275
3.740,0.280,0.275
3.742,0.250,0.280
3.744,0.325,0.280
3.746,0.395,0.285
3.748,0.340,0.290
3.750,0.425,0.295
3.752,0.435,0.305
3.754,0.275,0.315
3.756,0.375,0.325
3.758,0.430,0.335
3.760,0.400,0.345
3.762,0.435,0.350
3.764,0.380,0.350
3.766,0.325,0.340
3.768,0.375,0.325
3.770,0.390,0.305
3.772,0.350,0.285
3.774,0.315,0.260
3.776,0.275,0.240
3.778,0.225,0.220
3.780,0.265,0.200
3.782,0.210,0.185
3.784,0.220,0.170
3.786,0.220,0.160
3.788,0.195,0.150
3.790,0.200,0.135
3.792,0.220,0.120
3.794,0.260,0.105
3.796,0.115,0.085
3.798,0.100,0.065
3.800,0.100,0.045
3.802,0.075,0.030
3.804,0.030,0.015
3.806,-0.010,0.005
3.808,0.045,-0.005
3.810,0.085,-0.010
3.812,0.130,-0.015
3.814,0.070,-0.015
3.816,0.005,-0.015
3.818,0.075,-0.010
3.820,0.050,-0.010
3.822,0.025,-0.005
3.824,-0.035,-0.005
3.826,0.075,-0.010
3.828,0.055,-0.010
3.830,0.020,-0.020
3.832,0.050,-0.025
3.834,-0.015,-0.035
3.836,-0.025,-0.040
3.838,0.135,-0.045
3.840,0.035,-0.050
3.842,-0.055,-0.045
3.844,-0.055,-0.040
3.846,0.030,-0.035
3.848,0.040,-0.030
3.850,0.005,-0.020
3.852,0.080,-0.020
3.854,0.020,-0.015
3.856,0.095,-0.020
3.858,0.045,-0.025
3.860,0.015,-0.035
3.862,-0.010,-0.040
3.864,0.015,-0.045
3.866,0.030,-0.050
3.868,-0.005,-0.045
3.870,-0.030,-0.045
3.872,0.105,-0.035
3.874,-0.050,-0.030
3.876,0.015,-0.025
3.878,0.120,-0.020
3.880,0.120,-0.020
3.882,0.040,-0.020
3.884,0.035,-0.020
3.886,0.030,-0.025
3.888,-0.010,-0.025
3.890,-0.080,-0.030
3.892,-0.035,-0.035
3.894,0.065,-0.035
3.896,0.080,-0.040
3.898,0.085,-0.045
3.900,0.100,-0.045
3.902,-0.055,-0.050
3.904,-0.040,-0.055
3.906,0.000,-0.055
3.908,-0.055,-0.055
3.910,0.035,-0.050
3.912,0.025,-0.045
3.914,0.015,-0.035
3.916,0.050,-0.030
3.918,0.070,-0.020
3.920,0.025,-0.015
3.922,0.040,-0.015
3.924,0.095,-0.015
3.926,0.080,-0.020
3.928,-0.020,-0.030
3.930,0.025,-0.035
3.932,0.025,-0.040
3.934,-0.010,-0.040
3.936,-0.015,-0.035
3.938,0.045,-0.030
3.940,0.020,-0.025
3.942,0.005,-0.015
3.944,0.130,-0.010
3.946,0.080,-0.005
3.948,0.015,-0.005
3.950,0.035,-0.005
3.952,0.095,-0.005
3.954,0.035,-0.010
3.956,0.000,-0.010
3.958,0.040,-0.010
3.960,0.115,-0.010
3.962,0.065,-0.010
3.964,0.040,-0.010
3.966,0.075,-0.015
3.968,-0.005,-0.020
3.970,0.025,-0.025
3.972,0.040,-0.025
3.974,0.035,-0.030
3.976,0.080,-0.030
3.978,0.030,-0.030
3.980,0.010,-0.025
3.982,-0.035,-0.020
3.984,0.035,-0.015
3.986,0.060,-0.010
3.988,0.125,-0.010
3.990,0.070,-0.010
3.992,0.080,-0.015
3.994,0.015,-0.020
3.996,0.015,-0.030
3.998,-0.060,-0.035
4.000,0.015,-0.045
4.002,0.040,-0.050
4.004,0.070,-0.050
4.006,0.085,-0.050
4.008,0.020,-0.050
4.010,0.030,-0.045
4.012,-0.010,-0.045
4.014,0.010,-0.040
4.016,0.040,-0.040
4.018,0.015,-0.045
4.020,-0.045,-0.050
4.022,-0.045,-0.055
4.024,-0.040,-0.065
4.026,-0.050,-0.080
4.028,0.040,-0.090
4.030,0.030,-0.100
4.032,-0.050,-0.105
4.034,-0.035,-0.110
4.036,-0.105,-0.105
4.038,-0.070,-0.090
4.040,-0.025,-0.075
4.042,0.005,-0.055
4.044,0.140,-0.030
4.046,0.130,-0.010
4.048,0.050,0.005
4.050,0.060,0.015
4.052,0.040,0.020
4.054,0.065,0.015
4.056,0.050,0.010
4.058,0.050,-0.005
4.060,0.045,-0.015
4.062,0.010,-0.025
4.064,0.010,-0.035
4.066,-0.010,-0.045
4.068,0.010,-0.050
4.070,0.040,-0.050
4.072,0.100,-0.050
4.074,0.030,-0.050
4.076,-0.005,-0.045
4.078,-0.005,-0.035
4.080,0.020,-0.030
4.082,0.050,-0.020
4.084,0.095,-0.015
4.086,0.065,-0.010
4.088,0.105,-0.010
4.090,0.045,-0.015
4.092,-0.010,-0.025
4.094,0.020,-0.035
4.096,0.005,-0.050
4.098,0.015,-0.060
4.100,-0.020,-0.070
4.102,-0.005,-0.080
4.104,0.030,-0.080
4.106,-0.025,-0.080
4.108,-0.085,-0.075
4.110,0.045,-0.075
4.112,0.025,-0.070
4.114,0.020,-0.070
4.116,-0.105,-0.070
4.118,-0.010,-0.070
4.120,0.050,-0.070
4.122,-0.015,-0.075
4.124,-0.015,-0.075
4.126,-0.005,-0.070
4.128,0.050,-0.065
4.130,0.040,-0.060
4.132,0.025,-0.050
4.134,-0.005,-0.045
4.136,-0.065,-0.045
4.138,0.010,-0.045
4.140,-0.005,-0.045
4.142,-0.015,-0.045
4.144,-0.020,-0.045
4.146,0.130,-0.045
4.148,0.075,-0.045
4.150,-0.035,-0.035
4.152,0.010,-0.030
4.154,0.090,-0.025
4.156,0.020,-0.020
4.158,0.075,-0.020
4.160,0.010,-0.025
4.162,-0.005,-0.035
4.164,0.035,-0.045
4.166,-0.010,-0.060
4.168,0.030,-0.070
4.170,0.045,-0.085
4.172,-0.005,-0.090
4.174,-0.075,-0.095
4.176,-0.095,-0.095
4.178,-0.010,-0.090
4.180,-0.035,-0.085
4.182,0.000,-0.080
4.184,0.060,-0.075
4.186,0.020,-0.065
4.188,0.025,-0.060
4.190,-0.025,-0.050
4.192,-0.035,-0.045
4.194,0.065,-0.040
4.196,0.130,-0.035
4.198,0.020,-0.030
4.200,0.015,-0.035
4.202,0.075,-0.040
4.204,-0.020,-0.050
4.206,-0.030,-0.060
4.208,0.000,-0.070
4.210,0.010,-0.070
4.212,0.020,-0.070
4.214,0.055,-0.060
4.216,0.015,-0.045
4.218,0.040,-0.020
4.220,0.070,0.005
4.222,0.140,0.025
4.224,0.100,0.045
4.226,0.135,0.060
4.228,0.150,0.065
4.230,0.130,0.055
4.232,0.110,0.045
4.234,0.050,0.025
4.236,0.035,0.005
4.238,0.030,-0.020
4.240,0.030,-0.040
4.242,-0.050,-0.055
4.244,-0.060,-0.070
4.246,-0.100,-0.075
4.248,0.110,-0.080
4.250,0.085,-0.085
4.252,-0.135,-0.080
4.254,0.015,-0.080
4.256,0.030,-0.075
4.258,-0.010,-0.070
4.260,-0.020,-0.065
4.262,-0.010,-0.065
4.264,0.045,-0.060
4.266,0.035,-0.060
4.268,0.000,-0.060
4.270,-0.030,-0.065
4.272,0.000,-0.065
4.274,0.005,-0.065
4.276,-0.035,-0.065
4.278,0.055,-0.065
4.280,-0.020,-0.065
4.282,-0.005,-0.065
4.284,0.060,-0.065
4.286,0.025,-0.060
4.288,-0.040,-0.060
4.290,0.035,-0.060
4.292,-0.010,-0.065
4.294,0.000,-0.065
4.296,-0.055,-0.065
4.298,-0.045,-0.070
4.300,0.015,-0.075
4.302,-0.010,-0.080
4.304,0.020,-0.090
4.306,-0.020,-0.100
4.308,0.050,-0.110
4.310,-0.085,-0.120
4.312,-0.115,-0.125
4.314,-0.135,-0.125
4.316,-0.160,-0.115
4.318,-0.105,-0.090
4.320,0.050,-0.060
4.322,0.175,-0.015
4.324,0.200,0.040
4.326,0.245,0.100
4.328,0.220,0.165
4.330,0.380,0.235
4.332,0.345,0.305
4.334,0.405,0.370
4.336,0.450,0.430
4.338,0.540,0.475
4.340,0.610,0.505
4.342,0.675,0.510
4.344,0.640,0.485
4.346,0.570,0.440
4.348,0.460,0.370
4.350,0.350,0.275
4.352,0.140,0.170
4.354,0.020,0.060
4.356,-0.125,-0.040
4.358,-0.125,-0.130
4.360,-0.135,-0.195
4.362,-0.145,-0.235
4.364,-0.035,-0.250
4.366,-0.185,-0.245
4.368,-0.135,-0.220
4.370,-0.145,-0.190
4.372,-0.100,-0.155
4.374,-0.085,-0.120
4.376,-0.020,-0.090
4.378,-0.010,-0.070
4.380,0.085,-0.055
4.382,0.025,-0.050
4.384,-0.010,-0.050
4.386,0.020,-0.055
4.388,0.040,-0.060
4.390,0.045,-0.065
4.392,0.035,-0.070
4.394,-0.030,-0.075
4.396,-0.030,-0.080
4.398,-0.005,-0.075
4.400,0.015,-0.070
4.402,0.050,-0.060
4.404,0.015,-0.050
4.406,0.020,-0.035
4.408,0.070,-0.025
4.410,0.040,-0.015
4.412,0.080,-0.010
4.414,0.065,-0.015
4.416,0.015,-0.020
4.418,0.035,-0.030
4.420,0.000,-0.040
4.422,-0.005,-0.050
4.424,0.005,-0.055
4.426,-0.010,-0.055
4.428,-0.065,-0.050
4.430,0.070,-0.040
4.432,0.065,-0.030
4.434,0.045,-0.015
4.436,0.065,-0.010
4.438,0.140,-0.005
4.440,0.030,0.000
4.442,0.030,-0.005
4.444,0.025,-0.005
4.446,0.100,-0.005
4.448,0.110,-0.010
4.450,0.100,-0.010
4.452,0.030,-0.010
4.454,0.010,-0.010
4.456,0.010,-0.010
4.458,0.100,-0.010
4.460,0.040,-0.010
4.462,0.035,-0.015
4.464,0.080,-0.015
4.466,0.045,-0.020
4.468,0.065,-0.020
4.470,0.100,-0.020
4.472,0.100,-0.020
4.474,0.000,-0.015
4.476,0.035,-0.010
4.478,0.085,-0.010
4.480,0.065,-0.005
4.482,0.005,0.000
4.484,0.065,0.005
4.486,0.140,0.010
4.488,0.130,0.020
4.490,0.070,0.030
4.492,0.060,0.040
4.494,0.090,0.055
4.496,0.115,0.065
4.498,0.185,0.075
4.500,0.200,0.085
4.502,0.185,0.085
4.504,0.170,0.090
4.506,0.125,0.085
4.508,0.105,0.080
4.510,0.095,0.080
4.512,0.155,0.080
4.514,0.165,0.080
4.516,0.155,0.090
4.518,0.150,0.100
4.520,0.200,0.115
4.522,0.175,0.135
4.524,0.260,0.155
4.526,0.275,0.170
4.528,0.190,0.190
4.530,0.285,0.200
4.532,0.345,0.210
4.534,0.335,0.220
4.536,0.205,0.225
4.538,0.285,0.230
4.540,0.345,0.235
4.542,0.310,0.240
4.544,0.320,0.245
4.546,0.275,0.250
4.548,0.345,0.250
4.550,0.375,0.255
4.552,0.385,0.255
4.554,0.350,0.260
4.556,0.230,0.265
4.558,0.310,0.270
4.560,0.360,0.275
4.562,0.380,0.285
4.564,0.400,0.290
4.566,0.430,0.295
4.568,0.390,0.300
4.570,0.335,0.295
4.572,0.325,0.285
4.574,0.350,0.275
4.576,0.370,0.260
4.578,0.275,0.245
4.580,0.285,0.235
4.582,0.345,0.225
4.584,0.275,0.220
4.586,0.275,0.215
4.588,0.375,0.210
4.590,0.310,0.205
4.592,0.195,0.190
4.594,0.115,0.165
4.596,0.215,0.140
4.598,0.235,0.105
4.600,0.130,0.070
4.602,0.075,0.040
4.604,0.100,0.010
4.606,0.055,-0.005
4.608,0.055,-0.015
4.610,0.095,-0.020
4.612,0.080,-0.020
4.614,0.080,-0.020
4.616,0.045,-0.020
4.618,-0.040,-0.030
4.620,-0.105,-0.040
4.622,0.055,-0.050
4.624,0.035,-0.065
4.626,-0.005,-0.075
4.628,0.080,-0.080
4.630,-0.080,-0.085
4.632,-0.085,-0.080
4.634,0.015,-0.075
4.636,0.100,-0.065
4.638,0.095,-0.065
4.640,-0.015,-0.065
4.642,-0.075,-0.065
4.644,-0.065,-0.075
4.646,-0.010,-0.080
4.648,0.040,-0.085
4.650,-0.010,-0.085
4.652,-0.035,-0.075
4.654,0.040,-0.065
4.656,0.000,-0.050
4.658,-0.055,-0.040
4.660,0.060,-0.030
4.662,0.090,-0.025
4.664,0.045,-0.030
4.666,0.020,-0.040
4.668,-0.015,-0.050
4.670,-0.030,-0.065
4.672,-0.030,-0.080
4.674,0.000,-0.085
4.676,-0.050,-0.085
4.678,0.040,-0.075
4.680,0.010,-0.065
4.682,0.035,-0.050
4.684,0.070,-0.040
4.686,0.025,-0.030
4.688,-0.010,-0.030
4.690,-0.025,-0.030
4.692,0.010,-0.040
4.694,0.030,-0.045
4.696,0.030,-0.055
4.698,0.015,-0.065
4.700,0.025,-0.070
4.702,0.045,-0.075
4.704,0.015,-0.075
4.706,-0.135,-0.075
4.708,0.000,-0.075
4.710,0.025,-0.075
4.712,-0.065,-0.070
4.714,-0.060,-0.070
4.716,0.090,-0.065
4.718,0.010,-0.060
4.720,-0.010,-0.050
4.722,0.050,-0.045
4.724,0.005,-0.035
4.726,-0.020,-0.035
4.728,0.050,-0.035
4.730,0.025,-0.035
4.732,-0.025,-0.045
4.734,0.080,-0.050
4.736,-0.005,-0.060
4.738,-0.040,-0.070
4.740,-0.035,-0.070
4.742,0.045,-0.070
4.744,-0.025,-0.065
4.746,0.040,-0.055
4.748,0.055,-0.040
4.750,0.085,-0.025
4.752,0.025,-0.010
4.754,0.030,0.005
4.756,0.125,0.010
4.758,0.115,0.010
4.760,0.025,0.005
4.762,0.015,-0.010
4.764,0.000,-0.025
4.766,-0.035,-0.045
4.768,0.040,-0.060
4.770,-0.020,-0.075
4.772,-0.095,-0.085
4.774,0.030,-0.085
4.776,0.045,-0.080
4.778,0.050,-0.070
4.780,0.050,-0.060
4.782,0.080,-0.050
4.784,-0.040,-0.040
4.786,-0.115,-0.035
4.788,-0.030,-0.035
4.790,0.130,-0.035
4.792,0.100,-0.040
4.794,-0.010,-0.045
4.796,-0.020,-0.050
4.798,-0.060,-0.050
4.800,-0.010,-0.045
4.802,0.080,-0.040
4.804,0.045,-0.035
4.806,0.090,-0.035
4.808,0.035,-0.035
4.810,-0.035,-0.035
4.812,-0.020,-0.045
4.814,-0.010,-0.055
4.816,0.030,-0.060
4.818,-0.015,-0.070
4.820,-0.010,-0.070
4.822,-0.060,-0.070
4.824,-0.050,-0.060
4.826,0.120,-0.050
4.828,0.060,-0.035
4.830,0.050,-0.025
4.832,-0.010,-0.020
4.834,-0.095,-0.020
4.836,0.040,-0.025
4.838,0.050,-0.035
4.840,0.020,-0.050
4.842,-0.010,-0.065
4.844,0.000,-0.080
4.846,0.005,-0.090
4.848,0.015,-0.095
4.850,-0.025,-0.090
4.852,-0.055,-0.080
4.854,-0.110,-0.070
4.856,0.000,-0.060
4.858,0.050,-0.050
4.860,-0.020,-0.040
4.862,-0.030,-0.040
4.864,0.090,-0.045
4.866,0.080,-0.050
4.868,0.025,-0.060
4.870,-0.070,-0.070
4.872,-0.060,-0.080
4.874,-0.010,-0.085
4.876,-0.060,-0.085
4.878,-0.060,-0.085
4.880,-0.065,-0.080
4.882,0.015,-0.080
4.884,0.010,-0.075
4.886,-0.005,-0.075
4.888,0.000,-0.070
4.890,0.030,-0.065
4.892,-0.020,-0.060
4.894,-0.025,-0.055
4.896,0.020,-0.045
4.898,0.010,-0.040
4.900,0.075,-0.030
4.902,0.040,-0.025
4.904,-0.010,-0.020
4.906,-0.035,-0.025
4.908,0.070,-0.030
4.910,0.090,-0.040
4.912,0.015,-0.050
4.914,-0.050,-0.060
4.916,-0.095,-0.065
4.918,-0.035,-0.070
4.920,0.065,-0.070
4.922,0.070,-0.060
4.924,0.095,-0.055
4.926,-0.020,-0.045
4.928,-0.100,-0.040
4.930,-0.010,-0.040
4.932,0.070,-0.040
4.934,0.060,-0.045
4.936,-0.035,-0.050
4.938,0.005,-0.055
4.940,-0.010,-0.060
4.942,-0.055,-0.065
4.944,0.010,-0.065
4.946,0.025,-0.065
4.948,-0.010,-0.070
4.950,0.015,-0.070
4.952,-0.020,-0.070
4.954,-0.020,-0.075
4.956,-0.020,-0.085
4.958,-0.010,-0.090
4.960,-0.040,-0.095
4.962,-0.060,-0.100
4.964,-0.060,-0.100
4.966,-0.050,-0.095
4.968,-0.050,-0.090
4.970,0.000,-0.080
4.972,0.030,-0.070
4.974,0.015,-0.060
4.976,0.035,-0.055
4.978,-0.020,-0.055
4.980,-0.045,-0.055
4.982,-0.045,-0.060
4.984,-0.055,-0.070
4.986,0.000,-0.070
4.988,0.005,-0.075
4.990,0.010,-0.075
4.992,-0.050,-0.070
4.994,-0.005,-0.060
4.996,0.020,-0.055
4.998,0.000,-0.045
5.000,-0.045,-0.040
5.002,0.005,-0.040
5.004,0.150,-0.045
5.006,-0.010,-0.045
5.008,-0.085,-0.045
5.010,0.040,-0.045
5.012,0.010,-0.040
5.014,-0.010,-0.030
5.016,0.015,-0.015
5.018,-0.005,0.000
5.020,0.105,0.010
5.022,0.150,0.020
5.024,0.150,0.025
5.026,0.055,0.020
5.028,0.070,0.010
5.030,-0.020,-0.005
5.032,-0.010,-0.020
5.034,0.040,-0.035
5.036,0.015,-0.045
5.038,-0.015,-0.055
5.040,0.030,-0.060
5.042,-0.015,-0.060
5.044,-0.050,-0.060
5.046,0.015,-0.055
5.048,0.040,-0.055
5.050,-0.035,-0.055
5.052,-0.030,-0.055
5.054,-0.025,-0.060
5.056,0.005,-0.060
5.058,0.020,-0.060
5.060,0.060,-0.055
5.062,0.020,-0.055
5.064,0.010,-0.055
5.066,0.010,-0.050
5.068,0.065,-0.050
5.070,-0.050,-0.055
5.072,-0.065,-0.060
5.074,-0.090,-0.065
5.076,-0.085,-0.075
5.078,-0.050,-0.085
5.080,0.105,-0.090
5.082,0.070,-0.095
5.084,-0.020,-0.095
5.086,-0.035,-0.095
5.088,-0.135,-0.090
5.090,-0.190,-0.085
5.092,-0.060,-0.085
5.094,0.025,-0.085
5.096,-0.010,-0.090
5.098,-0.060,-0.105
5.100,-0.030,-0.120
5.102,-0.045,-0.135
5.104,-0.055,-0.150
5.106,-0.145,-0.160
5.108,-0.145,-0.160
5.110,-0.125,-0.155
5.112,-0.090,-0.135
5.114,-0.105,-0.110
5.116,-0.130,-0.070
5.118,0.070,-0.025
5.120,0.155,0.025
5.122,0.185,0.085
5.124,0.255,0.145
5.126,0.290,0.215
5.128,0.330,0.285
5.130,0.340,0.360
5.132,0.495,0.430
5.134,0.595,0.495
5.136,0.630,0.540
5.138,0.675,0.565
5.140,0.650,0.560
5.142,0.560,0.520
5.144,0.495,0.450
5.146,0.405,0.355
5.148,0.265,0.240
5.150,0.120,0.115
5.152,0.005,-0.005
5.154,-0.140,-0.105
5.156,-0.220,-0.180
5.158,-0.185,-0.230
5.160,-0.150,-0.250
5.162,-0.160,-0.245
5.164,-0.120,-0.220
5.166,-0.105,-0.185
5.168,-0.205,-0.150
5.170,-0.070,-0.120
5.172,-0.080,-0.095
5.174,-0.030,-0.075
5.176,-0.045,-0.060
5.178,0.015,-0.050
5.180,0.035,-0.045
5.182,0.020,-0.035
5.184,0.035,-0.030
5.186,0.050,-0.025
5.188,0.060,-0.020
5.190,0.005,-0.025
5.192,-0.015,-0.025
5.194,-0.050,-0.035
5.196,-0.030,-0.040
5.198,0.040,-0.045
5.200,-0.005,-0.045
5.202,-0.075,-0.045
5.204,0.085,-0.035
5.206,0.070,-0.025
5.208,0.075,-0.015
5.210,-0.025,-0.010
5.212,0.020,-0.005
5.214,-0.010,-0.005
5.216,0.010,-0.005
5.218,0.065,-0.015
5.220,0.090,-0.020
5.222,0.020,-0.030
5.224,0.025,-0.035
5.226,-0.010,-0.040
5.228,-0.035,-0.045
5.230,-0.055,-0.050
5.232,-0.005,-0.060
5.234,-0.040,-0.070
5.236,-0.020,-0.075
5.238,0.025,-0.080
5.240,-0.020,-0.085
5.242,-0.060,-0.080
5.244,-0.110,-0.065
5.246,-0.105,-0.050
5.248,0.105,-0.025
5.250,0.090,0.000
5.252,0.055,0.025
5.254,0.030,0.045
5.256,0.040,0.060
5.258,0.140,0.060
5.260,0.115,0.060
5.262,0.075,0.055
5.264,0.080,0.045
5.266,0.140,0.035
5.268,0.130,0.025
5.270,0.015,0.015
5.272,-0.035,0.010
5.274,0.005,0.005
5.276,0.010,0.000
5.278,0.050,-0.005
5.280,0.030,-0.010
5.282,0.010,-0.010
5.284,0.070,-0.010
5.286,0.110,0.000
5.288,0.100,0.015
5.290,0.075,0.035
5.292,0.055,0.060
5.294,0.010,0.080
5.296,0.105,0.100
5.298,0.245,0.110
5.300,0.200,0.115
5.302,0.160,0.110
5.304,0.105,0.100
5.306,0.130,0.085
5.308,0.070,0.075
5.310,0.110,0.070
5.312,0.135,0.070
5.314,0.080,0.080
5.316,0.185,0.100
5.318,0.120,0.120
5.320,0.180,0.145
5.322,0.235,0.170
5.324,0.250,0.190
5.326,0.285,0.200
5.328,0.270,0.205
5.330,0.315,0.205
5.332,0.165,0.200
5.334,0.195,0.190
5.336,0.200,0.185
5.338,0.160,0.180
5.340,0.285,0.185
5.342,0.245,0.195
5.344,0.205,0.210
5.346,0.285,0.230
5.348,0.315,0.250
5.350,0.305,0.275
5.352,0.330,0.295
5.354,0.310,0.310
5.356,0.390,0.320
5.358,0.415,0.325
5.360,0.325,0.325
5.362,0.325,0.315
5.364,0.340,0.305
5.366,0.370,0.295
5.368,0.315,0.285
5.370,0.315,0.275
5.372,0.335,0.270
5.374,0.295,0.265
5.376,0.315,0.265
5.378,0.260,0.265
5.380,0.280,0.265
5.382,0.305,0.265
5.384,0.305,0.260
5.386,0.300,0.250
5.388,0.290,0.235
5.390,0.205,0.215
5.392,0.225,0.190
5.394,0.095,0.160
5.396,0.210,0.130
5.398,0.190,0.105
5.400,0.085,0.075
5.402,0.015,0.055
5.404,0.070,0.040
5.406,0.140,0.030
5.408,0.060,0.025
5.410,0.020,0.030
5.412,-0.030,0.035
5.414,0.105,0.045
5.416,0.075,0.050
5.418,0.065,0.050
5.420,0.070,0.045
5.422,0.065,0.030
5.424,0.045,0.010
5.426,-0.005,-0.010
5.428,-0.055,-0.035
5.430,-0.065,-0.055
5.432,-0.070,-0.065
5.434,-0.035,-0.070
5.436,-0.025,-0.070
5.438,0.040,-0.060
5.440,-0.045,-0.045
5.442,-0.045,-0.030
5.444,0.095,-0.020
5.446,0.040,-0.015
5.448,-0.025,-0.020
5.450,0.000,-0.025
5.452,-0.040,-0.040
5.454,-0.015,-0.055
5.456,-0.095,-0.065
5.458,-0.030,-0.075
5.460,-0.015,-0.075
5.462,-0.045,-0.070
5.464,-0.005,-0.060
5.466,-0.025,-0.050
5.468,-0.075,-0.040
5.470,-0.015,-0.035
5.472,0.045,-0.035
5.474,0.010,-0.040
5.476,-0.085,-0.045
5.478,-0.015,-0.055
5.480,-0.040,-0.070
5.482,-0.030,-0.075
5.484,0.030,-0.085
5.486,-0.080,-0.085
5.488,-0.060,-0.085
5.490,-0.075,-0.080
5.492,-0.110,-0.070
5.494,-0.090,-0.065
5.496,0.000,-0.055
5.498,0.045,-0.050
5.500,0.025,-0.045
5.502,0.005,-0.040
5.504,-0.025,-0.040
5.506,-0.035,-0.045
5.508,-0.045,-0.050
5.510,-0.075,-0.055
5.512,0.000,-0.060
5.514,-0.055,-0.060
5.516,-0.070,-0.060
5.518,-0.030,-0.055
5.520,0.020,-0.045
5.522,0.095,-0.035
5.524,0.060,-0.025
5.526,-0.050,-0.015
5.528,-0.060,-0.010
5.530,-0.030,-0.015
5.532,0.020,-0.025
5.534,0.020,-0.040
5.536,-0.020,-0.055
5.538,-0.005,-0.070
5.540,-0.045,-0.085
5.542,-0.040,-0.090
5.544,-0.140,-0.090
5.546,-0.130,-0.085
5.548,-0.010,-0.070
5.550,0.015,-0.055
5.552,0.000,-0.045
5.554,-0.050,-0.040
5.556,-0.010,-0.035
5.558,0.070,-0.040
5.560,-0.045,-0.045
5.562,-0.035,-0.050
5.564,-0.010,-0.050
5.566,-0.050,-0.050
5.568,-0.085,-0.045
5.570,0.025,-0.035
5.572,0.035,-0.025
5.574,-0.020,-0.015
5.576,0.025,-0.005
5.578,0.030,0.005
5.580,0.035,0.005
5.582,0.070,0.005
5.584,0.050,0.000
5.586,0.050,-0.005
5.588,-0.050,-0.010
5.590,0.010,-0.015
5.592,0.005,-0.020
5.594,-0.130,-0.030
5.596,0.005,-0.040
5.598,0.000,-0.050
5.600,-0.005,-0.060
5.602,-0.060,-0.070
5.604,-0.055,-0.075
5.606,-0.050,-0.080
5.608,-0.055,-0.080
5.610,-0.105,-0.070
5.612,-0.070,-0.060
5.614,0.010,-0.050
5.616,-0.015,-0.035
5.618,-0.020,-0.030
5.620,-0.010,-0.025
5.622,0.070,-0.025
5.624,0.020,-0.035
5.626,-0.075,-0.040
5.628,-0.045,-0.050
5.630,-0.040,-0.055
5.632,-0.125,-0.055
5.634,0.025,-0.055
5.636,0.095,-0.050
5.638,-0.060,-0.045
5.640,-0.050,-0.035
5.642,0.025,-0.030
5.644,-0.025,-0.030
5.646,-0.010,-0.030
5.648,0.025,-0.035
5.650,-0.045,-0.040
5.652,-0.085,-0.050
5.654,-0.025,-0.055
5.656,0.025,-0.060
5.658,-0.060,-0.065
5.660,-0.130,-0.065
5.662,-0.075,-0.065
5.664,0.050,-0.060
5.666,-0.005,-0.055
5.668,-0.045,-0.055
5.670,-0.095,-0.050
5.672,-0.050,-0.050
5.674,-0.055,-0.045
5.676,-0.045,-0.045
5.678,-0.085,-0.045
5.680,0.015,-0.040
5.682,-0.025,-0.040
5.684,-0.020,-0.045
5.686,0.040,-0.045
5.688,-0.025,-0.050
5.690,-0.080,-0.055
5.692,-0.145,-0.060
5.694,-0.065,-0.065
5.696,-0.040,-0.065
5.698,-0.020,-0.065
5.700,-0.035,-0.065
5.702,-0.015,-0.060
5.704,-0.050,-0.060
5.706,-0.060,-0.055
5.708,-0.005,-0.050
5.710,-0.015,-0.050
5.712,0.025,-0.045
5.714,-0.070,-0.045
5.716,-0.025,-0.045
5.718,0.010,-0.045
5.720,-0.060,-0.045
5.722,-0.060,-0.045
5.724,-0.005,-0.045
5.726,0.010,-0.045
5.728,-0.020,-0.050
5.730,-0.010,-0.060
5.732,-0.085,-0.070
5.734,-0.090,-0.080
5.736,-0.005,-0.090
5.738,-0.150,-0.095
5.740,-0.100,-0.090
5.742,-0.080,-0.085
5.744,-0.070,-0.070
5.746,0.055,-0.050
5.748,0.055,-0.035
5.750,-0.025,-0.020
5.752,-0.050,-0.015
5.754,-0.045,-0.015
5.756,-0.050,-0.025
5.758,-0.030,-0.040
5.760,-0.040,-0.055
5.762,-0.040,-0.070
5.764,0.040,-0.080
5.766,-0.155,-0.085
5.768,-0.100,-0.080
5.770,-0.050,-0.070
5.772,-0.075,-0.060
5.774,-0.035,-0.055
5.776,0.055,-0.050
5.778,-0.035,-0.055
5.780,-0.020,-0.060
5.782,-0.070,-0.075
5.784,-0.165,-0.085
5.786,-0.155,-0.095
5.788,-0.045,-0.100
5.790,-0.065,-0.095
5.792,-0.055,-0.090
5.794,-0.015,-0.080
5.796,-0.030,-0.065
5.798,-0.040,-0.050
5.800,-0.070,-0.040
5.802,-0.050,-0.035
5.804,0.005,-0.035
5.806,-0.005,-0.035
5.808,-0.055,-0.040
5.810,-0.095,-0.045
5.812,-0.115,-0.050
5.814,0.025,-0.050
5.816,-0.030,-0.050
5.818,0.000,-0.045
5.820,-0.055,-0.040
5.822,-0.020,-0.030
5.824,0.005,-0.015
5.826,0.025,0.005
5.828,0.090,0.020
5.830,0.060,0.035
5.832,0.020,0.040
5.834,0.070,0.045
5.836,-0.025,0.040
5.838,-0.035,0.030
5.840,0.020,0.015
5.842,0.090,-0.005
5.844,0.000,-0.015
5.846,-0.010,-0.025
5.848,0.015,-0.030
5.850,-0.040,-0.030
5.852,-0.060,-0.030
5.854,-0.005,-0.030
5.856,-0.040,-0.030
5.858,-0.055,-0.040
5.860,-0.120,-0.055
5.862,-0.095,-0.070
5.864,-0.055,-0.090
5.866,-0.015,-0.110
5.868,-0.120,-0.115
5.870,-0.100,-0.115
5.872,-0.060,-0.105
5.874,-0.065,-0.090
5.876,-0.050,-0.070
5.878,-0.090,-0.045
5.880,-0.035,-0.030
5.882,-0.030,-0.025
5.884,-0.075,-0.030
5.886,-0.080,-0.040
5.888,0.015,-0.055
5.890,0.035,-0.070
5.892,-0.095,-0.080
5.894,-0.080,-0.085
5.896,-0.085,-0.080
5.898,0.000,-0.070
5.900,-0.095,-0.055
5.902,-0.125,-0.040
5.904,0.005,-0.035
5.906,0.020,-0.035
5.908,-0.045,-0.045
5.910,-0.045,-0.065
5.912,-0.125,-0.090
5.914,-0.125,-0.120
5.916,-0.120,-0.145
5.918,-0.180,-0.160
5.920,-0.140,-0.170
5.922,-0.065,-0.170
5.924,-0.200,-0.155
5.926,-0.170,-0.135
5.928,-0.110,-0.100
5.930,-0.135,-0.065
5.932,-0.060,-0.015
5.934,0.110,0.040
5.936,0.200,0.105
5.938,0.270,0.185
5.940,0.270,0.265
5.942,0.335,0.355
5.944,0.405,0.445
5.946,0.570,0.525
5.948,0.680,0.585
5.950,0.700,0.620
5.952,0.620,0.620
5.954,0.565,0.585
5.956,0.485,0.510
5.958,0.425,0.405
5.960,0.320,0.285
5.962,0.140,0.160
5.964,-0.075,0.040
5.966,-0.110,-0.060
5.968,-0.170,-0.135
5.970,-0.220,-0.175
5.972,-0.190,-0.190
5.974,-0.195,-0.180
5.976,-0.160,-0.150
5.978,-0.040,-0.120
5.980,-0.040,-0.090
5.982,-0.075,-0.070
5.984,-0.060,-0.060
5.986,-0.055,-0.060
5.988,-0.070,-0.065
5.990,-0.125,-0.070
5.992,-0.040,-0.075
5.994,-0.130,-0.080
5.996,-0.085,-0.075
5.998,-0.080,-0.065
6.000,0.010,-0.050
6.002,-0.035,-0.040
6.004,-0.055,-0.035
6.006,-0.015,-0.030
6.008,-0.015,-0.035
6.010,-0.055,-0.040
6.012,-0.035,-0.050
6.014,-0.080,-0.055
6.016,-0.175,-0.060
6.018,-0.045,-0.060
6.020,0.055,-0.060
6.022,-0.060,-0.055
6.024,-0.100,-0.050
6.026,-0.045,-0.045
6.028,0.005,-0.040
6.030,-0.080,-0.040
6.032,-0.060,-0.040
6.034,0.005,-0.040
6.036,-0.050,-0.040
6.038,-0.035,-0.035
6.040,-0.045,-0.035
6.042,-0.020,-0.030
6.044,0.000,-0.025
6.046,-0.035,-0.020
6.048,0.000,-0.015
6.050,-0.090,-0.015
6.052,0.010,-0.015
6.054,0.050,-0.015
6.056,-0.010,-0.020
6.058,-0.055,-0.020
6.060,-0.055,-0.020
6.062,-0.045,-0.015
6.064,0.010,-0.015
6.066,0.010,-0.010
6.068,0.065,0.000
6.070,-0.080,0.005
6.072,0.035,0.010
6.074,0.040,0.010
6.076,0.010,0.015
6.078,0.005,0.015
6.080,-0.020,0.015
6.082,-0.060,0.015
6.084,0.040,0.015
6.086,0.040,0.020
6.088,-0.025,0.020
6.090,-0.025,0.020
6.092,0.030,0.025
6.094,0.035,0.030
6.096,0.060,0.035
6.098,0.005,0.040
6.100,0.025,0.050
6.102,0.115,0.055
6.104,0.060,0.065
6.106,0.070,0.070
6.108,0.090,0.075
6.110,0.060,0.075
6.112,0.035,0.075
6.114,0.070,0.070
6.116,0.040,0.060
6.118,-0.005,0.055
6.120,0.030,0.050
6.122,0.090,0.055
6.124,0.080,0.060
6.126,0.090,0.070
6.128,0.100,0.090
6.130,0.110,0.105
6.132,0.150,0.125
6.134,0.175,0.140
6.136,0.115,0.155
6.138,0.070,0.165
6.140,0.155,0.175
6.142,0.155,0.185
6.144,0.270,0.200
6.146,0.210,0.215
6.148,0.115,0.230
6.150,0.265,0.245
6.152,0.325,0.260
6.154,0.295,0.270
6.156,0.245,0.280
6.158,0.230,0.280
6.160,0.295,0.280
6.162,0.325,0.280
6.164,0.260,0.275
6.166,0.210,0.275
6.168,0.255,0.280
6.170,0.290,0.285
6.172,0.250,0.290
6.174,0.395,0.295
6.176,0.285,0.300
6.178,0.230,0.300
6.180,0.265,0.295
6.182,0.315,0.290
6.184,0.255,0.285
6.186,0.220,0.280
6.188,0.260,0.275
6.190,0.325,0.275
6.192,0.325,0.275
6.194,0.325,0.275
6.196,0.270,0.275
6.198,0.235,0.265
6.200,0.210,0.255
6.202,0.160,0.235
6.204,0.175,0.215
6.206,0.160,0.190
6.208,0.215,0.170
6.210,0.195,0.155
6.212,0.120,0.140
6.214,0.080,0.130
6.216,0.120,0.120
6.218,0.060,0.110
6.220,0.105,0.095
6.222,0.045,0.070
6.224,0.025,0.045
6.226,-0.085,0.015
6.228,-0.025,-0.015
6.230,-0.035,-0.040
6.232,-0.020,-0.060
6.234,-0.070,-0.065
6.236,-0.075,-0.065
6.238,-0.080,-0.055
6.240,-0.065,-0.040
6.242,-0.020,-0.025
6.244,-0.020,-0.015
6.246,0.005,-0.015
6.248,-0.005,-0.015
6.250,-0.100,-0.025
6.252,-0.070,-0.040
6.254,-0.050,-0.050
6.256,-0.055,-0.060
6.258,-0.145,-0.070
6.260,-0.075,-0.070
6.262,-0.085,-0.065
6.264,-0.050,-0.060
6.266,-0.030,-0.055
6.268,-0.070,-0.050
6.270,-0.080,-0.050
6.272,-0.085,-0.050
6.274,-0.060,-0.050
6.276,-0.030,-0.060
6.278,-0.085,-0.065
6.280,-0.115,-0.070
6.282,-0.100,-0.075
6.284,-0.065,-0.075
6.286,-0.035,-0.075
6.288,-0.105,-0.070
6.290,-0.070,-0.065
6.292,-0.045,-0.060
6.294,-0.085,-0.055
6.296,-0.110,-0.050
6.298,-0.090,-0.050
6.300,-0.125,-0.050
6.302,-0.045,-0.055
6.304,0.010,-0.060
6.306,-0.080,-0.065
6.308,-0.050,-0.070
6.310,-0.040,-0.070
6.312,-0.115,-0.070
6.314,-0.110,-0.065
6.316,-0.160,-0.055
6.318,-0.065,-0.045
6.320,0.035,-0.040
6.322,-0.055,-0.030
6.324,-0.070,-0.025
6.326,-0.015,-0.020
6.328,-0.045,-0.020
6.330,-0.075,-0.025
6.332,-0.040,-0.030
6.334,-0.025,-0.035
6.336,-0.065,-0.035
6.338,-0.055,-0.040
6.340,-0.050,-0.045
6.342,-0.040,-0.050
6.344,-0.075,-0.050
6.346,0.030,-0.055
6.348,-0.070,-0.055
6.350,-0.170,-0.050
6.352,-0.190,-0.045
6.354,-0.145,-0.040
6.356,0.055,-0.035
6.358,-0.005,-0.030
6.360,0.010,-0.025
6.362,-0.045,-0.020
6.364,-0.075,-0.020
6.366,-0.050,-0.015
6.368,-0.085,-0.015
6.370,-0.115,-0.020
6.372,-0.025,-0.020
6.374,0.010,-0.020
6.376,0.030,-0.020
6.378,-0.070,-0.025
6.380,-0.060,-0.025
6.382,-0.105,-0.030
6.384,0.015,-0.030
6.386,0.020,-0.030
6.388,-0.075,-0.035
6.390,-0.160,-0.035
6.392,-0.095,-0.035
6.394,-0.025,-0.035
6.396,-0.010,-0.030
6.398,-0.050,-0.030
6.400,-0.060,-0.030
6.402,-0.055,-0.030
6.404,-0.040,-0.025
6.406,-0.025,-0.025
6.408,-0.050,-0.025
6.410,-0.010,-0.025
6.412,-0.040,-0.030
6.414,-0.125,-0.030
6.416,-0.065,-0.030
6.418,-0.070,-0.035
6.420,-0.085,-0.040
6.422,-0.065,-0.045
6.424,-0.070,-0.050
6.426,-0.045,-0.055
6.428,-0.060,-0.055
6.430,-0.060,-0.055
6.432,-0.130,-0.050
6.434,-0.050,-0.045
6.436,-0.060,-0.040
6.438,-0.010,-0.030
6.440,-0.035,-0.030
6.442,-0.100,-0.030
6.444,-0.055,-0.030
6.446,-0.065,-0.040
6.448,-0.095,-0.045
6.450,-0.090,-0.055
6.452,-0.050,-0.055
6.454,-0.095,-0.055
6.456,-0.080,-0.050
6.458,-0.005,-0.045
6.460,0.015,-0.030
6.462,-0.045,-0.020
6.464,-0.065,-0.015
6.466,-0.035,-0.010
6.468,-0.065,-0.015
6.470,-0.095,-0.025
6.472,-0.070,-0.040
6.474,-0.050,-0.050
6.476,-0.080,-0.065
6.478,-0.025,-0.070
6.480,-0.085,-0.070
6.482,-0.100,-0.070
6.484,-0.090,-0.060
6.486,-0.085,-0.055
6.488,-0.060,-0.045
6.490,-0.075,-0.040
6.492,-0.030,-0.040
6.494,-0.075,-0.045
6.496,-0.115,-0.050
6.498,-0.080,-0.055
6.500,0.000,-0.055
6.502,-0.105,-0.055
6.504,-0.145,-0.055
6.506,-0.125,-0.050
6.508,-0.025,-0.040
6.510,0.035,-0.030
6.512,-0.025,-0.025
6.514,-0.075,-0.020
6.516,-0.100,-0.020
6.518,-0.075,-0.020
6.520,-0.065,-0.020
6.522,0.000,-0.020
6.524,-0.030,-0.020
6.526,0.005,-0.015
6.528,-0.030,-0.015
6.530,-0.045,-0.015
6.532,-0.100,-0.025
6.534,-0.065,-0.040
6.536,-0.090,-0.055
6.538,-0.040,-0.075
6.540,-0.110,-0.095
6.542,-0.185,-0.110
6.544,-0.220,-0.115
6.546,-0.315,-0.110
6.548,-0.110,-0.095
6.550,0.050,-0.070
6.552,0.035,-0.045
6.554,-0.050,-0.020
6.556,-0.105,-0.005
6.558,-0.075,0.005
6.560,-0.015,0.005
6.562,-0.020,-0.005
6.564,-0.055,-0.020
6.566,-0.085,-0.040
6.568,-0.115,-0.060
6.570,-0.150,-0.075
6.572,-0.150,-0.085
6.574,-0.040,-0.090
6.576,-0.020,-0.090
6.578,-0.090,-0.085
6.580,-0.195,-0.080
6.582,-0.195,-0.070
6.584,-0.040,-0.060
6.586,-0.020,-0.050
6.588,-0.010,-0.040
6.590,-0.095,-0.030
6.592,-0.110,-0.020
6.594,-0.020,-0.015
6.596,-0.040,-0.010
6.598,-0.015,-0.010
6.600,-0.055,-0.010
6.602,-0.080,-0.010
6.604,-0.060,-0.015
6.606,-0.055,-0.015
6.608,-0.025,-0.020
6.610,0.010,-0.015
6.612,0.035,-0.015
6.614,-0.060,-0.010
6.616,-0.095,-0.010
6.618,-0.045,-0.005
6.620,-0.055,-0.010
6.622,-0.090,-0.015
6.624,-0.090,-0.025
6.626,-0.085,-0.040
6.628,-0.140,-0.055
6.630,-0.065,-0.070
6.632,-0.095,-0.085
6.634,-0.140,-0.095
6.636,-0.090,-0.095
6.638,-0.080,-0.095
6.640,-0.140,-0.085
6.642,-0.165,-0.070
6.644,-0.140,-0.055
6.646,-0.100,-0.035
6.648,0.050,-0.015
6.650,-0.020,0.005
6.652,-0.020,0.020
6.654,0.040,0.030
6.656,0.050,0.040
6.658,0.000,0.040
6.660,0.010,0.035
6.662,-0.030,0.030
6.664,-0.040,0.020
6.666,-0.125,0.015
6.668,-0.065,0.010
6.670,0.075,0.005
6.672,0.010,0.010
6.674,0.005,0.015
6.676,-0.015,0.020
6.678,-0.025,0.025
6.680,-0.015,0.025
6.682,-0.045,0.020
6.684,-0.060,0.005
6.686,-0.060,-0.010
6.688,-0.055,-0.030
6.690,-0.145,-0.050
6.692,-0.110,-0.070
6.694,-0.070,-0.080
6.696,-0.045,-0.080
6.698,-0.120,-0.080
6.700,-0.040,-0.070
6.702,-0.115,-0.055
6.704,-0.070,-0.045
6.706,-0.070,-0.040
6.708,-0.175,-0.040
6.710,-0.155,-0.045
6.712,-0.015,-0.055
6.714,-0.050,-0.065
6.716,-0.110,-0.075
6.718,-0.115,-0.075
6.720,-0.130,-0.070
6.722,-0.100,-0.055
6.724,-0.050,-0.035
6.726,0.010,-0.020
6.728,0.000,-0.010
6.730,-0.070,-0.010
6.732,-0.085,-0.025
6.734,-0.175,-0.055
6.736,-0.165,-0.100
6.738,-0.160,-0.155
6.740,-0.165,-0.215
6.742,-0.300,-0.265
6.744,-0.495,-0.310
6.746,-0.395,-0.335
6.748,-0.330,-0.345
6.750,-0.355,-0.340
6.752,-0.325,-0.320
6.754,-0.340,-0.290
6.756,-0.315,-0.255
6.758,-0.300,-0.215
6.760,-0.220,-0.175
6.762,-0.125,-0.125
6.764,-0.055,-0.070
6.766,0.080,-0.005
6.768,0.010,0.070
6.770,0.050,0.160
6.772,0.200,0.250
6.774,0.315,0.345
6.776,0.460,0.425
6.778,0.470,0.485
6.780,0.505,0.515
6.782,0.500,0.505
6.784,0.485,0.450
6.786,0.335,0.360
6.788,0.155,0.240
6.790,0.085,0.105
6.792,-0.075,-0.025
6.794,-0.285,-0.140
6.796,-0.400,-0.230
6.798,-0.370,-0.280
6.800,-0.335,-0.300
6.802,-0.220,-0.285
6.804,-0.170,-0.255
6.806,-0.175,-0.210
6.808,-0.185,-0.170
6.810,-0.200,-0.135
6.812,-0.165,-0.110
6.814,-0.165,-0.095
6.816,-0.155,-0.090
6.818,-0.115,-0.090
6.820,-0.115,-0.095
6.822,-0.125,-0.090
6.824,-0.150,-0.085
6.826,-0.150,-0.080
6.828,-0.025,-0.070
6.830,-0.050,-0.060
6.832,-0.130,-0.055
6.834,-0.120,-0.055
6.836,-0.095,-0.060
6.838,-0.095,-0.065
6.840,-0.110,-0.070
6.842,-0.135,-0.075
6.844,-0.290,-0.080
6.846,-0.055,-0.075
6.848,0.065,-0.075
6.850,-0.135,-0.070
6.852,-0.115,-0.065
6.854,-0.120,-0.065
6.856,-0.085,-0.065
6.858,-0.120,-0.070
6.860,-0.125,-0.070
6.862,-0.110,-0.075
6.864,-0.070,-0.080
6.866,-0.105,-0.080
6.868,-0.200,-0.075
6.870,-0.085,-0.065
6.872,0.015,-0.055
6.874,-0.075,-0.040
6.876,-0.110,-0.025
6.878,-0.135,-0.015
6.880,-0.100,-0.005
6.882,0.005,-0.005
6.884,-0.025,-0.005
6.886,-0.045,-0.015
6.888,0.015,-0.025
6.890,0.035,-0.035
6.892,-0.175,-0.045
6.894,-0.170,-0.050
6.896,-0.100,-0.050
6.898,-0.040,-0.045
6.900,-0.045,-0.035
6.902,-0.045,-0.020
6.904,-0.055,-0.005
6.906,-0.015,0.010
6.908,0.010,0.020
6.910,-0.035,0.025
6.912,-0.015,0.025
6.914,0.000,0.020
6.916,0.000,0.015
6.918,0.035,0.010
6.920,-0.085,0.005
6.922,-0.060,0.000
6.924,-0.065,0.005
6.926,-0.040,0.010
6.928,0.000,0.015
6.930,-0.010,0.020
6.932,0.015,0.025
6.934,0.010,0.030
6.936,-0.010,0.035
6.938,-0.090,0.040
6.940,-0.015,0.045
6.942,0.080,0.060
6.944,-0.005,0.075
6.946,0.065,0.090
6.948,0.105,0.110
6.950,0.115,0.130
6.952,0.095,0.145
6.954,0.165,0.155
6.956,0.095,0.160
6.958,0.045,0.160
6.960,0.125,0.150
6.962,0.130,0.145
6.964,0.080,0.140
6.966,-0.040,0.135
6.968,0.100,0.135
6.970,0.170,0.145
6.972,0.240,0.155
6.974,0.175,0.170
6.976,0.160,0.185
6.978,0.125,0.195
6.980,0.145,0.210
6.982,0.170,0.220
6.984,0.225,0.230
6.986,0.165,0.240
6.988,0.215,0.250
6.990,0.285,0.260
6.992,0.260,0.270
6.994,0.210,0.280
6.996,0.270,0.290
6.998,0.255,0.295
7.000,0.260,0.295
7.002,0.240,0.295
7.004,0.230,0.295
7.006,0.270,0.290
7.008,0.245,0.290
7.010,0.260,0.290
7.012,0.260,0.290
7.014,0.320,0.290
7.016,0.265,0.295
7.018,0.225,0.295
7.020,0.230,0.290
7.022,0.255,0.285
7.024,0.225,0.280
7.026,0.215,0.270
7.028,0.230,0.255
7.030,0.190,0.235
7.032,0.180,0.215
7.034,0.135,0.190
7.036,0.095,0.165
7.038,0.110,0.135
7.040,0.035,0.110
7.042,-0.005,0.085
7.044,0.100,0.070
7.046,0.045,0.055
7.048,-0.105,0.055
7.050,0.000,0.055
7.052,0.125,0.060
7.054,0.040,0.065
7.056,0.020,0.070
7.058,-0.010,0.070
7.060,-0.015,0.065
7.062,-0.015,0.050
7.064,-0.025,0.030
7.066,-0.010,0.010
7.068,-0.060,-0.010
7.070,-0.030,-0.025
7.072,-0.100,-0.035
7.074,-0.090,-0.045
7.076,-0.130,-0.045
7.078,-0.050,-0.050
7.080,-0.050,-0.055
7.082,-0.085,-0.060
7.084,-0.145,-0.070
7.086,-0.135,-0.080
7.088,-0.115,-0.090
7.090,-0.170,-0.095
7.092,-0.115,-0.095
7.094,-0.105,-0.085
7.096,-0.125,-0.075
7.098,-0.060,-0.065
7.100,-0.090,-0.055
7.102,-0.115,-0.045
7.104,-0.105,-0.050
7.106,-0.060,-0.055
7.108,-0.125,-0.065
7.110,-0.165,-0.075
7.112,-0.120,-0.080
7.114,-0.070,-0.080
7.116,-0.050,-0.075
7.118,-0.110,-0.065
7.120,-0.070,-0.055
7.122,-0.080,-0.045
7.124,-0.050,-0.040
7.126,-0.095,-0.045
7.128,-0.150,-0.055
7.130,-0.140,-0.075
7.132,-0.190,-0.090
7.134,-0.165,-0.105
7.136,-0.095,-0.110
7.138,-0.095,-0.105
7.140,-0.145,-0.090
7.142,-0.065,-0.070
7.144,-0.110,-0.050
7.146,-0.125,-0.030
7.148,-0.070,-0.020
7.150,0.020,-0.015
7.152,-0.050,-0.020
7.154,-0.130,-0.025
7.156,-0.010,-0.035
7.158,-0.010,-0.045
7.160,-0.140,-0.045
7.162,-0.100,-0.040
7.164,-0.075,-0.025
7.166,-0.010,-0.010
7.168,-0.020,0.005
7.170,-0.005,0.015
7.172,-0.010,0.020
7.174,-0.035,0.010
7.176,-0.080,-0.005
7.178,-0.115,-0.025
7.180,-0.095,-0.045
7.182,-0.130,-0.065
7.184,-0.135,-0.075
7.186,-0.055,-0.080
7.188,-0.150,-0.075
7.190,-0.045,-0.065
7.192,-0.085,-0.050
7.194,-0.065,-0.040
7.196,-0.085,-0.035
7.198,-0.135,-0.030
7.200,-0.100,-0.035
7.202,-0.105,-0.040
7.204,-0.060,-0.045
7.206,-0.015,-0.050
7.208,-0.060,-0.050
7.210,-0.135,-0.040
7.212,-0.025,-0.030
7.214,-0.010,-0.020
7.216,-0.110,-0.005
7.218,-0.090,0.000
7.220,0.040,0.000
7.222,-0.060,-0.005
7.224,-0.080,-0.020
7.226,-0.030,-0.035
7.228,-0.085,-0.050
7.230,-0.145,-0.060
7.232,-0.110,-0.065
7.234,-0.110,-0.065
7.236,-0.050,-0.060
7.238,-0.065,-0.050
7.240,-0.080,-0.035
7.242,-0.110,-0.025
7.244,-0.095,-0.020
7.246,-0.070,-0.020
7.248,-0.015,-0.020
7.250,0.000,-0.025
7.252,-0.045,-0.035
7.254,-0.075,-0.040
7.256,-0.160,-0.040
7.258,-0.195,-0.040
7.260,-0.110,-0.040
7.262,-0.005,-0.035
7.264,-0.035,-0.030
7.266,-0.045,-0.025
7.268,-0.060,-0.020
7.270,-0.075,-0.025
7.272,-0.040,-0.025
7.274,-0.135,-0.030
7.276,-0.075,-0.035
7.278,-0.060,-0.040
7.280,-0.035,-0.045
7.282,-0.080,-0.050
7.284,-0.075,-0.055
7.286,-0.140,-0.055
7.288,-0.155,-0.055
7.290,-0.090,-0.060
7.292,-0.015,-0.055
7.294,-0.045,-0.055
7.296,-0.100,-0.050
7.298,-0.190,-0.045
7.300,-0.095,-0.040
7.302,-0.040,-0.030
7.304,-0.045,-0.025
7.306,-0.065,-0.020
7.308,-0.025,-0.020
7.310,-0.055,-0.025
7.312,-0.040,-0.030
7.314,-0.140,-0.040
7.316,-0.105,-0.045
7.318,-0.010,-0.055
7.320,-0.090,-0.060
7.322,-0.110,-0.065
7.324,-0.115,-0.060
7.326,-0.175,-0.055
7.328,-0.050,-0.045
7.330,-0.045,-0.035
7.332,-0.085,-0.020
7.334,-0.065,-0.015
7.336,0.045,-0.010
7.338,-0.060,-0.010
7.340,-0.060,-0.015
7.342,-0.030,-0.025
7.344,-0.015,-0.035
7.346,-0.090,-0.045
7.348,-0.075,-0.050
7.350,-0.120,-0.060
7.352,-0.140,-0.065
7.354,-0.105,-0.065
7.356,-0.195,-0.065
7.358,-0.085,-0.065
7.360,-0.065,-0.065
7.362,-0.070,-0.065
7.364,-0.085,-0.065
7.366,-0.085,-0.065
7.368,-0.125,-0.065
7.370,-0.165,-0.065
7.372,-0.210,-0.065
7.374,-0.095,-0.065
7.376,-0.010,-0.060
7.378,-0.065,-0.050
7.380,-0.055,-0.045
7.382,-0.080,-0.035
7.384,-0.125,-0.030
7.386,-0.080,-0.020
7.388,-0.040,-0.015
7.390,0.005,-0.010
7.392,-0.010,-0.010
7.394,-0.070,-0.015
7.396,-0.090,-0.025
7.398,-0.080,-0.030
7.400,-0.110,-0.035
7.402,-0.060,-0.045
7.404,-0.020,-0.045
7.406,-0.065,-0.045
7.408,-0.110,-0.045
7.410,-0.075,-0.040
7.412,-0.025,-0.035
7.414,-0.085,-0.035
7.416,-0.110,-0.035
7.418,-0.120,-0.035
7.420,-0.080,-0.045
7.422,-0.080,-0.050
7.424,-0.020,-0.055
7.426,-0.095,-0.060
7.428,-0.115,-0.055
7.430,-0.095,-0.050
7.432,-0.090,-0.045
7.434,-0.030,-0.035
7.436,-0.010,-0.030
7.438,-0.050,-0.025
7.440,-0.080,-0.025
7.442,-0.065,-0.030
7.444,-0.045,-0.045
7.446,-0.085,-0.055
7.448,-0.185,-0.070
7.450,-0.155,-0.085
7.452,-0.065,-0.090
7.454,-0.130,-0.095
7.456,-0.080,-0.090
7.458,-0.080,-0.085
7.460,-0.075,-0.075
7.462,-0.075,-0.065
7.464,-0.060,-0.055
7.466,-0.095,-0.055
7.468,-0.130,-0.055
7.470,-0.090,-0.055
7.472,-0.155,-0.060
7.474,-0.105,-0.060
7.476,-0.135,-0.055
7.478,0.000,-0.045
7.480,0.020,-0.030
7.482,0.030,-0.010
7.484,0.030,0.015
7.486,0.000,0.035
7.488,-0.020,0.055
7.490,-0.010,0.065
7.492,0.035,0.070
7.494,0.035,0.060
7.496,0.040,0.045
7.498,-0.020,0.025
7.500,-0.045,0.000
7.502,-0.030,-0.020
7.504,-0.110,-0.040
7.506,-0.065,-0.055
7.508,-0.055,-0.060
7.510,-0.070,-0.060
7.512,-0.140,-0.055
7.514,-0.115,-0.050
7.516,-0.090,-0.045
7.518,-0.015,-0.040
7.520,0.025,-0.035
7.522,-0.030,-0.035
7.524,-0.095,-0.035
7.526,-0.090,-0.035
7.528,-0.145,-0.040
7.530,-0.065,-0.040
7.532,-0.090,-0.045
7.534,-0.060,-0.045
7.536,-0.025,-0.050
7.538,-0.020,-0.050
7.540,-0.105,-0.050
7.542,-0.095,-0.050
7.544,-0.095,-0.050
7.546,-0.045,-0.050
7.548,-0.065,-0.045
7.550,-0.125,-0.040
7.552,-0.055,-0.040
7.554,-0.030,-0.035
7.556,-0.065,-0.035
7.558,-0.055,-0.040
7.560,-0.085,-0.050
7.562,-0.160,-0.065
7.564,-0.175,-0.085
7.566,-0.140,-0.110
7.568,-0.105,-0.135
7.570,-0.115,-0.160
7.572,-0.220,-0.180
7.574,-0.250,-0.190
7.576,-0.245,-0.190
7.578,-0.245,-0.180
7.580,-0.250,-0.155
7.582,-0.185,-0.120
7.584,-0.045,-0.075
7.586,-0.070,-0.025
7.588,0.040,0.030
7.590,0.105,0.090
7.592,0.155,0.150
7.594,0.225,0.220
7.596,0.320,0.295
7.598,0.325,0.370
7.600,0.425,0.445
7.602,0.505,0.515
7.604,0.555,0.570
7.606,0.625,0.600
7.608,0.635,0.605
7.610,0.590,0.570
7.612,0.520,0.500
7.614,0.425,0.400
7.616,0.235,0.275
7.618,0.080,0.140
7.620,-0.125,0.005
7.622,-0.265,-0.110
7.624,-0.320,-0.195
7.626,-0.315,-0.245
7.628,-0.310,-0.260
7.630,-0.145,-0.240
7.632,-0.130,-0.200
7.634,-0.130,-0.150
7.636,-0.140,-0.095
7.638,-0.060,-0.050
7.640,-0.090,-0.020
7.642,-0.040,-0.010
7.644,-0.055,-0.015
7.646,-0.080,-0.030
7.648,-0.030,-0.055
7.650,-0.120,-0.075
7.652,-0.080,-0.085
7.654,-0.075,-0.090
7.656,-0.135,-0.085
7.658,-0.170,-0.075
7.660,-0.085,-0.060
7.662,-0.060,-0.045
7.664,-0.080,-0.030
7.666,-0.015,-0.025
7.668,-0.005,-0.025
7.670,-0.035,-0.035
7.672,-0.120,-0.040
7.674,-0.085,-0.050
7.676,-0.115,-0.060
7.678,-0.135,-0.065
7.680,-0.055,-0.070
7.682,-0.010,-0.065
7.684,-0.105,-0.060
7.686,-0.130,-0.055
7.688,-0.100,-0.050
7.690,0.005,-0.045
7.692,-0.050,-0.045
7.694,-0.055,-0.035
7.696,-0.085,-0.030
7.698,-0.020,-0.020
7.700,-0.005,-0.010
7.702,-0.050,0.005
7.704,-0.060,0.020
7.706,0.055,0.030
7.708,0.020,0.035
7.710,0.005,0.035
7.712,0.060,0.030
7.714,-0.030,0.020
7.716,-0.020,0.005
7.718,-0.055,-0.015
7.720,-0.065,-0.025
7.722,-0.045,-0.035
7.724,-0.030,-0.035
7.726,0.000,-0.030
7.728,0.000,-0.020
7.730,-0.095,-0.005
7.732,-0.090,0.010
7.734,0.050,0.020
7.736,0.025,0.025
7.738,0.000,0.030
7.740,0.015,0.030
7.742,0.030,0.030
7.744,0.050,0.030
7.746,0.075,0.030
7.748,0.040,0.040
7.750,0.020,0.045
7.752,-0.060,0.055
7.754,0.025,0.065
7.756,0.155,0.070
7.758,0.050,0.070
7.760,0.020,0.060
7.762,0.045,0.050
7.764,0.000,0.040
7.766,-0.050,0.025
7.768,0.035,0.025
7.770,0.010,0.025
7.772,0.055,0.035
7.774,0.005,0.055
7.776,0.075,0.080
7.778,0.075,0.105
7.780,0.075,0.130
7.782,0.085,0.150
7.784,0.210,0.160
7.786,0.120,0.170
7.788,0.185,0.165
7.790,0.165,0.160
7.792,0.155,0.155
7.794,0.100,0.145
7.796,0.095,0.140
7.798,0.115,0.140
7.800,0.150,0.150
7.802,0.130,0.160
7.804,0.210,0.180
7.806,0.240,0.205
7.808,0.215,0.235
7.810,0.275,0.265
7.812,0.240,0.290
7.814,0.285,0.315
7.816,0.340,0.325
7.818,0.295,0.335
7.820,0.350,0.335
7.822,0.325,0.325
7.824,0.270,0.315
7.826,0.375,0.305
7.828,0.285,0.295
7.830,0.195,0.290
7.832,0.245,0.285
7.834,0.270,0.285
7.836,0.305,0.290
7.838,0.360,0.295
7.840,0.315,0.305
7.842,0.325,0.310
7.844,0.295,0.315
7.846,0.240,0.315
7.848,0.315,0.315
7.850,0.315,0.310
7.852,0.260,0.300
7.854,0.305,0.285
7.856,0.230,0.260
7.858,0.200,0.230
7.860,0.185,0.195
7.862,0.170,0.155
7.864,0.170,0.115
7.866,0.025,0.080
7.868,0.040,0.050
7.870,-0.130,0.030
7.872,0.000,0.015
7.874,0.110,0.015
7.876,0.030,0.020
7.878,-0.010,0.025
7.880,0.025,0.035
7.882,0.085,0.035
7.884,0.035,0.035
7.886,0.030,0.025
7.888,-0.040,0.010
7.890,-0.095,-0.005
7.892,-0.045,-0.025
7.894,-0.035,-0.035
7.896,-0.060,-0.045
7.898,-0.020,-0.050
7.900,-0.015,-0.050
7.902,0.000,-0.045
7.904,-0.055,-0.040
7.906,-0.050,-0.035
7.908,-0.105,-0.035
7.910,-0.035,-0.035
7.912,-0.050,-0.040
7.914,-0.040,-0.050
7.916,-0.040,-0.055
7.918,-0.125,-0.060
7.920,-0.140,-0.065
7.922,-0.060,-0.065
7.924,0.000,-0.065
7.926,-0.020,-0.060
7.928,-0.015,-0.055
7.930,-0.105,-0.055
7.932,-0.085,-0.050
7.934,-0.115,-0.050
7.936,-0.010,-0.055
7.938,-0.060,-0.055
7.940,-0.050,-0.065
7.942,-0.100,-0.070
7.944,-0.095,-0.075
7.946,-0.060,-0.085
7.948,-0.090,-0.090
7.950,-0.135,-0.095
7.952,-0.115,-0.095
7.954,-0.090,-0.095
7.956,-0.095,-0.090
7.958,-0.060,-0.090
7.960,-0.070,-0.085
7.962,-0.060,-0.075
7.964,-0.085,-0.070
7.966,-0.120,-0.060
7.968,-0.175,-0.055
7.970,0.000,-0.045
7.972,0.025,-0.035
7.974,0.055,-0.030
7.976,-0.035,-0.030
7.978,-0.085,-0.030
7.980,-0.035,-0.035
7.982,-0.060,-0.045
7.984,-0.065,-0.055
7.986,-0.005,-0.065
7.988,-0.050,-0.070
7.990,-0.145,-0.070
7.992,-0.100,-0.070
7.994,-0.100,-0.060
7.996,-0.100,-0.045
7.998,0.070,-0.030
8.000,-0.005,-0.020
8.002,-0.020,-0.010
8.004,0.005,-0.010
8.006,-0.015,-0.015
8.008,-0.055,-0.030
8.010,-0.110,-0.045
8.012,-0.115,-0.060
8.014,-0.075,-0.070
8.016,-0.045,-0.080
8.018,0.010,-0.075
8.020,-0.035,-0.070
8.022,-0.030,-0.055
8.024,-0.035,-0.040
8.026,-0.005,-0.025
8.028,-0.005,-0.020
8.030,-0.040,-0.015
8.032,-0.035,-0.020
8.034,-0.040,-0.030
8.036,-0.105,-0.045
8.038,-0.035,-0.055
8.040,0.005,-0.060
8.042,-0.005,-0.065
8.044,-0.085,-0.060
8.046,-0.115,-0.055
8.048,-0.050,-0.045
8.050,-0.040,-0.040
8.052,-0.015,-0.035
8.054,0.000,-0.030
8.056,-0.020,-0.035
8.058,-0.080,-0.035
8.060,-0.045,-0.040
8.062,-0.005,-0.045
8.064,0.030,-0.045
8.066,-0.055,-0.045
8.068,-0.030,-0.050
8.070,-0.065,-0.050
8.072,-0.125,-0.055
8.074,-0.085,-0.065
8.076,0.020,-0.075
8.078,-0.055,-0.085
8.080,-0.140,-0.095
8.082,-0.090,-0.105
8.084,-0.140,-0.105
8.086,-0.155,-0.105
8.088,-0.020,-0.095
8.090,-0.095,-0.085
8.092,-0.050,-0.070
8.094,-0.035,-0.050
8.096,-0.045,-0.035
8.098,-0.030,-0.025
8.100,0.055,-0.010
8.102,0.035,-0.005
8.104,0.025,0.000
8.106,0.030,0.000
8.108,0.025,0.000
8.110,-0.010,0.000
8.112,-0.020,-0.005
8.114,-0.065,-0.015
8.116,-0.065,-0.030
8.118,-0.070,-0.045
8.120,-0.075,-0.065
8.122,-0.075,-0.080
8.124,-0.065,-0.090
8.126,-0.120,-0.095
8.128,-0.105,-0.090
8.130,-0.040,-0.080
8.132,0.010,-0.065
8.134,0.025,-0.045
8.136,-0.035,-0.030
8.138,-0.015,-0.020
8.140,0.005,-0.020
8.142,-0.040,-0.025
8.144,-0.065,-0.045
8.146,-0.070,-0.065
8.148,-0.115,-0.090
8.150,-0.145,-0.110
8.152,-0.110,-0.125
8.154,-0.120,-0.130
8.156,-0.095,-0.130
8.158,-0.120,-0.120
8.160,-0.040,-0.105
8.162,-0.055,-0.090
8.164,0.000,-0.075
8.166,-0.055,-0.065
8.168,-0.150,-0.055
8.170,-0.080,-0.055
8.172,-0.005,-0.050
8.174,0.005,-0.050
8.176,-0.130,-0.050
8.178,0.020,-0.050
8.180,0.050,-0.045
8.182,-0.025,-0.050
8.184,-0.050,-0.055
8.186,-0.060,-0.060
8.188,-0.085,-0.070
8.190,-0.060,-0.085
8.192,-0.185,-0.095
8.194,-0.135,-0.105
8.196,0.015,-0.110
8.198,-0.020,-0.105
8.200,-0.025,-0.095
8.202,-0.105,-0.085
8.204,-0.130,-0.070
8.206,-0.010,-0.055
8.208,0.010,-0.045
8.210,-0.030,-0.035
8.212,-0.030,-0.035
8.214,-0.085,-0.035
8.216,-0.010,-0.035
8.218,-0.035,-0.040
8.220,0.050,-0.040
8.222,-0.030,-0.045
8.224,-0.025,-0.045
8.226,-0.060,-0.045
8.228,-0.035,-0.050
8.230,0.035,-0.055
8.232,-0.015,-0.060
8.234,-0.095,-0.065
8.236,-0.155,-0.070
8.238,-0.150,-0.075
8.240,0.010,-0.075
8.242,0.065,-0.075
8.244,0.000,-0.070
8.246,-0.080,-0.070
8.248,-0.075,-0.065
8.250,-0.055,-0.060
8.252,-0.025,-0.060
8.254,-0.045,-0.060
8.256,-0.065,-0.065
8.258,-0.035,-0.065
8.260,-0.075,-0.070
8.262,-0.045,-0.070
8.264,-0.055,-0.070
8.266,-0.020,-0.070
8.268,-0.035,-0.075
8.270,-0.080,-0.080
8.272,-0.055,-0.090
8.274,-0.135,-0.100
8.276,-0.095,-0.110
8.278,-0.110,-0.115
8.280,-0.090,-0.120
8.282,-0.055,-0.115
8.284,-0.035,-0.100
8.286,-0.015,-0.085
8.288,-0.030,-0.060
8.290,0.035,-0.035
8.292,-0.010,-0.015
8.294,0.010,0.005
8.296,0.035,0.015
8.298,0.025,0.020
8.300,-0.015,0.025
8.302,0.075,0.020
8.304,0.040,0.015
8.306,0.045,0.015
8.308,-0.005,0.010
8.310,0.110,0.010
8.312,0.040,0.005
8.314,-0.025,0.000
8.316,-0.115,-0.005
8.318,-0.005,-0.015
8.320,0.075,-0.030
8.322,0.020,-0.040
8.324,-0.015,-0.050
8.326,-0.040,-0.055
8.328,-0.015,-0.055
8.330,-0.080,-0.055
8.332,-0.095,-0.055
8.334,0.015,-0.050
8.336,0.005,-0.050
8.338,-0.050,-0.055
8.340,-0.035,-0.055
8.342,0.015,-0.060
8.344,-0.020,-0.065
8.346,-0.060,-0.060
8.348,-0.070,-0.055
8.350,-0.040,-0.050
8.352,0.060,-0.035
8.354,0.025,-0.025
8.356,-0.025,-0.020
8.358,0.000,-0.020
8.360,-0.005,-0.025
8.362,-0.040,-0.035
8.364,-0.070,-0.050
8.366,0.000,-0.065
8.368,-0.055,-0.075
8.370,-0.055,-0.080
8.372,-0.040,-0.080
8.374,-0.010,-0.070
8.376,-0.045,-0.065
8.378,-0.060,-0.060
8.380,-0.045,-0.070
8.382,-0.080,-0.085
8.384,-0.105,-0.110
8.386,-0.070,-0.140
8.388,-0.105,-0.175
8.390,-0.195,-0.205
8.392,-0.210,-0.220
8.394,-0.330,-0.220
8.396,-0.235,-0.200
8.398,-0.125,-0.160
8.400,-0.010,-0.110
8.402,0.020,-0.050
8.404,0.145,0.010
8.406,0.190,0.080
8.408,0.100,0.145
8.410,0.265,0.210
8.412,0.260,0.285
8.414,0.305,0.355
8.416,0.465,0.430
8.418,0.635,0.500
8.420,0.640,0.555
8.422,0.665,0.590
8.424,0.710,0.595
8.426,0.670,0.560
8.428,0.550,0.485
8.430,0.345,0.380
8.432,0.175,0.250
8.434,0.090,0.110
8.436,-0.015,-0.025
8.438,-0.150,-0.135
8.440,-0.240,-0.215
8.442,-0.210,-0.260
8.444,-0.240,-0.270
8.446,-0.225,-0.250
8.448,-0.150,-0.215
8.450,-0.090,-0.175
8.452,-0.055,-0.135
8.454,-0.060,-0.105
8.456,-0.005,-0.090
8.458,-0.145,-0.075
8.460,-0.135,-0.070
8.462,0.030,-0.070
8.464,0.105,-0.065
8.466,0.000,-0.055
8.468,-0.055,-0.050
8.470,0.010,-0.040
8.472,-0.055,-0.040
8.474,-0.010,-0.040
8.476,-0.005,-0.045
8.478,-0.075,-0.055
8.480,-0.075,-0.060
8.482,-0.100,-0.070
8.484,0.065,-0.070
8.486,0.010,-0.065
8.488,-0.035,-0.055
8.490,-0.055,-0.040
8.492,0.010,-0.035
8.494,0.050,-0.030
8.496,-0.035,-0.030
8.498,-0.070,-0.035
8.500,-0.005,-0.045
8.502,0.120,-0.055
8.504,0.010,-0.060
8.506,-0.120,-0.065
8.508,-0.020,-0.055
8.510,0.000,-0.045
8.512,-0.020,-0.035
8.514,-0.005,-0.020
8.516,0.045,-0.015
8.518,0.060,-0.010
8.520,0.055,-0.020
8.522,-0.025,-0.030
8.524,-0.020,-0.040
8.526,0.000,-0.050
8.528,0.020,-0.050
8.530,0.030,-0.050
8.532,-0.035,-0.040
8.534,0.000,-0.025
8.536,0.055,-0.010
8.538,0.050,0.000
8.540,0.105,0.005
8.542,0.055,0.005
8.544,0.055,0.000
8.546,0.050,-0.005
8.548,0.095,-0.010
8.550,-0.040,-0.010
8.552,-0.140,-0.005
8.554,0.100,0.000
8.556,0.125,0.015
8.558,0.100,0.030
8.560,0.015,0.040
8.562,0.160,0.045
8.564,0.105,0.040
8.566,0.055,0.035
8.568,-0.045,0.025
8.570,-0.005,0.015
8.572,0.095,0.010
8.574,0.070,0.010
8.576,0.090,0.020
8.578,0.140,0.035
8.580,0.125,0.050
8.582,0.085,0.070
8.584,0.040,0.080
8.586,0.110,0.090
8.588,0.160,0.090
8.590,0.095,0.090
8.592,0.120,0.090
8.594,0.095,0.090
8.596,0.205,0.095
8.598,0.185,0.110
8.600,0.185,0.125
8.602,0.145,0.145
8.604,0.205,0.160
8.606,0.190,0.175
8.608,0.250,0.180
8.610,0.205,0.185
8.612,0.230,0.185
8.614,0.230,0.180
8.616,0.225,0.180
8.618,0.165,0.180
8.620,0.260,0.185
8.622,0.275,0.200
8.624,0.265,0.220
8.626,0.225,0.240
8.628,0.275,0.260
8.630,0.375,0.275
8.632,0.370,0.285
8.634,0.265,0.290
8.636,0.395,0.295
8.638,0.315,0.295
8.640,0.355,0.295
8.642,0.395,0.295
8.644,0.300,0.300
8.646,0.335,0.305
8.648,0.335,0.315
8.650,0.415,0.320
8.652,0.360,0.325
8.654,0.345,0.325
8.656,0.365,0.320
8.658,0.420,0.315
8.660,0.365,0.300
8.662,0.305,0.285
8.664,0.250,0.270
8.666,0.285,0.255
8.668,0.290,0.240
8.670,0.285,0.230
8.672,0.210,0.220
8.674,0.275,0.215
8.676,0.295,0.205
8.678,0.260,0.195
8.680,0.245,0.180
8.682,0.180,0.165
8.684,0.120,0.150
8.686,0.170,0.130
8.688,0.195,0.110
8.690,0.125,0.095
8.692,0.170,0.080
8.694,0.115,0.070
8.696,0.105,0.060
8.698,0.090,0.045
8.700,0.085,0.035
8.702,0.005,0.020
8.704,0.045,0.010
8.706,0.055,-0.005
8.708,0.005,-0.020
8.710,0.000,-0.030
8.712,0.020,-0.035
8.714,0.040,-0.040
8.716,0.070,-0.040
8.718,0.055,-0.040
8.720,-0.020,-0.035
8.722,-0.065,-0.035
8.724,-0.080,-0.035
8.726,0.065,-0.035
8.728,0.070,-0.040
8.730,0.040,-0.040
8.732,-0.085,-0.045
8.734,-0.030,-0.040
8.736,0.095,-0.040
8.738,0.045,-0.030
8.740,0.050,-0.025
8.742,0.030,-0.020
8.744,-0.015,-0.015
8.746,0.055,-0.020
8.748,0.045,-0.025
8.750,0.080,-0.035
8.752,-0.110,-0.045
8.754,-0.010,-0.055
8.756,0.015,-0.065
8.758,0.015,-0.070
8.760,0.030,-0.075
8.762,-0.035,-0.075
8.764,-0.040,-0.075
8.766,-0.070,-0.075
8.768,-0.020,-0.075
8.770,0.020,-0.080
8.772,-0.040,-0.085
8.774,-0.105,-0.085
8.776,-0.035,-0.090
8.778,0.040,-0.090
8.780,-0.005,-0.085
8.782,-0.030,-0.080
8.784,-0.090,-0.075
8.786,0.000,-0.065
8.788,0.020,-0.060
8.790,0.060,-0.055
8.792,-0.015,-0.050
8.794,0.005,-0.050
8.796,0.005,-0.045
8.798,-0.055,-0.045
8.800,-0.010,-0.040
8.802,0.085,-0.040
8.804,0.040,-0.035
8.806,0.030,-0.035
8.808,-0.045,-0.035
8.810,0.020,-0.040
8.812,-0.055,-0.040
8.814,-0.020,-0.040
8.816,0.090,-0.035
8.818,0.100,-0.030
8.820,0.090,-0.025
8.822,0.095,-0.015
8.824,0.090,-0.010
8.826,0.020,-0.010
8.828,0.000,-0.010
8.830,-0.045,-0.020
8.832,-0.015,-0.030
8.834,0.045,-0.040
8.836,0.005,-0.055
8.838,0.020,-0.065
8.840,0.045,-0.070
8.842,0.035,-0.070
8.844,-0.015,-0.065
8.846,-0.015,-0.055
8.848,-0.015,-0.045
8.850,-0.010,-0.040
8.852,0.030,-0.035
8.854,0.050,-0.035
8.856,0.035,-0.035
8.858,0.015,-0.040
8.860,0.015,-0.045
8.862,-0.015,-0.055
8.864,-0.100,-0.055
8.866,0.015,-0.055
8.868,0.120,-0.055
8.870,-0.055,-0.050
8.872,-0.080,-0.040
8.874,0.080,-0.035
8.876,0.130,-0.030
8.878,0.005,-0.030
8.880,0.010,-0.030
8.882,0.080,-0.035
8.884,-0.015,-0.040
8.886,0.000,-0.045
8.888,0.005,-0.050
8.890,0.030,-0.055
8.892,-0.010,-0.055
8.894,0.020,-0.055
8.896,0.030,-0.055
8.898,0.015,-0.045
8.900,0.065,-0.040
8.902,-0.015,-0.035
8.904,0.000,-0.025
8.906,0.030,-0.025
8.908,0.035,-0.025
8.910,0.015,-0.025
8.912,0.055,-0.030
8.914,0.015,-0.035
8.916,0.010,-0.040
8.918,0.045,-0.045
8.920,0.065,-0.050
8.922,-0.020,-0.055
8.924,-0.105,-0.060
8.926,-0.015,-0.065
8.928,0.060,-0.065
8.930,0.000,-0.070
8.932,-0.010,-0.075
8.934,-0.030,-0.080
8.936,-0.115,-0.080
8.938,-0.080,-0.080
8.940,0.030,-0.075
8.942,0.095,-0.065
8.944,0.015,-0.055
8.946,-0.010,-0.045
8.948,0.005,-0.030
8.950,0.055,-0.025
8.952,0.085,-0.020
8.954,0.055,-0.025
8.956,0.000,-0.035
8.958,-0.080,-0.045
8.960,-0.005,-0.055
8.962,0.015,-0.060
8.964,-0.030,-0.065
8.966,-0.045,-0.065
8.968,0.020,-0.055
8.970,0.075,-0.045
8.972,0.050,-0.035
8.974,0.030,-0.030
8.976,-0.035,-0.030
8.978,0.000,-0.035
8.980,-0.005,-0.045
8.982,0.020,-0.055
8.984,-0.015,-0.065
8.986,0.035,-0.075
8.988,0.010,-0.075
8.990,-0.055,-0.070
8.992,-0.060,-0.065
8.994,0.085,-0.050
8.996,0.030,-0.040
8.998,-0.030,-0.035
9.000,-0.005,-0.035
9.002,0.095,-0.040
9.004,0.045,-0.045
9.006,-0.055,-0.055
9.008,-0.025,-0.060
9.010,0.040,-0.060
9.012,0.050,-0.060
9.014,0.030,-0.055
9.016,-0.010,-0.045
9.018,-0.005,-0.035
9.020,0.035,-0.030
9.022,0.045,-0.030
9.024,0.015,-0.035
9.026,-0.080,-0.045
9.028,-0.015,-0.055
9.030,0.065,-0.065
9.032,0.055,-0.070
9.034,-0.005,-0.070
9.036,-0.015,-0.070
9.038,-0.060,-0.060
9.040,0.010,-0.050
9.042,0.025,-0.040
9.044,0.010,-0.035
9.046,0.060,-0.035
9.048,0.015,-0.040
9.050,-0.020,-0.050
9.052,0.055,-0.060
9.054,0.020,-0.070
9.056,-0.060,-0.075
9.058,-0.070,-0.075
9.060,-0.050,-0.075
9.062,0.055,-0.065
9.064,0.055,-0.055
9.066,-0.005,-0.045
9.068,-0.025,-0.040
9.070,0.030,-0.040
9.072,0.070,-0.040
9.074,0.065,-0.045
9.076,0.025,-0.055
9.078,-0.085,-0.065
9.080,-0.075,-0.075
9.082,0.040,-0.080
9.084,0.015,-0.075
9.086,0.015,-0.070
9.088,-0.085,-0.060
9.090,-0.100,-0.045
9.092,0.055,-0.030
9.094,0.180,-0.015
9.096,0.070,0.005
9.098,0.025,0.015
9.100,0.095,0.030
9.102,0.085,0.035
9.104,0.150,0.045
9.106,0.040,0.045
9.108,0.170,0.050
9.110,0.115,0.045
9.112,0.145,0.040
9.114,0.040,0.030
9.116,0.075,0.015
9.118,0.055,0.005
9.120,0.050,-0.010
9.122,-0.025,-0.025
9.124,0.030,-0.040
9.126,0.085,-0.050
9.128,0.040,-0.060
9.130,-0.035,-0.065
9.132,-0.095,-0.065
9.134,-0.045,-0.070
9.136,0.040,-0.070
9.138,0.010,-0.065
9.140,0.010,-0.065
9.142,0.020,-0.060
9.144,0.050,-0.055
9.146,-0.015,-0.050
9.148,0.005,-0.045
9.150,0.050,-0.040
9.152,0.050,-0.040
9.154,0.030,-0.045
9.156,0.040,-0.055
9.158,-0.025,-0.060
9.160,0.000,-0.070
9.162,-0.120,-0.080
9.164,0.025,-0.080
9.166,0.065,-0.080
9.168,-0.035,-0.075
9.170,0.015,-0.065
9.172,0.005,-0.060
9.174,-0.030,-0.060
9.176,0.000,-0.060
9.178,-0.045,-0.075
9.180,-0.090,-0.095
9.182,0.020,-0.120
9.184,-0.025,-0.145
9.186,-0.135,-0.170
9.188,-0.185,-0.185
9.190,-0.195,-0.190
9.192,-0.125,-0.180
9.194,-0.180,-0.160
9.196,-0.080,-0.120
9.198,0.100,-0.070
9.200,0.120,-0.015
9.202,0.140,0.050
9.204,0.210,0.115
9.206,0.265,0.185
9.208,0.330,0.260
9.210,0.365,0.330
9.212,0.460,0.395
9.214,0.525,0.455
9.216,0.645,0.500
9.218,0.605,0.530
9.220,0.635,0.535
9.222,0.650,0.515
9.224,0.565,0.465
9.226,0.465,0.395
9.228,0.300,0.305
9.230,0.230,0.200
9.232,0.160,0.095
9.234,-0.025,-0.010
9.236,-0.110,-0.100
9.238,-0.165,-0.170
9.240,-0.185,-0.215
9.242,-0.180,-0.235
9.244,-0.110,-0.235
9.246,-0.055,-0.215
9.248,-0.135,-0.180
9.250,-0.200,-0.140
9.252,-0.085,-0.105
9.254,0.065,-0.075
9.256,0.025,-0.060
9.258,-0.020,-0.055
9.260,0.010,-0.060
9.262,-0.020,-0.070
9.264,0.025,-0.085
9.266,-0.005,-0.100
9.268,-0.110,-0.105
9.270,-0.010,-0.100
9.272,-0.020,-0.090
9.274,-0.010,-0.075
9.276,0.025,-0.060
9.278,0.025,-0.045
9.280,0.000,-0.040
9.282,-0.040,-0.040
9.284,0.045,-0.050
9.286,0.070,-0.060
9.288,0.035,-0.075
9.290,-0.060,-0.080
9.292,-0.060,-0.080
9.294,-0.050,-0.075
9.296,-0.050,-0.055
9.298,0.120,-0.035
9.300,0.085,-0.015
9.302,0.065,0.000
9.304,0.045,0.015
9.306,0.020,0.020
9.308,0.040,0.020
9.310,0.105,0.015
9.312,0.080,0.010
9.314,0.085,0.005
9.316,0.110,0.000
9.318,0.135,0.000
9.320,0.030,0.000
9.322,0.055,-0.005
9.324,0.055,-0.010
9.326,0.000,-0.020
9.328,-0.010,-0.035
9.330,0.025,-0.050
9.332,0.070,-0.060
9.334,-0.020,-0.065
9.336,-0.030,-0.060
9.338,0.030,-0.050
9.340,0.060,-0.035
9.342,0.035,-0.015
9.344,-0.005,0.005
9.346,0.120,0.020
9.348,0.085,0.025
9.350,0.065,0.030
9.352,0.100,0.035
9.354,0.085,0.030
9.356,0.150,0.030
9.358,0.145,0.030
9.360,0.020,0.035
9.362,0.015,0.040
9.364,0.150,0.040
9.366,0.205,0.045
9.368,0.100,0.045
9.370,0.125,0.040
9.372,0.145,0.035
9.374,0.065,0.030
9.376,0.075,0.025
9.378,0.055,0.025
9.380,-0.025,0.030
9.382,0.140,0.035
9.384,0.160,0.040
9.386,0.160,0.050
9.388,0.080,0.055
9.390,0.095,0.060
9.392,0.165,0.065
9.394,0.190,0.075
9.396,0.155,0.080
9.398,0.155,0.095
9.400,0.160,0.110
9.402,0.125,0.125
9.404,0.240,0.145
9.406,0.255,0.160
9.408,0.255,0.175
9.410,0.225,0.185
9.412,0.230,0.195
9.414,0.215,0.205
9.416,0.210,0.215
9.418,0.305,0.225
9.420,0.345,0.240
9.422,0.375,0.255
9.424,0.365,0.270
9.426,0.340,0.280
9.428,0.345,0.285
9.430,0.345,0.290
9.432,0.320,0.285
9.434,0.305,0.280
9.436,0.325,0.270
9.438,0.385,0.265
9.440,0.330,0.265
9.442,0.315,0.270
9.444,0.320,0.275
9.446,0.290,0.285
9.448,0.400,0.295
9.450,0.410,0.300
9.452,0.420,0.305
9.454,0.375,0.300
9.456,0.330,0.295
9.458,0.355,0.280
9.460,0.265,0.265
9.462,0.265,0.245
9.464,0.325,0.230
9.466,0.305,0.210
9.468,0.265,0.190
9.470,0.235,0.170
9.472,0.165,0.155
9.474,0.130,0.135
9.476,0.195,0.120
9.478,0.155,0.105
9.480,0.105,0.095
9.482,0.110,0.090
9.484,0.190,0.085
9.486,0.170,0.085
9.488,0.195,0.080
9.490,0.150,0.075
9.492,0.080,0.065
9.494,0.095,0.050
9.496,0.055,0.035
9.498,0.085,0.020
9.500,0.070,0.000
9.502,0.035,-0.015
9.504,-0.010,-0.030
9.506,0.010,-0.040
9.508,0.060,-0.045
9.510,0.065,-0.045
9.512,0.045,-0.045
9.514,-0.045,-0.045
9.516,0.015,-0.045
9.518,0.040,-0.040
9.520,0.015,-0.040
9.522,0.015,-0.035
9.524,-0.055,-0.030
9.526,-0.065,-0.030
9.528,0.085,-0.025
9.530,0.090,-0.025
9.532,0.075,-0.025
9.534,-0.010,-0.030
9.536,-0.030,-0.040
9.538,-0.005,-0.050
9.540,0.015,-0.060
9.542,0.065,-0.070
9.544,-0.005,-0.075
9.546,-0.065,-0.075
9.548,-0.025,-0.075
9.550,-0.015,-0.075
9.552,0.015,-0.070
9.554,0.005,-0.065
9.556,0.020,-0.060
9.558,-0.005,-0.060
9.560,0.000,-0.060
9.562,-0.010,-0.065
9.564,-0.055,-0.070
9.566,-0.005,-0.075
9.568,-0.060,-0.080
9.570,-0.015,-0.080
9.572,-0.035,-0.080
9.574,-0.045,-0.080
9.576,0.010,-0.080
9.578,0.070,-0.080
9.580,-0.040,-0.075
9.582,-0.035,-0.070
9.584,-0.010,-0.065
9.586,-0.015,-0.060
9.588,0.005,-0.055
9.590,-0.010,-0.050
9.592,0.040,-0.050
9.594,0.015,-0.050
9.596,-0.020,-0.050
9.598,-0.060,-0.055
9.600,0.000,-0.060
9.602,0.025,-0.060
9.604,0.030,-0.060
9.606,-0.010,-0.055
9.608,0.025,-0.050
9.610,0.025,-0.040
9.612,-0.010,-0.030
9.614,0.050,-0.025
9.616,0.025,-0.025
9.618,0.010,-0.025
9.620,-0.030,-0.030
9.622,0.075,-0.035
9.624,-0.035,-0.040
9.626,-0.010,-0.040
9.628,0.075,-0.035
9.630,0.065,-0.030
9.632,0.075,-0.020
9.634,0.040,-0.015
9.636,0.060,-0.015
9.638,-0.035,-0.020
9.640,-0.015,-0.035
9.642,0.005,-0.055
9.644,-0.025,-0.075
9.646,-0.060,-0.090
9.648,-0.050,-0.095
9.650,-0.040,-0.095
9.652,-0.010,-0.090
9.654,-0.085,-0.070
9.656,0.060,-0.050
9.658,0.085,-0.030
9.660,0.040,-0.015
9.662,0.070,-0.005
9.664,0.090,-0.005
9.666,-0.020,-0.005
9.668,0.025,-0.010
9.670,0.015,-0.015
9.672,0.030,-0.020
9.674,0.100,-0.025
9.676,0.045,-0.030
9.678,0.025,-0.030
9.680,0.025,-0.035
9.682,-0.010,-0.040
9.684,-0.065,-0.050
9.686,-0.045,-0.060
9.688,0.005,-0.070
9.690,0.005,-0.075
9.692,0.025,-0.080
9.694,-0.015,-0.075
9.696,-0.005,-0.065
9.698,-0.030,-0.050
9.700,0.065,-0.040
9.702,0.080,-0.025
9.704,0.000,-0.020
9.706,0.040,-0.015
9.708,0.025,-0.020
9.710,-0.020,-0.025
9.712,0.020,-0.035
9.714,0.010,-0.045
9.716,-0.025,-0.055
9.718,-0.035,-0.060
9.720,0.015,-0.065
9.722,-0.015,-0.060
9.724,-0.025,-0.060
9.726,-0.030,-0.055
9.728,0.015,-0.050
9.730,-0.035,-0.045
9.732,-0.075,-0.040
9.734,0.090,-0.040
9.736,0.060,-0.040
9.738,0.005,-0.040
9.740,0.015,-0.040
9.742,-0.015,-0.040
9.744,-0.030,-0.045
9.746,-0.055,-0.045
9.748,-0.060,-0.045
9.750,0.040,-0.045
9.752,0.050,-0.045
9.754,0.035,-0.045
9.756,-0.010,-0.045
9.758,-0.115,-0.050
9.760,0.010,-0.050
9.762,0.050,-0.055
9.764,0.050,-0.060
9.766,-0.060,-0.065
9.768,-0.065,-0.065
9.770,-0.065,-0.070
9.772,0.005,-0.070
9.774,0.025,-0.065
9.776,0.025,-0.060
9.778,0.025,-0.055
9.780,0.020,-0.050
9.782,0.000,-0.045
9.784,-0.035,-0.040
9.786,-0.035,-0.040
9.788,-0.005,-0.040
9.790,-0.005,-0.040
9.792,0.050,-0.040
9.794,0.060,-0.040
9.796,-0.015,-0.040
9.798,-0.010,-0.040
9.800,0.020,-0.040
9.802,0.010,-0.040
9.804,-0.035,-0.045
9.806,0.040,-0.050
9.808,0.000,-0.055
9.810,-0.145,-0.060
9.812,-0.060,-0.065
9.814,0.100,-0.070
9.816,0.010,-0.070
9.818,0.015,-0.060
9.820,-0.015,-0.050
9.822,-0.045,-0.040
9.824,-0.035,-0.030
9.826,0.050,-0.020
9.828,0.050,-0.015
9.830,0.005,-0.020
9.832,0.030,-0.030
9.834,0.010,-0.040
9.836,-0.060,-0.055
9.838,-0.030,-0.070
9.840,0.050,-0.080
9.842,0.040,-0.085
9.844,-0.055,-0.085
9.846,-0.130,-0.085
9.848,-0.065,-0.085
9.850,-0.030,-0.080
9.852,-0.095,-0.075
9.854,0.005,-0.075
9.856,0.080,-0.075
9.858,-0.030,-0.080
9.860,-0.005,-0.080
9.862,-0.015,-0.080
9.864,-0.120,-0.080
9.866,-0.050,-0.070
9.868,0.020,-0.065
9.870,-0.020,-0.050
9.872,0.015,-0.035
9.874,-0.005,-0.020
9.876,0.055,0.000
9.878,0.090,0.015
9.880,0.095,0.030
9.882,0.145,0.035
9.884,0.075,0.040
9.886,0.025,0.040
9.888,0.050,0.030
9.890,-0.010,0.020
9.892,0.050,0.005
9.894,0.130,-0.005
9.896,0.045,-0.015
9.898,0.020,-0.025
9.900,-0.015,-0.030
9.902,-0.060,-0.030
9.904,0.020,-0.030
9.906,0.005,-0.030
9.908,0.040,-0.030
9.910,0.035,-0.030
9.912,-0.020,-0.040
9.914,-0.025,-0.045
9.916,-0.070,-0.055
9.918,-0.010,-0.060
9.920,0.035,-0.065
9.922,-0.025,-0.070
9.924,-0.020,-0.070
9.926,-0.055,-0.065
9.928,-0.095,-0.060
9.930,-0.060,-0.060
9.932,0.055,-0.060
9.934,0.050,-0.060
9.936,-0.035,-0.065
9.938,-0.030,-0.070
9.940,-0.095,-0.080
9.942,-0.070,-0.085
9.944,-0.050,-0.090
9.946,-0.015,-0.095
9.948,0.030,-0.095
9.950,-0.045,-0.095
9.952,-0.140,-0.095
9.954,-0.085,-0.090
9.956,0.010,-0.085
9.958,-0.020,-0.075
9.960,-0.055,-0.065
9.962,-0.050,-0.055
9.964,-0.075,-0.055
9.966,0.005,-0.055
9.968,0.010,-0.070
9.970,-0.050,-0.090
9.972,-0.065,-0.115
9.974,-0.140,-0.145
9.976,-0.130,-0.170
9.978,-0.195,-0.185
9.980,-0.170,-0.190
9.982,-0.155,-0.175
9.984,-0.135,-0.145
9.986,-0.135,-0.100
9.988,0.000,-0.040
9.990,0.155,0.030
9.992,0.220,0.100
9.994,0.255,0.175
9.996,0.310,0.255
9.998,0.330,0.330
