'Elapsed time','ECG I','ECG I filtered'
'seconds','mV','mV'
0.000,0.000,-0.280
0.002,0.055,-0.115
0.004,0.260,-0.010
0.006,0.435,0.075
0.008,0.515,0.110
0.010,0.505,0.100
0.012,0.475,0.060
0.014,0.280,0.000
0.016,0.050,-0.060
0.018,-0.070,-0.100
0.020,0.065,-0.110
0.022,0.115,-0.100
0.024,0.290,-0.070
0.026,0.410,-0.030
0.028,0.500,0.005
0.030,0.480,0.020
0.032,0.445,0.025
0.034,0.250,0.010
0.036,0.045,-0.010
0.038,0.045,-0.025
0.040,0.080,-0.035
0.042,0.155,-0.035
0.044,0.395,-0.020
0.046,0.540,0.000
0.048,0.510,0.025
0.050,0.480,0.045
0.052,0.415,0.050
0.054,0.250,0.045
0.056,0.105,0.030
0.058,0.040,0.010
0.060,0.110,-0.010
0.062,0.155,-0.015
0.064,0.330,-0.015
0.066,0.525,-0.005
0.068,0.575,0.010
0.070,0.535,0.030
0.072,0.465,0.045
0.074,0.245,0.055
0.076,0.115,0.055
0.078,0.040,0.050
0.080,0.105,0.035
0.082,0.210,0.020
0.084,0.385,0.005
0.086,0.560,-0.010
0.088,0.530,-0.020
0.090,0.380,-0.025
0.092,0.365,-0.030
0.094,0.150,-0.035
0.096,0.020,-0.040
0.098,0.010,-0.045
0.100,0.060,-0.050
0.102,0.125,-0.055
0.104,0.315,-0.055
0.106,0.465,-0.050
0.108,0.520,-0.045
0.110,0.475,-0.040
0.112,0.380,-0.035
0.114,0.150,-0.030
0.116,-0.025,-0.035
0.118,0.020,-0.040
0.120,0.030,-0.050
0.122,0.090,-0.060
0.124,0.250,-0.070
0.126,0.445,-0.075
0.128,0.455,-0.080
0.130,0.415,-0.075
0.132,0.355,-0.065
0.134,0.160,-0.055
0.136,0.015,-0.045
0.138,-0.065,-0.040
0.140,0.055,-0.035
0.142,0.155,-0.030
0.144,0.310,-0.035
0.146,0.450,-0.040
0.148,0.470,-0.050
0.150,0.395,-0.055
0.152,0.355,-0.060
0.154,0.170,-0.065
0.156,0.055,-0.060
0.158,0.020,-0.055
0.160,0.000,-0.050
0.162,0.145,-0.040
0.164,0.350,-0.035
0.166,0.455,-0.035
0.168,0.475,-0.035
0.170,0.505,-0.040
0.172,0.390,-0.050
0.174,0.145,-0.065
0.176,-0.055,-0.080
0.178,-0.085,-0.095
0.180,-0.010,-0.115
0.182,0.115,-0.130
0.184,0.260,-0.140
0.186,0.355,-0.140
0.188,0.370,-0.130
0.190,0.345,-0.100
0.192,0.275,-0.045
0.194,0.275,0.035
0.196,0.235,0.145
0.198,0.320,0.275
0.200,0.520,0.420
0.202,0.860,0.575
0.204,1.220,0.715
0.206,1.395,0.835
0.208,1.470,0.925
0.210,1.445,0.965
0.212,1.325,0.960
0.214,1.115,0.905
0.216,1.015,0.815
0.218,0.900,0.690
0.220,0.550,0.550
0.222,0.515,0.410
0.224,0.570,0.280
0.226,0.635,0.165
0.228,0.620,0.080
0.230,0.490,0.015
0.232,0.315,-0.020
0.234,0.110,-0.035
0.236,0.040,-0.040
0.238,0.030,-0.030
0.240,0.065,-0.020
0.242,0.265,-0.010
0.244,0.475,0.000
0.246,0.575,0.000
0.248,0.520,0.000
0.250,0.490,-0.005
0.252,0.305,-0.015
0.254,0.080,-0.025
0.256,-0.040,-0.030
0.258,0.035,-0.035
0.260,0.060,-0.040
0.262,0.295,-0.040
0.264,0.420,-0.040
0.266,0.490,-0.045
0.268,0.440,-0.045
0.270,0.390,-0.045
0.272,0.250,-0.050
0.274,0.100,-0.055
0.276,0.015,-0.060
0.278,0.025,-0.065
0.280,0.055,-0.065
0.282,0.230,-0.065
0.284,0.400,-0.060
0.286,0.530,-0.055
0.288,0.510,-0.050
0.290,0.430,-0.040
0.292,0.235,-0.035
0.294,0.075,-0.030
0.296,0.000,-0.025
0.298,0.005,-0.025
0.300,0.105,-0.025
0.302,0.295,-0.030
0.304,0.440,-0.030
0.306,0.515,-0.035
0.308,0.480,-0.035
0.310,0.455,-0.040
0.312,0.225,-0.040
0.314,0.030,-0.040
0.316,0.025,-0.040
0.318,0.025,-0.040
0.320,0.070,-0.040
0.322,0.270,-0.040
0.324,0.495,-0.035
0.326,0.530,-0.035
0.328,0.480,-0.035
0.330,0.440,-0.030
0.332,0.280,-0.030
0.334,0.070,-0.025
0.336,0.020,-0.025
0.338,0.060,-0.025
0.340,0.115,-0.025
0.342,0.325,-0.025
0.344,0.480,-0.025
0.346,0.515,-0.030
0.348,0.460,-0.030
0.350,0.470,-0.035
0.352,0.225,-0.035
0.354,0.010,-0.030
0.356,-0.005,-0.025
0.358,0.075,-0.020
0.360,0.175,-0.010
0.362,0.355,-0.005
0.364,0.505,0.005
0.366,0.590,0.010
0.368,0.535,0.015
0.370,0.450,0.010
0.372,0.285,0.010
0.374,0.105,0.005
0.376,0.045,-0.005
0.378,0.080,-0.010
0.380,0.135,-0.015
0.382,0.365,-0.015
0.384,0.510,-0.010
0.386,0.575,-0.005
0.388,0.485,0.000
0.390,0.405,0.010
0.392,0.295,0.015
0.394,0.115,0.020
0.396,0.080,0.020
0.398,0.130,0.020
0.400,0.220,0.020
0.402,0.405,0.020
0.404,0.555,0.025
0.406,0.560,0.030
0.408,0.525,0.035
0.410,0.490,0.045
0.412,0.290,0.055
0.414,0.145,0.065
0.416,0.120,0.075
0.418,0.195,0.080
0.420,0.275,0.080
0.422,0.480,0.080
0.424,0.575,0.080
0.426,0.620,0.080
0.428,0.560,0.080
0.430,0.495,0.080
0.432,0.275,0.080
0.434,0.145,0.085
0.436,0.185,0.095
0.438,0.180,0.105
0.440,0.330,0.115
0.442,0.540,0.125
0.444,0.675,0.135
0.446,0.715,0.145
0.448,0.670,0.150
0.450,0.515,0.150
0.452,0.330,0.145
0.454,0.160,0.145
0.456,0.180,0.135
0.458,0.220,0.130
0.460,0.355,0.125
0.462,0.535,0.125
0.464,0.680,0.125
0.466,0.755,0.135
0.468,0.675,0.150
0.470,0.570,0.165
0.472,0.395,0.185
0.474,0.265,0.200
0.476,0.245,0.210
0.478,0.295,0.215
0.480,0.430,0.210
0.482,0.630,0.205
0.484,0.740,0.195
0.486,0.730,0.180
0.488,0.690,0.170
0.490,0.515,0.160
0.492,0.345,0.155
0.494,0.210,0.150
0.496,0.195,0.150
0.498,0.260,0.145
0.500,0.375,0.145
0.502,0.555,0.145
0.504,0.730,0.140
0.506,0.720,0.140
0.508,0.620,0.135
0.510,0.440,0.125
0.512,0.255,0.120
0.514,0.170,0.110
0.516,0.185,0.095
0.518,0.190,0.075
0.520,0.305,0.055
0.522,0.505,0.035
0.524,0.580,0.010
0.526,0.485,-0.010
0.528,0.445,-0.020
0.530,0.295,-0.030
0.532,0.125,-0.030
0.534,0.050,-0.025
0.536,0.080,-0.015
0.538,0.095,-0.005
0.540,0.245,0.000
0.542,0.465,0.005
0.544,0.565,0.000
0.546,0.540,-0.010
0.548,0.455,-0.020
0.550,0.240,-0.035
0.552,0.090,-0.045
0.554,-0.010,-0.050
0.556,0.025,-0.055
0.558,0.090,-0.055
0.560,0.285,-0.055
0.562,0.405,-0.050
0.564,0.460,-0.050
0.566,0.450,-0.050
0.568,0.425,-0.055
0.570,0.265,-0.060
0.572,0.070,-0.065
0.574,-0.010,-0.065
0.576,-0.060,-0.065
0.578,0.070,-0.060
0.580,0.335,-0.050
0.582,0.470,-0.040
0.584,0.525,-0.040
0.586,0.510,-0.040
0.588,0.395,-0.050
0.590,0.215,-0.065
0.592,-0.035,-0.085
0.594,-0.115,-0.105
0.596,-0.045,-0.125
0.598,0.020,-0.135
0.600,0.210,-0.135
0.602,0.415,-0.125
0.604,0.510,-0.105
0.606,0.520,-0.085
0.608,0.425,-0.060
0.610,0.250,-0.040
0.612,0.060,-0.025
0.614,-0.020,-0.020
0.616,0.065,-0.025
0.618,0.090,-0.030
0.620,0.330,-0.045
0.622,0.470,-0.055
0.624,0.490,-0.065
0.626,0.480,-0.075
0.628,0.390,-0.075
0.630,0.170,-0.075
0.632,0.045,-0.070
0.634,0.010,-0.060
0.636,0.020,-0.055
0.638,0.130,-0.050
0.640,0.315,-0.050
0.642,0.460,-0.050
0.644,0.460,-0.050
0.646,0.420,-0.055
0.648,0.420,-0.055
0.650,0.205,-0.060
0.652,0.055,-0.060
0.654,-0.005,-0.065
0.656,-0.015,-0.070
0.658,0.050,-0.075
0.660,0.300,-0.075
0.662,0.460,-0.080
0.664,0.470,-0.085
0.666,0.480,-0.085
0.668,0.375,-0.085
0.670,0.210,-0.080
0.672,0.030,-0.075
0.674,-0.050,-0.070
0.676,0.030,-0.065
0.678,0.100,-0.060
0.680,0.300,-0.055
0.682,0.460,-0.050
0.684,0.515,-0.045
0.686,0.550,-0.040
0.688,0.455,-0.035
0.690,0.210,-0.035
0.692,0.035,-0.035
0.694,-0.010,-0.040
0.696,0.010,-0.050
0.698,0.120,-0.060
0.700,0.300,-0.070
0.702,0.480,-0.075
0.704,0.510,-0.080
0.706,0.435,-0.080
0.708,0.350,-0.075
0.710,0.140,-0.065
0.712,0.035,-0.055
0.714,0.025,-0.045
0.716,0.055,-0.035
0.718,0.145,-0.030
0.720,0.320,-0.030
0.722,0.480,-0.035
0.724,0.555,-0.045
0.726,0.455,-0.055
0.728,0.350,-0.060
0.730,0.145,-0.065
0.732,-0.020,-0.065
0.734,0.025,-0.065
0.736,0.010,-0.060
0.738,0.090,-0.055
0.740,0.355,-0.055
0.742,0.490,-0.055
0.744,0.490,-0.060
0.746,0.440,-0.065
0.748,0.350,-0.070
0.750,0.145,-0.070
0.752,0.010,-0.070
0.754,-0.010,-0.070
0.756,0.065,-0.070
0.758,0.150,-0.065
0.760,0.360,-0.065
0.762,0.490,-0.070
0.764,0.465,-0.075
0.766,0.435,-0.080
0.768,0.315,-0.085
0.770,0.120,-0.085
0.772,-0.005,-0.080
0.774,0.000,-0.075
0.776,0.045,-0.065
0.778,0.155,-0.055
0.780,0.365,-0.045
0.782,0.485,-0.040
0.784,0.495,-0.040
0.786,0.435,-0.045
0.788,0.310,-0.055
0.790,0.100,-0.070
0.792,-0.035,-0.080
0.794,-0.025,-0.090
0.796,0.055,-0.095
0.798,0.195,-0.095
0.800,0.375,-0.085
0.802,0.475,-0.080
0.804,0.490,-0.065
0.806,0.450,-0.055
0.808,0.305,-0.045
0.810,0.090,-0.040
0.812,0.010,-0.035
0.814,0.040,-0.030
0.816,0.090,-0.030
0.818,0.270,-0.035
0.820,0.445,-0.035
0.822,0.525,-0.035
0.824,0.505,-0.035
0.826,0.450,-0.035
0.828,0.265,-0.035
0.830,0.095,-0.035
0.832,0.025,-0.030
0.834,0.040,-0.030
0.836,0.105,-0.030
0.838,0.260,-0.030
0.840,0.400,-0.030
0.842,0.515,-0.030
0.844,0.555,-0.035
0.846,0.485,-0.035
0.848,0.350,-0.030
0.850,0.140,-0.030
0.852,-0.005,-0.025
0.854,0.010,-0.015
0.856,0.065,-0.010
0.858,0.275,0.000
0.860,0.500,0.005
0.862,0.575,0.005
0.864,0.560,0.005
0.866,0.530,0.005
0.868,0.345,0.000
0.870,0.115,0.000
0.872,0.025,0.000
0.874,0.040,0.000
0.876,0.105,0.000
0.878,0.325,0.000
0.880,0.485,-0.005
0.882,0.600,-0.010
0.884,0.510,-0.025
0.886,0.405,-0.045
0.888,0.240,-0.065
0.890,0.045,-0.080
0.892,-0.035,-0.095
0.894,-0.010,-0.100
0.896,0.035,-0.095
0.898,0.205,-0.085
0.900,0.430,-0.070
0.902,0.495,-0.050
0.904,0.475,-0.035
0.906,0.480,-0.030
0.908,0.285,-0.035
0.910,0.065,-0.045
0.912,-0.015,-0.065
0.914,0.005,-0.090
0.916,0.000,-0.105
0.918,0.180,-0.120
0.920,0.365,-0.120
0.922,0.495,-0.115
0.924,0.515,-0.100
0.926,0.445,-0.075
0.928,0.220,-0.060
0.930,0.005,-0.045
0.932,-0.010,-0.035
0.934,0.035,-0.040
0.936,0.080,-0.050
0.938,0.260,-0.060
0.940,0.440,-0.075
0.942,0.460,-0.090
0.944,0.460,-0.095
0.946,0.425,-0.100
0.948,0.190,-0.095
0.950,0.005,-0.090
0.952,-0.020,-0.085
0.954,-0.005,-0.080
0.956,0.065,-0.080
0.958,0.240,-0.080
0.960,0.420,-0.080
0.962,0.495,-0.085
0.964,0.445,-0.085
0.966,0.375,-0.090
0.968,0.195,-0.090
0.970,-0.010,-0.090
0.972,-0.065,-0.095
0.974,-0.015,-0.105
0.976,0.035,-0.115
0.978,0.190,-0.125
0.980,0.360,-0.135
0.982,0.430,-0.135
0.984,0.415,-0.120
0.986,0.385,-0.090
0.988,0.205,-0.035
0.990,0.085,0.045
0.992,0.200,0.140
0.994,0.340,0.255
0.996,0.540,0.380
0.998,0.885,0.505
1.000,1.230,0.620
1.002,1.345,0.715
1.004,1.360,0.780
1.006,1.250,0.805
1.008,1.065,0.795
1.010,0.910,0.745
1.012,0.860,0.660
1.014,0.695,0.550
1.016,0.530,0.425
1.018,0.525,0.300
1.020,0.540,0.185
1.022,0.585,0.085
1.024,0.535,0.010
1.026,0.405,-0.035
1.028,0.190,-0.060
1.030,0.020,-0.065
1.032,-0.015,-0.060
1.034,0.050,-0.045
1.036,0.175,-0.035
1.038,0.370,-0.030
1.040,0.475,-0.030
1.042,0.485,-0.040
1.044,0.475,-0.045
1.046,0.390,-0.055
1.048,0.165,-0.060
1.050,-0.005,-0.060
1.052,-0.015,-0.055
1.054,0.040,-0.050
1.056,0.165,-0.045
1.058,0.395,-0.040
1.060,0.475,-0.040
1.062,0.480,-0.045
1.064,0.410,-0.055
1.066,0.345,-0.060
1.068,0.145,-0.070
1.070,-0.045,-0.075
1.072,-0.030,-0.075
1.074,0.005,-0.070
1.076,0.185,-0.060
1.078,0.400,-0.055
1.080,0.520,-0.045
1.082,0.510,-0.040
1.084,0.445,-0.035
1.086,0.290,-0.040
1.088,0.120,-0.045
1.090,-0.020,-0.055
1.092,0.005,-0.060
1.094,0.060,-0.065
1.096,0.130,-0.070
1.098,0.265,-0.070
1.100,0.505,-0.065
1.102,0.540,-0.055
1.104,0.470,-0.050
1.106,0.300,-0.040
1.108,0.055,-0.040
1.110,0.035,-0.040
1.112,-0.005,-0.045
1.114,0.000,-0.050
1.116,0.225,-0.055
1.118,0.390,-0.060
1.120,0.480,-0.065
1.122,0.480,-0.065
1.124,0.420,-0.060
1.126,0.270,-0.055
1.128,0.130,-0.045
1.130,0.000,-0.040
1.132,0.025,-0.030
1.134,0.075,-0.030
1.136,0.235,-0.030
1.138,0.460,-0.030
1.140,0.585,-0.030
1.142,0.525,-0.030
1.144,0.410,-0.030
1.146,0.290,-0.025
1.148,0.095,-0.025
1.150,0.020,-0.020
1.152,0.005,-0.015
1.154,0.080,-0.015
1.156,0.285,-0.015
1.158,0.485,-0.020
1.160,0.540,-0.020
1.162,0.555,-0.025
1.164,0.475,-0.025
1.166,0.300,-0.020
1.168,0.085,-0.020
1.170,0.005,-0.015
1.172,0.035,-0.010
1.174,0.075,-0.005
1.176,0.280,-0.005
1.178,0.500,-0.005
1.180,0.600,-0.010
1.182,0.575,-0.010
1.184,0.480,-0.010
1.186,0.260,-0.005
1.188,0.040,0.000
1.190,0.030,0.010
1.192,0.065,0.015
1.194,0.160,0.025
1.196,0.335,0.030
1.198,0.490,0.035
1.200,0.610,0.035
1.202,0.625,0.035
1.204,0.545,0.030
1.206,0.335,0.030
1.208,0.135,0.030
1.210,0.035,0.025
1.212,0.055,0.030
1.214,0.095,0.030
1.216,0.345,0.030
1.218,0.560,0.035
1.220,0.670,0.040
1.222,0.560,0.050
1.224,0.535,0.060
1.226,0.375,0.075
1.228,0.210,0.085
1.230,0.170,0.100
1.232,0.185,0.115
1.234,0.245,0.120
1.236,0.425,0.125
1.238,0.600,0.125
1.240,0.705,0.120
1.242,0.650,0.110
1.244,0.550,0.105
1.246,0.405,0.100
1.248,0.195,0.105
1.250,0.150,0.110
1.252,0.190,0.125
1.254,0.305,0.140
1.256,0.510,0.160
1.258,0.660,0.175
1.260,0.745,0.185
1.262,0.775,0.190
1.264,0.650,0.190
1.266,0.410,0.185
1.268,0.220,0.175
1.270,0.175,0.165
1.272,0.235,0.155
1.274,0.285,0.145
1.276,0.510,0.145
1.278,0.680,0.145
1.280,0.725,0.150
1.282,0.670,0.160
1.284,0.625,0.170
1.286,0.405,0.180
1.288,0.260,0.190
1.290,0.235,0.195
1.292,0.240,0.195
1.294,0.355,0.190
1.296,0.550,0.180
1.298,0.670,0.165
1.300,0.695,0.150
1.302,0.635,0.130
1.304,0.575,0.115
1.306,0.285,0.100
1.308,0.135,0.085
1.310,0.120,0.075
1.312,0.145,0.065
1.314,0.160,0.060
1.316,0.420,0.050
1.318,0.575,0.045
1.320,0.605,0.035
1.322,0.525,0.025
1.324,0.440,0.015
1.326,0.190,0.000
1.328,0.050,-0.015
1.330,0.035,-0.030
1.332,0.090,-0.040
1.334,0.145,-0.050
1.336,0.270,-0.060
1.338,0.440,-0.065
1.340,0.455,-0.070
1.342,0.445,-0.070
1.344,0.360,-0.075
1.346,0.140,-0.075
1.348,-0.030,-0.080
1.350,-0.060,-0.085
1.352,-0.005,-0.085
1.354,0.150,-0.085
1.356,0.345,-0.080
1.358,0.475,-0.070
1.360,0.525,-0.060
1.362,0.485,-0.050
1.364,0.360,-0.040
1.366,0.150,-0.035
1.368,-0.020,-0.030
1.370,0.000,-0.030
1.372,0.010,-0.035
1.374,0.170,-0.045
1.376,0.330,-0.055
1.378,0.495,-0.065
1.380,0.500,-0.065
1.382,0.445,-0.065
1.384,0.365,-0.055
1.386,0.125,-0.045
1.388,0.030,-0.030
1.390,0.060,-0.015
1.392,0.015,-0.005
1.394,0.200,0.000
1.396,0.430,-0.005
1.398,0.570,-0.020
1.400,0.470,-0.040
1.402,0.395,-0.060
1.404,0.315,-0.080
1.406,0.070,-0.095
1.408,-0.045,-0.105
1.410,-0.060,-0.100
1.412,0.015,-0.090
1.414,0.090,-0.075
1.416,0.375,-0.060
1.418,0.550,-0.045
1.420,0.555,-0.035
1.422,0.430,-0.030
1.424,0.265,-0.030
1.426,0.060,-0.040
1.428,0.000,-0.050
1.430,0.010,-0.055
1.432,0.025,-0.065
1.434,0.210,-0.065
1.436,0.360,-0.065
1.438,0.495,-0.060
1.440,0.530,-0.050
1.442,0.450,-0.045
1.444,0.310,-0.040
1.446,0.160,-0.035
1.448,0.010,-0.035
1.450,-0.015,-0.035
1.452,0.030,-0.040
1.454,0.190,-0.040
1.456,0.375,-0.040
1.458,0.505,-0.040
1.460,0.515,-0.040
1.462,0.485,-0.040
1.464,0.300,-0.040
1.466,0.070,-0.040
1.468,-0.025,-0.045
1.470,-0.020,-0.050
1.472,0.020,-0.055
1.474,0.220,-0.055
1.476,0.420,-0.060
1.478,0.490,-0.060
1.480,0.480,-0.055
1.482,0.435,-0.055
1.484,0.275,-0.050
1.486,0.105,-0.045
1.488,-0.085,-0.045
1.490,-0.025,-0.045
1.492,0.080,-0.045
1.494,0.255,-0.045
1.496,0.405,-0.045
1.498,0.475,-0.045
1.500,0.450,-0.045
1.502,0.450,-0.040
1.504,0.255,-0.035
1.506,0.065,-0.035
1.508,-0.010,-0.030
1.510,-0.005,-0.035
1.512,0.075,-0.035
1.514,0.275,-0.045
1.516,0.415,-0.050
1.518,0.445,-0.055
1.520,0.465,-0.055
1.522,0.470,-0.055
1.524,0.225,-0.050
1.526,0.010,-0.045
1.528,-0.025,-0.040
1.530,0.055,-0.035
1.532,0.130,-0.030
1.534,0.290,-0.035
1.536,0.410,-0.040
1.538,0.445,-0.050
1.540,0.430,-0.060
1.542,0.360,-0.070
1.544,0.190,-0.075
1.546,0.025,-0.085
1.548,-0.055,-0.085
1.550,0.005,-0.090
1.552,0.065,-0.085
1.554,0.225,-0.085
1.556,0.390,-0.080
1.558,0.485,-0.075
1.560,0.465,-0.070
1.562,0.380,-0.060
1.564,0.225,-0.050
1.566,0.055,-0.040
1.568,0.005,-0.030
1.570,0.010,-0.025
1.572,0.035,-0.025
1.574,0.300,-0.030
1.576,0.475,-0.035
1.578,0.550,-0.050
1.580,0.480,-0.060
1.582,0.385,-0.070
1.584,0.120,-0.080
1.586,-0.050,-0.085
1.588,-0.140,-0.080
1.590,0.000,-0.070
1.592,0.140,-0.060
1.594,0.375,-0.050
1.596,0.470,-0.035
1.598,0.520,-0.025
1.600,0.470,-0.020
1.602,0.350,-0.020
1.604,0.170,-0.020
1.606,0.040,-0.025
1.608,0.015,-0.025
1.610,0.095,-0.030
1.612,0.145,-0.035
1.614,0.335,-0.035
1.616,0.485,-0.035
1.618,0.545,-0.030
1.620,0.505,-0.020
1.622,0.415,-0.015
1.624,0.185,-0.005
1.626,0.040,0.000
1.628,0.040,0.005
1.630,0.040,0.010
1.632,0.145,0.010
1.634,0.420,0.005
1.636,0.535,0.000
1.638,0.515,-0.005
1.640,0.435,-0.010
1.642,0.385,-0.015
1.644,0.195,-0.020
1.646,-0.005,-0.020
1.648,0.000,-0.020
1.650,0.045,-0.020
1.652,0.145,-0.020
1.654,0.350,-0.025
1.656,0.500,-0.030
1.658,0.505,-0.035
1.660,0.455,-0.045
1.662,0.390,-0.055
1.664,0.085,-0.065
1.666,-0.070,-0.070
1.668,-0.080,-0.075
1.670,0.000,-0.075
1.672,0.125,-0.070
1.674,0.330,-0.070
1.676,0.465,-0.065
1.678,0.470,-0.065
1.680,0.425,-0.070
1.682,0.340,-0.075
1.684,0.085,-0.080
1.686,-0.035,-0.085
1.688,-0.075,-0.090
1.690,-0.005,-0.090
1.692,0.135,-0.090
1.694,0.320,-0.085
1.696,0.435,-0.085
1.698,0.505,-0.080
1.700,0.480,-0.075
1.702,0.205,-0.075
1.704,0.090,-0.075
1.706,-0.060,-0.075
1.708,-0.040,-0.075
1.710,-0.020,-0.075
1.712,0.095,-0.075
1.714,0.375,-0.075
1.716,0.460,-0.080
1.718,0.385,-0.085
1.720,0.425,-0.085
1.722,0.255,-0.090
1.724,0.105,-0.095
1.726,-0.055,-0.095
1.728,-0.120,-0.090
1.730,-0.055,-0.085
1.732,0.145,-0.075
1.734,0.380,-0.070
1.736,0.525,-0.060
1.738,0.500,-0.055
1.740,0.470,-0.060
1.742,0.320,-0.070
1.744,0.040,-0.085
1.746,-0.105,-0.105
1.748,-0.200,-0.125
1.750,-0.110,-0.140
1.752,0.040,-0.145
1.754,0.300,-0.130
1.756,0.415,-0.095
1.758,0.505,-0.030
1.760,0.610,0.060
1.762,0.530,0.170
1.764,0.430,0.300
1.766,0.510,0.435
1.768,0.640,0.565
1.770,0.775,0.675
1.772,0.970,0.760
1.774,1.230,0.805
1.776,1.315,0.810
1.778,1.350,0.770
1.780,1.335,0.695
1.782,1.105,0.595
1.784,0.585,0.480
1.786,0.175,0.355
1.788,0.130,0.240
1.790,0.095,0.135
1.792,0.285,0.055
1.794,0.495,-0.005
1.796,0.560,-0.040
1.798,0.500,-0.060
1.800,0.425,-0.060
1.802,0.240,-0.055
1.804,0.055,-0.050
1.806,-0.055,-0.040
1.808,-0.030,-0.035
1.810,0.045,-0.035
1.812,0.250,-0.035
1.814,0.410,-0.045
1.816,0.470,-0.055
1.818,0.415,-0.060
1.820,0.410,-0.065
1.822,0.275,-0.070
1.824,0.050,-0.065
1.826,-0.020,-0.060
1.828,-0.045,-0.055
1.830,0.040,-0.045
1.832,0.245,-0.040
1.834,0.490,-0.035
1.836,0.500,-0.035
1.838,0.445,-0.040
1.840,0.425,-0.040
1.842,0.205,-0.045
1.844,0.010,-0.045
1.846,-0.030,-0.050
1.848,-0.050,-0.055
1.850,0.010,-0.055
1.852,0.250,-0.060
1.854,0.455,-0.060
1.856,0.500,-0.065
1.858,0.440,-0.065
1.860,0.390,-0.065
1.862,0.150,-0.060
1.864,-0.020,-0.055
1.866,-0.020,-0.045
1.868,0.060,-0.040
1.870,0.090,-0.030
1.872,0.295,-0.025
1.874,0.475,-0.020
1.876,0.535,-0.020
1.878,0.440,-0.025
1.880,0.385,-0.030
1.882,0.210,-0.035
1.884,0.000,-0.040
1.886,-0.035,-0.040
1.888,0.005,-0.045
1.890,0.085,-0.045
1.892,0.285,-0.040
1.894,0.470,-0.040
1.896,0.525,-0.040
1.898,0.500,-0.040
1.900,0.410,-0.045
1.902,0.140,-0.045
1.904,-0.015,-0.045
1.906,-0.075,-0.045
1.908,0.040,-0.040
1.910,0.145,-0.030
1.912,0.290,-0.020
1.914,0.480,-0.015
1.916,0.525,-0.005
1.918,0.485,0.000
1.920,0.380,0.000
1.922,0.185,-0.005
1.924,0.025,-0.010
1.926,-0.005,-0.020
1.928,0.060,-0.025
1.930,0.195,-0.030
1.932,0.300,-0.035
1.934,0.450,-0.035
1.936,0.510,-0.030
1.938,0.430,-0.025
1.940,0.375,-0.020
1.942,0.165,-0.015
1.944,0.010,-0.015
1.946,0.010,-0.010
1.948,0.080,-0.010
1.950,0.145,-0.005
1.952,0.360,-0.005
1.954,0.495,0.000
1.956,0.530,0.005
1.958,0.420,0.010
1.960,0.440,0.015
1.962,0.200,0.020
1.964,0.085,0.020
1.966,0.010,0.020
1.968,0.030,0.020
1.970,0.190,0.025
1.972,0.410,0.025
1.974,0.550,0.030
1.976,0.615,0.040
1.978,0.590,0.050
1.980,0.405,0.060
1.982,0.205,0.070
1.984,0.110,0.075
1.986,0.030,0.080
1.988,0.115,0.075
1.990,0.245,0.070
1.992,0.400,0.060
1.994,0.640,0.050
1.996,0.595,0.040
1.998,0.530,0.035
2.000,0.375,0.035
2.002,0.165,0.040
2.004,0.045,0.050
2.006,0.040,0.065
2.008,0.155,0.080
2.010,0.300,0.100
2.012,0.540,0.115
2.014,0.675,0.125
2.016,0.675,0.135
2.018,0.635,0.140
2.020,0.460,0.145
2.022,0.195,0.150
2.024,0.150,0.150
2.026,0.170,0.150
2.028,0.240,0.155
2.030,0.415,0.155
2.032,0.615,0.160
2.034,0.710,0.160
2.036,0.655,0.160
2.038,0.605,0.165
2.040,0.490,0.165
2.042,0.270,0.165
2.044,0.155,0.165
2.046,0.185,0.165
2.048,0.265,0.165
2.050,0.490,0.165
2.052,0.560,0.165
2.054,0.670,0.165
2.056,0.660,0.160
2.058,0.625,0.160
2.060,0.440,0.155
2.062,0.250,0.150
2.064,0.125,0.140
2.066,0.155,0.130
2.068,0.160,0.115
2.070,0.345,0.100
2.072,0.525,0.080
2.074,0.685,0.065
2.076,0.520,0.045
2.078,0.475,0.030
2.080,0.330,0.015
2.082,0.115,0.010
2.084,-0.005,0.010
2.086,0.050,0.010
2.088,0.045,0.015
2.090,0.305,0.015
2.092,0.445,0.015
2.094,0.520,0.010
2.096,0.520,0.000
2.098,0.405,-0.015
2.100,0.225,-0.035
2.102,0.005,-0.050
2.104,-0.100,-0.065
2.106,-0.060,-0.075
2.108,0.005,-0.075
2.110,0.210,-0.070
2.112,0.460,-0.060
2.114,0.490,-0.050
2.116,0.445,-0.045
2.118,0.420,-0.045
2.120,0.195,-0.050
2.122,-0.025,-0.065
2.124,-0.090,-0.080
2.126,-0.055,-0.100
2.128,-0.060,-0.120
2.130,0.140,-0.130
2.132,0.375,-0.130
2.134,0.470,-0.125
2.136,0.455,-0.115
2.138,0.395,-0.100
2.140,0.145,-0.085
2.142,-0.015,-0.075
2.144,-0.140,-0.065
2.146,-0.090,-0.070
2.148,0.005,-0.075
2.150,0.195,-0.080
2.152,0.360,-0.085
2.154,0.460,-0.090
2.156,0.460,-0.090
2.158,0.410,-0.085
2.160,0.165,-0.075
2.162,-0.015,-0.065
2.164,-0.065,-0.060
2.166,-0.025,-0.050
2.168,0.045,-0.050
2.170,0.250,-0.050
2.172,0.410,-0.050
2.174,0.510,-0.055
2.176,0.465,-0.055
2.178,0.365,-0.060
2.180,0.155,-0.065
2.182,0.010,-0.065
2.184,-0.085,-0.070
2.186,-0.070,-0.080
2.188,0.050,-0.085
2.190,0.215,-0.090
2.192,0.425,-0.095
2.194,0.400,-0.100
2.196,0.370,-0.095
2.198,0.325,-0.090
2.200,0.165,-0.075
2.202,-0.035,-0.065
2.204,-0.025,-0.050
2.206,0.030,-0.045
2.208,0.095,-0.040
2.210,0.305,-0.045
2.212,0.425,-0.050
2.214,0.415,-0.065
2.216,0.360,-0.075
2.218,0.320,-0.085
2.220,0.105,-0.090
2.222,-0.075,-0.090
2.224,-0.070,-0.080
2.226,0.010,-0.075
2.228,0.110,-0.060
2.230,0.305,-0.055
2.232,0.425,-0.050
2.234,0.480,-0.050
2.236,0.410,-0.055
2.238,0.340,-0.060
2.240,0.100,-0.070
2.242,-0.080,-0.075
2.244,-0.070,-0.080
2.246,0.000,-0.075
2.248,0.090,-0.070
2.250,0.310,-0.065
2.252,0.455,-0.055
2.254,0.485,-0.045
2.256,0.465,-0.040
2.258,0.360,-0.040
2.260,0.145,-0.040
2.262,-0.065,-0.045
2.264,-0.090,-0.055
2.266,-0.035,-0.065
2.268,0.075,-0.070
2.270,0.320,-0.075
2.272,0.440,-0.080
2.274,0.395,-0.085
2.276,0.410,-0.085
2.278,0.270,-0.085
2.280,0.085,-0.085
2.282,-0.045,-0.080
2.284,-0.095,-0.075
2.286,0.000,-0.075
2.288,0.160,-0.070
2.290,0.335,-0.070
2.292,0.455,-0.070
2.294,0.420,-0.070
2.296,0.400,-0.075
2.298,0.300,-0.085
2.300,0.030,-0.090
2.302,-0.115,-0.095
2.304,-0.125,-0.100
2.306,-0.035,-0.100
2.308,0.155,-0.100
2.310,0.340,-0.090
2.312,0.465,-0.080
2.314,0.475,-0.070
2.316,0.395,-0.055
2.318,0.245,-0.050
2.320,0.060,-0.045
2.322,-0.045,-0.045
2.324,0.005,-0.050
2.326,0.065,-0.060
2.328,0.125,-0.070
2.330,0.300,-0.085
2.332,0.430,-0.095
2.334,0.430,-0.105
2.336,0.365,-0.105
2.338,0.190,-0.105
2.340,0.030,-0.100
2.342,-0.075,-0.090
2.344,-0.075,-0.085
2.346,0.055,-0.075
2.348,0.145,-0.075
2.350,0.400,-0.070
2.352,0.430,-0.075
2.354,0.415,-0.075
2.356,0.345,-0.080
2.358,0.215,-0.080
2.360,0.025,-0.080
2.362,-0.040,-0.075
2.364,-0.020,-0.070
2.366,0.035,-0.070
2.368,0.220,-0.065
2.370,0.365,-0.060
2.372,0.480,-0.060
2.374,0.450,-0.060
2.376,0.370,-0.060
2.378,0.225,-0.060
2.380,0.035,-0.055
2.382,-0.045,-0.050
2.384,0.030,-0.040
2.386,0.055,-0.030
2.388,0.265,-0.020
2.390,0.430,-0.015
2.392,0.490,-0.010
2.394,0.465,-0.010
2.396,0.485,-0.015
2.398,0.270,-0.020
2.400,0.010,-0.030
2.402,-0.090,-0.035
2.404,-0.050,-0.040
2.406,0.035,-0.045
2.408,0.275,-0.040
2.410,0.420,-0.040
2.412,0.525,-0.035
2.414,0.565,-0.030
2.416,0.465,-0.030
2.418,0.165,-0.035
2.420,0.020,-0.040
2.422,-0.050,-0.050
2.424,-0.055,-0.065
2.426,0.005,-0.075
2.428,0.185,-0.085
2.430,0.410,-0.090
2.432,0.445,-0.095
2.434,0.395,-0.090
2.436,0.370,-0.085
2.438,0.170,-0.075
2.440,-0.010,-0.065
2.442,-0.130,-0.060
2.444,-0.015,-0.055
2.446,0.055,-0.050
2.448,0.255,-0.050
2.450,0.435,-0.055
2.452,0.455,-0.065
2.454,0.405,-0.070
2.456,0.345,-0.080
2.458,0.160,-0.085
2.460,0.005,-0.085
2.462,-0.055,-0.085
2.464,-0.060,-0.080
2.466,0.000,-0.070
2.468,0.245,-0.060
2.470,0.435,-0.050
2.472,0.470,-0.045
2.474,0.480,-0.040
2.476,0.455,-0.040
2.478,0.205,-0.050
2.480,0.005,-0.060
2.482,-0.040,-0.070
2.484,-0.115,-0.080
2.486,-0.055,-0.090
2.488,0.185,-0.095
2.490,0.400,-0.090
2.492,0.490,-0.085
2.494,0.460,-0.075
2.496,0.400,-0.065
2.498,0.180,-0.060
2.500,-0.010,-0.060
2.502,-0.110,-0.070
2.504,-0.050,-0.085
2.506,0.020,-0.105
2.508,0.155,-0.130
2.510,0.340,-0.145
2.512,0.375,-0.150
2.514,0.375,-0.135
2.516,0.340,-0.100
2.518,0.175,-0.040
2.520,0.090,0.045
2.522,0.170,0.150
2.524,0.335,0.270
2.526,0.520,0.400
2.528,0.880,0.535
2.530,1.205,0.655
2.532,1.395,0.765
2.534,1.385,0.845
2.536,1.235,0.900
2.538,1.115,0.910
2.540,1.015,0.885
2.542,0.965,0.820
2.544,1.005,0.720
2.546,0.725,0.600
2.548,0.655,0.465
2.550,0.690,0.330
2.552,0.635,0.205
2.554,0.535,0.105
2.556,0.430,0.035
2.558,0.180,-0.010
2.560,0.045,-0.025
2.562,-0.035,-0.025
2.564,0.035,-0.010
2.566,0.195,0.005
2.568,0.390,0.015
2.570,0.550,0.020
2.572,0.560,0.020
2.574,0.510,0.010
2.576,0.385,-0.005
2.578,0.120,-0.015
2.580,-0.055,-0.025
2.582,-0.060,-0.030
2.584,0.065,-0.030
2.586,0.200,-0.030
2.588,0.370,-0.025
2.590,0.510,-0.020
2.592,0.490,-0.020
2.594,0.380,-0.020
2.596,0.370,-0.025
2.598,0.105,-0.030
2.600,0.045,-0.030
2.602,-0.010,-0.030
2.604,-0.025,-0.030
2.606,0.180,-0.025
2.608,0.395,-0.020
2.610,0.500,-0.020
2.612,0.520,-0.015
2.614,0.470,-0.015
2.616,0.360,-0.015
2.618,0.140,-0.020
2.620,0.035,-0.030
2.622,-0.065,-0.035
2.624,-0.005,-0.045
2.626,0.130,-0.055
2.628,0.330,-0.060
2.630,0.495,-0.065
2.632,0.515,-0.065
2.634,0.420,-0.060
2.636,0.275,-0.050
2.638,0.105,-0.040
2.640,0.005,-0.025
2.642,0.005,-0.015
2.644,0.100,-0.005
2.646,0.280,0.000
2.648,0.475,0.000
2.650,0.595,-0.005
2.652,0.470,-0.015
2.654,0.385,-0.025
2.656,0.295,-0.035
2.658,0.125,-0.040
2.660,-0.080,-0.045
2.662,-0.055,-0.045
2.664,0.055,-0.045
2.666,0.260,-0.045
2.668,0.395,-0.040
2.670,0.480,-0.040
2.672,0.505,-0.035
2.674,0.460,-0.035
2.676,0.240,-0.030
2.678,0.050,-0.025
2.680,-0.005,-0.020
2.682,0.020,-0.015
2.684,0.090,-0.015
2.686,0.255,-0.010
2.688,0.425,-0.010
2.690,0.560,-0.010
2.692,0.530,-0.015
2.694,0.435,-0.015
2.696,0.255,-0.015
2.698,0.075,-0.015
2.700,-0.015,-0.015
2.702,0.030,-0.005
2.704,0.105,0.000
2.706,0.265,0.010
2.708,0.445,0.015
2.710,0.565,0.020
2.712,0.570,0.020
2.714,0.575,0.015
2.716,0.310,0.015
2.718,0.055,0.010
2.720,-0.065,0.005
2.722,0.030,0.005
2.724,0.115,0.010
2.726,0.325,0.015
2.728,0.500,0.020
2.730,0.545,0.025
2.732,0.530,0.030
2.734,0.510,0.035
2.736,0.310,0.040
2.738,0.105,0.040
2.740,0.045,0.040
2.742,0.065,0.040
2.744,0.145,0.040
2.746,0.370,0.040
2.748,0.555,0.040
2.750,0.590,0.040
2.752,0.515,0.040
2.754,0.505,0.040
2.756,0.290,0.045
2.758,0.125,0.050
2.760,0.055,0.055
2.762,0.105,0.060
2.764,0.195,0.070
2.766,0.415,0.080
2.768,0.610,0.095
2.770,0.705,0.110
2.772,0.685,0.125
2.774,0.615,0.140
2.776,0.390,0.150
2.778,0.160,0.160
2.780,0.120,0.165
2.782,0.200,0.170
2.784,0.310,0.170
2.786,0.570,0.170
2.788,0.695,0.170
2.790,0.690,0.170
2.792,0.645,0.175
2.794,0.605,0.185
2.796,0.400,0.190
2.798,0.285,0.195
2.800,0.225,0.200
2.802,0.255,0.200
2.804,0.320,0.195
2.806,0.535,0.190
2.808,0.710,0.185
2.810,0.720,0.175
2.812,0.720,0.170
2.814,0.625,0.160
2.816,0.325,0.155
2.818,0.220,0.155
2.820,0.155,0.150
2.822,0.225,0.145
2.824,0.310,0.135
2.826,0.455,0.125
2.828,0.595,0.115
2.830,0.705,0.100
2.832,0.595,0.090
2.834,0.475,0.080
2.836,0.280,0.075
2.838,0.115,0.075
2.840,0.080,0.070
2.842,0.130,0.070
2.844,0.250,0.070
2.846,0.430,0.065
2.848,0.560,0.055
2.850,0.610,0.045
2.852,0.485,0.035
2.854,0.425,0.020
2.856,0.185,0.010
2.858,0.020,0.005
2.860,0.030,-0.005
2.862,0.050,-0.010
2.864,0.190,-0.015
2.866,0.355,-0.020
2.868,0.525,-0.025
2.870,0.495,-0.035
2.872,0.425,-0.040
2.874,0.335,-0.050
2.876,0.100,-0.055
2.878,-0.005,-0.055
2.880,0.005,-0.050
2.882,0.030,-0.045
2.884,0.165,-0.035
2.886,0.400,-0.030
2.888,0.500,-0.020
2.890,0.515,-0.020
2.892,0.435,-0.025
2.894,0.280,-0.030
2.896,0.125,-0.040
2.898,-0.015,-0.050
2.900,-0.065,-0.055
2.902,0.020,-0.060
2.904,0.210,-0.065
2.906,0.400,-0.060
2.908,0.540,-0.055
2.910,0.495,-0.050
2.912,0.425,-0.045
2.914,0.295,-0.045
2.916,0.085,-0.045
2.918,-0.060,-0.050
2.920,-0.030,-0.060
2.922,-0.015,-0.065
2.924,0.180,-0.070
2.926,0.375,-0.070
2.928,0.450,-0.065
2.930,0.495,-0.060
2.932,0.475,-0.050
2.934,0.325,-0.040
2.936,0.135,-0.030
2.938,0.010,-0.030
2.940,-0.050,-0.030
2.942,0.025,-0.040
2.944,0.225,-0.050
2.946,0.415,-0.065
2.948,0.435,-0.075
2.950,0.430,-0.085
2.952,0.430,-0.090
2.954,0.265,-0.090
2.956,0.040,-0.090
2.958,-0.070,-0.080
2.960,-0.035,-0.075
2.962,0.005,-0.060
2.964,0.190,-0.050
2.966,0.425,-0.040
2.968,0.535,-0.030
2.970,0.525,-0.020
2.972,0.470,-0.010
2.974,0.295,-0.005
2.976,0.120,0.000
2.978,0.065,-0.005
2.980,0.020,-0.010
2.982,0.065,-0.020
2.984,0.185,-0.035
2.986,0.360,-0.050
2.988,0.510,-0.060
2.990,0.500,-0.065
2.992,0.425,-0.065
2.994,0.255,-0.060
2.996,0.080,-0.055
2.998,-0.050,-0.045
3.000,-0.015,-0.035
3.002,0.050,-0.035
3.004,0.245,-0.035
3.006,0.430,-0.045
3.008,0.510,-0.060
3.010,0.460,-0.070
3.012,0.390,-0.080
3.014,0.195,-0.085
3.016,0.010,-0.085
3.018,-0.070,-0.080
3.020,-0.045,-0.070
3.022,0.050,-0.060
3.024,0.235,-0.055
3.026,0.415,-0.055
3.028,0.500,-0.055
3.030,0.460,-0.060
3.032,0.415,-0.070
3.034,0.180,-0.075
3.036,0.020,-0.075
3.038,-0.065,-0.070
3.040,0.000,-0.060
3.042,0.090,-0.050
3.044,0.290,-0.040
3.046,0.470,-0.035
3.048,0.530,-0.030
3.050,0.490,-0.035
3.052,0.390,-0.040
3.054,0.155,-0.050
3.056,-0.020,-0.060
3.058,-0.040,-0.065
3.060,0.030,-0.070
3.062,0.105,-0.070
3.064,0.280,-0.070
3.066,0.410,-0.065
3.068,0.455,-0.065
3.070,0.375,-0.065
3.072,0.385,-0.065
3.074,0.175,-0.070
3.076,-0.015,-0.075
3.078,-0.085,-0.080
3.080,-0.080,-0.085
3.082,0.085,-0.085
3.084,0.250,-0.090
3.086,0.450,-0.085
3.088,0.465,-0.085
3.090,0.420,-0.085
3.092,0.340,-0.080
3.094,0.135,-0.080
3.096,-0.075,-0.080
3.098,-0.055,-0.075
3.100,0.015,-0.075
3.102,0.100,-0.070
3.104,0.300,-0.070
3.106,0.450,-0.070
3.108,0.475,-0.070
3.110,0.435,-0.070
3.112,0.335,-0.070
3.114,0.125,-0.070
3.116,-0.020,-0.070
3.118,-0.030,-0.075
3.120,0.020,-0.075
3.122,0.060,-0.075
3.124,0.270,-0.075
3.126,0.495,-0.075
3.128,0.465,-0.080
3.130,0.450,-0.080
3.132,0.355,-0.085
3.134,0.130,-0.090
3.136,-0.105,-0.095
3.138,-0.155,-0.100
3.140,-0.010,-0.105
3.142,0.080,-0.100
3.144,0.285,-0.100
3.146,0.425,-0.090
3.148,0.525,-0.080
3.150,0.405,-0.070
3.152,0.325,-0.060
3.154,0.130,-0.055
3.156,0.025,-0.050
3.158,-0.015,-0.050
3.160,-0.030,-0.055
3.162,0.105,-0.060
3.164,0.310,-0.060
3.166,0.455,-0.065
3.168,0.530,-0.060
3.170,0.410,-0.055
3.172,0.350,-0.045
3.174,0.150,-0.035
3.176,-0.005,-0.030
3.178,0.005,-0.020
3.180,0.030,-0.020
3.182,0.175,-0.020
3.184,0.340,-0.025
3.186,0.460,-0.030
3.188,0.520,-0.030
3.190,0.525,-0.030
3.192,0.360,-0.025
3.194,0.185,-0.015
3.196,0.070,-0.005
3.198,-0.010,0.010
3.200,0.090,0.020
3.202,0.200,0.025
3.204,0.350,0.020
3.206,0.535,0.010
3.208,0.545,0.000
3.210,0.530,-0.020
3.212,0.360,-0.035
3.214,0.090,-0.050
3.216,-0.035,-0.060
3.218,-0.035,-0.065
3.220,0.010,-0.065
3.222,0.160,-0.065
3.224,0.360,-0.065
3.226,0.525,-0.065
3.228,0.470,-0.065
3.230,0.420,-0.065
3.232,0.220,-0.065
3.234,0.080,-0.065
3.236,0.015,-0.065
3.238,-0.015,-0.060
3.240,0.020,-0.055
3.242,0.150,-0.055
3.244,0.360,-0.055
3.246,0.420,-0.060
3.248,0.430,-0.065
3.250,0.450,-0.070
3.252,0.235,-0.075
3.254,0.055,-0.080
3.256,-0.040,-0.080
3.258,-0.045,-0.075
3.260,0.015,-0.070
3.262,0.205,-0.060
3.264,0.365,-0.055
3.266,0.450,-0.055
3.268,0.485,-0.055
3.270,0.445,-0.060
3.272,0.275,-0.070
3.274,-0.025,-0.080
3.276,-0.030,-0.085
3.278,-0.045,-0.085
3.280,-0.060,-0.080
3.282,0.180,-0.075
3.284,0.425,-0.065
3.286,0.465,-0.055
3.288,0.460,-0.045
3.290,0.430,-0.045
3.292,0.240,-0.045
3.294,0.070,-0.050
3.296,-0.075,-0.060
3.298,-0.110,-0.070
3.300,0.005,-0.080
3.302,0.185,-0.090
3.304,0.365,-0.100
3.306,0.420,-0.105
3.308,0.415,-0.110
3.310,0.355,-0.115
3.312,0.140,-0.120
3.314,-0.045,-0.125
3.316,-0.140,-0.125
3.318,-0.090,-0.115
3.320,-0.040,-0.095
3.322,0.190,-0.060
3.324,0.495,0.000
3.326,0.605,0.085
3.328,0.720,0.195
3.330,0.780,0.325
3.332,0.780,0.470
3.334,0.800,0.615
3.336,0.770,0.755
3.338,0.920,0.865
3.340,1.025,0.940
3.342,1.260,0.970
3.344,1.440,0.950
3.346,1.520,0.880
3.348,1.435,0.775
3.350,1.180,0.640
3.352,0.595,0.495
3.354,0.255,0.355
3.356,0.130,0.230
3.358,0.095,0.130
3.360,0.105,0.060
3.362,0.300,0.020
3.364,0.500,0.005
3.366,0.605,0.005
3.368,0.530,0.010
3.370,0.450,0.015
3.372,0.240,0.010
3.374,0.045,0.000
3.376,-0.105,-0.020
3.378,-0.075,-0.040
3.380,-0.015,-0.065
3.382,0.235,-0.080
3.384,0.465,-0.085
3.386,0.525,-0.085
3.388,0.455,-0.075
3.390,0.360,-0.060
3.392,0.150,-0.045
3.394,-0.075,-0.035
3.396,-0.070,-0.030
3.398,-0.010,-0.035
3.400,0.055,-0.045
3.402,0.250,-0.055
3.404,0.445,-0.065
3.406,0.480,-0.070
3.408,0.480,-0.070
3.410,0.375,-0.060
3.412,0.145,-0.050
3.414,-0.035,-0.045
3.416,-0.050,-0.035
3.418,-0.015,-0.035
3.420,0.070,-0.045
3.422,0.240,-0.050
3.424,0.420,-0.060
3.426,0.465,-0.070
3.428,0.425,-0.070
3.430,0.375,-0.060
3.432,0.100,-0.045
3.434,0.000,-0.030
3.436,-0.035,-0.010
3.438,0.050,0.000
3.440,0.145,0.005
3.442,0.385,0.000
3.444,0.500,-0.010
3.446,0.430,-0.025
3.448,0.395,-0.035
3.450,0.365,-0.040
3.452,0.155,-0.040
3.454,0.005,-0.035
3.456,-0.055,-0.025
3.458,0.060,-0.020
3.460,0.150,-0.020
3.462,0.300,-0.025
3.464,0.400,-0.040
3.466,0.380,-0.060
3.468,0.360,-0.080
3.470,0.315,-0.095
3.472,0.070,-0.100
3.474,-0.040,-0.095
3.476,-0.100,-0.075
3.478,0.000,-0.055
3.480,0.110,-0.030
3.482,0.370,-0.010
3.484,0.485,0.005
3.486,0.495,0.005
3.488,0.430,0.000
3.490,0.320,-0.015
3.492,0.080,-0.025
3.494,-0.040,-0.040
3.496,-0.050,-0.045
3.498,0.030,-0.040
3.500,0.155,-0.030
3.502,0.360,-0.015
3.504,0.485,-0.005
3.506,0.505,0.005
3.508,0.470,0.010
3.510,0.315,0.010
3.512,0.095,0.005
3.514,-0.015,-0.005
3.516,-0.060,-0.010
3.518,0.050,-0.015
3.520,0.150,-0.015
3.522,0.360,-0.010
3.524,0.590,-0.005
3.526,0.485,0.000
3.528,0.395,0.000
3.530,0.260,0.000
3.532,0.145,0.000
3.534,-0.025,-0.005
3.536,0.000,-0.010
3.538,-0.015,-0.005
3.540,0.200,0.000
3.542,0.415,0.010
3.544,0.510,0.025
3.546,0.545,0.040
3.548,0.470,0.055
3.550,0.355,0.065
3.552,0.175,0.075
3.554,0.050,0.080
3.556,0.060,0.075
3.558,0.080,0.075
3.560,0.210,0.075
3.562,0.465,0.075
3.564,0.575,0.075
3.566,0.565,0.085
3.568,0.545,0.095
3.570,0.360,0.110
3.572,0.230,0.125
3.574,0.135,0.130
3.576,0.145,0.135
3.578,0.170,0.135
3.580,0.335,0.125
3.582,0.470,0.115
3.584,0.585,0.105
3.586,0.570,0.100
3.588,0.520,0.105
3.590,0.345,0.110
3.592,0.200,0.130
3.594,0.155,0.145
3.596,0.200,0.165
3.598,0.230,0.185
3.600,0.390,0.195
3.602,0.615,0.195
3.604,0.650,0.190
3.606,0.660,0.185
3.608,0.625,0.175
3.610,0.405,0.165
3.612,0.165,0.165
3.614,0.105,0.175
3.616,0.160,0.185
3.618,0.230,0.195
3.620,0.505,0.205
3.622,0.640,0.205
3.624,0.730,0.200
3.626,0.575,0.185
3.628,0.475,0.160
3.630,0.325,0.135
3.632,0.130,0.115
3.634,0.060,0.100
3.636,0.115,0.095
3.638,0.160,0.100
3.640,0.360,0.110
3.642,0.555,0.120
3.644,0.620,0.125
3.646,0.570,0.125
3.648,0.465,0.120
3.650,0.255,0.100
3.652,0.075,0.075
3.654,-0.015,0.045
3.656,0.035,0.020
3.658,0.015,-0.005
3.660,0.230,-0.015
3.662,0.410,-0.025
3.664,0.475,-0.025
3.666,0.420,-0.025
3.668,0.350,-0.025
3.670,0.140,-0.025
3.672,-0.080,-0.030
3.674,-0.135,-0.035
3.676,-0.040,-0.045
3.678,-0.040,-0.050
3.680,0.275,-0.055
3.682,0.445,-0.055
3.684,0.400,-0.055
3.686,0.380,-0.050
3.688,0.335,-0.045
3.690,0.120,-0.040
3.692,-0.100,-0.040
3.694,-0.140,-0.045
3.696,-0.060,-0.045
3.698,-0.010,-0.050
3.700,0.230,-0.050
3.702,0.410,-0.050
3.704,0.490,-0.040
3.706,0.455,-0.035
3.708,0.380,-0.025
3.710,0.110,-0.020
3.712,-0.055,-0.015
3.714,-0.145,-0.020
3.716,-0.055,-0.030
3.718,0.045,-0.045
3.720,0.170,-0.055
3.722,0.300,-0.065
3.724,0.375,-0.075
3.726,0.390,-0.070
3.728,0.315,-0.065
3.730,0.105,-0.055
3.732,-0.055,-0.045
3.734,-0.135,-0.035
3.736,-0.095,-0.025
3.738,0.020,-0.025
3.740,0.250,-0.030
3.742,0.405,-0.035
3.744,0.415,-0.040
3.746,0.325,-0.045
3.748,0.285,-0.045
3.750,0.085,-0.045
3.752,-0.080,-0.045
3.754,-0.120,-0.045
3.756,-0.115,-0.045
3.758,0.010,-0.045
3.760,0.225,-0.050
3.762,0.390,-0.055
3.764,0.390,-0.060
3.766,0.385,-0.065
3.768,0.240,-0.065
3.770,0.065,-0.060
3.772,-0.065,-0.055
3.774,-0.105,-0.045
3.776,-0.135,-0.045
3.778,-0.015,-0.040
3.780,0.265,-0.045
3.782,0.355,-0.050
3.784,0.360,-0.060
3.786,0.325,-0.065
3.788,0.235,-0.070
3.790,0.025,-0.070
3.792,-0.110,-0.065
3.794,-0.115,-0.060
3.796,-0.120,-0.050
3.798,0.085,-0.040
3.800,0.305,-0.035
3.802,0.345,-0.040
3.804,0.395,-0.045
3.806,0.335,-0.055
3.808,0.190,-0.065
3.810,-0.040,-0.070
3.812,-0.180,-0.070
3.814,-0.150,-0.065
3.816,-0.075,-0.060
3.818,0.070,-0.050
3.820,0.275,-0.040
3.822,0.390,-0.035
3.824,0.400,-0.035
3.826,0.385,-0.040
3.828,0.205,-0.050
3.830,-0.045,-0.065
3.832,-0.245,-0.075
3.834,-0.200,-0.080
3.836,-0.150,-0.085
3.838,0.035,-0.080
3.840,0.300,-0.075
3.842,0.480,-0.065
3.844,0.425,-0.060
3.846,0.295,-0.055
3.848,0.125,-0.050
3.850,-0.090,-0.055
3.852,-0.220,-0.060
3.854,-0.110,-0.065
3.856,-0.055,-0.070
3.858,0.050,-0.070
3.860,0.255,-0.075
3.862,0.385,-0.075
3.864,0.330,-0.075
3.866,0.315,-0.075
3.868,0.130,-0.080
3.870,-0.095,-0.080
3.872,-0.190,-0.085
3.874,-0.190,-0.090
3.876,-0.155,-0.090
3.878,0.055,-0.085
3.880,0.240,-0.075
3.882,0.350,-0.065
3.884,0.350,-0.050
3.886,0.370,-0.040
3.888,0.190,-0.030
3.890,-0.065,-0.025
3.892,-0.205,-0.030
3.894,-0.100,-0.040
3.896,-0.110,-0.050
3.898,0.035,-0.070
3.900,0.210,-0.085
3.902,0.315,-0.095
3.904,0.330,-0.100
3.906,0.320,-0.100
3.908,0.100,-0.095
3.910,-0.105,-0.080
3.912,-0.225,-0.070
3.914,-0.180,-0.060
3.916,-0.115,-0.055
3.918,0.115,-0.055
3.920,0.320,-0.060
3.922,0.355,-0.070
3.924,0.375,-0.080
3.926,0.300,-0.090
3.928,0.025,-0.095
3.930,-0.125,-0.095
3.932,-0.215,-0.090
3.934,-0.190,-0.080
3.936,-0.135,-0.075
3.938,0.125,-0.065
3.940,0.290,-0.060
3.942,0.350,-0.060
3.944,0.320,-0.060
3.946,0.245,-0.065
3.948,0.045,-0.070
3.950,-0.135,-0.075
3.952,-0.215,-0.080
3.954,-0.125,-0.085
3.956,-0.110,-0.085
3.958,0.095,-0.080
3.960,0.310,-0.080
3.962,0.320,-0.075
3.964,0.305,-0.075
3.966,0.245,-0.075
3.968,0.040,-0.070
3.970,-0.150,-0.070
3.972,-0.200,-0.070
3.974,-0.155,-0.070
3.976,-0.100,-0.070
3.978,0.115,-0.065
3.980,0.335,-0.065
3.982,0.370,-0.060
3.984,0.285,-0.055
3.986,0.245,-0.050
3.988,0.030,-0.050
3.990,-0.170,-0.055
3.992,-0.190,-0.055
3.994,-0.125,-0.060
3.996,-0.075,-0.060
3.998,0.140,-0.060
4.000,0.290,-0.060
4.002,0.360,-0.050
4.004,0.330,-0.035
4.006,0.215,-0.020
4.008,0.085,0.000
4.010,0.000,0.015
4.012,-0.040,0.025
4.014,0.035,0.030
4.016,0.000,0.025
4.018,0.110,0.015
4.020,0.305,-0.005
4.022,0.355,-0.025
4.024,0.340,-0.040
4.026,0.245,-0.055
4.028,0.005,-0.060
4.030,-0.145,-0.065
4.032,-0.205,-0.060
4.034,-0.135,-0.050
4.036,-0.030,-0.045
4.038,0.125,-0.040
4.040,0.350,-0.035
4.042,0.370,-0.035
4.044,0.280,-0.040
4.046,0.180,-0.045
4.048,-0.025,-0.055
4.050,-0.130,-0.060
4.052,-0.175,-0.065
4.054,-0.150,-0.065
4.056,-0.040,-0.070
4.058,0.145,-0.075
4.060,0.300,-0.080
4.062,0.285,-0.090
4.064,0.245,-0.095
4.066,0.135,-0.100
4.068,-0.090,-0.100
4.070,-0.215,-0.095
4.072,-0.240,-0.090
4.074,-0.100,-0.075
4.076,-0.005,-0.065
4.078,0.175,-0.050
4.080,0.305,-0.040
4.082,0.260,-0.035
4.084,0.340,-0.040
4.086,0.200,-0.045
4.088,-0.055,-0.055
4.090,-0.240,-0.065
4.092,-0.220,-0.075
4.094,-0.200,-0.080
4.096,-0.075,-0.080
4.098,0.155,-0.075
4.100,0.285,-0.065
4.102,0.330,-0.055
4.104,0.280,-0.045
4.106,0.140,-0.035
4.108,-0.035,-0.030
4.110,-0.160,-0.035
4.112,-0.135,-0.040
4.114,-0.125,-0.055
4.116,-0.070,-0.070
4.118,0.060,-0.085
4.120,0.240,-0.100
4.122,0.300,-0.110
4.124,0.235,-0.115
4.126,0.040,-0.115
4.128,-0.165,-0.105
4.130,-0.250,-0.095
4.132,-0.190,-0.085
4.134,-0.150,-0.075
4.136,-0.005,-0.070
4.138,0.180,-0.075
4.140,0.270,-0.085
4.142,0.245,-0.100
4.144,0.150,-0.115
4.146,0.000,-0.130
4.148,-0.195,-0.135
4.150,-0.290,-0.125
4.152,-0.280,-0.100
4.154,-0.160,-0.050
4.156,0.145,0.025
4.158,0.440,0.120
4.160,0.575,0.240
4.162,0.730,0.370
4.164,0.865,0.510
4.166,0.830,0.645
4.168,0.740,0.765
4.170,0.725,0.855
4.172,0.750,0.910
4.174,0.805,0.925
4.176,1.050,0.895
4.178,1.225,0.820
4.180,1.230,0.715
4.182,0.930,0.590
4.184,0.640,0.460
4.186,0.310,0.330
4.188,0.045,0.215
4.190,-0.115,0.125
4.192,-0.105,0.055
4.194,-0.090,0.010
4.196,0.075,-0.015
4.198,0.240,-0.025
4.200,0.330,-0.025
4.202,0.325,-0.020
4.204,0.230,-0.020
4.206,0.090,-0.015
4.208,-0.080,-0.020
4.210,-0.195,-0.020
4.212,-0.155,-0.020
4.214,-0.160,-0.025
4.216,0.050,-0.030
4.218,0.265,-0.035
4.220,0.350,-0.040
4.222,0.315,-0.050
4.224,0.200,-0.060
4.226,-0.040,-0.065
4.228,-0.195,-0.075
4.230,-0.245,-0.075
4.232,-0.245,-0.075
4.234,-0.185,-0.070
4.236,0.110,-0.060
4.238,0.215,-0.050
4.240,0.305,-0.045
4.242,0.280,-0.040
4.244,0.220,-0.045
4.246,-0.010,-0.050
4.248,-0.160,-0.055
4.250,-0.265,-0.065
4.252,-0.210,-0.070
4.254,-0.075,-0.070
4.256,0.075,-0.065
4.258,0.240,-0.055
4.260,0.275,-0.045
4.262,0.235,-0.035
4.264,0.205,-0.025
4.266,0.025,-0.020
4.268,-0.140,-0.025
4.270,-0.225,-0.030
4.272,-0.185,-0.040
4.274,-0.115,-0.050
4.276,0.085,-0.055
4.278,0.280,-0.060
4.280,0.295,-0.055
4.282,0.235,-0.050
4.284,0.180,-0.040
4.286,-0.020,-0.035
4.288,-0.190,-0.025
4.290,-0.225,-0.020
4.292,-0.130,-0.020
4.294,-0.060,-0.020
4.296,0.160,-0.020
4.298,0.290,-0.025
4.300,0.295,-0.020
4.302,0.250,-0.020
4.304,0.225,-0.020
4.306,0.025,-0.020
4.308,-0.175,-0.020
4.310,-0.235,-0.025
4.312,-0.185,-0.035
4.314,-0.150,-0.045
4.316,0.100,-0.055
4.318,0.270,-0.060
4.320,0.385,-0.060
4.322,0.275,-0.060
4.324,0.140,-0.050
4.326,-0.095,-0.035
4.328,-0.155,-0.020
4.330,-0.165,-0.005
4.332,-0.160,0.000
4.334,-0.080,0.005
4.336,0.145,0.000
4.338,0.300,-0.010
4.340,0.330,-0.020
4.342,0.280,-0.030
4.344,0.195,-0.040
4.346,-0.055,-0.040
4.348,-0.265,-0.040
4.350,-0.265,-0.035
4.352,-0.160,-0.025
4.354,-0.010,-0.015
4.356,0.180,-0.005
4.358,0.310,0.000
4.360,0.330,0.005
4.362,0.345,0.010
4.364,0.230,0.020
4.366,-0.020,0.025
4.368,-0.170,0.030
4.370,-0.135,0.040
4.372,-0.080,0.045
4.374,0.085,0.050
4.376,0.260,0.055
4.378,0.425,0.055
4.380,0.405,0.055
4.382,0.360,0.055
4.384,0.220,0.055
4.386,-0.030,0.055
4.388,-0.145,0.060
4.390,-0.130,0.060
4.392,-0.055,0.065
4.394,0.095,0.070
4.396,0.310,0.075
4.398,0.455,0.085
4.400,0.435,0.090
4.402,0.355,0.095
4.404,0.235,0.105
4.406,0.040,0.110
4.408,-0.045,0.125
4.410,-0.070,0.135
4.412,-0.020,0.145
4.414,0.220,0.155
4.416,0.415,0.165
4.418,0.540,0.170
4.420,0.490,0.170
4.422,0.375,0.170
4.424,0.210,0.170
4.426,0.095,0.165
4.428,-0.020,0.160
4.430,-0.010,0.160
4.432,0.040,0.155
4.434,0.200,0.155
4.436,0.380,0.160
4.438,0.500,0.160
4.440,0.475,0.160
4.442,0.450,0.165
4.444,0.290,0.165
4.446,0.090,0.170
4.448,0.005,0.170
4.450,-0.005,0.170
4.452,0.015,0.170
4.454,0.205,0.165
4.456,0.395,0.165
4.458,0.500,0.155
4.460,0.520,0.150
4.462,0.410,0.145
4.464,0.245,0.135
4.466,0.000,0.130
4.468,-0.075,0.130
4.470,-0.060,0.125
4.472,-0.010,0.120
4.474,0.145,0.115
4.476,0.380,0.110
4.478,0.475,0.095
4.480,0.380,0.085
4.482,0.225,0.070
4.484,0.130,0.055
4.486,-0.040,0.040
4.488,-0.205,0.025
4.490,-0.115,0.015
4.492,-0.120,0.005
4.494,0.085,0.000
4.496,0.210,-0.005
4.498,0.335,-0.010
4.500,0.250,-0.020
4.502,0.235,-0.030
4.504,0.060,-0.035
4.506,-0.155,-0.045
4.508,-0.260,-0.050
4.510,-0.250,-0.050
4.512,-0.160,-0.050
4.514,0.050,-0.045
4.516,0.235,-0.035
4.518,0.305,-0.030
4.520,0.290,-0.025
4.522,0.225,-0.025
4.524,0.010,-0.025
4.526,-0.180,-0.035
4.528,-0.260,-0.045
4.530,-0.250,-0.055
4.532,-0.180,-0.065
4.534,0.030,-0.065
4.536,0.230,-0.060
4.538,0.285,-0.050
4.540,0.255,-0.035
4.542,0.225,-0.025
4.544,0.030,-0.015
4.546,-0.165,-0.010
4.548,-0.180,-0.015
4.550,-0.235,-0.025
4.552,-0.175,-0.040
4.554,0.020,-0.060
4.556,0.245,-0.075
4.558,0.275,-0.080
4.560,0.235,-0.080
4.562,0.170,-0.070
4.564,-0.055,-0.055
4.566,-0.180,-0.035
4.568,-0.205,-0.015
4.570,-0.195,0.000
4.572,-0.100,0.005
4.574,0.135,0.005
4.576,0.285,-0.010
4.578,0.320,-0.025
4.580,0.240,-0.045
4.582,0.110,-0.060
4.584,-0.065,-0.075
4.586,-0.260,-0.080
4.588,-0.245,-0.080
4.590,-0.185,-0.075
4.592,-0.170,-0.070
4.594,0.075,-0.060
4.596,0.215,-0.050
4.598,0.310,-0.045
4.600,0.265,-0.040
4.602,0.180,-0.040
4.604,-0.065,-0.040
4.606,-0.210,-0.045
4.608,-0.230,-0.050
4.610,-0.145,-0.055
4.612,-0.130,-0.055
4.614,0.100,-0.060
4.616,0.275,-0.060
4.618,0.255,-0.055
4.620,0.210,-0.055
4.622,0.145,-0.055
4.624,-0.055,-0.055
4.626,-0.220,-0.060
4.628,-0.250,-0.065
4.630,-0.240,-0.070
4.632,-0.185,-0.075
4.634,0.070,-0.080
4.636,0.245,-0.080
4.638,0.295,-0.070
4.640,0.230,-0.060
4.642,0.135,-0.050
4.644,-0.055,-0.035
4.646,-0.225,-0.025
4.648,-0.230,-0.020
4.650,-0.195,-0.020
4.652,-0.070,-0.025
4.654,0.115,-0.040
4.656,0.275,-0.050
4.658,0.265,-0.065
4.660,0.220,-0.070
4.662,0.095,-0.075
4.664,-0.130,-0.070
4.666,-0.225,-0.065
4.668,-0.190,-0.055
4.670,-0.165,-0.045
4.672,-0.130,-0.040
4.674,0.090,-0.040
4.676,0.280,-0.045
4.678,0.325,-0.050
4.680,0.225,-0.055
4.682,0.085,-0.060
4.684,-0.060,-0.065
4.686,-0.215,-0.065
4.688,-0.275,-0.065
4.690,-0.195,-0.060
4.692,-0.080,-0.060
4.694,0.130,-0.060
4.696,0.250,-0.060
4.698,0.260,-0.060
4.700,0.170,-0.060
4.702,0.065,-0.060
4.704,-0.105,-0.060
4.706,-0.210,-0.060
4.708,-0.210,-0.055
4.710,-0.135,-0.055
4.712,0.000,-0.050
4.714,0.155,-0.050
4.716,0.210,-0.055
4.718,0.245,-0.060
4.720,0.210,-0.065
4.722,0.045,-0.070
4.724,-0.150,-0.070
4.726,-0.225,-0.070
4.728,-0.195,-0.065
4.730,-0.175,-0.060
4.732,-0.010,-0.055
4.734,0.150,-0.050
4.736,0.265,-0.050
4.738,0.270,-0.050
4.740,0.210,-0.055
4.742,0.040,-0.055
4.744,-0.175,-0.060
4.746,-0.305,-0.060
4.748,-0.195,-0.065
4.750,-0.145,-0.065
4.752,-0.050,-0.060
4.754,0.170,-0.060
4.756,0.300,-0.060
4.758,0.265,-0.060
4.760,0.205,-0.060
4.762,0.060,-0.060
4.764,-0.150,-0.060
4.766,-0.235,-0.060
4.768,-0.190,-0.060
4.770,-0.165,-0.060
4.772,-0.060,-0.060
4.774,0.115,-0.060
4.776,0.285,-0.055
4.778,0.270,-0.050
4.780,0.260,-0.050
4.782,0.090,-0.045
4.784,-0.130,-0.040
4.786,-0.240,-0.040
4.788,-0.185,-0.040
4.790,-0.180,-0.040
4.792,0.015,-0.045
4.794,0.195,-0.045
4.796,0.290,-0.050
4.798,0.265,-0.050
4.800,0.240,-0.050
4.802,0.035,-0.045
4.804,-0.160,-0.035
4.806,-0.230,-0.025
4.808,-0.155,-0.015
4.810,-0.125,0.000
4.812,0.110,0.010
4.814,0.300,0.015
4.816,0.370,0.015
4.818,0.325,0.010
4.820,0.240,0.000
4.822,0.085,-0.010
4.824,-0.125,-0.025
4.826,-0.225,-0.040
4.828,-0.205,-0.050
4.830,-0.145,-0.060
4.832,0.025,-0.065
4.834,0.195,-0.065
4.836,0.300,-0.060
4.838,0.230,-0.050
4.840,0.215,-0.040
4.842,0.020,-0.035
4.844,-0.155,-0.025
4.846,-0.210,-0.025
4.848,-0.200,-0.025
4.850,-0.120,-0.035
4.852,0.060,-0.045
4.854,0.215,-0.055
4.856,0.270,-0.060
4.858,0.225,-0.065
4.860,0.200,-0.065
4.862,-0.030,-0.065
4.864,-0.215,-0.055
4.866,-0.255,-0.045
4.868,-0.160,-0.040
4.870,-0.100,-0.035
4.872,0.120,-0.040
4.874,0.300,-0.050
4.876,0.285,-0.065
4.878,0.190,-0.080
4.880,0.105,-0.095
4.882,-0.105,-0.105
4.884,-0.265,-0.115
4.886,-0.300,-0.115
4.888,-0.245,-0.110
4.890,-0.155,-0.100
4.892,0.080,-0.090
4.894,0.230,-0.075
4.896,0.260,-0.070
4.898,0.245,-0.065
4.900,0.190,-0.060
4.902,-0.055,-0.065
4.904,-0.240,-0.065
4.906,-0.245,-0.070
4.908,-0.195,-0.070
4.910,-0.125,-0.070
4.912,0.105,-0.065
4.914,0.255,-0.065
4.916,0.260,-0.060
4.918,0.210,-0.060
4.920,0.145,-0.065
4.922,-0.070,-0.075
4.924,-0.235,-0.090
4.926,-0.295,-0.105
4.928,-0.315,-0.125
4.930,-0.190,-0.135
4.932,0.000,-0.135
4.934,0.195,-0.115
4.936,0.270,-0.080
4.938,0.275,-0.020
4.940,0.280,0.065
4.942,0.225,0.170
4.944,0.185,0.295
4.946,0.270,0.420
4.948,0.435,0.545
4.950,0.655,0.660
4.952,0.910,0.745
4.954,1.105,0.800
4.956,1.215,0.815
4.958,1.175,0.795
4.960,1.085,0.735
4.962,0.880,0.645
4.964,0.390,0.540
4.966,0.065,0.420
4.968,-0.030,0.305
4.970,0.015,0.195
4.972,0.205,0.105
4.974,0.390,0.035
4.976,0.395,-0.015
4.978,0.320,-0.045
4.980,0.200,-0.060
4.982,-0.040,-0.065
4.984,-0.210,-0.060
4.986,-0.300,-0.055
4.988,-0.255,-0.050
4.990,-0.065,-0.050
4.992,0.200,-0.050
4.994,0.300,-0.050
4.996,0.310,-0.055
4.998,0.270,-0.055
5.000,0.125,-0.055
5.002,-0.095,-0.055
5.004,-0.220,-0.050
5.006,-0.205,-0.045
5.008,-0.145,-0.040
5.010,-0.030,-0.035
5.012,0.195,-0.035
5.014,0.285,-0.035
5.016,0.305,-0.040
5.018,0.235,-0.050
5.020,0.095,-0.055
5.022,-0.100,-0.065
5.024,-0.205,-0.070
5.026,-0.225,-0.075
5.028,-0.185,-0.070
5.030,-0.015,-0.065
5.032,0.140,-0.060
5.034,0.280,-0.050
5.036,0.310,-0.045
5.038,0.300,-0.045
5.040,0.130,-0.045
5.042,-0.070,-0.045
5.044,-0.225,-0.050
5.046,-0.265,-0.055
5.048,-0.240,-0.060
5.050,-0.040,-0.060
5.052,0.215,-0.055
5.054,0.365,-0.045
5.056,0.350,-0.035
5.058,0.330,-0.030
5.060,0.145,-0.020
5.062,-0.080,-0.020
5.064,-0.275,-0.020
5.066,-0.270,-0.025
5.068,-0.195,-0.030
5.070,0.040,-0.040
5.072,0.215,-0.050
5.074,0.355,-0.055
5.076,0.340,-0.055
5.078,0.230,-0.055
5.080,0.050,-0.045
5.082,-0.105,-0.035
5.084,-0.175,-0.020
5.086,-0.145,-0.010
5.088,-0.095,-0.005
5.090,0.055,0.000
5.092,0.245,0.000
5.094,0.370,-0.010
5.096,0.375,-0.020
5.098,0.275,-0.030
5.100,0.035,-0.040
5.102,-0.140,-0.050
5.104,-0.240,-0.055
5.106,-0.195,-0.055
5.108,-0.120,-0.050
5.110,0.090,-0.045
5.112,0.270,-0.040
5.114,0.300,-0.040
5.116,0.310,-0.035
5.118,0.285,-0.035
5.120,0.045,-0.035
5.122,-0.135,-0.035
5.124,-0.210,-0.035
5.126,-0.160,-0.035
5.128,-0.135,-0.035
5.130,0.090,-0.030
5.132,0.285,-0.025
5.134,0.340,-0.020
5.136,0.370,-0.015
5.138,0.335,-0.015
5.140,0.040,-0.010
5.142,-0.120,-0.005
5.144,-0.175,-0.005
5.146,-0.125,0.000
5.148,-0.040,0.000
5.150,0.125,0.005
5.152,0.320,0.010
5.154,0.390,0.020
5.156,0.350,0.025
5.158,0.300,0.035
5.160,0.125,0.045
5.162,-0.025,0.055
5.164,-0.090,0.060
5.166,-0.075,0.065
5.168,-0.050,0.065
5.170,0.235,0.065
5.172,0.385,0.065
5.174,0.440,0.065
5.176,0.350,0.065
5.178,0.285,0.065
5.180,0.130,0.065
5.182,-0.035,0.070
5.184,-0.075,0.075
5.186,0.010,0.080
5.188,0.035,0.085
5.190,0.250,0.090
5.192,0.425,0.100
5.194,0.480,0.105
5.196,0.440,0.110
5.198,0.335,0.115
5.200,0.145,0.115
5.202,-0.020,0.120
5.204,-0.025,0.120
5.206,-0.020,0.125
5.208,0.100,0.130
5.210,0.330,0.135
5.212,0.465,0.140
5.214,0.505,0.150
5.216,0.470,0.155
5.218,0.445,0.165
5.220,0.200,0.170
5.222,0.045,0.170
5.224,0.005,0.175
5.226,0.060,0.170
5.228,0.180,0.170
5.230,0.360,0.165
5.232,0.525,0.165
5.234,0.545,0.160
5.236,0.460,0.160
5.238,0.370,0.160
5.240,0.165,0.160
5.242,0.015,0.160
5.244,0.010,0.160
5.246,0.040,0.150
5.248,0.140,0.135
5.250,0.370,0.120
5.252,0.415,0.100
5.254,0.405,0.075
5.256,0.355,0.055
5.258,0.255,0.040
5.260,0.030,0.025
5.262,-0.115,0.015
5.264,-0.125,0.010
5.266,-0.100,0.010
5.268,-0.010,0.005
5.270,0.190,0.005
5.272,0.340,0.000
5.274,0.355,-0.010
5.276,0.285,-0.020
5.278,0.210,-0.030
5.280,-0.015,-0.040
5.282,-0.210,-0.050
5.284,-0.210,-0.060
5.286,-0.185,-0.065
5.288,-0.070,-0.070
5.290,0.105,-0.070
5.292,0.300,-0.070
5.294,0.370,-0.070
5.296,0.305,-0.070
5.298,0.125,-0.065
5.300,-0.055,-0.065
5.302,-0.245,-0.065
5.304,-0.225,-0.065
5.306,-0.215,-0.065
5.308,-0.085,-0.065
5.310,0.175,-0.065
5.312,0.320,-0.065
5.314,0.340,-0.060
5.316,0.275,-0.055
5.318,0.115,-0.050
5.320,-0.090,-0.050
5.322,-0.240,-0.050
5.324,-0.215,-0.055
5.326,-0.170,-0.060
5.328,0.015,-0.070
5.330,0.170,-0.080
5.332,0.270,-0.090
5.334,0.265,-0.095
5.336,0.270,-0.095
5.338,0.055,-0.095
5.340,-0.145,-0.090
5.342,-0.260,-0.085
5.344,-0.215,-0.080
5.346,-0.205,-0.080
5.348,0.035,-0.085
5.350,0.250,-0.090
5.352,0.305,-0.100
5.354,0.250,-0.105
5.356,0.165,-0.110
5.358,-0.010,-0.110
5.360,-0.155,-0.105
5.362,-0.245,-0.100
5.364,-0.185,-0.090
5.366,-0.130,-0.080
5.368,0.050,-0.075
5.370,0.230,-0.075
5.372,0.310,-0.080
5.374,0.250,-0.085
5.376,0.175,-0.090
5.378,0.040,-0.090
5.380,-0.110,-0.085
5.382,-0.230,-0.080
5.384,-0.185,-0.065
5.386,-0.095,-0.050
5.388,0.110,-0.040
5.390,0.240,-0.030
5.392,0.290,-0.030
5.394,0.270,-0.040
5.396,0.240,-0.055
5.398,0.065,-0.075
5.400,-0.150,-0.090
5.402,-0.235,-0.100
5.404,-0.205,-0.100
5.406,-0.150,-0.095
5.408,0.065,-0.080
5.410,0.245,-0.065
5.412,0.340,-0.045
5.414,0.290,-0.030
5.416,0.275,-0.020
5.418,0.105,-0.020
5.420,-0.055,-0.030
5.422,-0.180,-0.040
5.424,-0.225,-0.055
5.426,-0.170,-0.070
5.428,0.050,-0.080
5.430,0.240,-0.085
5.432,0.295,-0.085
5.434,0.270,-0.080
5.436,0.225,-0.075
5.438,0.050,-0.070
5.440,-0.140,-0.065
5.442,-0.210,-0.065
5.444,-0.215,-0.070
5.446,-0.165,-0.075
5.448,0.050,-0.075
5.450,0.245,-0.080
5.452,0.330,-0.075
5.454,0.290,-0.075
5.456,0.250,-0.070
5.458,0.015,-0.065
5.460,-0.165,-0.060
5.462,-0.215,-0.065
5.464,-0.180,-0.065
5.466,-0.140,-0.075
5.468,0.085,-0.080
5.470,0.250,-0.085
5.472,0.285,-0.085
5.474,0.275,-0.080
5.476,0.225,-0.075
5.478,0.020,-0.070
5.480,-0.170,-0.060
5.482,-0.205,-0.060
5.484,-0.170,-0.055
5.486,-0.100,-0.060
5.488,0.110,-0.065
5.490,0.290,-0.065
5.492,0.330,-0.065
5.494,0.265,-0.065
5.496,0.210,-0.060
5.498,0.025,-0.050
5.500,-0.160,-0.040
5.502,-0.185,-0.035
5.504,-0.180,-0.035
5.506,-0.120,-0.045
5.508,0.130,-0.060
5.510,0.295,-0.080
5.512,0.320,-0.095
5.514,0.235,-0.110
5.516,0.130,-0.115
5.518,-0.120,-0.115
5.520,-0.205,-0.105
5.522,-0.255,-0.090
5.524,-0.140,-0.070
5.526,-0.020,-0.050
5.528,0.175,-0.040
5.530,0.360,-0.030
5.532,0.345,-0.035
5.534,0.305,-0.040
5.536,0.210,-0.050
5.538,-0.035,-0.060
5.540,-0.180,-0.065
5.542,-0.220,-0.065
5.544,-0.180,-0.060
5.546,-0.030,-0.050
5.548,0.185,-0.035
5.550,0.380,-0.020
5.552,0.415,-0.005
5.554,0.320,0.005
5.556,0.220,0.010
5.558,0.020,0.010
5.560,-0.150,0.005
5.562,-0.150,-0.005
5.564,-0.110,-0.020
5.566,-0.020,-0.025
5.568,0.125,-0.030
5.570,0.310,-0.030
5.572,0.425,-0.015
5.574,0.385,0.000
5.576,0.220,0.025
5.578,0.065,0.050
5.580,-0.055,0.070
5.582,-0.015,0.080
5.584,0.005,0.080
5.586,0.070,0.065
5.588,0.215,0.040
5.590,0.325,0.000
5.592,0.315,-0.035
5.594,0.255,-0.075
5.596,0.065,-0.100
5.598,-0.120,-0.120
5.600,-0.250,-0.120
5.602,-0.245,-0.115
5.604,-0.135,-0.095
5.606,-0.005,-0.075
5.608,0.200,-0.055
5.610,0.325,-0.040
5.612,0.340,-0.030
5.614,0.285,-0.030
5.616,0.140,-0.035
5.618,-0.050,-0.045
5.620,-0.220,-0.060
5.622,-0.215,-0.070
5.624,-0.180,-0.080
5.626,0.005,-0.085
5.628,0.185,-0.085
5.630,0.280,-0.080
5.632,0.320,-0.080
5.634,0.295,-0.070
5.636,0.160,-0.065
5.638,-0.100,-0.065
5.640,-0.220,-0.060
5.642,-0.195,-0.055
5.644,-0.160,-0.055
5.646,0.015,-0.055
5.648,0.225,-0.055
5.650,0.370,-0.050
5.652,0.345,-0.050
5.654,0.300,-0.050
5.656,0.105,-0.050
5.658,-0.095,-0.050
5.660,-0.215,-0.045
5.662,-0.195,-0.045
5.664,-0.135,-0.040
5.666,0.035,-0.040
5.668,0.255,-0.040
5.670,0.355,-0.040
5.672,0.405,-0.040
5.674,0.290,-0.045
5.676,0.120,-0.050
5.678,-0.130,-0.060
5.680,-0.235,-0.075
5.682,-0.225,-0.090
5.684,-0.235,-0.110
5.686,-0.035,-0.125
5.688,0.140,-0.130
5.690,0.260,-0.125
5.692,0.260,-0.110
5.694,0.205,-0.070
5.696,0.105,-0.010
5.698,0.025,0.075
5.700,0.075,0.175
5.702,0.160,0.290
5.704,0.345,0.410
5.706,0.705,0.525
5.708,0.995,0.630
5.710,1.140,0.710
5.712,1.140,0.760
5.714,1.055,0.770
5.716,0.875,0.750
5.718,0.730,0.690
5.720,0.635,0.605
5.722,0.425,0.500
5.724,0.195,0.385
5.726,0.230,0.270
5.728,0.360,0.165
5.730,0.405,0.080
5.732,0.405,0.020
5.734,0.290,-0.020
5.736,0.050,-0.035
5.738,-0.065,-0.040
5.740,-0.175,-0.030
5.742,-0.140,-0.015
5.744,-0.090,0.000
5.746,0.145,0.005
5.748,0.340,0.010
5.750,0.365,0.005
5.752,0.355,-0.005
5.754,0.230,-0.020
5.756,0.105,-0.030
5.758,-0.135,-0.040
5.760,-0.195,-0.040
5.762,-0.170,-0.040
5.764,-0.065,-0.035
5.766,0.175,-0.025
5.768,0.320,-0.020
5.770,0.355,-0.010
5.772,0.325,-0.010
5.774,0.250,-0.010
5.776,0.040,-0.015
5.778,-0.130,-0.025
5.780,-0.210,-0.030
5.782,-0.165,-0.030
5.784,-0.070,-0.035
5.786,0.185,-0.030
5.788,0.355,-0.025
5.790,0.385,-0.020
5.792,0.300,-0.015
5.794,0.255,-0.010
5.796,0.015,-0.010
5.798,-0.145,-0.020
5.800,-0.175,-0.025
5.802,-0.145,-0.040
5.804,-0.115,-0.050
5.806,0.115,-0.060
5.808,0.295,-0.065
5.810,0.360,-0.070
5.812,0.325,-0.065
5.814,0.210,-0.060
5.816,0.005,-0.050
5.818,-0.165,-0.040
5.820,-0.215,-0.035
5.822,-0.160,-0.030
5.824,0.015,-0.025
5.826,0.170,-0.025
5.828,0.365,-0.025
5.830,0.355,-0.025
5.832,0.325,-0.025
5.834,0.215,-0.025
5.836,0.020,-0.020
5.838,-0.125,-0.015
5.840,-0.145,-0.015
5.842,-0.135,-0.015
5.844,-0.050,-0.015
5.846,0.180,-0.015
5.848,0.355,-0.015
5.850,0.385,-0.010
5.852,0.370,-0.010
5.854,0.265,-0.005
5.856,0.020,0.000
5.858,-0.115,0.010
5.860,-0.135,0.010
5.862,-0.080,0.015
5.864,0.040,0.010
5.866,0.235,0.005
5.868,0.350,-0.005
5.870,0.305,-0.015
5.872,0.280,-0.025
5.874,0.205,-0.035
5.876,0.025,-0.035
5.878,-0.110,-0.035
5.880,-0.165,-0.035
5.882,-0.125,-0.025
5.884,0.000,-0.020
5.886,0.245,-0.010
5.888,0.350,-0.005
5.890,0.395,0.005
5.892,0.345,0.010
5.894,0.215,0.020
5.896,-0.015,0.035
5.898,-0.095,0.045
5.900,-0.030,0.055
5.902,0.005,0.065
5.904,0.115,0.065
5.906,0.245,0.060
5.908,0.355,0.050
5.910,0.385,0.035
5.912,0.360,0.020
5.914,0.200,0.010
5.916,-0.045,0.000
5.918,-0.115,0.000
5.920,-0.075,0.015
5.922,-0.060,0.030
5.924,0.115,0.055
5.926,0.365,0.080
5.928,0.480,0.100
5.930,0.475,0.110
5.932,0.420,0.120
5.934,0.285,0.115
5.936,0.075,0.110
5.938,-0.055,0.100
5.940,-0.055,0.090
5.942,0.000,0.080
5.944,0.160,0.080
5.946,0.360,0.080
5.948,0.470,0.090
5.950,0.465,0.100
5.952,0.410,0.115
5.954,0.250,0.125
5.956,0.115,0.140
5.958,0.060,0.150
5.960,0.040,0.160
5.962,0.070,0.165
5.964,0.235,0.170
5.966,0.455,0.175
5.968,0.545,0.175
5.970,0.540,0.170
5.972,0.485,0.170
5.974,0.315,0.165
5.976,0.095,0.160
5.978,0.015,0.155
5.980,-0.025,0.150
5.982,0.080,0.150
5.984,0.280,0.150
5.986,0.495,0.150
5.988,0.530,0.155
5.990,0.510,0.165
5.992,0.445,0.170
5.994,0.305,0.180
5.996,0.180,0.185
5.998,0.075,0.185
6.000,0.060,0.180
6.002,0.070,0.175
6.004,0.170,0.160
6.006,0.385,0.140
6.008,0.510,0.115
6.010,0.490,0.095
6.012,0.435,0.070
6.014,0.135,0.055
6.016,-0.035,0.040
6.018,-0.110,0.035
6.020,-0.080,0.035
6.022,-0.030,0.035
6.024,0.160,0.045
6.026,0.335,0.050
6.028,0.405,0.050
6.030,0.385,0.045
6.032,0.410,0.040
6.034,0.175,0.025
6.036,-0.095,0.005
6.038,-0.230,-0.015
6.040,-0.205,-0.035
6.042,-0.130,-0.050
6.044,0.095,-0.065
6.046,0.305,-0.070
6.048,0.320,-0.075
6.050,0.235,-0.070
6.052,0.235,-0.065
6.054,0.045,-0.060
6.056,-0.175,-0.050
6.058,-0.190,-0.045
6.060,-0.170,-0.035
6.062,-0.080,-0.030
6.064,0.145,-0.025
6.066,0.315,-0.020
6.068,0.370,-0.015
6.070,0.285,-0.010
6.072,0.270,-0.010
6.074,0.090,-0.015
6.076,-0.110,-0.020
6.078,-0.200,-0.030
6.080,-0.145,-0.040
6.082,-0.110,-0.055
6.084,0.140,-0.065
6.086,0.260,-0.080
6.088,0.275,-0.085
6.090,0.240,-0.085
6.092,0.185,-0.080
6.094,0.025,-0.070
6.096,-0.155,-0.060
6.098,-0.180,-0.050
6.100,-0.140,-0.040
6.102,-0.065,-0.035
6.104,0.130,-0.035
6.106,0.320,-0.040
6.108,0.345,-0.045
6.110,0.315,-0.050
6.112,0.225,-0.055
6.114,-0.030,-0.055
6.116,-0.180,-0.050
6.118,-0.225,-0.045
6.120,-0.065,-0.035
6.122,0.015,-0.025
6.124,0.175,-0.020
6.126,0.335,-0.010
6.128,0.335,-0.010
6.130,0.290,-0.010
6.132,0.220,-0.010
6.134,0.030,-0.015
6.136,-0.120,-0.020
6.138,-0.200,-0.030
6.140,-0.165,-0.040
6.142,-0.045,-0.045
6.144,0.155,-0.055
6.146,0.330,-0.060
6.148,0.335,-0.070
6.150,0.235,-0.070
6.152,0.160,-0.070
6.154,-0.100,-0.070
6.156,-0.170,-0.070
6.158,-0.200,-0.065
6.160,-0.170,-0.060
6.162,-0.010,-0.055
6.164,0.160,-0.050
6.166,0.320,-0.045
6.168,0.310,-0.040
6.170,0.320,-0.035
6.172,0.180,-0.025
6.174,-0.025,-0.020
6.176,-0.145,-0.015
6.178,-0.165,-0.015
6.180,-0.085,-0.015
6.182,0.085,-0.020
6.184,0.250,-0.025
6.186,0.265,-0.040
6.188,0.315,-0.050
6.190,0.270,-0.060
6.192,0.135,-0.070
6.194,-0.075,-0.070
6.196,-0.170,-0.070
6.198,-0.195,-0.065
6.200,-0.130,-0.060
6.202,-0.025,-0.055
6.204,0.205,-0.050
6.206,0.340,-0.050
6.208,0.320,-0.050
6.210,0.260,-0.050
6.212,0.115,-0.055
6.214,-0.055,-0.055
6.216,-0.185,-0.050
6.218,-0.185,-0.045
6.220,-0.155,-0.040
6.222,0.050,-0.035
6.224,0.210,-0.030
6.226,0.330,-0.025
6.228,0.325,-0.025
6.230,0.285,-0.030
6.232,0.110,-0.035
6.234,-0.040,-0.045
6.236,-0.180,-0.050
6.238,-0.170,-0.055
6.240,-0.155,-0.055
6.242,0.035,-0.050
6.244,0.220,-0.045
6.246,0.330,-0.040
6.248,0.310,-0.035
6.250,0.275,-0.035
6.252,0.105,-0.035
6.254,-0.080,-0.035
6.256,-0.195,-0.040
6.258,-0.215,-0.045
6.260,-0.145,-0.050
6.262,0.025,-0.050
6.264,0.245,-0.045
6.266,0.345,-0.040
6.268,0.345,-0.030
6.270,0.305,-0.020
6.272,0.130,-0.015
6.274,-0.080,-0.010
6.276,-0.175,-0.005
6.278,-0.120,-0.010
6.280,-0.095,-0.020
6.282,0.070,-0.030
6.284,0.270,-0.045
6.286,0.320,-0.055
6.288,0.330,-0.060
6.290,0.270,-0.055
6.292,0.105,-0.050
6.294,-0.095,-0.040
6.296,-0.170,-0.025
6.298,-0.135,-0.010
6.300,-0.105,0.005
6.302,0.125,0.010
6.304,0.285,0.015
6.306,0.380,0.010
6.308,0.375,0.005
6.310,0.300,-0.005
6.312,0.120,-0.010
6.314,-0.090,-0.015
6.316,-0.165,-0.020
6.318,-0.140,-0.015
6.320,-0.105,-0.015
6.322,0.135,-0.010
6.324,0.340,-0.010
6.326,0.350,-0.015
6.328,0.315,-0.020
6.330,0.255,-0.030
6.332,0.045,-0.040
6.334,-0.090,-0.045
6.336,-0.175,-0.050
6.338,-0.155,-0.045
6.340,-0.090,-0.040
6.342,0.105,-0.030
6.344,0.305,-0.020
6.346,0.375,-0.015
6.348,0.340,-0.015
6.350,0.210,-0.020
6.352,0.020,-0.030
6.354,-0.170,-0.040
6.356,-0.210,-0.055
6.358,-0.170,-0.065
6.360,-0.135,-0.070
6.362,0.130,-0.065
6.364,0.305,-0.055
6.366,0.340,-0.045
6.368,0.295,-0.030
6.370,0.240,-0.020
6.372,0.045,-0.015
6.374,-0.130,-0.020
6.376,-0.185,-0.030
6.378,-0.185,-0.045
6.380,-0.115,-0.060
6.382,0.115,-0.070
6.384,0.260,-0.075
6.386,0.300,-0.075
6.388,0.315,-0.065
6.390,0.175,-0.055
6.392,-0.055,-0.050
6.394,-0.115,-0.040
6.396,-0.205,-0.045
6.398,-0.165,-0.050
6.400,-0.100,-0.060
6.402,0.125,-0.070
6.404,0.205,-0.080
6.406,0.260,-0.085
6.408,0.305,-0.085
6.410,0.225,-0.080
6.412,-0.005,-0.075
6.414,-0.190,-0.070
6.416,-0.255,-0.070
6.418,-0.225,-0.075
6.420,-0.125,-0.085
6.422,0.050,-0.100
6.424,0.255,-0.115
6.426,0.270,-0.120
6.428,0.195,-0.110
6.430,0.155,-0.080
6.432,-0.010,-0.030
6.434,-0.050,0.045
6.436,0.030,0.145
6.438,0.160,0.255
6.440,0.385,0.380
6.442,0.715,0.505
6.444,1.055,0.620
6.446,1.165,0.715
6.448,1.140,0.785
6.450,0.990,0.820
6.452,0.775,0.820
6.454,0.740,0.780
6.456,0.740,0.700
6.458,0.660,0.595
6.460,0.450,0.470
6.462,0.355,0.340
6.464,0.400,0.215
6.466,0.425,0.110
6.468,0.315,0.025
6.470,0.250,-0.025
6.472,0.005,-0.055
6.474,-0.165,-0.060
6.476,-0.225,-0.050
6.478,-0.110,-0.040
6.480,-0.010,-0.030
6.482,0.165,-0.025
6.484,0.360,-0.030
6.486,0.330,-0.040
6.488,0.290,-0.050
6.490,0.125,-0.065
6.492,-0.075,-0.075
6.494,-0.200,-0.075
6.496,-0.215,-0.070
6.498,-0.170,-0.065
6.500,-0.010,-0.050
6.502,0.225,-0.040
6.504,0.365,-0.035
6.506,0.370,-0.030
6.508,0.320,-0.025
6.510,0.135,-0.030
6.512,-0.075,-0.035
6.514,-0.225,-0.040
6.516,-0.220,-0.045
6.518,-0.125,-0.050
6.520,0.025,-0.055
6.522,0.225,-0.055
6.524,0.340,-0.055
6.526,0.285,-0.055
6.528,0.290,-0.050
6.530,0.135,-0.050
6.532,-0.070,-0.045
6.534,-0.185,-0.040
6.536,-0.170,-0.035
6.538,-0.115,-0.030
6.540,0.065,-0.030
6.542,0.205,-0.030
6.544,0.330,-0.030
6.546,0.320,-0.030
6.548,0.280,-0.035
6.550,0.135,-0.035
6.552,-0.060,-0.040
6.554,-0.180,-0.040
6.556,-0.230,-0.040
6.558,-0.160,-0.040
6.560,0.045,-0.045
6.562,0.290,-0.045
6.564,0.365,-0.050
6.566,0.290,-0.050
6.568,0.255,-0.055
6.570,0.100,-0.055
6.572,-0.095,-0.050
6.574,-0.210,-0.050
6.576,-0.160,-0.050
6.578,-0.110,-0.045
6.580,0.065,-0.050
6.582,0.255,-0.050
6.584,0.305,-0.055
6.586,0.325,-0.060
6.588,0.240,-0.065
6.590,0.035,-0.065
6.592,-0.135,-0.065
6.594,-0.220,-0.065
6.596,-0.145,-0.055
6.598,-0.085,-0.050
6.600,0.085,-0.040
6.602,0.280,-0.030
6.604,0.355,-0.025
6.606,0.330,-0.015
6.608,0.260,-0.015
6.610,0.080,-0.010
6.612,-0.095,-0.010
6.614,-0.135,-0.005
6.616,-0.090,-0.005
6.618,-0.085,-0.005
6.620,0.150,-0.010
6.622,0.315,-0.015
6.624,0.385,-0.020
6.626,0.330,-0.025
6.628,0.230,-0.035
6.630,0.065,-0.040
6.632,-0.155,-0.040
6.634,-0.180,-0.040
6.636,-0.125,-0.030
6.638,-0.060,-0.020
6.640,0.145,-0.010
6.642,0.345,0.005
6.644,0.415,0.015
6.646,0.350,0.020
6.648,0.325,0.025
6.650,0.075,0.025
6.652,-0.100,0.025
6.654,-0.145,0.025
6.656,-0.120,0.020
6.658,-0.005,0.025
6.660,0.230,0.030
6.662,0.370,0.035
6.664,0.405,0.045
6.666,0.370,0.055
6.668,0.320,0.065
6.670,0.140,0.075
6.672,-0.010,0.080
6.674,-0.055,0.080
6.676,-0.050,0.080
6.678,-0.005,0.080
6.680,0.290,0.085
6.682,0.435,0.085
6.684,0.465,0.090
6.686,0.430,0.095
6.688,0.395,0.100
6.690,0.170,0.100
6.692,-0.015,0.105
6.694,-0.060,0.105
6.696,0.015,0.105
6.698,0.070,0.100
6.700,0.285,0.100
6.702,0.460,0.100
6.704,0.535,0.105
6.706,0.515,0.115
6.708,0.415,0.125
6.710,0.185,0.140
6.712,0.005,0.155
6.714,-0.025,0.165
6.716,0.050,0.170
6.718,0.175,0.170
6.720,0.360,0.165
6.722,0.475,0.155
6.724,0.505,0.145
6.726,0.480,0.130
6.728,0.365,0.115
6.730,0.165,0.110
6.732,0.010,0.105
6.734,-0.035,0.105
6.736,0.015,0.105
6.738,0.100,0.105
6.740,0.300,0.100
6.742,0.415,0.095
6.744,0.450,0.080
6.746,0.415,0.065
6.748,0.330,0.045
6.750,0.060,0.030
6.752,-0.135,0.015
6.754,-0.155,0.005
6.756,-0.090,-0.005
6.758,0.025,-0.005
6.760,0.200,-0.005
6.762,0.360,0.000
6.764,0.395,0.000
6.766,0.335,-0.005
6.768,0.185,-0.010
6.770,-0.045,-0.020
6.772,-0.190,-0.030
6.774,-0.215,-0.045
6.776,-0.135,-0.055
6.778,0.010,-0.060
6.780,0.190,-0.065
6.782,0.310,-0.065
6.784,0.310,-0.065
6.786,0.275,-0.060
6.788,0.130,-0.060
6.790,-0.065,-0.060
6.792,-0.235,-0.065
6.794,-0.230,-0.070
6.796,-0.165,-0.075
6.798,-0.005,-0.080
6.800,0.190,-0.085
6.802,0.290,-0.085
6.804,0.255,-0.085
6.806,0.275,-0.080
6.808,0.150,-0.075
6.810,-0.110,-0.075
6.812,-0.255,-0.075
6.814,-0.240,-0.075
6.816,-0.170,-0.080
6.818,0.000,-0.085
6.820,0.160,-0.090
6.822,0.300,-0.090
6.824,0.300,-0.085
6.826,0.210,-0.080
6.828,0.125,-0.075
6.830,-0.070,-0.065
6.832,-0.250,-0.060
6.834,-0.250,-0.055
6.836,-0.135,-0.060
6.838,0.055,-0.065
6.840,0.260,-0.075
6.842,0.330,-0.085
6.844,0.300,-0.095
6.846,0.210,-0.095
6.848,0.040,-0.095
6.850,-0.140,-0.095
6.852,-0.295,-0.090
6.854,-0.215,-0.085
6.856,-0.135,-0.080
6.858,0.035,-0.085
6.860,0.195,-0.095
6.862,0.245,-0.105
6.864,0.265,-0.115
6.866,0.195,-0.120
6.868,0.040,-0.120
6.870,-0.130,-0.110
6.872,-0.210,-0.095
6.874,-0.170,-0.070
6.876,-0.125,-0.050
6.878,0.050,-0.030
6.880,0.265,-0.020
6.882,0.360,-0.020
6.884,0.335,-0.030
6.886,0.210,-0.050
6.888,0.040,-0.070
6.890,-0.165,-0.095
6.892,-0.255,-0.110
6.894,-0.245,-0.120
6.896,-0.195,-0.115
6.898,0.040,-0.110
6.900,0.245,-0.095
6.902,0.335,-0.075
6.904,0.255,-0.060
6.906,0.235,-0.050
6.908,0.025,-0.045
6.910,-0.145,-0.045
6.912,-0.190,-0.050
6.914,-0.180,-0.060
6.916,-0.110,-0.065
6.918,0.080,-0.075
6.920,0.200,-0.080
6.922,0.285,-0.080
6.924,0.285,-0.080
6.926,0.250,-0.085
6.928,0.005,-0.085
6.930,-0.225,-0.085
6.932,-0.225,-0.090
6.934,-0.190,-0.090
6.936,-0.130,-0.090
6.938,0.045,-0.090
6.940,0.245,-0.090
6.942,0.305,-0.085
6.944,0.310,-0.080
6.946,0.165,-0.075
6.948,-0.020,-0.075
6.950,-0.180,-0.070
6.952,-0.220,-0.075
6.954,-0.125,-0.075
6.956,-0.110,-0.085
6.958,0.095,-0.090
6.960,0.195,-0.095
6.962,0.280,-0.100
6.964,0.250,-0.100
6.966,0.195,-0.100
6.968,-0.030,-0.100
6.970,-0.200,-0.095
6.972,-0.250,-0.090
6.974,-0.185,-0.085
6.976,-0.125,-0.080
6.978,0.085,-0.080
6.980,0.275,-0.080
6.982,0.315,-0.080
6.984,0.260,-0.080
6.986,0.185,-0.080
6.988,-0.005,-0.080
6.990,-0.230,-0.075
6.992,-0.240,-0.070
6.994,-0.160,-0.065
6.996,-0.110,-0.060
6.998,0.075,-0.055
7.000,0.310,-0.055
7.002,0.340,-0.050
7.004,0.365,-0.050
7.006,0.270,-0.050
7.008,-0.010,-0.055
7.010,-0.230,-0.060
7.012,-0.285,-0.065
7.014,-0.225,-0.075
7.016,-0.050,-0.085
7.018,0.165,-0.090
7.020,0.240,-0.095
7.022,0.350,-0.095
7.024,0.270,-0.090
7.026,0.125,-0.085
7.028,-0.050,-0.075
7.030,-0.225,-0.065
7.032,-0.225,-0.055
7.034,-0.180,-0.055
7.036,-0.075,-0.055
7.038,0.155,-0.060
7.040,0.300,-0.070
7.042,0.315,-0.080
7.044,0.240,-0.085
7.046,0.155,-0.085
7.048,-0.125,-0.075
7.050,-0.215,-0.065
7.052,-0.220,-0.050
7.054,-0.035,-0.035
7.056,0.035,-0.020
7.058,0.185,-0.010
7.060,0.305,-0.010
7.062,0.315,-0.015
7.064,0.250,-0.030
7.066,0.140,-0.040
7.068,-0.045,-0.055
7.070,-0.195,-0.065
7.072,-0.230,-0.070
7.074,-0.150,-0.065
7.076,0.010,-0.055
7.078,0.210,-0.045
7.080,0.330,-0.030
7.082,0.340,-0.020
7.084,0.300,-0.010
7.086,0.175,-0.010
7.088,-0.035,-0.010
7.090,-0.155,-0.015
7.092,-0.170,-0.015
7.094,-0.085,-0.020
7.096,0.055,-0.025
7.098,0.200,-0.020
7.100,0.280,-0.015
7.102,0.330,-0.010
7.104,0.320,-0.005
7.106,0.260,0.000
7.108,-0.015,0.000
7.110,-0.135,0.000
7.112,-0.155,-0.010
7.114,-0.155,-0.020
7.116,0.035,-0.030
7.118,0.180,-0.045
7.120,0.280,-0.055
7.122,0.280,-0.065
7.124,0.225,-0.070
7.126,0.075,-0.070
7.128,-0.045,-0.070
7.130,-0.170,-0.070
7.132,-0.250,-0.075
7.134,-0.175,-0.075
7.136,-0.060,-0.080
7.138,0.165,-0.090
7.140,0.290,-0.095
7.142,0.255,-0.105
7.144,0.220,-0.105
7.146,0.110,-0.105
7.148,-0.140,-0.100
7.150,-0.250,-0.090
7.152,-0.225,-0.080
7.154,-0.180,-0.075
7.156,0.015,-0.070
7.158,0.210,-0.065
7.160,0.290,-0.070
7.162,0.280,-0.080
7.164,0.235,-0.085
7.166,0.040,-0.090
7.168,-0.180,-0.095
7.170,-0.275,-0.090
7.172,-0.195,-0.085
7.174,-0.150,-0.080
7.176,0.035,-0.075
7.178,0.235,-0.075
7.180,0.280,-0.075
7.182,0.245,-0.080
7.184,0.215,-0.085
7.186,0.015,-0.090
7.188,-0.165,-0.090
7.190,-0.245,-0.090
7.192,-0.240,-0.085
7.194,-0.190,-0.085
7.196,0.075,-0.085
7.198,0.235,-0.090
7.200,0.325,-0.105
7.202,0.220,-0.120
7.204,0.105,-0.140
7.206,-0.085,-0.155
7.208,-0.345,-0.160
7.210,-0.395,-0.145
7.212,-0.235,-0.110
7.214,-0.155,-0.045
7.216,0.210,0.040
7.218,0.510,0.145
7.220,0.695,0.265
7.222,0.770,0.395
7.224,0.860,0.520
7.226,0.775,0.640
7.228,0.600,0.740
7.230,0.570,0.810
7.232,0.715,0.855
7.234,0.815,0.860
7.236,1.050,0.830
7.238,1.195,0.770
7.240,1.210,0.675
7.242,0.900,0.560
7.244,0.550,0.435
7.246,0.265,0.310
7.248,0.000,0.200
7.250,-0.115,0.100
7.252,-0.095,0.030
7.254,-0.100,-0.015
7.256,0.110,-0.040
7.258,0.285,-0.045
7.260,0.360,-0.040
7.262,0.300,-0.030
7.264,0.240,-0.020
7.266,0.005,-0.015
7.268,-0.180,-0.015
7.270,-0.205,-0.020
7.272,-0.165,-0.030
7.274,-0.075,-0.040
7.276,0.095,-0.050
7.278,0.270,-0.055
7.280,0.340,-0.055
7.282,0.240,-0.055
7.284,0.190,-0.050
7.286,0.000,-0.050
7.288,-0.155,-0.050
7.290,-0.170,-0.045
7.292,-0.135,-0.050
7.294,-0.095,-0.050
7.296,0.090,-0.050
7.298,0.260,-0.050
7.300,0.330,-0.050
7.302,0.315,-0.050
7.304,0.225,-0.050
7.306,-0.005,-0.045
7.308,-0.200,-0.045
7.310,-0.260,-0.040
7.312,-0.145,-0.040
7.314,-0.045,-0.040
7.316,0.140,-0.040
7.318,0.295,-0.045
7.320,0.345,-0.045
7.322,0.270,-0.045
7.324,0.180,-0.050
7.326,-0.040,-0.050
7.328,-0.185,-0.055
7.330,-0.230,-0.055
7.332,-0.160,-0.055
7.334,-0.035,-0.050
7.336,0.160,-0.045
7.338,0.260,-0.035
7.340,0.300,-0.025
7.342,0.320,-0.015
7.344,0.255,-0.005
7.346,0.025,0.005
7.348,-0.150,0.010
7.350,-0.165,0.005
7.352,-0.135,0.000
7.354,-0.045,-0.010
7.356,0.180,-0.025
7.358,0.285,-0.040
7.360,0.340,-0.055
7.362,0.300,-0.060
7.364,0.125,-0.065
7.366,-0.080,-0.060
7.368,-0.190,-0.050
7.370,-0.190,-0.035
7.372,-0.170,-0.025
7.374,-0.035,-0.010
7.376,0.190,0.000
7.378,0.340,0.005
7.380,0.400,0.005
7.382,0.410,0.000
7.384,0.215,-0.005
7.386,-0.065,-0.015
7.388,-0.205,-0.025
7.390,-0.240,-0.025
7.392,-0.140,-0.030
7.394,0.040,-0.025
7.396,0.215,-0.020
7.398,0.350,-0.015
7.400,0.355,-0.005
7.402,0.315,0.000
7.404,0.180,0.005
7.406,-0.005,0.005
7.408,-0.130,0.000
7.410,-0.165,0.000
7.412,-0.155,-0.005
7.414,0.030,-0.005
7.416,0.235,-0.005
7.418,0.345,-0.005
7.420,0.395,0.000
7.422,0.335,0.010
7.424,0.210,0.020
7.426,-0.005,0.030
7.428,-0.090,0.040
7.430,-0.125,0.045
7.432,-0.095,0.045
7.434,0.090,0.045
7.436,0.275,0.040
7.438,0.385,0.040
7.440,0.385,0.035
7.442,0.360,0.040
7.444,0.190,0.045
7.446,0.025,0.055
7.448,-0.075,0.070
7.450,-0.110,0.085
7.452,-0.005,0.100
7.454,0.195,0.110
7.456,0.350,0.115
7.458,0.475,0.120
7.460,0.485,0.115
7.462,0.465,0.105
7.464,0.215,0.100
7.466,-0.015,0.095
7.468,-0.125,0.095
7.470,-0.065,0.095
7.472,-0.005,0.105
7.474,0.215,0.120
7.476,0.465,0.135
7.478,0.550,0.150
7.480,0.490,0.165
7.482,0.440,0.180
7.484,0.265,0.190
7.486,0.055,0.195
7.488,0.035,0.200
7.490,0.080,0.200
7.492,0.145,0.200
7.494,0.355,0.195
7.496,0.430,0.195
7.498,0.530,0.190
7.500,0.550,0.185
7.502,0.450,0.185
7.504,0.290,0.180
7.506,0.090,0.180
7.508,0.005,0.175
7.510,0.035,0.175
7.512,0.080,0.175
7.514,0.270,0.170
7.516,0.410,0.165
7.518,0.505,0.155
7.520,0.520,0.145
7.522,0.445,0.135
7.524,0.215,0.120
7.526,-0.010,0.110
7.528,-0.095,0.105
7.530,-0.105,0.095
7.532,-0.030,0.090
7.534,0.210,0.090
7.536,0.380,0.085
7.538,0.450,0.080
7.540,0.400,0.075
7.542,0.335,0.065
7.544,0.140,0.050
7.546,-0.115,0.035
7.548,-0.220,0.020
7.550,-0.105,0.000
7.552,-0.100,-0.020
7.554,0.065,-0.040
7.556,0.255,-0.055
7.558,0.300,-0.065
7.560,0.300,-0.070
7.562,0.220,-0.070
7.564,-0.020,-0.065
7.566,-0.155,-0.050
7.568,-0.245,-0.040
7.570,-0.160,-0.025
7.572,-0.115,-0.015
7.574,0.150,-0.010
7.576,0.315,-0.010
7.578,0.375,-0.010
7.580,0.295,-0.015
7.582,0.270,-0.020
7.584,-0.010,-0.025
7.586,-0.240,-0.025
7.588,-0.220,-0.025
7.590,-0.145,-0.025
7.592,-0.050,-0.020
7.594,0.150,-0.025
7.596,0.290,-0.030
7.598,0.305,-0.035
7.600,0.240,-0.045
7.602,0.155,-0.055
7.604,-0.060,-0.065
7.606,-0.195,-0.065
7.608,-0.220,-0.060
7.610,-0.150,-0.050
7.612,-0.060,-0.035
7.614,0.165,-0.020
7.616,0.315,-0.010
7.618,0.340,-0.005
7.620,0.305,-0.010
7.622,0.235,-0.020
7.624,-0.055,-0.035
7.626,-0.180,-0.055
7.628,-0.275,-0.070
7.630,-0.230,-0.080
7.632,-0.085,-0.085
7.634,0.130,-0.080
7.636,0.275,-0.070
7.638,0.310,-0.055
7.640,0.255,-0.040
7.642,0.155,-0.030
7.644,-0.060,-0.025
7.646,-0.205,-0.025
7.648,-0.235,-0.035
7.650,-0.185,-0.050
7.652,-0.035,-0.065
7.654,0.175,-0.075
7.656,0.260,-0.085
7.658,0.200,-0.085
7.660,0.210,-0.080
7.662,0.130,-0.070
7.664,-0.035,-0.055
7.666,-0.205,-0.040
7.668,-0.205,-0.030
7.670,-0.135,-0.025
7.672,-0.030,-0.020
7.674,0.175,-0.025
7.676,0.320,-0.035
7.678,0.310,-0.040
7.680,0.290,-0.045
7.682,0.145,-0.050
7.684,-0.100,-0.050
7.686,-0.275,-0.050
7.688,-0.245,-0.045
7.690,-0.145,-0.040
7.692,-0.010,-0.035
7.694,0.180,-0.035
7.696,0.330,-0.040
7.698,0.315,-0.050
7.700,0.235,-0.060
7.702,0.075,-0.070
7.704,-0.140,-0.080
7.706,-0.265,-0.085
7.708,-0.275,-0.085
7.710,-0.215,-0.085
7.712,-0.055,-0.080
7.714,0.165,-0.070
7.716,0.290,-0.065
7.718,0.300,-0.055
7.720,0.270,-0.050
7.722,0.110,-0.045
7.724,-0.120,-0.045
7.726,-0.235,-0.045
7.728,-0.270,-0.050
7.730,-0.170,-0.055
7.732,0.000,-0.055
7.734,0.200,-0.060
7.736,0.355,-0.060
7.738,0.325,-0.055
7.740,0.230,-0.045
7.742,0.085,-0.040
7.744,-0.120,-0.030
7.746,-0.235,-0.025
7.748,-0.195,-0.020
7.750,-0.150,-0.020
7.752,0.040,-0.025
7.754,0.210,-0.030
7.756,0.325,-0.040
7.758,0.265,-0.050
7.760,0.215,-0.055
7.762,0.060,-0.055
7.764,-0.090,-0.050
7.766,-0.215,-0.045
7.768,-0.250,-0.040
7.770,-0.190,-0.035
7.772,0.015,-0.030
7.774,0.205,-0.025
7.776,0.320,-0.025
7.778,0.350,-0.025
7.780,0.275,-0.025
7.782,0.085,-0.025
7.784,-0.180,-0.025
7.786,-0.225,-0.025
7.788,-0.185,-0.030
7.790,-0.110,-0.035
7.792,-0.005,-0.040
7.794,0.185,-0.050
7.796,0.270,-0.060
7.798,0.275,-0.065
7.800,0.205,-0.070
7.802,-0.010,-0.070
7.804,-0.185,-0.065
7.806,-0.245,-0.060
7.808,-0.210,-0.050
7.810,-0.135,-0.040
7.812,0.050,-0.035
7.814,0.280,-0.035
7.816,0.340,-0.045
7.818,0.235,-0.055
7.820,0.110,-0.065
7.822,-0.030,-0.080
7.824,-0.185,-0.085
7.826,-0.220,-0.090
7.828,-0.215,-0.085
7.830,-0.205,-0.075
7.832,0.015,-0.065
7.834,0.235,-0.050
7.836,0.300,-0.035
7.838,0.250,-0.030
7.840,0.245,-0.025
7.842,0.055,-0.025
7.844,-0.190,-0.030
7.846,-0.250,-0.035
7.848,-0.170,-0.035
7.850,-0.105,-0.040
7.852,0.100,-0.040
7.854,0.270,-0.040
7.856,0.300,-0.035
7.858,0.225,-0.035
7.860,0.190,-0.030
7.862,0.045,-0.030
7.864,-0.170,-0.035
7.866,-0.225,-0.035
7.868,-0.225,-0.040
7.870,-0.105,-0.045
7.872,0.115,-0.050
7.874,0.270,-0.055
7.876,0.360,-0.055
7.878,0.210,-0.055
7.880,0.170,-0.050
7.882,-0.070,-0.050
7.884,-0.260,-0.040
7.886,-0.210,-0.035
7.888,-0.155,-0.035
7.890,-0.095,-0.035
7.892,0.125,-0.035
7.894,0.325,-0.035
7.896,0.290,-0.040
7.898,0.255,-0.045
7.900,0.185,-0.050
7.902,-0.050,-0.050
7.904,-0.195,-0.050
7.906,-0.255,-0.045
7.908,-0.185,-0.040
7.910,-0.100,-0.035
7.912,0.140,-0.025
7.914,0.310,-0.015
7.916,0.345,-0.005
7.918,0.310,0.005
7.920,0.250,0.015
7.922,0.030,0.025
7.924,-0.145,0.030
7.926,-0.195,0.035
7.928,-0.120,0.035
7.930,-0.025,0.030
7.932,0.190,0.025
7.934,0.325,0.020
7.936,0.355,0.010
7.938,0.300,0.000
7.940,0.200,-0.005
7.942,-0.040,-0.010
7.944,-0.210,-0.015
7.946,-0.255,-0.015
7.948,-0.205,-0.020
7.950,-0.060,-0.025
7.952,0.150,-0.035
7.954,0.305,-0.040
7.956,0.300,-0.045
7.958,0.220,-0.050
7.960,0.060,-0.050
7.962,-0.130,-0.050
7.964,-0.240,-0.045
7.966,-0.190,-0.040
7.968,-0.155,-0.035
7.970,-0.045,-0.035
7.972,0.120,-0.035
7.974,0.250,-0.040
7.976,0.250,-0.050
7.978,0.170,-0.055
7.980,0.095,-0.065
7.982,-0.105,-0.075
7.984,-0.270,-0.075
7.986,-0.250,-0.080
7.988,-0.165,-0.075
7.990,-0.070,-0.070
7.992,0.100,-0.065
7.994,0.280,-0.065
7.996,0.280,-0.065
7.998,0.195,-0.065
8.000,0.045,-0.070
8.002,-0.155,-0.075
8.004,-0.295,-0.080
8.006,-0.300,-0.080
8.008,-0.210,-0.075
8.010,0.025,-0.065
8.012,0.245,-0.055
8.014,0.315,-0.045
8.016,0.255,-0.035
8.018,0.210,-0.025
8.020,0.075,-0.020
8.022,-0.120,-0.020
8.024,-0.245,-0.025
8.026,-0.230,-0.035
8.028,-0.165,-0.045
8.030,0.020,-0.055
8.032,0.210,-0.065
8.034,0.280,-0.075
8.036,0.220,-0.085
8.038,0.165,-0.090
8.040,-0.030,-0.090
8.042,-0.265,-0.090
8.044,-0.290,-0.080
8.046,-0.290,-0.060
8.048,-0.150,-0.015
8.050,0.100,0.050
8.052,0.420,0.140
8.054,0.630,0.255
8.056,0.730,0.390
8.058,0.875,0.540
8.060,0.820,0.685
8.062,0.705,0.815
8.064,0.695,0.910
8.066,0.775,0.965
8.068,0.840,0.965
8.070,1.045,0.915
8.072,1.220,0.820
8.074,1.215,0.695
8.076,0.810,0.550
8.078,0.475,0.410
8.080,0.200,0.280
8.082,-0.025,0.175
8.084,-0.140,0.095
8.086,-0.160,0.045
8.088,-0.095,0.020
8.090,0.060,0.010
8.092,0.310,0.005
8.094,0.400,0.010
8.096,0.270,0.010
8.098,0.255,0.005
8.100,0.050,0.000
8.102,-0.170,-0.010
8.104,-0.250,-0.015
8.106,-0.245,-0.025
8.108,-0.150,-0.035
8.110,0.075,-0.040
8.112,0.210,-0.040
8.114,0.285,-0.040
8.116,0.260,-0.035
8.118,0.215,-0.030
8.120,0.030,-0.025
8.122,-0.150,-0.020
8.124,-0.210,-0.015
8.126,-0.180,-0.015
8.128,-0.125,-0.015
8.130,0.030,-0.020
8.132,0.245,-0.030
8.134,0.285,-0.040
8.136,0.300,-0.050
8.138,0.205,-0.055
8.140,0.005,-0.055
8.142,-0.240,-0.050
8.144,-0.310,-0.040
8.146,-0.215,-0.030
8.148,-0.110,-0.025
8.150,0.135,-0.015
8.152,0.300,-0.015
8.154,0.275,-0.020
8.156,0.230,-0.030
8.158,0.165,-0.040
8.160,-0.045,-0.050
8.162,-0.210,-0.060
8.164,-0.275,-0.070
8.166,-0.195,-0.070
8.168,-0.175,-0.065
8.170,0.065,-0.060
8.172,0.225,-0.050
8.174,0.290,-0.045
8.176,0.250,-0.040
8.178,0.210,-0.035
8.180,-0.055,-0.040
8.182,-0.235,-0.040
8.184,-0.270,-0.045
8.186,-0.215,-0.045
8.188,-0.130,-0.045
8.190,0.105,-0.040
8.192,0.290,-0.035
8.194,0.350,-0.025
8.196,0.285,-0.015
8.198,0.155,-0.005
8.200,-0.055,0.005
8.202,-0.150,0.010
8.204,-0.190,0.010
8.206,-0.150,0.010
8.208,-0.065,0.005
8.210,0.110,-0.005
8.212,0.270,-0.015
8.214,0.315,-0.020
8.216,0.270,-0.030
8.218,0.185,-0.030
8.220,-0.045,-0.030
8.222,-0.180,-0.030
8.224,-0.220,-0.025
8.226,-0.230,-0.020
8.228,-0.120,-0.015
8.230,0.140,-0.010
8.232,0.290,-0.010
8.234,0.360,-0.005
8.236,0.295,-0.005
8.238,0.175,-0.005
8.240,-0.070,-0.005
8.242,-0.200,-0.005
8.244,-0.200,-0.005
8.246,-0.125,-0.005
8.248,-0.040,0.000
8.250,0.195,0.005
8.252,0.270,0.010
8.254,0.330,0.010
8.256,0.305,0.015
8.258,0.175,0.020
8.260,-0.030,0.025
8.262,-0.170,0.030
8.264,-0.200,0.035
8.266,-0.095,0.035
8.268,0.015,0.040
8.270,0.225,0.040
8.272,0.360,0.045
8.274,0.365,0.050
8.276,0.315,0.055
8.278,0.210,0.065
8.280,0.005,0.070
8.282,-0.130,0.080
8.284,-0.115,0.085
8.286,-0.070,0.090
8.288,0.085,0.095
8.290,0.300,0.095
8.292,0.435,0.095
8.294,0.400,0.095
8.296,0.345,0.095
8.298,0.200,0.100
8.300,-0.030,0.105
8.302,-0.070,0.115
8.304,-0.055,0.125
8.306,0.045,0.135
8.308,0.175,0.140
8.310,0.335,0.145
8.312,0.425,0.145
8.314,0.395,0.145
8.316,0.370,0.140
8.318,0.220,0.140
8.320,0.040,0.140
8.322,-0.080,0.140
8.324,-0.025,0.150
8.326,0.065,0.160
8.328,0.255,0.170
8.330,0.385,0.180
8.332,0.500,0.195
8.334,0.510,0.200
8.336,0.465,0.205
8.338,0.290,0.205
8.340,0.095,0.200
8.342,-0.040,0.195
8.344,-0.050,0.190
8.346,0.035,0.180
8.348,0.205,0.175
8.350,0.390,0.170
8.352,0.495,0.165
8.354,0.460,0.160
8.356,0.410,0.155
8.358,0.225,0.150
8.360,0.020,0.140
8.362,-0.125,0.130
8.364,-0.085,0.120
8.366,-0.050,0.105
8.368,0.135,0.095
8.370,0.290,0.080
8.372,0.405,0.065
8.374,0.365,0.055
8.376,0.250,0.045
8.378,0.070,0.035
8.380,-0.155,0.025
8.382,-0.170,0.020
8.384,-0.185,0.015
8.386,-0.145,0.010
8.388,0.040,0.005
8.390,0.205,-0.005
8.392,0.355,-0.010
8.394,0.335,-0.020
8.396,0.240,-0.030
8.398,0.020,-0.040
8.400,-0.245,-0.055
8.402,-0.340,-0.070
8.404,-0.335,-0.080
8.406,-0.205,-0.095
8.408,0.010,-0.100
8.410,0.125,-0.105
8.412,0.255,-0.105
8.414,0.235,-0.095
8.416,0.155,-0.085
8.418,-0.020,-0.075
8.420,-0.190,-0.065
8.422,-0.280,-0.060
8.424,-0.275,-0.055
8.426,-0.200,-0.055
8.428,-0.010,-0.060
8.430,0.160,-0.065
8.432,0.230,-0.065
8.434,0.260,-0.070
8.436,0.205,-0.065
8.438,-0.030,-0.060
8.440,-0.170,-0.050
8.442,-0.215,-0.040
8.444,-0.185,-0.035
8.446,-0.185,-0.035
8.448,-0.010,-0.040
8.450,0.200,-0.050
8.452,0.255,-0.065
8.454,0.200,-0.075
8.456,0.165,-0.090
8.458,-0.075,-0.095
8.460,-0.230,-0.095
8.462,-0.295,-0.085
8.464,-0.255,-0.075
8.466,-0.215,-0.060
8.468,0.070,-0.045
8.470,0.210,-0.035
8.472,0.250,-0.035
8.474,0.250,-0.045
8.476,0.210,-0.055
8.478,-0.040,-0.070
8.480,-0.290,-0.090
8.482,-0.365,-0.100
8.484,-0.295,-0.110
8.486,-0.200,-0.110
8.488,0.055,-0.105
8.490,0.200,-0.095
8.492,0.230,-0.085
8.494,0.130,-0.075
8.496,0.080,-0.075
8.498,-0.090,-0.075
8.500,-0.220,-0.075
8.502,-0.230,-0.080
8.504,-0.220,-0.090
8.506,-0.225,-0.090
8.508,0.010,-0.090
8.510,0.150,-0.085
8.512,0.215,-0.080
8.514,0.195,-0.070
8.516,0.150,-0.060
8.518,-0.015,-0.050
8.520,-0.210,-0.050
8.522,-0.295,-0.045
8.524,-0.310,-0.050
8.526,-0.160,-0.050
8.528,0.100,-0.055
8.530,0.230,-0.060
8.532,0.235,-0.065
8.534,0.175,-0.065
8.536,0.090,-0.065
8.538,-0.075,-0.065
8.540,-0.240,-0.065
8.542,-0.280,-0.065
8.544,-0.245,-0.065
8.546,-0.135,-0.065
8.548,0.055,-0.070
8.550,0.215,-0.070
8.552,0.275,-0.070
8.554,0.190,-0.070
8.556,0.045,-0.070
8.558,-0.145,-0.065
8.560,-0.255,-0.065
8.562,-0.315,-0.065
8.564,-0.260,-0.070
8.566,-0.140,-0.075
8.568,0.055,-0.080
8.570,0.205,-0.080
8.572,0.240,-0.085
8.574,0.175,-0.080
8.576,0.055,-0.080
8.578,-0.145,-0.075
8.580,-0.280,-0.070
8.582,-0.265,-0.065
8.584,-0.230,-0.065
8.586,-0.100,-0.065
8.588,0.095,-0.065
8.590,0.190,-0.070
8.592,0.200,-0.075
8.594,0.180,-0.075
8.596,0.050,-0.075
8.598,-0.150,-0.070
8.600,-0.275,-0.070
8.602,-0.255,-0.065
8.604,-0.240,-0.065
8.606,-0.060,-0.070
8.608,0.125,-0.075
8.610,0.190,-0.080
8.612,0.225,-0.085
8.614,0.175,-0.090
8.616,0.025,-0.090
8.618,-0.255,-0.085
8.620,-0.320,-0.075
8.622,-0.210,-0.065
8.624,-0.175,-0.055
8.626,-0.080,-0.050
8.628,0.080,-0.050
8.630,0.195,-0.060
8.632,0.190,-0.070
8.634,0.165,-0.080
8.636,-0.010,-0.090
8.638,-0.200,-0.100
8.640,-0.265,-0.100
8.642,-0.285,-0.100
8.644,-0.230,-0.095
8.646,-0.095,-0.085
8.648,0.115,-0.075
8.650,0.205,-0.070
8.652,0.190,-0.070
8.654,0.150,-0.075
8.656,-0.025,-0.080
8.658,-0.190,-0.090
8.660,-0.285,-0.095
8.662,-0.285,-0.100
8.664,-0.250,-0.100
8.666,-0.080,-0.100
8.668,0.105,-0.095
8.670,0.245,-0.090
8.672,0.185,-0.085
8.674,0.150,-0.080
8.676,-0.030,-0.080
8.678,-0.195,-0.080
8.680,-0.275,-0.080
8.682,-0.270,-0.080
8.684,-0.250,-0.080
8.686,-0.055,-0.075
8.688,0.180,-0.070
8.690,0.285,-0.060
8.692,0.255,-0.055
8.694,0.165,-0.050
8.696,-0.030,-0.045
8.698,-0.230,-0.045
8.700,-0.295,-0.050
8.702,-0.240,-0.055
8.704,-0.175,-0.060
8.706,-0.030,-0.065
8.708,0.145,-0.070
8.710,0.265,-0.065
8.712,0.230,-0.065
8.714,0.185,-0.060
8.716,-0.065,-0.055
8.718,-0.240,-0.055
8.720,-0.285,-0.060
8.722,-0.310,-0.065
8.724,-0.210,-0.075
8.726,-0.010,-0.085
8.728,0.120,-0.095
8.730,0.165,-0.105
8.732,0.185,-0.105
8.734,0.135,-0.105
8.736,-0.060,-0.100
8.738,-0.235,-0.095
8.740,-0.315,-0.085
8.742,-0.260,-0.080
8.744,-0.205,-0.075
8.746,-0.025,-0.075
8.748,0.175,-0.070
8.750,0.280,-0.070
8.752,0.215,-0.070
8.754,0.110,-0.065
8.756,-0.040,-0.055
8.758,-0.220,-0.045
8.760,-0.240,-0.035
8.762,-0.245,-0.025
8.764,-0.120,-0.015
8.766,0.110,-0.010
8.768,0.200,-0.005
8.770,0.260,-0.005
8.772,0.270,-0.005
8.774,0.170,-0.010
8.776,-0.020,-0.010
8.778,-0.165,-0.010
8.780,-0.205,-0.010
8.782,-0.195,-0.010
8.784,-0.160,-0.010
8.786,0.075,-0.005
8.788,0.265,0.000
8.790,0.275,0.000
8.792,0.210,0.005
8.794,0.205,0.005
8.796,0.030,0.005
8.798,-0.175,0.000
8.800,-0.190,-0.005
8.802,-0.235,-0.015
8.804,-0.250,-0.025
8.806,0.050,-0.040
8.808,0.245,-0.050
8.810,0.280,-0.055
8.812,0.220,-0.055
8.814,0.075,-0.055
8.816,-0.090,-0.050
8.818,-0.195,-0.040
8.820,-0.280,-0.035
8.822,-0.225,-0.035
8.824,-0.125,-0.040
8.826,0.055,-0.050
8.828,0.185,-0.065
8.830,0.210,-0.075
8.832,0.125,-0.085
8.834,0.050,-0.085
8.836,-0.105,-0.080
8.838,-0.185,-0.070
8.840,-0.260,-0.055
8.842,-0.265,-0.045
8.844,-0.125,-0.035
8.846,0.100,-0.030
8.848,0.195,-0.035
8.850,0.240,-0.040
8.852,0.170,-0.055
8.854,0.070,-0.065
8.856,-0.070,-0.070
8.858,-0.265,-0.070
8.860,-0.260,-0.065
8.862,-0.205,-0.050
8.864,-0.130,-0.040
8.866,0.100,-0.025
8.868,0.245,-0.020
8.870,0.280,-0.015
8.872,0.225,-0.020
8.874,0.065,-0.030
8.876,-0.170,-0.040
8.878,-0.245,-0.050
8.880,-0.250,-0.060
8.882,-0.215,-0.060
8.884,-0.110,-0.060
8.886,0.080,-0.055
8.888,0.190,-0.050
8.890,0.235,-0.045
8.892,0.180,-0.045
8.894,0.065,-0.045
8.896,-0.075,-0.055
8.898,-0.240,-0.065
8.900,-0.325,-0.075
8.902,-0.310,-0.090
8.904,-0.145,-0.105
8.906,0.020,-0.115
8.908,0.140,-0.110
8.910,0.180,-0.090
8.912,0.155,-0.045
8.914,0.105,0.020
8.916,0.030,0.115
8.918,0.035,0.240
8.920,0.205,0.380
8.922,0.395,0.530
8.924,0.735,0.675
8.926,1.025,0.805
8.928,1.180,0.900
8.930,1.185,0.960
8.932,1.130,0.970
8.934,1.055,0.930
8.936,0.845,0.850
8.938,0.725,0.735
8.940,0.415,0.600
8.942,0.170,0.455
8.944,0.150,0.320
8.946,0.300,0.200
8.948,0.345,0.100
8.950,0.265,0.030
8.952,0.215,-0.015
8.954,0.030,-0.035
8.956,-0.115,-0.040
8.958,-0.215,-0.035
8.960,-0.230,-0.025
8.962,-0.180,-0.010
8.964,0.010,0.005
8.966,0.195,0.010
8.968,0.255,0.010
8.970,0.270,0.005
8.972,0.205,-0.005
8.974,0.075,-0.020
8.976,-0.175,-0.035
8.978,-0.310,-0.055
8.980,-0.285,-0.070
8.982,-0.265,-0.080
8.984,-0.095,-0.090
8.986,0.120,-0.090
8.988,0.225,-0.085
8.990,0.240,-0.080
8.992,0.175,-0.065
8.994,-0.025,-0.055
8.996,-0.225,-0.040
8.998,-0.280,-0.025
9.000,-0.210,-0.015
9.002,-0.160,-0.010
9.004,-0.005,-0.005
9.006,0.230,-0.010
9.008,0.285,-0.020
9.010,0.240,-0.030
9.012,0.115,-0.040
9.014,-0.065,-0.050
9.016,-0.205,-0.055
9.018,-0.255,-0.060
9.020,-0.270,-0.060
9.022,-0.205,-0.060
9.024,-0.020,-0.055
9.026,0.170,-0.055
9.028,0.265,-0.050
9.030,0.190,-0.050
9.032,0.135,-0.050
9.034,-0.065,-0.050
9.036,-0.215,-0.050
9.038,-0.240,-0.050
9.040,-0.230,-0.050
9.042,-0.210,-0.050
9.044,-0.005,-0.050
9.046,0.175,-0.045
9.048,0.235,-0.045
9.050,0.215,-0.040
9.052,0.145,-0.035
9.054,-0.050,-0.030
9.056,-0.200,-0.020
9.058,-0.210,-0.015
9.060,-0.215,-0.010
9.062,-0.185,-0.005
9.064,0.065,0.000
9.066,0.210,-0.005
9.068,0.285,-0.010
9.070,0.245,-0.015
9.072,0.150,-0.025
9.074,-0.070,-0.035
9.076,-0.205,-0.040
9.078,-0.245,-0.035
9.080,-0.210,-0.030
9.082,-0.115,-0.020
9.084,0.095,-0.005
9.086,0.210,0.010
9.088,0.305,0.020
9.090,0.240,0.025
9.092,0.180,0.025
9.094,0.000,0.020
9.096,-0.145,0.010
9.098,-0.225,0.000
9.100,-0.245,-0.010
9.102,-0.200,-0.020
9.104,0.050,-0.025
9.106,0.255,-0.025
9.108,0.290,-0.020
9.110,0.230,-0.010
9.112,0.165,-0.005
9.114,-0.050,0.005
9.116,-0.210,0.010
9.118,-0.220,0.010
9.120,-0.145,0.010
9.122,-0.080,0.010
9.124,0.085,0.005
9.126,0.220,0.005
9.128,0.285,0.010
9.130,0.275,0.015
9.132,0.180,0.020
9.134,0.000,0.030
9.136,-0.165,0.040
9.138,-0.175,0.050
9.140,-0.155,0.055
9.142,-0.040,0.060
9.144,0.095,0.060
9.146,0.290,0.060
9.148,0.370,0.065
9.150,0.315,0.065
9.152,0.230,0.070
9.154,0.025,0.075
9.156,-0.145,0.085
9.158,-0.125,0.095
9.160,-0.100,0.105
9.162,0.050,0.115
9.164,0.210,0.120
9.166,0.415,0.125
9.168,0.370,0.125
9.170,0.340,0.125
9.172,0.220,0.125
9.174,0.090,0.125
9.176,-0.065,0.130
9.178,-0.070,0.130
9.180,-0.060,0.140
9.182,0.090,0.145
9.184,0.275,0.155
9.186,0.395,0.160
9.188,0.420,0.165
9.190,0.395,0.170
9.192,0.315,0.175
9.194,0.150,0.185
9.196,0.035,0.190
9.198,0.000,0.195
9.200,-0.020,0.200
9.202,0.100,0.200
9.204,0.340,0.200
9.206,0.485,0.200
9.208,0.495,0.190
9.210,0.425,0.180
9.212,0.270,0.170
9.214,0.020,0.160
9.216,-0.090,0.145
9.218,-0.070,0.135
9.220,-0.090,0.125
9.222,0.095,0.115
9.224,0.305,0.110
9.226,0.395,0.105
9.228,0.370,0.095
9.230,0.325,0.090
9.232,0.190,0.085
9.234,-0.055,0.080
9.236,-0.150,0.075
9.238,-0.150,0.070
9.240,-0.110,0.065
9.242,0.015,0.055
9.244,0.205,0.045
9.246,0.305,0.035
9.248,0.340,0.020
9.250,0.275,0.010
9.252,0.070,-0.005
9.254,-0.165,-0.015
9.256,-0.275,-0.025
9.258,-0.280,-0.030
9.260,-0.225,-0.030
9.262,-0.005,-0.030
9.264,0.185,-0.030
9.266,0.265,-0.025
9.268,0.270,-0.025
9.270,0.165,-0.020
9.272,-0.060,-0.020
9.274,-0.180,-0.020
9.276,-0.230,-0.015
9.278,-0.185,-0.015
9.280,-0.115,-0.020
9.282,0.005,-0.025
9.284,0.095,-0.030
9.286,0.250,-0.040
9.288,0.190,-0.050
9.290,0.125,-0.060
9.292,-0.045,-0.065
9.294,-0.230,-0.070
9.296,-0.280,-0.070
9.298,-0.270,-0.070
9.300,-0.200,-0.065
9.302,0.005,-0.060
9.304,0.155,-0.060
9.306,0.205,-0.060
9.308,0.205,-0.060
9.310,0.145,-0.065
9.312,-0.080,-0.070
9.314,-0.225,-0.075
9.316,-0.270,-0.075
9.318,-0.260,-0.070
9.320,-0.205,-0.065
9.322,0.005,-0.055
9.324,0.190,-0.045
9.326,0.220,-0.040
9.328,0.190,-0.040
9.330,0.130,-0.045
9.332,-0.050,-0.050
9.334,-0.255,-0.060
9.336,-0.345,-0.065
9.338,-0.260,-0.070
9.340,-0.175,-0.070
9.342,0.015,-0.060
9.344,0.185,-0.050
9.346,0.255,-0.040
9.348,0.170,-0.035
9.350,0.185,-0.030
9.352,-0.050,-0.030
9.354,-0.240,-0.040
9.356,-0.305,-0.050
9.358,-0.280,-0.065
9.360,-0.215,-0.080
9.362,-0.005,-0.095
9.364,0.100,-0.100
9.366,0.170,-0.100
9.368,0.165,-0.095
9.370,0.120,-0.085
9.372,-0.055,-0.075
9.374,-0.260,-0.065
9.376,-0.350,-0.060
9.378,-0.305,-0.055
9.380,-0.195,-0.055
9.382,0.045,-0.060
9.384,0.170,-0.070
9.386,0.245,-0.075
9.388,0.150,-0.085
9.390,0.065,-0.085
9.392,-0.090,-0.080
9.394,-0.280,-0.075
9.396,-0.295,-0.065
9.398,-0.250,-0.055
9.400,-0.150,-0.045
9.402,0.080,-0.040
9.404,0.220,-0.035
9.406,0.215,-0.035
9.408,0.165,-0.040
9.410,0.115,-0.045
9.412,-0.130,-0.055
9.414,-0.270,-0.060
9.416,-0.280,-0.065
9.418,-0.240,-0.070
9.420,-0.165,-0.070
9.422,0.025,-0.070
9.424,0.190,-0.070
9.426,0.225,-0.070
9.428,0.140,-0.070
9.430,0.070,-0.070
9.432,-0.135,-0.070
9.434,-0.265,-0.070
9.436,-0.285,-0.070
9.438,-0.225,-0.070
9.440,-0.135,-0.065
9.442,0.070,-0.055
9.444,0.255,-0.050
9.446,0.245,-0.040
9.448,0.115,-0.030
9.450,0.085,-0.020
9.452,-0.095,-0.015
9.454,-0.220,-0.015
9.456,-0.230,-0.020
9.458,-0.195,-0.025
9.460,-0.130,-0.030
9.462,0.120,-0.045
9.464,0.255,-0.055
9.466,0.225,-0.065
9.468,0.105,-0.075
9.470,0.005,-0.080
9.472,-0.200,-0.085
9.474,-0.285,-0.085
9.476,-0.285,-0.080
9.478,-0.145,-0.075
9.480,-0.145,-0.070
9.482,0.055,-0.070
9.484,0.215,-0.065
9.486,0.225,-0.065
9.488,0.160,-0.060
9.490,0.060,-0.060
9.492,-0.165,-0.060
9.494,-0.285,-0.060
9.496,-0.255,-0.055
9.498,-0.210,-0.055
9.500,-0.070,-0.050
9.502,0.115,-0.050
9.504,0.210,-0.050
9.506,0.200,-0.055
9.508,0.155,-0.060
9.510,0.050,-0.060
9.512,-0.170,-0.065
9.514,-0.305,-0.070
9.516,-0.295,-0.065
9.518,-0.245,-0.065
9.520,-0.065,-0.060
9.522,0.100,-0.055
9.524,0.260,-0.045
9.526,0.280,-0.040
9.528,0.190,-0.040
9.530,0.035,-0.040
9.532,-0.190,-0.040
9.534,-0.300,-0.045
9.536,-0.270,-0.055
9.538,-0.225,-0.060
9.540,-0.045,-0.065
9.542,0.150,-0.070
9.544,0.215,-0.070
9.546,0.205,-0.070
9.548,0.110,-0.070
9.550,0.000,-0.065
9.552,-0.180,-0.060
9.554,-0.280,-0.055
9.556,-0.290,-0.055
9.558,-0.235,-0.055
9.560,-0.035,-0.055
9.562,0.145,-0.055
9.564,0.220,-0.060
9.566,0.205,-0.060
9.568,0.160,-0.055
9.570,0.000,-0.050
9.572,-0.180,-0.045
9.574,-0.290,-0.040
9.576,-0.255,-0.035
9.578,-0.195,-0.030
9.580,-0.020,-0.030
9.582,0.225,-0.035
9.584,0.305,-0.040
9.586,0.220,-0.050
9.588,0.115,-0.065
9.590,-0.090,-0.075
9.592,-0.255,-0.085
9.594,-0.330,-0.090
9.596,-0.245,-0.090
9.598,-0.220,-0.085
9.600,-0.025,-0.070
9.602,0.185,-0.055
9.604,0.255,-0.040
9.606,0.230,-0.025
9.608,0.195,-0.020
9.610,-0.010,-0.015
9.612,-0.175,-0.020
9.614,-0.270,-0.025
9.616,-0.240,-0.035
9.618,-0.175,-0.045
9.620,0.015,-0.050
9.622,0.170,-0.050
9.624,0.220,-0.045
9.626,0.210,-0.035
9.628,0.190,-0.020
9.630,0.020,-0.010
9.632,-0.165,0.005
9.634,-0.230,0.015
9.636,-0.220,0.020
9.638,-0.105,0.025
9.640,0.090,0.020
9.642,0.295,0.015
9.644,0.315,0.010
9.646,0.215,0.000
9.648,0.170,-0.005
9.650,-0.010,-0.015
9.652,-0.180,-0.020
9.654,-0.255,-0.025
9.656,-0.220,-0.025
9.658,-0.195,-0.025
9.660,0.070,-0.020
9.662,0.240,-0.020
9.664,0.270,-0.015
9.666,0.270,-0.015
9.668,0.260,-0.015
9.670,-0.020,-0.015
9.672,-0.235,-0.020
9.674,-0.305,-0.030
9.676,-0.245,-0.035
9.678,-0.180,-0.045
9.680,-0.015,-0.050
9.682,0.195,-0.050
9.684,0.310,-0.050
9.686,0.300,-0.050
9.688,0.165,-0.050
9.690,-0.085,-0.050
9.692,-0.290,-0.050
9.694,-0.365,-0.055
9.696,-0.280,-0.065
9.698,-0.170,-0.075
9.700,-0.010,-0.085
9.702,0.165,-0.090
9.704,0.195,-0.095
9.706,0.145,-0.090
9.708,0.080,-0.085
9.710,-0.065,-0.080
9.712,-0.200,-0.075
9.714,-0.310,-0.065
9.716,-0.255,-0.065
9.718,-0.185,-0.065
9.720,0.000,-0.070
9.722,0.195,-0.075
9.724,0.230,-0.080
9.726,0.150,-0.085
9.728,0.075,-0.085
9.730,-0.100,-0.080
9.732,-0.270,-0.070
9.734,-0.315,-0.060
9.736,-0.275,-0.050
9.738,-0.125,-0.040
9.740,0.110,-0.030
9.742,0.260,-0.025
9.744,0.280,-0.025
9.746,0.210,-0.025
9.748,0.130,-0.025
9.750,-0.090,-0.030
9.752,-0.265,-0.040
9.754,-0.305,-0.050
9.756,-0.265,-0.065
9.758,-0.145,-0.080
9.760,0.040,-0.100
9.762,0.160,-0.115
9.764,0.160,-0.125
9.766,0.120,-0.125
9.768,0.005,-0.115
9.770,-0.170,-0.085
9.772,-0.275,-0.040
9.774,-0.165,0.030
9.776,-0.015,0.120
9.778,0.145,0.225
9.780,0.470,0.345
9.782,0.730,0.470
9.784,0.975,0.595
9.786,1.050,0.705
9.788,1.000,0.790
9.790,0.770,0.845
9.792,0.615,0.865
9.794,0.620,0.840
9.796,0.705,0.770
9.798,0.770,0.670
9.800,0.720,0.545
9.802,0.550,0.410
9.804,0.450,0.275
9.806,0.330,0.155
9.808,0.170,0.060
9.810,-0.080,-0.005
9.812,-0.280,-0.045
9.814,-0.310,-0.060
9.816,-0.250,-0.055
9.818,-0.120,-0.040
9.820,0.170,-0.025
9.822,0.335,-0.010
9.824,0.310,-0.005
9.826,0.260,-0.005
9.828,0.090,-0.010
9.830,-0.150,-0.020
9.832,-0.255,-0.030
9.834,-0.250,-0.040
9.836,-0.235,-0.040
9.838,-0.060,-0.040
9.840,0.160,-0.040
9.842,0.285,-0.035
9.844,0.275,-0.030
9.846,0.220,-0.030
9.848,0.050,-0.030
9.850,-0.165,-0.035
9.852,-0.295,-0.040
9.854,-0.275,-0.045
9.856,-0.215,-0.050
9.858,-0.035,-0.055
9.860,0.170,-0.060
9.862,0.275,-0.060
9.864,0.235,-0.055
9.866,0.185,-0.050
9.868,0.025,-0.045
9.870,-0.170,-0.040
9.872,-0.270,-0.035
9.874,-0.235,-0.030
9.876,-0.175,-0.030
9.878,-0.040,-0.035
9.880,0.155,-0.040
9.882,0.265,-0.050
9.884,0.280,-0.060
9.886,0.205,-0.065
9.888,-0.030,-0.070
9.890,-0.225,-0.070
9.892,-0.335,-0.065
9.894,-0.255,-0.055
9.896,-0.200,-0.040
9.898,0.010,-0.025
9.900,0.235,-0.015
9.902,0.345,0.000
9.904,0.270,0.005
9.906,0.245,0.005
9.908,0.060,0.005
9.910,-0.170,-0.005
9.912,-0.270,-0.010
9.914,-0.190,-0.020
9.916,-0.245,-0.025
9.918,0.065,-0.030
9.920,0.250,-0.030
9.922,0.315,-0.030
9.924,0.265,-0.025
9.926,0.215,-0.025
9.928,-0.035,-0.025
9.930,-0.255,-0.030
9.932,-0.290,-0.035
9.934,-0.250,-0.040
9.936,-0.175,-0.045
9.938,0.100,-0.050
9.940,0.235,-0.045
9.942,0.230,-0.040
9.944,0.255,-0.035
9.946,0.175,-0.020
9.948,0.015,-0.010
9.950,-0.165,0.000
9.952,-0.185,0.005
9.954,-0.190,0.005
9.956,-0.150,0.005
9.958,0.045,0.000
9.960,0.280,0.000
9.962,0.315,-0.005
9.964,0.305,0.000
9.966,0.250,0.005
9.968,0.030,0.010
9.970,-0.170,0.020
9.972,-0.195,0.025
9.974,-0.210,0.030
9.976,-0.145,0.025
9.978,0.095,0.020
9.980,0.265,0.015
9.982,0.330,0.005
9.984,0.295,0.000
9.986,0.230,0.000
9.988,-0.020,0.010
9.990,-0.135,0.020
9.992,-0.180,0.035
9.994,-0.130,0.050
9.996,-0.030,0.065
9.998,0.185,0.070
