'Elapsed time','ECG I','ECG I filtered'
'seconds','mV','mV'
0.000,-0.070,0.035
0.002,-0.170,0.000
0.004,-0.170,-0.025
0.006,-0.135,-0.045
0.008,-0.165,-0.060
0.010,-0.145,-0.065
0.012,-0.125,-0.060
0.014,-0.115,-0.050
0.016,-0.155,-0.040
0.018,-0.150,-0.035
0.020,-0.120,-0.030
0.022,-0.120,-0.030
0.024,-0.135,-0.035
0.026,-0.130,-0.040
0.028,-0.170,-0.050
0.030,-0.145,-0.055
0.032,-0.130,-0.055
0.034,-0.170,-0.055
0.036,-0.170,-0.050
0.038,-0.105,-0.045
0.040,-0.120,-0.040
0.042,-0.165,-0.035
0.044,-0.125,-0.030
0.046,-0.165,-0.030
0.048,-0.145,-0.035
0.050,-0.110,-0.035
0.052,-0.110,-0.040
0.054,-0.155,-0.040
0.056,-0.180,-0.040
0.058,-0.120,-0.035
0.060,-0.110,-0.035
0.062,-0.140,-0.035
0.064,-0.115,-0.035
0.066,-0.120,-0.035
0.068,-0.160,-0.035
0.070,-0.170,-0.040
0.072,-0.190,-0.045
0.074,-0.195,-0.050
0.076,-0.165,-0.055
0.078,-0.110,-0.055
0.080,-0.130,-0.060
0.082,-0.105,-0.060
0.084,-0.130,-0.055
0.086,-0.150,-0.055
0.088,-0.130,-0.050
0.090,-0.115,-0.045
0.092,-0.190,-0.045
0.094,-0.140,-0.040
0.096,-0.170,-0.035
0.098,-0.115,-0.035
0.100,-0.105,-0.035
0.102,-0.125,-0.035
0.104,-0.160,-0.040
0.106,-0.175,-0.045
0.108,-0.150,-0.055
0.110,-0.115,-0.060
0.112,-0.150,-0.070
0.114,-0.205,-0.075
0.116,-0.160,-0.075
0.118,-0.175,-0.075
0.120,-0.165,-0.075
0.122,-0.130,-0.070
0.124,-0.150,-0.065
0.126,-0.175,-0.055
0.128,-0.135,-0.050
0.130,-0.130,-0.050
0.132,-0.130,-0.045
0.134,-0.155,-0.045
0.136,-0.160,-0.045
0.138,-0.145,-0.050
0.140,-0.140,-0.050
0.142,-0.145,-0.050
0.144,-0.170,-0.050
0.146,-0.155,-0.050
0.148,-0.140,-0.050
0.150,-0.155,-0.050
0.152,-0.110,-0.050
0.154,-0.130,-0.050
0.156,-0.115,-0.050
0.158,-0.145,-0.050
0.160,-0.160,-0.050
0.162,-0.200,-0.050
0.164,-0.150,-0.055
0.166,-0.155,-0.055
0.168,-0.150,-0.060
0.170,-0.125,-0.060
0.172,-0.135,-0.065
0.174,-0.125,-0.065
0.176,-0.140,-0.070
0.178,-0.170,-0.070
0.180,-0.160,-0.070
0.182,-0.145,-0.070
0.184,-0.170,-0.070
0.186,-0.195,-0.070
0.188,-0.200,-0.070
0.190,-0.135,-0.075
0.192,-0.125,-0.075
0.194,-0.195,-0.075
0.196,-0.135,-0.075
0.198,-0.110,-0.075
0.200,-0.140,-0.070
0.202,-0.165,-0.060
0.204,-0.160,-0.055
0.206,-0.135,-0.055
0.208,-0.135,-0.050
0.210,-0.140,-0.055
0.212,-0.145,-0.060
0.214,-0.175,-0.065
0.216,-0.160,-0.070
0.218,-0.130,-0.070
0.220,-0.125,-0.070
0.222,-0.145,-0.070
0.224,-0.115,-0.070
0.226,-0.155,-0.065
0.228,-0.180,-0.065
0.230,-0.170,-0.070
0.232,-0.170,-0.075
0.234,-0.195,-0.085
0.236,-0.175,-0.095
0.238,-0.150,-0.105
0.240,-0.185,-0.110
0.242,-0.225,-0.110
0.244,-0.150,-0.110
0.246,-0.135,-0.100
0.248,-0.140,-0.090
0.250,-0.135,-0.080
0.252,-0.165,-0.075
0.254,-0.145,-0.070
0.256,-0.115,-0.070
0.258,-0.155,-0.070
0.260,-0.140,-0.080
0.262,-0.125,-0.085
0.264,-0.115,-0.085
0.266,-0.170,-0.085
0.268,-0.160,-0.085
0.270,-0.175,-0.080
0.272,-0.145,-0.075
0.274,-0.130,-0.075
0.276,-0.130,-0.075
0.278,-0.120,-0.075
0.280,-0.150,-0.080
0.282,-0.170,-0.080
0.284,-0.165,-0.085
0.286,-0.160,-0.085
0.288,-0.115,-0.080
0.290,-0.120,-0.075
0.292,-0.140,-0.065
0.294,-0.115,-0.060
0.296,-0.110,-0.060
0.298,-0.140,-0.060
0.300,-0.105,-0.065
0.302,-0.150,-0.070
0.304,-0.195,-0.080
0.306,-0.160,-0.090
0.308,-0.135,-0.095
0.310,-0.140,-0.095
0.312,-0.130,-0.095
0.314,-0.130,-0.090
0.316,-0.145,-0.080
0.318,-0.160,-0.075
0.320,-0.130,-0.065
0.322,-0.125,-0.065
0.324,-0.140,-0.065
0.326,-0.155,-0.065
0.328,-0.120,-0.070
0.330,-0.120,-0.075
0.332,-0.145,-0.075
0.334,-0.120,-0.080
0.336,-0.150,-0.080
0.338,-0.145,-0.080
0.340,-0.155,-0.075
0.342,-0.140,-0.070
0.344,-0.105,-0.065
0.346,-0.070,-0.055
0.348,-0.075,-0.045
0.350,-0.075,-0.035
0.352,-0.075,-0.020
0.354,-0.035,-0.010
0.356,-0.045,-0.005
0.358,-0.060,0.000
0.360,-0.095,0.005
0.362,-0.055,0.005
0.364,-0.080,0.000
0.366,-0.100,-0.005
0.368,-0.030,-0.005
0.370,-0.025,-0.010
0.372,-0.090,-0.015
0.374,-0.100,-0.015
0.376,-0.080,-0.020
0.378,-0.055,-0.020
0.380,-0.080,-0.025
0.382,-0.050,-0.025
0.384,-0.070,-0.030
0.386,-0.110,-0.030
0.388,-0.095,-0.035
0.390,-0.090,-0.035
0.392,-0.055,-0.035
0.394,-0.065,-0.030
0.396,-0.080,-0.025
0.398,-0.080,-0.025
0.400,-0.095,-0.025
0.402,-0.065,-0.025
0.404,-0.070,-0.035
0.406,-0.100,-0.045
0.408,-0.150,-0.055
0.410,-0.135,-0.070
0.412,-0.130,-0.085
0.414,-0.150,-0.100
0.416,-0.140,-0.110
0.418,-0.135,-0.120
0.420,-0.170,-0.120
0.422,-0.160,-0.120
0.424,-0.140,-0.120
0.426,-0.110,-0.110
0.428,-0.140,-0.100
0.430,-0.205,-0.090
0.432,-0.135,-0.080
0.434,-0.115,-0.070
0.436,-0.105,-0.065
0.438,-0.105,-0.065
0.440,-0.115,-0.070
0.442,-0.105,-0.080
0.444,-0.135,-0.085
0.446,-0.170,-0.095
0.448,-0.150,-0.100
0.450,-0.120,-0.100
0.452,-0.110,-0.100
0.454,-0.135,-0.095
0.456,-0.120,-0.090
0.458,-0.135,-0.095
0.460,-0.190,-0.105
0.462,-0.200,-0.125
0.464,-0.230,-0.155
0.466,-0.265,-0.190
0.468,-0.250,-0.225
0.470,-0.295,-0.245
0.472,-0.325,-0.250
0.474,-0.275,-0.230
0.476,-0.250,-0.190
0.478,-0.145,-0.120
0.480,0.000,-0.030
0.482,0.100,0.070
0.484,0.100,0.185
0.486,0.230,0.305
0.488,0.430,0.435
0.490,0.570,0.565
0.492,0.695,0.710
0.494,0.850,0.865
0.496,0.990,1.020
0.498,1.180,1.175
0.500,1.345,1.315
0.502,1.485,1.425
0.504,1.510,1.480
0.506,1.505,1.475
0.508,1.470,1.400
0.510,1.300,1.260
0.512,1.010,1.065
0.514,0.830,0.835
0.516,0.530,0.595
0.518,0.200,0.365
0.520,-0.010,0.175
0.522,-0.045,0.030
0.524,-0.085,-0.065
0.526,-0.150,-0.110
0.528,-0.170,-0.120
0.530,-0.135,-0.115
0.532,-0.130,-0.100
0.534,-0.090,-0.090
0.536,-0.100,-0.085
0.538,-0.185,-0.090
0.540,-0.145,-0.095
0.542,-0.090,-0.105
0.544,-0.070,-0.105
0.546,-0.100,-0.095
0.548,-0.100,-0.080
0.550,-0.045,-0.060
0.552,-0.040,-0.040
0.554,-0.050,-0.030
0.556,-0.070,-0.030
0.558,-0.140,-0.035
0.560,-0.135,-0.050
0.562,-0.055,-0.065
0.564,-0.075,-0.080
0.566,-0.120,-0.095
0.568,-0.135,-0.095
0.570,-0.100,-0.095
0.572,-0.090,-0.085
0.574,-0.060,-0.075
0.576,-0.030,-0.070
0.578,-0.080,-0.065
0.580,-0.090,-0.070
0.582,-0.085,-0.075
0.584,-0.095,-0.080
0.586,-0.100,-0.085
0.588,-0.075,-0.090
0.590,-0.065,-0.085
0.592,-0.045,-0.075
0.594,-0.070,-0.065
0.596,-0.070,-0.050
0.598,-0.105,-0.035
0.600,-0.030,-0.030
0.602,-0.045,-0.025
0.604,-0.070,-0.025
0.606,-0.050,-0.030
0.608,-0.045,-0.035
0.610,-0.045,-0.040
0.612,-0.025,-0.045
0.614,-0.050,-0.040
0.616,-0.055,-0.035
0.618,-0.015,-0.030
0.620,-0.030,-0.020
0.622,-0.015,-0.015
0.624,-0.025,-0.015
0.626,-0.015,-0.015
0.628,0.000,-0.015
0.630,-0.040,-0.020
0.632,-0.060,-0.020
0.634,-0.045,-0.020
0.636,0.010,-0.015
0.638,0.005,-0.005
0.640,-0.015,0.005
0.642,0.040,0.015
0.644,0.005,0.030
0.646,0.010,0.040
0.648,0.025,0.045
0.650,0.055,0.050
0.652,0.045,0.045
0.654,0.080,0.045
0.656,0.050,0.045
0.658,0.050,0.045
0.660,0.060,0.045
0.662,0.090,0.050
0.664,0.030,0.060
0.666,0.050,0.070
0.668,0.120,0.080
0.670,0.100,0.090
0.672,0.060,0.100
0.674,0.100,0.105
0.676,0.090,0.105
0.678,0.135,0.105
0.680,0.165,0.105
0.682,0.105,0.110
0.684,0.115,0.115
0.686,0.135,0.125
0.688,0.175,0.145
0.690,0.200,0.170
0.692,0.245,0.200
0.694,0.270,0.230
0.696,0.250,0.260
0.698,0.245,0.280
0.700,0.335,0.300
0.702,0.305,0.305
0.704,0.300,0.305
0.706,0.320,0.300
0.708,0.290,0.295
0.710,0.305,0.290
0.712,0.335,0.290
0.714,0.345,0.305
0.716,0.315,0.320
0.718,0.355,0.345
0.720,0.440,0.370
0.722,0.400,0.390
0.724,0.335,0.405
0.726,0.425,0.410
0.728,0.425,0.405
0.730,0.365,0.395
0.732,0.395,0.380
0.734,0.445,0.365
0.736,0.390,0.355
0.738,0.410,0.355
0.740,0.405,0.360
0.742,0.390,0.375
0.744,0.400,0.385
0.746,0.415,0.400
0.748,0.410,0.400
0.750,0.385,0.395
0.752,0.370,0.375
0.754,0.385,0.345
0.756,0.300,0.315
0.758,0.335,0.280
0.760,0.295,0.255
0.762,0.235,0.230
0.764,0.225,0.210
0.766,0.225,0.200
0.768,0.210,0.190
0.770,0.165,0.180
0.772,0.155,0.165
0.774,0.180,0.145
0.776,0.150,0.120
0.778,0.065,0.095
0.780,0.075,0.070
0.782,0.060,0.050
0.784,0.065,0.030
0.786,0.055,0.020
0.788,0.050,0.015
0.790,0.025,0.015
0.792,0.045,0.015
0.794,0.045,0.010
0.796,0.000,0.000
0.798,-0.035,-0.010
0.800,-0.015,-0.025
0.802,0.010,-0.040
0.804,-0.010,-0.055
0.806,0.005,-0.060
0.808,-0.020,-0.065
0.810,-0.045,-0.060
0.812,-0.065,-0.055
0.814,-0.080,-0.050
0.816,-0.010,-0.040
0.818,0.000,-0.035
0.820,-0.005,-0.035
0.822,-0.015,-0.040
0.824,-0.030,-0.045
0.826,-0.030,-0.050
0.828,-0.060,-0.055
0.830,-0.065,-0.060
0.832,-0.040,-0.065
0.834,-0.035,-0.065
0.836,-0.025,-0.065
0.838,-0.045,-0.065
0.840,-0.060,-0.070
0.842,-0.070,-0.070
0.844,-0.025,-0.075
0.846,-0.050,-0.080
0.848,-0.040,-0.080
0.850,-0.025,-0.080
0.852,-0.035,-0.080
0.854,-0.015,-0.080
0.856,-0.030,-0.075
0.858,-0.050,-0.075
0.860,-0.025,-0.070
0.862,-0.020,-0.070
0.864,-0.040,-0.070
0.866,-0.025,-0.070
0.868,-0.035,-0.075
0.870,-0.050,-0.075
0.872,-0.050,-0.075
0.874,-0.075,-0.075
0.876,-0.020,-0.080
0.878,-0.030,-0.080
0.880,-0.025,-0.080
0.882,0.010,-0.085
0.884,-0.035,-0.090
0.886,-0.100,-0.095
0.888,-0.085,-0.095
0.890,-0.025,-0.095
0.892,-0.010,-0.095
0.894,-0.050,-0.095
0.896,-0.065,-0.090
0.898,-0.095,-0.090
0.900,-0.070,-0.085
0.902,-0.015,-0.085
0.904,-0.020,-0.085
0.906,0.005,-0.085
0.908,-0.020,-0.085
0.910,-0.050,-0.080
0.912,-0.065,-0.080
0.914,-0.050,-0.075
0.916,0.025,-0.070
0.918,-0.025,-0.070
0.920,-0.015,-0.065
0.922,-0.015,-0.065
0.924,0.035,-0.070
0.926,-0.035,-0.075
0.928,-0.075,-0.080
0.930,-0.060,-0.085
0.932,-0.030,-0.090
0.934,-0.050,-0.095
0.936,-0.025,-0.095
0.938,-0.030,-0.090
0.940,-0.040,-0.085
0.942,-0.045,-0.080
0.944,0.005,-0.075
0.946,0.015,-0.070
0.948,-0.010,-0.065
0.950,-0.010,-0.065
0.952,-0.025,-0.065
0.954,-0.005,-0.065
0.956,-0.020,-0.065
0.958,-0.015,-0.070
0.960,0.010,-0.070
0.962,0.000,-0.075
0.964,-0.045,-0.075
0.966,-0.035,-0.080
0.968,-0.035,-0.080
0.970,-0.020,-0.080
0.972,-0.010,-0.085
0.974,0.020,-0.085
0.976,-0.020,-0.085
0.978,-0.015,-0.085
0.980,-0.015,-0.085
0.982,-0.020,-0.085
0.984,0.005,-0.085
0.986,0.000,-0.080
0.988,-0.060,-0.080
0.990,-0.055,-0.080
0.992,-0.030,-0.080
0.994,-0.020,-0.080
0.996,-0.015,-0.080
0.998,-0.025,-0.080
1.000,-0.055,-0.080
1.002,0.000,-0.075
1.004,0.015,-0.075
1.006,-0.010,-0.070
1.008,-0.015,-0.065
1.010,-0.025,-0.065
1.012,0.005,-0.060
1.014,-0.010,-0.060
1.016,-0.010,-0.060
1.018,-0.025,-0.060
1.020,-0.005,-0.060
1.022,-0.005,-0.065
1.024,0.005,-0.065
1.026,0.000,-0.070
1.028,0.000,-0.075
1.030,-0.005,-0.080
1.032,-0.055,-0.085
1.034,-0.045,-0.090
1.036,-0.015,-0.095
1.038,0.015,-0.095
1.040,-0.005,-0.095
1.042,0.000,-0.095
1.044,-0.005,-0.095
1.046,-0.040,-0.085
1.048,-0.015,-0.080
1.050,-0.005,-0.075
1.052,0.015,-0.070
1.054,0.015,-0.070
1.056,-0.015,-0.070
1.058,-0.040,-0.075
1.060,-0.050,-0.085
1.062,-0.030,-0.090
1.064,0.000,-0.095
1.066,-0.025,-0.100
1.068,-0.025,-0.100
1.070,-0.010,-0.100
1.072,0.005,-0.095
1.074,-0.005,-0.085
1.076,-0.010,-0.080
1.078,-0.015,-0.080
1.080,0.005,-0.080
1.082,0.000,-0.085
1.084,-0.005,-0.095
1.086,-0.065,-0.105
1.088,-0.070,-0.115
1.090,-0.045,-0.120
1.092,-0.025,-0.120
1.094,0.000,-0.120
1.096,0.010,-0.110
1.098,-0.005,-0.100
1.100,0.035,-0.090
1.102,-0.025,-0.085
1.104,-0.040,-0.080
1.106,-0.025,-0.085
1.108,-0.055,-0.090
1.110,-0.015,-0.100
1.112,-0.030,-0.110
1.114,0.005,-0.115
1.116,0.015,-0.115
1.118,0.005,-0.110
1.120,-0.020,-0.105
1.122,0.005,-0.095
1.124,-0.005,-0.090
1.126,-0.050,-0.085
1.128,-0.065,-0.085
1.130,-0.005,-0.090
1.132,-0.035,-0.100
1.134,-0.030,-0.105
1.136,0.005,-0.115
1.138,-0.010,-0.115
1.140,-0.040,-0.115
1.142,-0.025,-0.105
1.144,0.005,-0.100
1.146,-0.045,-0.090
1.148,-0.050,-0.085
1.150,0.005,-0.085
1.152,-0.005,-0.085
1.154,-0.005,-0.095
1.156,-0.015,-0.105
1.158,-0.050,-0.110
1.160,-0.070,-0.115
1.162,-0.050,-0.115
1.164,-0.055,-0.110
1.166,-0.010,-0.105
1.168,-0.005,-0.095
1.170,0.040,-0.090
1.172,0.055,-0.090
1.174,0.000,-0.095
1.176,-0.005,-0.100
1.178,-0.010,-0.110
1.180,-0.075,-0.120
1.182,-0.065,-0.125
1.184,-0.060,-0.125
1.186,0.005,-0.120
1.188,0.000,-0.115
1.190,0.030,-0.100
1.192,0.005,-0.090
1.194,-0.025,-0.085
1.196,-0.020,-0.080
1.198,-0.030,-0.080
1.200,-0.010,-0.085
1.202,0.020,-0.090
1.204,0.025,-0.095
1.206,-0.020,-0.100
1.208,0.015,-0.095
1.210,0.025,-0.090
1.212,0.005,-0.075
1.214,0.005,-0.060
1.216,0.060,-0.045
1.218,0.055,-0.035
1.220,0.045,-0.030
1.222,0.030,-0.035
1.224,0.045,-0.040
1.226,0.025,-0.050
1.228,0.035,-0.065
1.230,-0.015,-0.075
1.232,0.010,-0.080
1.234,0.040,-0.085
1.236,0.055,-0.080
1.238,0.045,-0.075
1.240,-0.025,-0.070
1.242,0.025,-0.060
1.244,0.045,-0.055
1.246,0.060,-0.050
1.248,0.025,-0.050
1.250,0.025,-0.055
1.252,0.040,-0.060
1.254,0.035,-0.065
1.256,0.035,-0.070
1.258,0.040,-0.075
1.260,0.005,-0.080
1.262,-0.005,-0.080
1.264,0.020,-0.080
1.266,0.000,-0.085
1.268,-0.030,-0.090
1.270,-0.035,-0.095
1.272,-0.050,-0.105
1.274,-0.025,-0.115
1.276,-0.020,-0.130
1.278,-0.035,-0.140
1.280,-0.060,-0.150
1.282,-0.060,-0.155
1.284,-0.055,-0.160
1.286,-0.040,-0.160
1.288,-0.045,-0.155
1.290,-0.050,-0.150
1.292,-0.065,-0.145
1.294,-0.050,-0.140
1.296,-0.040,-0.140
1.298,-0.035,-0.140
1.300,-0.070,-0.145
1.302,-0.050,-0.155
1.304,-0.035,-0.155
1.306,-0.090,-0.160
1.308,-0.060,-0.160
1.310,0.015,-0.155
1.312,-0.040,-0.145
1.314,-0.100,-0.140
1.316,-0.050,-0.140
1.318,-0.005,-0.145
1.320,-0.055,-0.160
1.322,-0.135,-0.190
1.324,-0.120,-0.220
1.326,-0.165,-0.260
1.328,-0.210,-0.295
1.330,-0.215,-0.315
1.332,-0.265,-0.320
1.334,-0.200,-0.305
1.336,-0.150,-0.265
1.338,-0.115,-0.195
1.340,0.000,-0.110
1.342,0.125,-0.005
1.344,0.175,0.110
1.346,0.315,0.235
1.348,0.480,0.365
1.350,0.675,0.500
1.352,0.785,0.645
1.354,0.895,0.795
1.356,1.050,0.950
1.358,1.210,1.105
1.360,1.380,1.250
1.362,1.535,1.365
1.364,1.590,1.440
1.366,1.635,1.460
1.368,1.605,1.415
1.370,1.480,1.300
1.372,1.250,1.125
1.374,1.065,0.910
1.376,0.725,0.675
1.378,0.395,0.440
1.380,0.155,0.225
1.382,0.065,0.060
1.384,0.005,-0.060
1.386,0.000,-0.130
1.388,-0.025,-0.155
1.390,-0.020,-0.155
1.392,-0.020,-0.135
1.394,-0.035,-0.110
1.396,-0.015,-0.095
1.398,-0.045,-0.090
1.400,-0.040,-0.095
1.402,0.015,-0.100
1.404,0.040,-0.110
1.406,0.005,-0.115
1.408,0.030,-0.115
1.410,0.020,-0.110
1.412,-0.010,-0.100
1.414,0.005,-0.090
1.416,0.020,-0.085
1.418,-0.015,-0.080
1.420,0.025,-0.085
1.422,0.010,-0.085
1.424,-0.010,-0.095
1.426,0.010,-0.100
1.428,0.010,-0.105
1.430,0.005,-0.110
1.432,-0.010,-0.110
1.434,-0.005,-0.115
1.436,0.000,-0.115
1.438,-0.015,-0.120
1.440,-0.075,-0.125
1.442,-0.045,-0.125
1.444,-0.005,-0.125
1.446,-0.010,-0.120
1.448,0.005,-0.110
1.450,0.045,-0.095
1.452,0.020,-0.080
1.454,0.045,-0.070
1.456,0.035,-0.055
1.458,0.025,-0.050
1.460,0.010,-0.050
1.462,0.035,-0.055
1.464,0.010,-0.065
1.466,0.000,-0.075
1.468,0.035,-0.080
1.470,0.045,-0.085
1.472,0.060,-0.080
1.474,0.070,-0.075
1.476,0.025,-0.065
1.478,0.040,-0.050
1.480,0.075,-0.040
1.482,0.055,-0.030
1.484,0.060,-0.025
1.486,0.060,-0.025
1.488,0.055,-0.030
1.490,0.075,-0.035
1.492,0.070,-0.040
1.494,0.075,-0.040
1.496,0.090,-0.040
1.498,0.070,-0.035
1.500,0.100,-0.030
1.502,0.095,-0.020
1.504,0.095,-0.010
1.506,0.110,0.000
1.508,0.100,0.005
1.510,0.120,0.005
1.512,0.130,0.005
1.514,0.140,0.005
1.516,0.110,0.005
1.518,0.115,0.005
1.520,0.110,0.010
1.522,0.135,0.020
1.524,0.150,0.035
1.526,0.195,0.050
1.528,0.170,0.065
1.530,0.185,0.080
1.532,0.220,0.090
1.534,0.170,0.095
1.536,0.185,0.100
1.538,0.200,0.100
1.540,0.210,0.100
1.542,0.220,0.100
1.544,0.230,0.105
1.546,0.260,0.120
1.548,0.275,0.135
1.550,0.245,0.155
1.552,0.250,0.175
1.554,0.315,0.200
1.556,0.335,0.220
1.558,0.340,0.235
1.560,0.325,0.250
1.562,0.345,0.255
1.564,0.325,0.260
1.566,0.380,0.260
1.568,0.420,0.260
1.570,0.395,0.265
1.572,0.385,0.275
1.574,0.400,0.285
1.576,0.410,0.300
1.578,0.385,0.315
1.580,0.415,0.335
1.582,0.470,0.345
1.584,0.470,0.355
1.586,0.475,0.360
1.588,0.485,0.365
1.590,0.470,0.365
1.592,0.480,0.365
1.594,0.490,0.360
1.596,0.450,0.360
1.598,0.465,0.360
1.600,0.465,0.360
1.602,0.470,0.360
1.604,0.460,0.360
1.606,0.470,0.355
1.608,0.440,0.345
1.610,0.450,0.335
1.612,0.425,0.320
1.614,0.420,0.305
1.616,0.345,0.290
1.618,0.335,0.270
1.620,0.370,0.255
1.622,0.330,0.235
1.624,0.280,0.215
1.626,0.305,0.195
1.628,0.300,0.175
1.630,0.245,0.155
1.632,0.210,0.135
1.634,0.175,0.115
1.636,0.170,0.095
1.638,0.140,0.075
1.640,0.095,0.055
1.642,0.090,0.040
1.644,0.150,0.025
1.646,0.150,0.010
1.648,0.105,-0.005
1.650,0.075,-0.015
1.652,0.065,-0.025
1.654,0.080,-0.035
1.656,0.080,-0.045
1.658,0.020,-0.055
1.660,0.005,-0.060
1.662,0.020,-0.065
1.664,0.000,-0.075
1.666,0.040,-0.080
1.668,0.020,-0.085
1.670,-0.015,-0.090
1.672,-0.020,-0.100
1.674,-0.005,-0.105
1.676,0.005,-0.105
1.678,-0.015,-0.105
1.680,-0.030,-0.105
1.682,0.005,-0.100
1.684,0.000,-0.090
1.686,0.010,-0.085
1.688,0.010,-0.080
1.690,0.030,-0.080
1.692,0.010,-0.080
1.694,0.005,-0.085
1.696,-0.030,-0.095
1.698,-0.020,-0.105
1.700,0.005,-0.110
1.702,-0.010,-0.120
1.704,-0.070,-0.120
1.706,-0.025,-0.120
1.708,0.025,-0.115
1.710,-0.005,-0.110
1.712,-0.020,-0.100
1.714,-0.010,-0.095
1.716,-0.015,-0.090
1.718,-0.005,-0.085
1.720,-0.010,-0.090
1.722,0.000,-0.095
1.724,-0.025,-0.100
1.726,-0.030,-0.105
1.728,-0.020,-0.115
1.730,-0.010,-0.120
1.732,-0.020,-0.130
1.734,-0.005,-0.130
1.736,-0.045,-0.130
1.738,-0.045,-0.130
1.740,-0.010,-0.125
1.742,-0.010,-0.115
1.744,-0.030,-0.110
1.746,-0.015,-0.105
1.748,-0.020,-0.100
1.750,0.030,-0.095
1.752,0.010,-0.095
1.754,-0.030,-0.095
1.756,-0.050,-0.100
1.758,-0.035,-0.100
1.760,-0.005,-0.105
1.762,0.010,-0.110
1.764,-0.025,-0.115
1.766,-0.010,-0.120
1.768,0.010,-0.120
1.770,-0.040,-0.125
1.772,-0.045,-0.120
1.774,-0.030,-0.120
1.776,-0.015,-0.115
1.778,-0.020,-0.110
1.780,0.000,-0.105
1.782,0.000,-0.095
1.784,-0.035,-0.090
1.786,0.000,-0.085
1.788,0.005,-0.085
1.790,0.015,-0.085
1.792,0.030,-0.090
1.794,0.035,-0.095
1.796,-0.050,-0.105
1.798,-0.080,-0.110
1.800,-0.040,-0.120
1.802,-0.035,-0.125
1.804,-0.015,-0.125
1.806,-0.010,-0.125
1.808,0.005,-0.115
1.810,-0.015,-0.110
1.812,-0.010,-0.100
1.814,0.005,-0.095
1.816,-0.025,-0.090
1.818,-0.005,-0.085
1.820,-0.005,-0.090
1.822,-0.020,-0.095
1.824,-0.005,-0.100
1.826,-0.050,-0.105
1.828,-0.055,-0.110
1.830,-0.005,-0.110
1.832,0.015,-0.110
1.834,0.010,-0.105
1.836,-0.035,-0.100
1.838,0.005,-0.090
1.840,0.000,-0.085
1.842,-0.005,-0.080
1.844,-0.020,-0.080
1.846,-0.030,-0.080
1.848,-0.005,-0.085
1.850,0.000,-0.090
1.852,-0.015,-0.100
1.854,-0.030,-0.110
1.856,-0.065,-0.115
1.858,-0.040,-0.120
1.860,-0.030,-0.120
1.862,-0.005,-0.115
1.864,0.005,-0.110
1.866,-0.025,-0.100
1.868,-0.030,-0.090
1.870,0.020,-0.080
1.872,0.045,-0.075
1.874,0.015,-0.075
1.876,-0.015,-0.075
1.878,-0.030,-0.080
1.880,-0.060,-0.090
1.882,-0.065,-0.100
1.884,-0.015,-0.110
1.886,-0.010,-0.115
1.888,-0.035,-0.115
1.890,-0.040,-0.110
1.892,-0.030,-0.105
1.894,-0.045,-0.100
1.896,0.010,-0.095
1.898,0.035,-0.090
1.900,0.005,-0.090
1.902,-0.010,-0.090
1.904,-0.070,-0.090
1.906,-0.045,-0.095
1.908,-0.055,-0.100
1.910,-0.015,-0.105
1.912,-0.005,-0.110
1.914,-0.030,-0.110
1.916,-0.020,-0.110
1.918,0.005,-0.110
1.920,0.005,-0.110
1.922,-0.040,-0.105
1.924,-0.030,-0.110
1.926,0.000,-0.110
1.928,-0.075,-0.110
1.930,-0.035,-0.115
1.932,-0.025,-0.115
1.934,-0.030,-0.115
1.936,-0.025,-0.115
1.938,-0.035,-0.115
1.940,-0.030,-0.115
1.942,-0.025,-0.110
1.944,-0.010,-0.110
1.946,0.015,-0.110
1.948,-0.035,-0.105
1.950,-0.030,-0.105
1.952,-0.045,-0.105
1.954,-0.010,-0.100
1.956,-0.055,-0.100
1.958,-0.050,-0.100
1.960,-0.040,-0.100
1.962,0.000,-0.100
1.964,-0.005,-0.105
1.966,-0.030,-0.105
1.968,-0.045,-0.110
1.970,-0.055,-0.115
1.972,-0.025,-0.120
1.974,-0.090,-0.125
1.976,-0.055,-0.125
1.978,-0.035,-0.125
1.980,-0.010,-0.125
1.982,-0.010,-0.120
1.984,-0.030,-0.110
1.986,-0.040,-0.105
1.988,-0.035,-0.100
1.990,-0.025,-0.095
1.992,-0.035,-0.095
1.994,-0.050,-0.095
1.996,-0.065,-0.100
1.998,-0.020,-0.105
2.000,-0.015,-0.105
2.002,-0.055,-0.110
2.004,-0.025,-0.115
2.006,-0.015,-0.115
2.008,-0.035,-0.110
2.010,-0.035,-0.110
2.012,-0.055,-0.105
2.014,-0.035,-0.095
2.016,0.000,-0.090
2.018,-0.015,-0.085
2.020,0.005,-0.080
2.022,-0.010,-0.080
2.024,0.000,-0.085
2.026,-0.025,-0.085
2.028,-0.025,-0.090
2.030,-0.030,-0.100
2.032,-0.030,-0.105
2.034,-0.020,-0.105
2.036,-0.055,-0.110
2.038,-0.035,-0.110
2.040,-0.025,-0.110
2.042,-0.010,-0.110
2.044,-0.005,-0.105
2.046,0.020,-0.100
2.048,0.040,-0.100
2.050,-0.060,-0.095
2.052,-0.075,-0.095
2.054,-0.090,-0.095
2.056,-0.030,-0.100
2.058,-0.030,-0.105
2.060,-0.060,-0.110
2.062,-0.055,-0.115
2.064,-0.005,-0.120
2.066,-0.110,-0.120
2.068,-0.045,-0.120
2.070,0.000,-0.115
2.072,0.010,-0.100
2.074,-0.010,-0.090
2.076,-0.055,-0.080
2.078,-0.025,-0.075
2.080,-0.045,-0.070
2.082,-0.045,-0.075
2.084,-0.025,-0.080
2.086,-0.005,-0.090
2.088,-0.045,-0.100
2.090,-0.020,-0.110
2.092,0.000,-0.110
2.094,-0.040,-0.105
2.096,-0.025,-0.095
2.098,-0.005,-0.085
2.100,-0.035,-0.070
2.102,-0.010,-0.060
2.104,0.030,-0.060
2.106,-0.005,-0.060
2.108,-0.035,-0.065
2.110,0.010,-0.075
2.112,-0.010,-0.085
2.114,-0.060,-0.090
2.116,-0.015,-0.090
2.118,0.010,-0.090
2.120,-0.040,-0.085
2.122,-0.050,-0.080
2.124,-0.010,-0.075
2.126,-0.035,-0.070
2.128,-0.035,-0.070
2.130,0.000,-0.070
2.132,0.010,-0.075
2.134,-0.020,-0.080
2.136,-0.025,-0.080
2.138,-0.005,-0.080
2.140,-0.030,-0.080
2.142,-0.010,-0.070
2.144,0.015,-0.065
2.146,0.055,-0.060
2.148,0.005,-0.055
2.150,-0.005,-0.050
2.152,-0.030,-0.050
2.154,-0.035,-0.050
2.156,0.010,-0.050
2.158,0.015,-0.050
2.160,0.040,-0.050
2.162,0.055,-0.050
2.164,0.030,-0.045
2.166,0.050,-0.045
2.168,0.015,-0.040
2.170,-0.005,-0.045
2.172,0.005,-0.045
2.174,-0.030,-0.045
2.176,0.015,-0.050
2.178,0.020,-0.050
2.180,-0.030,-0.050
2.182,-0.010,-0.050
2.184,0.070,-0.045
2.186,0.055,-0.040
2.188,0.005,-0.040
2.190,0.000,-0.035
2.192,0.050,-0.035
2.194,-0.005,-0.040
2.196,-0.030,-0.045
2.198,0.000,-0.050
2.200,-0.015,-0.060
2.202,0.005,-0.070
2.204,-0.010,-0.075
2.206,-0.025,-0.080
2.208,0.000,-0.085
2.210,-0.040,-0.085
2.212,-0.065,-0.090
2.214,-0.085,-0.095
2.216,-0.100,-0.100
2.218,-0.090,-0.105
2.220,-0.075,-0.110
2.222,-0.075,-0.110
2.224,-0.035,-0.115
2.226,-0.025,-0.110
2.228,-0.040,-0.110
2.230,-0.060,-0.110
2.232,-0.050,-0.105
2.234,-0.050,-0.105
2.236,-0.080,-0.110
2.238,-0.070,-0.115
2.240,-0.085,-0.120
2.242,-0.045,-0.125
2.244,-0.060,-0.130
2.246,-0.120,-0.130
2.248,-0.055,-0.130
2.250,-0.035,-0.125
2.252,-0.065,-0.115
2.254,-0.075,-0.110
2.256,-0.065,-0.110
2.258,-0.085,-0.120
2.260,-0.060,-0.135
2.262,-0.135,-0.160
2.264,-0.150,-0.195
2.266,-0.190,-0.230
2.268,-0.180,-0.265
2.270,-0.245,-0.285
2.272,-0.300,-0.285
2.274,-0.250,-0.265
2.276,-0.195,-0.220
2.278,-0.090,-0.150
2.280,0.015,-0.065
2.282,0.145,0.045
2.284,0.245,0.165
2.286,0.365,0.295
2.288,0.450,0.430
2.290,0.645,0.575
2.292,0.785,0.730
2.294,0.945,0.890
2.296,1.100,1.055
2.298,1.325,1.215
2.300,1.505,1.360
2.302,1.565,1.475
2.304,1.680,1.545
2.306,1.685,1.555
2.308,1.595,1.500
2.310,1.480,1.375
2.312,1.295,1.195
2.314,1.055,0.965
2.316,0.685,0.720
2.318,0.385,0.475
2.320,0.190,0.260
2.322,0.060,0.085
2.324,-0.010,-0.040
2.326,-0.045,-0.110
2.328,-0.070,-0.135
2.330,-0.065,-0.130
2.332,-0.025,-0.110
2.334,-0.025,-0.085
2.336,-0.050,-0.065
2.338,-0.045,-0.055
2.340,-0.055,-0.060
2.342,-0.040,-0.065
2.344,0.000,-0.080
2.346,-0.005,-0.090
2.348,-0.035,-0.090
2.350,-0.020,-0.090
2.352,-0.050,-0.085
2.354,-0.020,-0.075
2.356,-0.005,-0.070
2.358,-0.040,-0.070
2.360,-0.055,-0.070
2.362,-0.040,-0.080
2.364,-0.035,-0.085
2.366,-0.035,-0.090
2.368,0.010,-0.090
2.370,0.020,-0.090
2.372,-0.055,-0.080
2.374,-0.085,-0.070
2.376,-0.045,-0.065
2.378,0.025,-0.055
2.380,-0.005,-0.055
2.382,-0.025,-0.055
2.384,-0.025,-0.060
2.386,-0.050,-0.070
2.388,-0.065,-0.075
2.390,-0.040,-0.080
2.392,-0.025,-0.085
2.394,-0.010,-0.085
2.396,-0.005,-0.080
2.398,-0.035,-0.075
2.400,-0.015,-0.070
2.402,0.020,-0.060
2.404,0.020,-0.055
2.406,-0.030,-0.050
2.408,-0.010,-0.040
2.410,0.025,-0.035
2.412,0.005,-0.030
2.414,0.030,-0.025
2.416,0.025,-0.020
2.418,0.040,-0.020
2.420,0.035,-0.015
2.422,0.045,-0.015
2.424,0.050,-0.015
2.426,0.060,-0.015
2.428,0.030,-0.010
2.430,0.065,-0.010
2.432,0.010,-0.005
2.434,-0.005,0.000
2.436,0.040,0.005
2.438,0.040,0.010
2.440,0.070,0.020
2.442,0.100,0.025
2.444,0.100,0.030
2.446,0.130,0.040
2.448,0.145,0.045
2.450,0.095,0.050
2.452,0.070,0.055
2.454,0.085,0.060
2.456,0.135,0.065
2.458,0.110,0.070
2.460,0.090,0.070
2.462,0.125,0.075
2.464,0.125,0.075
2.466,0.105,0.075
2.468,0.110,0.075
2.470,0.135,0.075
2.472,0.155,0.080
2.474,0.185,0.090
2.476,0.190,0.100
2.478,0.190,0.110
2.480,0.180,0.120
2.482,0.180,0.135
2.484,0.185,0.150
2.486,0.210,0.160
2.488,0.250,0.175
2.490,0.255,0.185
2.492,0.245,0.195
2.494,0.255,0.210
2.496,0.285,0.225
2.498,0.300,0.235
2.500,0.325,0.250
2.502,0.340,0.260
2.504,0.320,0.270
2.506,0.315,0.280
2.508,0.335,0.290
2.510,0.345,0.295
2.512,0.340,0.305
2.514,0.375,0.320
2.516,0.400,0.330
2.518,0.425,0.345
2.520,0.450,0.360
2.522,0.410,0.370
2.524,0.420,0.385
2.526,0.455,0.395
2.528,0.460,0.400
2.530,0.440,0.405
2.532,0.460,0.410
2.534,0.485,0.410
2.536,0.445,0.405
2.538,0.435,0.405
2.540,0.445,0.405
2.542,0.445,0.405
2.544,0.445,0.400
2.546,0.435,0.395
2.548,0.425,0.390
2.550,0.435,0.380
2.552,0.400,0.370
2.554,0.415,0.355
2.556,0.395,0.340
2.558,0.360,0.320
2.560,0.360,0.305
2.562,0.325,0.290
2.564,0.270,0.270
2.566,0.275,0.255
2.568,0.275,0.240
2.570,0.280,0.220
2.572,0.255,0.200
2.574,0.215,0.180
2.576,0.180,0.155
2.578,0.115,0.135
2.580,0.120,0.110
2.582,0.140,0.090
2.584,0.115,0.070
2.586,0.110,0.055
2.588,0.090,0.040
2.590,0.065,0.035
2.592,0.025,0.025
2.594,0.050,0.020
2.596,0.030,0.015
2.598,0.035,0.010
2.600,0.065,0.000
2.602,0.070,-0.010
2.604,0.080,-0.020
2.606,-0.005,-0.035
2.608,-0.035,-0.045
2.610,-0.030,-0.060
2.612,-0.025,-0.075
2.614,-0.040,-0.085
2.616,-0.015,-0.095
2.618,-0.085,-0.100
2.620,-0.065,-0.100
2.622,-0.015,-0.095
2.624,-0.035,-0.090
2.626,-0.065,-0.080
2.628,0.005,-0.065
2.630,0.005,-0.055
2.632,0.020,-0.045
2.634,0.010,-0.035
2.636,-0.005,-0.030
2.638,-0.020,-0.030
2.640,0.005,-0.035
2.642,0.005,-0.040
2.644,-0.020,-0.050
2.646,-0.030,-0.060
2.648,-0.005,-0.070
2.650,-0.045,-0.075
2.652,-0.050,-0.080
2.654,-0.040,-0.085
2.656,-0.025,-0.085
2.658,-0.030,-0.085
2.660,-0.010,-0.085
2.662,-0.015,-0.085
2.664,-0.035,-0.080
2.666,-0.035,-0.080
2.668,-0.035,-0.080
2.670,-0.050,-0.075
2.672,-0.015,-0.075
2.674,-0.025,-0.075
2.676,-0.060,-0.075
2.678,-0.065,-0.075
2.680,-0.035,-0.075
2.682,-0.040,-0.080
2.684,-0.030,-0.080
2.686,-0.020,-0.080
2.688,0.005,-0.080
2.690,-0.030,-0.080
2.692,-0.020,-0.075
2.694,-0.015,-0.075
2.696,-0.065,-0.070
2.698,-0.035,-0.070
2.700,0.015,-0.065
2.702,-0.010,-0.070
2.704,-0.020,-0.070
2.706,-0.055,-0.075
2.708,-0.050,-0.080
2.710,-0.080,-0.080
2.712,-0.035,-0.085
2.714,-0.045,-0.085
2.716,0.010,-0.085
2.718,-0.020,-0.085
2.720,-0.010,-0.085
2.722,-0.055,-0.085
2.724,-0.050,-0.085
2.726,-0.060,-0.085
2.728,-0.060,-0.090
2.730,-0.035,-0.090
2.732,-0.045,-0.095
2.734,-0.050,-0.090
2.736,-0.030,-0.090
2.738,-0.015,-0.085
2.740,0.010,-0.075
2.742,-0.015,-0.070
2.744,-0.035,-0.065
2.746,-0.030,-0.060
2.748,-0.045,-0.060
2.750,-0.070,-0.065
2.752,-0.020,-0.070
2.754,-0.030,-0.075
2.756,-0.010,-0.085
2.758,-0.015,-0.085
2.760,-0.015,-0.090
2.762,-0.015,-0.085
2.764,0.000,-0.080
2.766,-0.040,-0.075
2.768,-0.025,-0.065
2.770,-0.040,-0.060
2.772,-0.020,-0.055
2.774,-0.035,-0.055
2.776,-0.060,-0.060
2.778,-0.025,-0.065
2.780,0.065,-0.075
2.782,0.000,-0.080
2.784,-0.035,-0.085
2.786,-0.050,-0.090
2.788,-0.025,-0.090
2.790,-0.090,-0.090
2.792,-0.065,-0.090
2.794,-0.030,-0.090
2.796,-0.045,-0.090
2.798,-0.040,-0.095
2.800,-0.030,-0.095
2.802,-0.075,-0.095
2.804,-0.045,-0.095
2.806,-0.005,-0.095
2.808,-0.045,-0.090
2.810,-0.035,-0.090
2.812,-0.025,-0.085
2.814,-0.010,-0.080
2.816,-0.050,-0.080
2.818,-0.070,-0.080
2.820,-0.005,-0.080
2.822,-0.050,-0.085
2.824,-0.045,-0.090
2.826,-0.055,-0.095
2.828,-0.050,-0.100
2.830,-0.060,-0.100
2.832,-0.045,-0.100
2.834,-0.050,-0.100
2.836,-0.055,-0.095
2.838,-0.015,-0.090
2.840,-0.035,-0.090
2.842,-0.050,-0.085
2.844,-0.050,-0.080
2.846,-0.035,-0.080
2.848,-0.030,-0.080
2.850,-0.030,-0.080
2.852,-0.055,-0.075
2.854,-0.050,-0.080
2.856,-0.045,-0.080
2.858,-0.050,-0.080
2.860,-0.015,-0.085
2.862,-0.015,-0.090
2.864,-0.050,-0.095
2.866,-0.100,-0.100
2.868,-0.090,-0.105
2.870,-0.050,-0.105
2.872,-0.050,-0.105
2.874,-0.055,-0.105
2.876,-0.025,-0.095
2.878,-0.040,-0.090
2.880,-0.060,-0.085
2.882,-0.080,-0.080
2.884,-0.045,-0.075
2.886,-0.035,-0.075
2.888,-0.035,-0.075
2.890,-0.040,-0.080
2.892,-0.030,-0.080
2.894,-0.030,-0.090
2.896,-0.025,-0.095
2.898,-0.030,-0.100
2.900,-0.035,-0.105
2.902,-0.080,-0.110
2.904,-0.090,-0.115
2.906,-0.075,-0.115
2.908,-0.075,-0.120
2.910,-0.055,-0.120
2.912,-0.080,-0.120
2.914,-0.065,-0.120
2.916,-0.030,-0.115
2.918,-0.050,-0.110
2.920,-0.045,-0.105
2.922,-0.045,-0.095
2.924,-0.060,-0.090
2.926,-0.045,-0.090
2.928,-0.050,-0.085
2.930,-0.060,-0.090
2.932,-0.025,-0.090
2.934,-0.070,-0.095
2.936,-0.045,-0.105
2.938,-0.060,-0.110
2.940,-0.045,-0.115
2.942,-0.075,-0.120
2.944,-0.060,-0.120
2.946,-0.065,-0.120
2.948,-0.050,-0.120
2.950,-0.035,-0.115
2.952,-0.035,-0.110
2.954,-0.125,-0.105
2.956,-0.065,-0.100
2.958,-0.040,-0.100
2.960,-0.020,-0.100
2.962,-0.035,-0.100
2.964,-0.055,-0.105
2.966,-0.055,-0.110
2.968,-0.090,-0.115
2.970,-0.080,-0.120
2.972,-0.045,-0.125
2.974,-0.080,-0.125
2.976,-0.075,-0.125
2.978,-0.090,-0.120
2.980,-0.060,-0.120
2.982,-0.035,-0.110
2.984,-0.065,-0.105
2.986,-0.030,-0.100
2.988,-0.050,-0.100
2.990,-0.050,-0.100
2.992,-0.035,-0.100
2.994,-0.075,-0.100
2.996,-0.080,-0.105
2.998,-0.045,-0.105
3.000,-0.050,-0.105
3.002,-0.045,-0.105
3.004,-0.035,-0.105
3.006,-0.055,-0.100
3.008,-0.060,-0.095
3.010,-0.075,-0.095
3.012,-0.055,-0.090
3.014,-0.055,-0.090
3.016,-0.030,-0.095
3.018,-0.060,-0.100
3.020,-0.025,-0.100
3.022,-0.055,-0.105
3.024,-0.070,-0.110
3.026,-0.055,-0.110
3.028,-0.075,-0.105
3.030,-0.055,-0.105
3.032,-0.035,-0.100
3.034,-0.045,-0.095
3.036,-0.050,-0.090
3.038,-0.025,-0.085
3.040,-0.045,-0.085
3.042,-0.060,-0.085
3.044,-0.070,-0.090
3.046,-0.035,-0.095
3.048,-0.060,-0.100
3.050,-0.045,-0.100
3.052,-0.030,-0.100
3.054,-0.090,-0.100
3.056,-0.045,-0.095
3.058,0.015,-0.090
3.060,-0.020,-0.080
3.062,-0.065,-0.075
3.064,-0.020,-0.075
3.066,-0.045,-0.075
3.068,-0.045,-0.075
3.070,-0.060,-0.075
3.072,-0.060,-0.075
3.074,-0.060,-0.075
3.076,-0.015,-0.075
3.078,0.025,-0.070
3.080,0.010,-0.070
3.082,-0.020,-0.060
3.084,0.020,-0.055
3.086,0.010,-0.050
3.088,0.010,-0.045
3.090,0.040,-0.040
3.092,0.045,-0.040
3.094,-0.020,-0.035
3.096,-0.035,-0.035
3.098,0.045,-0.035
3.100,0.005,-0.040
3.102,0.000,-0.040
3.104,0.000,-0.045
3.106,-0.010,-0.045
3.108,-0.045,-0.050
3.110,-0.005,-0.055
3.112,0.045,-0.055
3.114,0.035,-0.060
3.116,-0.010,-0.055
3.118,-0.015,-0.055
3.120,-0.005,-0.050
3.122,0.030,-0.045
3.124,0.005,-0.040
3.126,-0.025,-0.040
3.128,-0.040,-0.040
3.130,0.020,-0.045
3.132,0.025,-0.055
3.134,-0.025,-0.065
3.136,-0.070,-0.075
3.138,-0.040,-0.090
3.140,-0.030,-0.095
3.142,-0.065,-0.105
3.144,-0.080,-0.110
3.146,-0.095,-0.115
3.148,-0.090,-0.120
3.150,-0.085,-0.125
3.152,-0.060,-0.130
3.154,-0.090,-0.140
3.156,-0.080,-0.145
3.158,-0.060,-0.150
3.160,-0.040,-0.150
3.162,-0.080,-0.145
3.164,-0.085,-0.135
3.166,-0.095,-0.125
3.168,-0.060,-0.110
3.170,-0.075,-0.105
3.172,-0.080,-0.105
3.174,-0.075,-0.105
3.176,-0.040,-0.115
3.178,-0.100,-0.125
3.180,-0.070,-0.135
3.182,-0.060,-0.145
3.184,-0.045,-0.150
3.186,-0.095,-0.150
3.188,-0.145,-0.145
3.190,-0.130,-0.145
3.192,-0.110,-0.155
3.194,-0.120,-0.170
3.196,-0.125,-0.195
3.198,-0.185,-0.230
3.200,-0.225,-0.270
3.202,-0.285,-0.300
3.204,-0.300,-0.315
3.206,-0.295,-0.310
3.208,-0.250,-0.280
3.210,-0.155,-0.215
3.212,-0.055,-0.130
3.214,0.045,-0.025
3.216,0.210,0.095
3.218,0.295,0.225
3.220,0.370,0.355
3.222,0.545,0.495
3.224,0.710,0.635
3.226,0.860,0.785
3.228,1.005,0.945
3.230,1.180,1.110
3.232,1.350,1.270
3.234,1.520,1.410
3.236,1.635,1.520
3.238,1.730,1.575
3.240,1.700,1.560
3.242,1.585,1.480
3.244,1.430,1.325
3.246,1.230,1.120
3.248,0.950,0.875
3.250,0.530,0.620
3.252,0.275,0.380
3.254,0.100,0.180
3.256,0.025,0.030
3.258,0.025,-0.070
3.260,-0.050,-0.120
3.262,-0.120,-0.135
3.264,-0.075,-0.125
3.266,-0.060,-0.110
3.268,-0.050,-0.095
3.270,-0.070,-0.090
3.272,-0.085,-0.090
3.274,-0.070,-0.095
3.276,-0.005,-0.105
3.278,-0.005,-0.105
3.280,-0.060,-0.105
3.282,-0.065,-0.095
3.284,-0.005,-0.085
3.286,-0.020,-0.080
3.288,-0.005,-0.075
3.290,-0.030,-0.075
3.292,-0.105,-0.085
3.294,-0.050,-0.095
3.296,-0.030,-0.105
3.298,-0.015,-0.110
3.300,-0.035,-0.110
3.302,-0.035,-0.105
3.304,-0.005,-0.095
3.306,-0.035,-0.080
3.308,-0.040,-0.075
3.310,-0.030,-0.070
3.312,-0.040,-0.075
3.314,-0.015,-0.080
3.316,0.010,-0.090
3.318,-0.040,-0.100
3.320,-0.065,-0.105
3.322,-0.065,-0.105
3.324,-0.030,-0.100
3.326,-0.025,-0.095
3.328,-0.040,-0.085
3.330,-0.020,-0.080
3.332,-0.040,-0.075
3.334,-0.015,-0.070
3.336,-0.015,-0.075
3.338,-0.010,-0.080
3.340,0.010,-0.080
3.342,-0.060,-0.080
3.344,-0.025,-0.080
3.346,0.000,-0.070
3.348,0.010,-0.060
3.350,0.010,-0.050
3.352,0.015,-0.040
3.354,0.055,-0.030
3.356,0.030,-0.025
3.358,0.005,-0.025
3.360,0.000,-0.030
3.362,-0.005,-0.030
3.364,0.015,-0.030
3.366,0.010,-0.030
3.368,0.055,-0.025
3.370,0.070,-0.020
3.372,0.065,-0.010
3.374,0.040,0.000
3.376,0.035,0.010
3.378,0.065,0.015
3.380,0.110,0.020
3.382,0.120,0.020
3.384,0.045,0.020
3.386,0.040,0.020
3.388,0.080,0.025
3.390,0.070,0.025
3.392,0.070,0.035
3.394,0.105,0.045
3.396,0.155,0.055
3.398,0.145,0.070
3.400,0.165,0.080
3.402,0.125,0.090
3.404,0.135,0.100
3.406,0.160,0.105
3.408,0.175,0.110
3.410,0.155,0.115
3.412,0.185,0.115
3.414,0.170,0.120
3.416,0.200,0.125
3.418,0.210,0.135
3.420,0.180,0.145
3.422,0.210,0.160
3.424,0.250,0.175
3.426,0.220,0.195
3.428,0.235,0.210
3.430,0.330,0.220
3.432,0.300,0.235
3.434,0.280,0.245
3.436,0.305,0.250
3.438,0.310,0.260
3.440,0.335,0.270
3.442,0.335,0.285
3.444,0.370,0.295
3.446,0.360,0.310
3.448,0.370,0.325
3.450,0.410,0.335
3.452,0.400,0.345
3.454,0.420,0.355
3.456,0.400,0.365
3.458,0.410,0.370
3.460,0.415,0.375
3.462,0.440,0.380
3.464,0.465,0.390
3.466,0.450,0.395
3.468,0.485,0.405
3.470,0.460,0.410
3.472,0.420,0.410
3.474,0.470,0.410
3.476,0.480,0.405
3.478,0.430,0.395
3.480,0.400,0.375
3.482,0.400,0.360
3.484,0.405,0.340
3.486,0.360,0.325
3.488,0.345,0.310
3.490,0.330,0.295
3.492,0.330,0.280
3.494,0.345,0.270
3.496,0.310,0.260
3.498,0.295,0.250
3.500,0.255,0.235
3.502,0.245,0.220
3.504,0.235,0.200
3.506,0.205,0.180
3.508,0.170,0.160
3.510,0.160,0.135
3.512,0.145,0.110
3.514,0.115,0.085
3.516,0.105,0.060
3.518,0.105,0.040
3.520,0.045,0.025
3.522,0.040,0.005
3.524,0.040,-0.005
3.526,0.055,-0.015
3.528,0.080,-0.020
3.530,0.020,-0.025
3.532,-0.025,-0.030
3.534,-0.015,-0.035
3.536,0.035,-0.040
3.538,0.055,-0.045
3.540,0.035,-0.050
3.542,-0.040,-0.060
3.544,-0.045,-0.065
3.546,-0.020,-0.070
3.548,-0.025,-0.075
3.550,-0.005,-0.080
3.552,-0.035,-0.080
3.554,-0.020,-0.080
3.556,-0.030,-0.075
3.558,-0.055,-0.075
3.560,-0.075,-0.075
3.562,-0.030,-0.075
3.564,-0.035,-0.080
3.566,-0.035,-0.085
3.568,-0.025,-0.085
3.570,-0.040,-0.090
3.572,-0.060,-0.095
3.574,-0.030,-0.095
3.576,-0.050,-0.095
3.578,-0.085,-0.090
3.580,-0.045,-0.090
3.582,-0.005,-0.085
3.584,-0.020,-0.080
3.586,-0.050,-0.080
3.588,-0.030,-0.080
3.590,-0.035,-0.080
3.592,-0.035,-0.085
3.594,0.000,-0.085
3.596,-0.040,-0.090
3.598,-0.030,-0.090
3.600,-0.045,-0.090
3.602,-0.070,-0.090
3.604,-0.080,-0.090
3.606,-0.030,-0.090
3.608,-0.040,-0.090
3.610,-0.050,-0.095
3.612,-0.050,-0.095
3.614,-0.060,-0.095
3.616,-0.065,-0.095
3.618,-0.075,-0.095
3.620,-0.040,-0.090
3.622,-0.005,-0.090
3.624,-0.010,-0.085
3.626,-0.015,-0.075
3.628,-0.040,-0.070
3.630,-0.065,-0.070
3.632,-0.060,-0.065
3.634,-0.050,-0.065
3.636,-0.035,-0.070
3.638,-0.035,-0.075
3.640,-0.035,-0.080
3.642,-0.035,-0.080
3.644,-0.040,-0.085
3.646,-0.040,-0.090
3.648,-0.040,-0.090
3.650,-0.050,-0.085
3.652,-0.085,-0.085
3.654,-0.050,-0.080
3.656,-0.015,-0.080
3.658,-0.010,-0.080
3.660,-0.010,-0.080
3.662,-0.055,-0.085
3.664,-0.045,-0.090
3.666,-0.045,-0.095
3.668,-0.040,-0.100
3.670,-0.035,-0.105
3.672,-0.005,-0.105
3.674,-0.050,-0.105
3.676,-0.045,-0.105
3.678,-0.050,-0.100
3.680,-0.040,-0.095
3.682,-0.025,-0.085
3.684,-0.050,-0.080
3.686,-0.025,-0.075
3.688,-0.030,-0.075
3.690,-0.035,-0.080
3.692,-0.060,-0.085
3.694,-0.080,-0.095
3.696,-0.055,-0.105
3.698,-0.120,-0.115
3.700,-0.065,-0.125
3.702,0.000,-0.125
3.704,-0.060,-0.125
3.706,-0.070,-0.120
3.708,-0.040,-0.110
3.710,-0.010,-0.100
3.712,-0.025,-0.085
3.714,-0.035,-0.080
3.716,-0.045,-0.070
3.718,-0.055,-0.070
3.720,-0.035,-0.070
3.722,-0.040,-0.075
3.724,-0.050,-0.080
3.726,-0.045,-0.085
3.728,-0.020,-0.085
3.730,-0.045,-0.085
3.732,-0.050,-0.085
3.734,-0.030,-0.080
3.736,-0.030,-0.080
3.738,-0.030,-0.075
3.740,-0.045,-0.080
3.742,-0.045,-0.080
3.744,-0.040,-0.085
3.746,-0.040,-0.090
3.748,-0.035,-0.095
3.750,-0.070,-0.100
3.752,-0.050,-0.100
3.754,-0.035,-0.095
3.756,-0.035,-0.090
3.758,-0.040,-0.085
3.760,0.005,-0.080
3.762,0.025,-0.075
3.764,-0.035,-0.075
3.766,-0.060,-0.075
3.768,-0.060,-0.080
3.770,-0.070,-0.085
3.772,-0.060,-0.090
3.774,-0.015,-0.100
3.776,-0.035,-0.105
3.778,-0.050,-0.110
3.780,-0.050,-0.110
3.782,-0.065,-0.115
3.784,-0.075,-0.115
3.786,-0.095,-0.110
3.788,-0.050,-0.110
3.790,-0.090,-0.105
3.792,-0.145,-0.100
3.794,0.015,-0.095
3.796,-0.010,-0.085
3.798,-0.035,-0.080
3.800,-0.045,-0.075
3.802,-0.030,-0.070
3.804,-0.010,-0.065
3.806,-0.010,-0.065
3.808,-0.015,-0.065
3.810,-0.040,-0.070
3.812,-0.055,-0.080
3.814,-0.095,-0.085
3.816,-0.105,-0.100
3.818,-0.075,-0.110
3.820,-0.030,-0.115
3.822,-0.015,-0.120
3.824,-0.055,-0.120
3.826,-0.040,-0.115
3.828,-0.055,-0.105
3.830,-0.065,-0.095
3.832,-0.015,-0.080
3.834,-0.030,-0.075
3.836,-0.045,-0.070
3.838,-0.060,-0.070
3.840,-0.065,-0.075
3.842,-0.045,-0.085
3.844,-0.030,-0.095
3.846,-0.050,-0.105
3.848,-0.090,-0.110
3.850,-0.100,-0.115
3.852,-0.035,-0.110
3.854,-0.010,-0.105
3.856,-0.085,-0.095
3.858,-0.030,-0.085
3.860,-0.040,-0.080
3.862,-0.025,-0.080
3.864,-0.030,-0.085
3.866,-0.080,-0.090
3.868,-0.060,-0.100
3.870,-0.045,-0.110
3.872,-0.030,-0.115
3.874,-0.015,-0.115
3.876,-0.050,-0.110
3.878,-0.085,-0.105
3.880,-0.065,-0.095
3.882,-0.075,-0.090
3.884,-0.025,-0.085
3.886,-0.025,-0.085
3.888,-0.040,-0.085
3.890,-0.050,-0.090
3.892,-0.030,-0.095
3.894,-0.055,-0.100
3.896,-0.110,-0.100
3.898,-0.070,-0.100
3.900,-0.005,-0.095
3.902,-0.030,-0.090
3.904,-0.035,-0.085
3.906,-0.055,-0.085
3.908,-0.035,-0.085
3.910,-0.090,-0.085
3.912,-0.035,-0.095
3.914,-0.015,-0.100
3.916,-0.050,-0.105
3.918,-0.065,-0.110
3.920,-0.065,-0.110
3.922,-0.055,-0.105
3.924,-0.030,-0.100
3.926,0.000,-0.090
3.928,-0.035,-0.085
3.930,-0.035,-0.080
3.932,-0.030,-0.080
3.934,-0.045,-0.085
3.936,-0.040,-0.090
3.938,-0.030,-0.100
3.940,-0.050,-0.105
3.942,-0.055,-0.110
3.944,-0.045,-0.115
3.946,-0.040,-0.110
3.948,-0.070,-0.105
3.950,-0.085,-0.100
3.952,-0.050,-0.095
3.954,-0.040,-0.090
3.956,0.000,-0.085
3.958,-0.040,-0.085
3.960,-0.045,-0.090
3.962,-0.045,-0.095
3.964,-0.035,-0.100
3.966,-0.050,-0.100
3.968,-0.030,-0.105
3.970,-0.090,-0.105
3.972,-0.060,-0.100
3.974,-0.020,-0.095
3.976,-0.040,-0.090
3.978,-0.070,-0.090
3.980,-0.040,-0.085
3.982,-0.045,-0.090
3.984,-0.020,-0.090
3.986,-0.030,-0.095
3.988,-0.100,-0.100
3.990,-0.065,-0.105
3.992,-0.025,-0.110
3.994,-0.085,-0.110
3.996,-0.035,-0.110
3.998,-0.030,-0.110
4.000,-0.035,-0.105
4.002,-0.050,-0.105
4.004,-0.050,-0.100
4.006,-0.040,-0.095
4.008,-0.055,-0.090
4.010,-0.030,-0.085
4.012,-0.040,-0.080
4.014,-0.015,-0.075
4.016,-0.030,-0.075
4.018,-0.040,-0.070
4.020,-0.035,-0.070
4.022,-0.030,-0.070
4.024,-0.035,-0.070
4.026,-0.035,-0.075
4.028,-0.055,-0.080
4.030,-0.085,-0.085
4.032,-0.035,-0.085
4.034,-0.015,-0.085
4.036,-0.015,-0.085
4.038,-0.020,-0.085
4.040,-0.010,-0.080
4.042,-0.060,-0.075
4.044,-0.025,-0.075
4.046,-0.005,-0.075
4.048,-0.050,-0.070
4.050,-0.020,-0.070
4.052,-0.005,-0.070
4.054,-0.010,-0.070
4.056,0.020,-0.065
4.058,0.020,-0.060
4.060,0.015,-0.050
4.062,-0.025,-0.045
4.064,0.025,-0.040
4.066,0.060,-0.035
4.068,-0.025,-0.035
4.070,0.000,-0.035
4.072,0.025,-0.035
4.074,0.025,-0.040
4.076,0.030,-0.040
4.078,0.015,-0.040
4.080,0.025,-0.040
4.082,0.030,-0.035
4.084,0.030,-0.030
4.086,0.020,-0.025
4.088,0.025,-0.025
4.090,-0.005,-0.030
4.092,-0.010,-0.035
4.094,0.015,-0.040
4.096,0.040,-0.050
4.098,-0.015,-0.060
4.100,-0.005,-0.065
4.102,-0.020,-0.070
4.104,-0.020,-0.075
4.106,-0.010,-0.075
4.108,-0.040,-0.075
4.110,-0.015,-0.075
4.112,0.025,-0.075
4.114,-0.035,-0.080
4.116,-0.070,-0.085
4.118,-0.060,-0.095
4.120,-0.100,-0.105
4.122,-0.055,-0.115
4.124,-0.015,-0.120
4.126,-0.050,-0.125
4.128,-0.075,-0.125
4.130,-0.090,-0.120
4.132,-0.100,-0.110
4.134,-0.050,-0.105
4.136,-0.060,-0.095
4.138,-0.055,-0.090
4.140,-0.060,-0.090
4.142,-0.060,-0.095
4.144,-0.085,-0.100
4.146,-0.085,-0.110
4.148,-0.090,-0.120
4.150,-0.105,-0.125
4.152,-0.055,-0.130
4.154,-0.030,-0.130
4.156,-0.070,-0.120
4.158,-0.025,-0.110
4.160,-0.040,-0.100
4.162,-0.100,-0.095
4.164,-0.055,-0.095
4.166,-0.065,-0.110
4.168,-0.095,-0.135
4.170,-0.185,-0.175
4.172,-0.185,-0.215
4.174,-0.190,-0.260
4.176,-0.275,-0.290
4.178,-0.280,-0.310
4.180,-0.280,-0.300
4.182,-0.250,-0.270
4.184,-0.210,-0.215
4.186,-0.070,-0.135
4.188,0.070,-0.040
4.190,0.185,0.075
4.192,0.225,0.195
4.194,0.350,0.325
4.196,0.530,0.465
4.198,0.695,0.615
4.200,0.860,0.775
4.202,0.995,0.950
4.204,1.155,1.125
4.206,1.385,1.290
4.208,1.545,1.435
4.210,1.680,1.540
4.212,1.720,1.590
4.214,1.735,1.575
4.216,1.615,1.495
4.218,1.460,1.345
4.220,1.210,1.140
4.222,0.950,0.910
4.224,0.610,0.665
4.226,0.310,0.435
4.228,0.195,0.235
4.230,0.105,0.080
4.232,0.005,-0.030
4.234,-0.040,-0.090
4.236,-0.030,-0.120
4.238,-0.070,-0.120
4.240,-0.075,-0.110
4.242,-0.050,-0.095
4.244,-0.035,-0.085
4.246,-0.045,-0.080
4.248,-0.025,-0.075
4.250,-0.025,-0.075
4.252,0.005,-0.080
4.254,-0.035,-0.075
4.256,-0.060,-0.075
4.258,0.010,-0.070
4.260,-0.015,-0.065
4.262,-0.005,-0.065
4.264,-0.040,-0.065
4.266,-0.045,-0.070
4.268,-0.055,-0.075
4.270,-0.015,-0.080
4.272,-0.035,-0.085
4.274,-0.025,-0.090
4.276,-0.010,-0.090
4.278,-0.025,-0.090
4.280,-0.025,-0.085
4.282,-0.050,-0.080
4.284,-0.030,-0.080
4.286,-0.015,-0.075
4.288,-0.015,-0.075
4.290,-0.045,-0.075
4.292,-0.080,-0.080
4.294,-0.040,-0.080
4.296,-0.010,-0.080
4.298,0.005,-0.080
4.300,-0.040,-0.075
4.302,-0.015,-0.070
4.304,0.010,-0.070
4.306,0.015,-0.065
4.308,0.005,-0.060
4.310,0.000,-0.055
4.312,0.000,-0.050
4.314,0.005,-0.045
4.316,0.030,-0.045
4.318,0.025,-0.040
4.320,0.000,-0.040
4.322,0.005,-0.035
4.324,0.040,-0.035
4.326,-0.025,-0.035
4.328,0.005,-0.030
4.330,0.080,-0.030
4.332,0.050,-0.025
4.334,0.045,-0.015
4.336,0.035,-0.010
4.338,0.065,0.000
4.340,0.040,0.010
4.342,0.045,0.015
4.344,0.040,0.020
4.346,0.040,0.020
4.348,0.040,0.020
4.350,0.130,0.015
4.352,0.080,0.010
4.354,0.040,0.005
4.356,0.045,0.005
4.358,0.050,0.005
4.360,0.095,0.010
4.362,0.065,0.020
4.364,0.100,0.030
4.366,0.075,0.040
4.368,0.120,0.050
4.370,0.120,0.060
4.372,0.135,0.070
4.374,0.155,0.070
4.376,0.170,0.075
4.378,0.130,0.075
4.380,0.125,0.080
4.382,0.135,0.085
4.384,0.150,0.090
4.386,0.175,0.100
4.388,0.205,0.115
4.390,0.210,0.130
4.392,0.160,0.145
4.394,0.200,0.165
4.396,0.265,0.180
4.398,0.255,0.195
4.400,0.230,0.205
4.402,0.260,0.220
4.404,0.290,0.225
4.406,0.285,0.235
4.408,0.310,0.240
4.410,0.300,0.250
4.412,0.310,0.260
4.414,0.340,0.270
4.416,0.335,0.280
4.418,0.365,0.295
4.420,0.375,0.305
4.422,0.400,0.320
4.424,0.365,0.330
4.426,0.345,0.345
4.428,0.385,0.350
4.430,0.435,0.360
4.432,0.450,0.370
4.434,0.460,0.380
4.436,0.425,0.390
4.438,0.470,0.400
4.440,0.450,0.410
4.442,0.455,0.420
4.444,0.510,0.425
4.446,0.490,0.425
4.448,0.435,0.420
4.450,0.455,0.415
4.452,0.460,0.405
4.454,0.425,0.390
4.456,0.435,0.380
4.458,0.420,0.365
4.460,0.375,0.355
4.462,0.400,0.345
4.464,0.375,0.330
4.466,0.350,0.315
4.468,0.345,0.300
4.470,0.345,0.280
4.472,0.290,0.260
4.474,0.265,0.240
4.476,0.280,0.220
4.478,0.245,0.200
4.480,0.230,0.180
4.482,0.215,0.160
4.484,0.130,0.140
4.486,0.120,0.120
4.488,0.155,0.095
4.490,0.140,0.075
4.492,0.080,0.055
4.494,0.085,0.035
4.496,0.060,0.020
4.498,0.025,0.005
4.500,0.045,-0.005
4.502,0.030,-0.010
4.504,-0.010,-0.015
4.506,0.045,-0.020
4.508,0.085,-0.025
4.510,0.030,-0.030
4.512,0.005,-0.035
4.514,0.015,-0.045
4.516,0.015,-0.055
4.518,-0.035,-0.060
4.520,-0.025,-0.070
4.522,0.000,-0.070
4.524,-0.005,-0.070
4.526,-0.050,-0.070
4.528,-0.015,-0.070
4.530,-0.025,-0.065
4.532,-0.030,-0.065
4.534,-0.040,-0.070
4.536,-0.075,-0.075
4.538,-0.025,-0.080
4.540,-0.030,-0.085
4.542,-0.045,-0.090
4.544,-0.025,-0.095
4.546,-0.030,-0.100
4.548,-0.020,-0.100
4.550,-0.070,-0.095
4.552,-0.065,-0.095
4.554,-0.040,-0.090
4.556,-0.010,-0.090
4.558,-0.010,-0.090
4.560,-0.040,-0.090
4.562,-0.035,-0.090
4.564,-0.070,-0.090
4.566,-0.055,-0.090
4.568,-0.020,-0.090
4.570,-0.025,-0.090
4.572,-0.040,-0.085
4.574,-0.030,-0.085
4.576,-0.035,-0.080
4.578,-0.060,-0.080
4.580,-0.030,-0.080
4.582,-0.030,-0.080
4.584,-0.045,-0.080
4.586,-0.065,-0.085
4.588,-0.025,-0.085
4.590,-0.060,-0.090
4.592,-0.025,-0.090
4.594,-0.015,-0.090
4.596,-0.040,-0.095
4.598,-0.020,-0.090
4.600,-0.065,-0.090
4.602,-0.060,-0.090
4.604,-0.030,-0.090
4.606,-0.045,-0.090
4.608,-0.030,-0.090
4.610,-0.035,-0.095
4.612,-0.045,-0.095
4.614,-0.035,-0.095
4.616,-0.030,-0.095
4.618,-0.050,-0.095
4.620,-0.065,-0.095
4.622,-0.065,-0.095
4.624,-0.035,-0.095
4.626,-0.035,-0.095
4.628,-0.020,-0.095
4.630,-0.015,-0.100
4.632,0.000,-0.100
4.634,-0.045,-0.100
4.636,-0.065,-0.100
4.638,-0.050,-0.095
4.640,-0.035,-0.090
4.642,-0.035,-0.085
4.644,-0.020,-0.080
4.646,-0.020,-0.075
4.648,-0.040,-0.070
4.650,-0.045,-0.070
4.652,-0.055,-0.075
4.654,-0.085,-0.080
4.656,-0.010,-0.095
4.658,-0.060,-0.105
4.660,-0.060,-0.115
4.662,-0.050,-0.120
4.664,-0.035,-0.120
4.666,-0.030,-0.115
4.668,-0.045,-0.105
4.670,-0.045,-0.095
4.672,-0.030,-0.085
4.674,-0.055,-0.080
4.676,-0.040,-0.080
4.678,-0.035,-0.080
4.680,-0.045,-0.085
4.682,-0.095,-0.095
4.684,-0.030,-0.105
4.686,-0.025,-0.110
4.688,-0.085,-0.110
4.690,-0.110,-0.110
4.692,-0.065,-0.100
4.694,-0.005,-0.095
4.696,-0.005,-0.085
4.698,-0.040,-0.080
4.700,-0.065,-0.080
4.702,-0.045,-0.085
4.704,-0.010,-0.090
4.706,-0.060,-0.100
4.708,-0.035,-0.110
4.710,-0.010,-0.115
4.712,-0.060,-0.115
4.714,-0.080,-0.115
4.716,-0.055,-0.110
4.718,-0.025,-0.100
4.720,-0.015,-0.095
4.722,-0.035,-0.090
4.724,-0.065,-0.095
4.726,-0.045,-0.095
4.728,-0.075,-0.100
4.730,-0.090,-0.110
4.732,-0.125,-0.115
4.734,-0.065,-0.120
4.736,-0.030,-0.120
4.738,-0.030,-0.120
4.740,-0.025,-0.115
4.742,-0.050,-0.110
4.744,-0.045,-0.110
4.746,-0.085,-0.105
4.748,-0.095,-0.105
4.750,-0.070,-0.110
4.752,-0.060,-0.110
4.754,-0.055,-0.115
4.756,-0.035,-0.115
4.758,-0.070,-0.115
4.760,-0.065,-0.115
4.762,-0.055,-0.115
4.764,-0.025,-0.110
4.766,-0.045,-0.110
4.768,-0.025,-0.105
4.770,-0.070,-0.105
4.772,-0.075,-0.100
4.774,-0.065,-0.100
4.776,-0.035,-0.100
4.778,-0.040,-0.100
4.780,-0.045,-0.100
4.782,-0.040,-0.100
4.784,-0.050,-0.105
4.786,-0.070,-0.110
4.788,-0.065,-0.115
4.790,-0.095,-0.120
4.792,-0.150,-0.125
4.794,-0.075,-0.125
4.796,-0.020,-0.125
4.798,-0.065,-0.125
4.800,-0.085,-0.120
4.802,-0.015,-0.110
4.804,-0.015,-0.105
4.806,-0.055,-0.095
4.808,-0.105,-0.090
4.810,-0.060,-0.085
4.812,-0.040,-0.085
4.814,-0.025,-0.085
4.816,-0.010,-0.085
4.818,-0.040,-0.090
4.820,-0.085,-0.090
4.822,-0.040,-0.095
4.824,-0.050,-0.100
4.826,-0.065,-0.100
4.828,-0.065,-0.105
4.830,-0.075,-0.110
4.832,-0.090,-0.115
4.834,-0.070,-0.125
4.836,-0.045,-0.130
4.838,-0.055,-0.130
4.840,-0.055,-0.135
4.842,-0.060,-0.135
4.844,-0.070,-0.130
4.846,-0.090,-0.125
4.848,-0.080,-0.120
4.850,-0.075,-0.115
4.852,-0.045,-0.110
4.854,-0.065,-0.110
4.856,-0.045,-0.110
4.858,0.005,-0.110
4.860,-0.055,-0.115
4.862,-0.065,-0.115
4.864,-0.065,-0.115
4.866,-0.070,-0.110
4.868,-0.080,-0.105
4.870,-0.040,-0.100
4.872,-0.020,-0.095
4.874,-0.015,-0.090
4.876,-0.050,-0.085
4.878,-0.050,-0.085
4.880,-0.075,-0.085
4.882,-0.015,-0.085
4.884,-0.050,-0.090
4.886,-0.060,-0.090
4.888,-0.035,-0.090
4.890,-0.040,-0.090
4.892,-0.045,-0.090
4.894,-0.075,-0.095
4.896,-0.055,-0.095
4.898,-0.070,-0.095
4.900,-0.040,-0.095
4.902,-0.010,-0.100
4.904,-0.035,-0.100
4.906,-0.050,-0.105
4.908,-0.065,-0.105
4.910,-0.040,-0.105
4.912,-0.065,-0.105
4.914,-0.055,-0.100
4.916,-0.040,-0.100
4.918,-0.090,-0.100
4.920,-0.025,-0.095
4.922,-0.030,-0.095
4.924,-0.045,-0.095
4.926,-0.050,-0.095
4.928,-0.075,-0.095
4.930,-0.050,-0.095
4.932,-0.055,-0.090
4.934,-0.035,-0.090
4.936,-0.030,-0.090
4.938,-0.060,-0.085
4.940,-0.040,-0.085
4.942,-0.040,-0.090
4.944,-0.055,-0.090
4.946,-0.050,-0.100
4.948,-0.020,-0.105
4.950,-0.060,-0.110
4.952,-0.100,-0.110
4.954,-0.075,-0.110
4.956,-0.050,-0.110
4.958,-0.050,-0.100
4.960,-0.025,-0.090
4.962,-0.040,-0.080
4.964,-0.010,-0.075
4.966,-0.020,-0.070
4.968,-0.050,-0.065
4.970,-0.055,-0.070
4.972,-0.040,-0.075
4.974,-0.050,-0.085
4.976,-0.075,-0.090
4.978,-0.030,-0.100
4.980,-0.025,-0.100
4.982,-0.025,-0.100
4.984,-0.080,-0.095
4.986,-0.025,-0.085
4.988,0.000,-0.075
4.990,0.000,-0.065
4.992,-0.030,-0.055
4.994,0.000,-0.050
4.996,-0.010,-0.045
4.998,-0.040,-0.040
5.000,0.015,-0.035
5.002,0.065,-0.035
5.004,0.020,-0.035
5.006,-0.025,-0.035
5.008,0.015,-0.040
5.010,0.035,-0.040
5.012,0.005,-0.040
5.014,0.000,-0.035
5.016,-0.005,-0.035
5.018,-0.015,-0.035
5.020,0.005,-0.035
5.022,0.015,-0.035
5.024,0.010,-0.035
5.026,-0.015,-0.035
5.028,0.020,-0.040
5.030,0.005,-0.040
5.032,-0.045,-0.045
5.034,0.005,-0.045
5.036,-0.005,-0.050
5.038,-0.025,-0.050
5.040,0.010,-0.050
5.042,0.040,-0.050
5.044,0.020,-0.050
5.046,-0.045,-0.050
5.048,-0.020,-0.055
5.050,-0.015,-0.060
5.052,-0.015,-0.070
5.054,-0.050,-0.080
5.056,-0.030,-0.090
5.058,-0.075,-0.105
5.060,-0.065,-0.115
5.062,-0.030,-0.125
5.064,-0.125,-0.130
5.066,-0.095,-0.135
5.068,-0.040,-0.130
5.070,-0.085,-0.125
5.072,-0.105,-0.120
5.074,-0.100,-0.110
5.076,-0.015,-0.105
5.078,-0.070,-0.095
5.080,-0.070,-0.095
5.082,-0.065,-0.095
5.084,-0.070,-0.095
5.086,-0.050,-0.105
5.088,-0.065,-0.110
5.090,-0.095,-0.120
5.092,-0.130,-0.130
5.094,-0.115,-0.135
5.096,-0.075,-0.140
5.098,-0.020,-0.140
5.100,-0.005,-0.135
5.102,-0.095,-0.135
5.104,-0.085,-0.135
5.106,-0.080,-0.140
5.108,-0.150,-0.150
5.110,-0.165,-0.170
5.112,-0.135,-0.200
5.114,-0.175,-0.230
5.116,-0.225,-0.255
5.118,-0.230,-0.275
5.120,-0.275,-0.280
5.122,-0.260,-0.260
5.124,-0.215,-0.215
5.126,-0.105,-0.150
5.128,0.025,-0.060
5.130,0.165,0.050
5.132,0.215,0.170
5.134,0.315,0.305
5.136,0.485,0.445
5.138,0.670,0.600
5.140,0.835,0.755
5.142,0.980,0.925
5.144,1.120,1.090
5.146,1.340,1.255
5.148,1.515,1.395
5.150,1.605,1.510
5.152,1.655,1.570
5.154,1.710,1.565
5.156,1.615,1.495
5.158,1.470,1.355
5.160,1.270,1.160
5.162,0.985,0.920
5.164,0.575,0.670
5.166,0.290,0.430
5.168,0.145,0.220
5.170,0.050,0.055
5.172,-0.015,-0.050
5.174,-0.020,-0.110
5.176,-0.040,-0.125
5.178,-0.115,-0.115
5.180,-0.060,-0.095
5.182,-0.055,-0.075
5.184,-0.045,-0.060
5.186,-0.060,-0.060
5.188,-0.060,-0.070
5.190,-0.040,-0.085
5.192,-0.045,-0.095
5.194,-0.020,-0.105
5.196,-0.050,-0.100
5.198,-0.020,-0.090
5.200,-0.020,-0.080
5.202,-0.045,-0.065
5.204,-0.055,-0.060
5.206,-0.025,-0.055
5.208,-0.040,-0.060
5.210,-0.065,-0.070
5.212,-0.070,-0.080
5.214,-0.030,-0.090
5.216,-0.040,-0.095
5.218,-0.025,-0.095
5.220,-0.020,-0.095
5.222,-0.035,-0.090
5.224,0.000,-0.080
5.226,-0.070,-0.075
5.228,-0.075,-0.075
5.230,-0.105,-0.075
5.232,-0.010,-0.075
5.234,0.030,-0.075
5.236,-0.045,-0.075
5.238,-0.045,-0.070
5.240,-0.010,-0.065
5.242,-0.025,-0.060
5.244,0.005,-0.050
5.246,-0.020,-0.040
5.248,0.005,-0.035
5.250,-0.010,-0.035
5.252,-0.030,-0.035
5.254,-0.035,-0.035
5.256,0.010,-0.040
5.258,0.010,-0.045
5.260,0.025,-0.045
5.262,0.000,-0.040
5.264,0.015,-0.035
5.266,0.020,-0.030
5.268,0.010,-0.020
5.270,0.040,-0.015
5.272,0.020,-0.010
5.274,-0.010,-0.005
5.276,0.015,-0.005
5.278,0.025,-0.010
5.280,0.045,-0.010
5.282,0.005,-0.010
5.284,0.015,-0.010
5.286,0.070,-0.005
5.288,0.085,0.000
5.290,0.020,0.010
5.292,0.055,0.020
5.294,0.100,0.030
5.296,0.110,0.040
5.298,0.070,0.045
5.300,0.060,0.045
5.302,0.060,0.050
5.304,0.065,0.050
5.306,0.110,0.050
5.308,0.090,0.050
5.310,0.085,0.055
5.312,0.100,0.060
5.314,0.115,0.065
5.316,0.130,0.075
5.318,0.135,0.085
5.320,0.150,0.090
5.322,0.155,0.100
5.324,0.175,0.105
5.326,0.170,0.115
5.328,0.175,0.125
5.330,0.155,0.130
5.332,0.170,0.140
5.334,0.205,0.155
5.336,0.215,0.165
5.338,0.230,0.175
5.340,0.275,0.190
5.342,0.250,0.205
5.344,0.225,0.220
5.346,0.280,0.230
5.348,0.285,0.245
5.350,0.265,0.260
5.352,0.295,0.275
5.354,0.355,0.290
5.356,0.350,0.300
5.358,0.345,0.305
5.360,0.365,0.310
5.362,0.375,0.315
5.364,0.380,0.320
5.366,0.365,0.320
5.368,0.355,0.325
5.370,0.370,0.335
5.372,0.400,0.345
5.374,0.375,0.360
5.376,0.410,0.375
5.378,0.465,0.390
5.380,0.435,0.400
5.382,0.400,0.410
5.384,0.490,0.415
5.386,0.505,0.415
5.388,0.440,0.410
5.390,0.375,0.405
5.392,0.410,0.400
5.394,0.440,0.390
5.396,0.450,0.385
5.398,0.450,0.375
5.400,0.410,0.365
5.402,0.375,0.355
5.404,0.365,0.340
5.406,0.365,0.325
5.408,0.345,0.305
5.410,0.265,0.280
5.412,0.295,0.260
5.414,0.270,0.240
5.416,0.245,0.220
5.418,0.235,0.200
5.420,0.195,0.180
5.422,0.180,0.165
5.424,0.145,0.145
5.426,0.115,0.125
5.428,0.090,0.105
5.430,0.095,0.085
5.432,0.080,0.065
5.434,0.085,0.045
5.436,0.085,0.030
5.438,0.080,0.020
5.440,0.055,0.015
5.442,-0.005,0.005
5.444,0.010,0.000
5.446,0.015,-0.005
5.448,0.000,-0.015
5.450,0.000,-0.025
5.452,-0.030,-0.040
5.454,-0.045,-0.050
5.456,-0.025,-0.065
5.458,-0.005,-0.075
5.460,-0.025,-0.085
5.462,-0.065,-0.090
5.464,-0.060,-0.090
5.466,-0.045,-0.085
5.468,-0.035,-0.080
5.470,-0.050,-0.080
5.472,-0.040,-0.080
5.474,-0.035,-0.080
5.476,-0.045,-0.080
5.478,-0.040,-0.085
5.480,-0.035,-0.090
5.482,-0.050,-0.100
5.484,-0.060,-0.100
5.486,-0.065,-0.105
5.488,-0.095,-0.105
5.490,-0.135,-0.105
5.492,-0.060,-0.105
5.494,-0.025,-0.100
5.496,-0.070,-0.095
5.498,-0.080,-0.090
5.500,-0.040,-0.090
5.502,-0.055,-0.085
5.504,-0.045,-0.080
5.506,-0.050,-0.080
5.508,-0.070,-0.075
5.510,-0.045,-0.070
5.512,-0.045,-0.070
5.514,-0.045,-0.070
5.516,-0.065,-0.065
5.518,-0.025,-0.065
5.520,-0.045,-0.070
5.522,-0.045,-0.070
5.524,-0.075,-0.075
5.526,-0.025,-0.080
5.528,-0.050,-0.085
5.530,-0.075,-0.095
5.532,-0.075,-0.100
5.534,-0.100,-0.110
5.536,-0.090,-0.115
5.538,-0.070,-0.115
5.540,-0.045,-0.120
5.542,-0.050,-0.115
5.544,-0.050,-0.115
5.546,-0.065,-0.110
5.548,-0.065,-0.105
5.550,-0.110,-0.105
5.552,-0.080,-0.100
5.554,-0.090,-0.100
5.556,-0.075,-0.100
5.558,-0.060,-0.100
5.560,-0.095,-0.100
5.562,-0.050,-0.100
5.564,-0.050,-0.100
5.566,-0.050,-0.100
5.568,-0.085,-0.095
5.570,-0.070,-0.095
5.572,-0.040,-0.090
5.574,-0.060,-0.090
5.576,-0.085,-0.085
5.578,-0.060,-0.085
5.580,-0.060,-0.080
5.582,-0.040,-0.080
5.584,-0.040,-0.080
5.586,-0.060,-0.080
5.588,-0.065,-0.080
5.590,-0.015,-0.080
5.592,-0.050,-0.085
5.594,-0.080,-0.090
5.596,-0.070,-0.100
5.598,-0.050,-0.105
5.600,-0.040,-0.110
5.602,-0.090,-0.110
5.604,-0.095,-0.110
5.606,-0.070,-0.110
5.608,-0.090,-0.110
5.610,-0.065,-0.105
5.612,-0.035,-0.100
5.614,-0.025,-0.100
5.616,-0.090,-0.095
5.618,-0.075,-0.095
5.620,-0.075,-0.095
5.622,-0.080,-0.100
5.624,-0.050,-0.100
5.626,-0.070,-0.105
5.628,-0.065,-0.105
5.630,-0.080,-0.105
5.632,-0.080,-0.105
5.634,-0.075,-0.105
5.636,-0.050,-0.100
5.638,-0.020,-0.095
5.640,-0.040,-0.090
5.642,-0.065,-0.090
5.644,-0.075,-0.090
5.646,-0.110,-0.090
5.648,-0.125,-0.095
5.650,-0.080,-0.100
5.652,-0.055,-0.105
5.654,-0.100,-0.115
5.656,-0.110,-0.120
5.658,-0.050,-0.120
5.660,-0.045,-0.115
5.662,-0.080,-0.110
5.664,-0.090,-0.100
5.666,-0.035,-0.085
5.668,-0.050,-0.075
5.670,-0.070,-0.070
5.672,-0.065,-0.070
5.674,-0.075,-0.075
5.676,-0.030,-0.085
5.678,-0.045,-0.100
5.680,-0.115,-0.115
5.682,-0.080,-0.125
5.684,-0.080,-0.135
5.686,-0.085,-0.140
5.688,-0.120,-0.135
5.690,-0.105,-0.130
5.692,-0.085,-0.120
5.694,-0.075,-0.110
5.696,-0.045,-0.100
5.698,-0.055,-0.095
5.700,-0.075,-0.090
5.702,-0.065,-0.090
5.704,-0.080,-0.095
5.706,-0.120,-0.100
5.708,-0.085,-0.105
5.710,-0.070,-0.110
5.712,-0.070,-0.115
5.714,-0.085,-0.115
5.716,-0.070,-0.110
5.718,-0.080,-0.105
5.720,-0.090,-0.100
5.722,-0.055,-0.095
5.724,-0.070,-0.095
5.726,-0.085,-0.095
5.728,-0.065,-0.095
5.730,-0.065,-0.095
5.732,-0.105,-0.100
5.734,-0.095,-0.105
5.736,-0.085,-0.110
5.738,-0.075,-0.115
5.740,-0.045,-0.120
5.742,-0.080,-0.120
5.744,-0.090,-0.120
5.746,-0.065,-0.120
5.748,-0.115,-0.120
5.750,-0.100,-0.115
5.752,-0.085,-0.110
5.754,-0.075,-0.105
5.756,-0.065,-0.095
5.758,-0.060,-0.085
5.760,-0.070,-0.080
5.762,-0.085,-0.080
5.764,-0.100,-0.080
5.766,-0.065,-0.085
5.768,-0.070,-0.090
5.770,-0.075,-0.100
5.772,-0.105,-0.115
5.774,-0.090,-0.125
5.776,-0.055,-0.130
5.778,-0.095,-0.135
5.780,-0.105,-0.135
5.782,-0.105,-0.135
5.784,-0.105,-0.130
5.786,-0.120,-0.130
5.788,-0.090,-0.125
5.790,-0.090,-0.125
5.792,-0.085,-0.125
5.794,-0.125,-0.120
5.796,-0.100,-0.120
5.798,-0.075,-0.115
5.800,-0.110,-0.110
5.802,-0.040,-0.105
5.804,-0.055,-0.095
5.806,-0.095,-0.090
5.808,-0.070,-0.090
5.810,-0.090,-0.090
5.812,-0.070,-0.100
5.814,-0.095,-0.110
5.816,-0.075,-0.120
5.818,-0.105,-0.125
5.820,-0.090,-0.130
5.822,-0.130,-0.130
5.824,-0.080,-0.130
5.826,-0.070,-0.120
5.828,-0.075,-0.110
5.830,-0.095,-0.105
5.832,-0.085,-0.100
5.834,-0.085,-0.100
5.836,-0.040,-0.100
5.838,-0.100,-0.105
5.840,-0.120,-0.110
5.842,-0.080,-0.115
5.844,-0.140,-0.115
5.846,-0.090,-0.115
5.848,-0.030,-0.110
5.850,-0.045,-0.100
5.852,-0.090,-0.090
5.854,-0.100,-0.080
5.856,-0.025,-0.075
5.858,-0.030,-0.075
5.860,-0.075,-0.080
5.862,-0.075,-0.085
5.864,-0.075,-0.095
5.866,-0.115,-0.100
5.868,-0.100,-0.110
5.870,-0.055,-0.115
5.872,-0.090,-0.120
5.874,-0.100,-0.120
5.876,-0.070,-0.120
5.878,-0.065,-0.115
5.880,-0.135,-0.110
5.882,-0.085,-0.110
5.884,-0.100,-0.105
5.886,-0.075,-0.105
5.888,-0.085,-0.100
5.890,-0.070,-0.100
5.892,-0.085,-0.100
5.894,-0.090,-0.100
5.896,-0.070,-0.100
5.898,-0.085,-0.100
5.900,-0.085,-0.100
5.902,-0.085,-0.100
5.904,-0.105,-0.100
5.906,-0.085,-0.095
5.908,-0.055,-0.095
5.910,-0.050,-0.090
5.912,-0.050,-0.090
5.914,-0.055,-0.090
5.916,-0.050,-0.090
5.918,-0.090,-0.090
5.920,-0.095,-0.095
5.922,-0.070,-0.095
5.924,-0.085,-0.100
5.926,-0.105,-0.100
5.928,-0.070,-0.100
5.930,-0.050,-0.095
5.932,-0.080,-0.090
5.934,-0.040,-0.080
5.936,0.000,-0.075
5.938,-0.040,-0.065
5.940,-0.040,-0.055
5.942,-0.055,-0.045
5.944,-0.070,-0.040
5.946,-0.030,-0.035
5.948,-0.020,-0.035
5.950,-0.020,-0.035
5.952,-0.005,-0.035
5.954,-0.010,-0.035
5.956,0.025,-0.035
5.958,0.030,-0.030
5.960,-0.005,-0.030
5.962,-0.040,-0.025
5.964,-0.015,-0.025
5.966,-0.010,-0.025
5.968,-0.005,-0.030
5.970,-0.060,-0.035
5.972,-0.020,-0.040
5.974,-0.045,-0.050
5.976,0.000,-0.060
5.978,-0.035,-0.065
5.980,-0.050,-0.070
5.982,-0.045,-0.070
5.984,-0.045,-0.070
5.986,-0.045,-0.065
5.988,-0.045,-0.065
5.990,-0.070,-0.060
5.992,-0.080,-0.060
5.994,-0.040,-0.060
5.996,-0.045,-0.070
5.998,-0.070,-0.075
6.000,-0.050,-0.085
6.002,-0.090,-0.095
6.004,-0.095,-0.105
6.006,-0.090,-0.115
6.008,-0.075,-0.120
6.010,-0.100,-0.125
6.012,-0.155,-0.125
6.014,-0.135,-0.125
6.016,-0.100,-0.120
6.018,-0.105,-0.115
6.020,-0.050,-0.110
6.022,-0.030,-0.105
6.024,-0.085,-0.100
6.026,-0.105,-0.100
6.028,-0.085,-0.095
6.030,-0.085,-0.095
6.032,-0.105,-0.100
6.034,-0.075,-0.105
6.036,-0.100,-0.110
6.038,-0.105,-0.115
6.040,-0.115,-0.120
6.042,-0.110,-0.125
6.044,-0.105,-0.125
6.046,-0.130,-0.130
6.048,-0.095,-0.130
6.050,-0.155,-0.135
6.052,-0.160,-0.145
6.054,-0.115,-0.165
6.056,-0.160,-0.195
6.058,-0.220,-0.225
6.060,-0.260,-0.255
6.062,-0.285,-0.275
6.064,-0.330,-0.285
6.066,-0.310,-0.270
6.068,-0.225,-0.235
6.070,-0.125,-0.170
6.072,-0.045,-0.085
6.074,0.095,0.020
6.076,0.185,0.145
6.078,0.305,0.280
6.080,0.425,0.425
6.082,0.590,0.575
6.084,0.760,0.730
6.086,0.910,0.890
6.088,1.045,1.055
6.090,1.245,1.215
6.092,1.475,1.360
6.094,1.615,1.475
6.096,1.655,1.550
6.098,1.635,1.565
6.100,1.605,1.515
6.102,1.490,1.390
6.104,1.265,1.205
6.106,1.015,0.975
6.108,0.645,0.720
6.110,0.325,0.470
6.112,0.145,0.245
6.114,0.040,0.065
6.116,-0.065,-0.060
6.118,-0.070,-0.125
6.120,-0.125,-0.145
6.122,-0.195,-0.135
6.124,-0.075,-0.105
6.126,-0.030,-0.070
6.128,-0.065,-0.050
6.130,-0.060,-0.040
6.132,-0.030,-0.045
6.134,-0.040,-0.060
6.136,-0.075,-0.080
6.138,-0.060,-0.095
6.140,-0.050,-0.100
6.142,-0.055,-0.100
6.144,-0.040,-0.090
6.146,-0.025,-0.080
6.148,-0.075,-0.070
6.150,-0.090,-0.065
6.152,-0.090,-0.065
6.154,-0.075,-0.075
6.156,-0.070,-0.085
6.158,-0.060,-0.100
6.160,-0.040,-0.110
6.162,-0.070,-0.110
6.164,-0.075,-0.110
6.166,-0.085,-0.105
6.168,-0.065,-0.090
6.170,-0.110,-0.080
6.172,-0.060,-0.065
6.174,-0.020,-0.060
6.176,-0.035,-0.050
6.178,-0.045,-0.050
6.180,-0.040,-0.055
6.182,-0.060,-0.060
6.184,-0.060,-0.065
6.186,-0.040,-0.070
6.188,-0.075,-0.075
6.190,-0.070,-0.080
6.192,-0.045,-0.080
6.194,-0.060,-0.080
6.196,-0.035,-0.075
6.198,-0.025,-0.065
6.200,-0.025,-0.050
6.202,-0.010,-0.040
6.204,-0.040,-0.030
6.206,0.010,-0.020
6.208,0.035,-0.015
6.210,-0.005,-0.010
6.212,-0.030,-0.010
6.214,-0.010,-0.015
6.216,0.005,-0.015
6.218,0.045,-0.020
6.220,-0.005,-0.025
6.222,-0.035,-0.025
6.224,0.010,-0.025
6.226,0.005,-0.020
6.228,0.005,-0.015
6.230,0.015,-0.010
6.232,0.030,0.000
6.234,0.035,0.010
6.236,0.040,0.015
6.238,0.020,0.025
6.240,0.060,0.030
6.242,0.055,0.035
6.244,0.055,0.040
6.246,0.065,0.045
6.248,0.040,0.045
6.250,0.025,0.050
6.252,0.055,0.050
6.254,0.085,0.055
6.256,0.125,0.060
6.258,0.115,0.065
6.260,0.105,0.075
6.262,0.095,0.085
6.264,0.120,0.095
6.266,0.125,0.105
6.268,0.150,0.120
6.270,0.135,0.135
6.272,0.140,0.145
6.274,0.200,0.160
6.276,0.215,0.170
6.278,0.210,0.185
6.280,0.235,0.195
6.282,0.185,0.210
6.284,0.225,0.225
6.286,0.265,0.235
6.288,0.265,0.245
6.290,0.230,0.255
6.292,0.275,0.260
6.294,0.275,0.265
6.296,0.290,0.270
6.298,0.290,0.275
6.300,0.295,0.280
6.302,0.340,0.290
6.304,0.305,0.305
6.306,0.365,0.320
6.308,0.365,0.335
6.310,0.330,0.355
6.312,0.395,0.365
6.314,0.380,0.375
6.316,0.390,0.385
6.318,0.375,0.385
6.320,0.415,0.385
6.322,0.405,0.385
6.324,0.425,0.380
6.326,0.430,0.380
6.328,0.370,0.385
6.330,0.400,0.390
6.332,0.415,0.395
6.334,0.425,0.400
6.336,0.445,0.405
6.338,0.430,0.410
6.340,0.420,0.405
6.342,0.410,0.405
6.344,0.370,0.395
6.346,0.370,0.385
6.348,0.345,0.370
6.350,0.350,0.350
6.352,0.310,0.330
6.354,0.295,0.305
6.356,0.295,0.280
6.358,0.290,0.255
6.360,0.220,0.225
6.362,0.170,0.195
6.364,0.110,0.165
6.366,0.170,0.140
6.368,0.130,0.120
6.370,0.090,0.100
6.372,0.120,0.090
6.374,0.095,0.080
6.376,0.050,0.070
6.378,0.075,0.065
6.380,0.070,0.050
6.382,0.025,0.040
6.384,0.015,0.020
6.386,0.000,0.005
6.388,-0.055,-0.015
6.390,-0.035,-0.030
6.392,-0.020,-0.045
6.394,-0.080,-0.055
6.396,-0.015,-0.060
6.398,-0.030,-0.065
6.400,-0.035,-0.065
6.402,-0.050,-0.065
6.404,-0.065,-0.065
6.406,-0.055,-0.070
6.408,-0.050,-0.075
6.410,-0.115,-0.080
6.412,-0.085,-0.085
6.414,-0.095,-0.090
6.416,-0.065,-0.090
6.418,-0.060,-0.090
6.420,-0.050,-0.085
6.422,-0.045,-0.080
6.424,-0.035,-0.070
6.426,-0.040,-0.065
6.428,-0.080,-0.060
6.430,-0.055,-0.060
6.432,-0.055,-0.060
6.434,-0.080,-0.060
6.436,-0.070,-0.065
6.438,-0.070,-0.075
6.440,-0.100,-0.080
6.442,-0.100,-0.085
6.444,-0.060,-0.090
6.446,-0.065,-0.095
6.448,-0.100,-0.095
6.450,-0.145,-0.095
6.452,-0.090,-0.090
6.454,-0.045,-0.090
6.456,-0.055,-0.085
6.458,-0.035,-0.080
6.460,-0.055,-0.080
6.462,-0.135,-0.080
6.464,-0.075,-0.080
6.466,-0.045,-0.085
6.468,-0.090,-0.090
6.470,-0.080,-0.090
6.472,-0.065,-0.095
6.474,-0.065,-0.100
6.476,-0.090,-0.100
6.478,-0.080,-0.095
6.480,-0.085,-0.095
6.482,-0.080,-0.090
6.484,-0.075,-0.085
6.486,-0.065,-0.080
6.488,-0.085,-0.080
6.490,-0.045,-0.080
6.492,-0.060,-0.080
6.494,-0.100,-0.085
6.496,-0.090,-0.090
6.498,-0.055,-0.090
6.500,-0.100,-0.095
6.502,-0.105,-0.095
6.504,-0.080,-0.095
6.506,-0.065,-0.090
6.508,-0.090,-0.090
6.510,-0.040,-0.085
6.512,-0.060,-0.080
6.514,-0.060,-0.080
6.516,-0.055,-0.075
6.518,-0.075,-0.075
6.520,-0.075,-0.075
6.522,-0.095,-0.075
6.524,-0.045,-0.080
6.526,-0.055,-0.080
6.528,-0.105,-0.080
6.530,-0.115,-0.085
6.532,-0.045,-0.085
6.534,-0.110,-0.085
6.536,-0.075,-0.080
6.538,-0.020,-0.080
6.540,-0.030,-0.075
6.542,-0.060,-0.075
6.544,-0.090,-0.075
6.546,-0.105,-0.075
6.548,-0.080,-0.080
6.550,-0.065,-0.090
6.552,-0.070,-0.095
6.554,-0.085,-0.105
6.556,-0.070,-0.110
6.558,-0.120,-0.105
6.560,-0.110,-0.105
6.562,-0.120,-0.095
6.564,-0.050,-0.085
6.566,-0.045,-0.080
6.568,-0.080,-0.075
6.570,-0.035,-0.070
6.572,-0.045,-0.075
6.574,-0.100,-0.085
6.576,-0.100,-0.095
6.578,-0.065,-0.105
6.580,-0.120,-0.110
6.582,-0.100,-0.110
6.584,-0.075,-0.110
6.586,-0.085,-0.105
6.588,-0.060,-0.095
6.590,-0.090,-0.085
6.592,-0.110,-0.080
6.594,-0.075,-0.075
6.596,-0.085,-0.075
6.598,-0.065,-0.080
6.600,-0.030,-0.085
6.602,-0.050,-0.095
6.604,-0.110,-0.100
6.606,-0.105,-0.100
6.608,-0.075,-0.100
6.610,-0.050,-0.100
6.612,-0.095,-0.095
6.614,-0.145,-0.095
6.616,-0.075,-0.095
6.618,-0.045,-0.095
6.620,-0.085,-0.095
6.622,-0.140,-0.095
6.624,-0.075,-0.095
6.626,-0.060,-0.090
6.628,-0.075,-0.090
6.630,-0.030,-0.085
6.632,-0.040,-0.080
6.634,-0.085,-0.080
6.636,-0.075,-0.085
6.638,-0.065,-0.085
6.640,-0.090,-0.095
6.642,-0.140,-0.100
6.644,-0.100,-0.105
6.646,-0.100,-0.110
6.648,-0.135,-0.110
6.650,-0.055,-0.105
6.652,-0.080,-0.095
6.654,-0.100,-0.090
6.656,-0.115,-0.085
6.658,-0.115,-0.080
6.660,-0.100,-0.080
6.662,-0.025,-0.085
6.664,-0.015,-0.090
6.666,-0.095,-0.100
6.668,-0.100,-0.110
6.670,-0.105,-0.120
6.672,-0.095,-0.125
6.674,-0.100,-0.125
6.676,-0.100,-0.125
6.678,-0.080,-0.120
6.680,-0.105,-0.120
6.682,-0.100,-0.115
6.684,-0.105,-0.110
6.686,-0.115,-0.110
6.688,-0.110,-0.105
6.690,-0.070,-0.105
6.692,-0.055,-0.105
6.694,-0.080,-0.105
6.696,-0.075,-0.105
6.698,-0.110,-0.100
6.700,-0.135,-0.100
6.702,-0.105,-0.095
6.704,-0.035,-0.095
6.706,-0.070,-0.090
6.708,-0.130,-0.095
6.710,-0.135,-0.095
6.712,-0.075,-0.095
6.714,-0.080,-0.100
6.716,-0.105,-0.105
6.718,-0.070,-0.105
6.720,-0.050,-0.105
6.722,-0.095,-0.105
6.724,-0.090,-0.105
6.726,-0.130,-0.105
6.728,-0.145,-0.100
6.730,-0.085,-0.105
6.732,-0.085,-0.110
6.734,-0.125,-0.115
6.736,-0.120,-0.120
6.738,-0.080,-0.125
6.740,-0.080,-0.125
6.742,-0.115,-0.125
6.744,-0.105,-0.120
6.746,-0.140,-0.110
6.748,-0.145,-0.100
6.750,-0.045,-0.090
6.752,-0.055,-0.085
6.754,-0.060,-0.080
6.756,-0.090,-0.085
6.758,-0.125,-0.085
6.760,-0.120,-0.095
6.762,-0.100,-0.105
6.764,-0.090,-0.110
6.766,-0.130,-0.115
6.768,-0.100,-0.120
6.770,-0.045,-0.120
6.772,-0.090,-0.115
6.774,-0.125,-0.115
6.776,-0.140,-0.110
6.778,-0.090,-0.110
6.780,-0.065,-0.110
6.782,-0.030,-0.110
6.784,-0.095,-0.110
6.786,-0.155,-0.105
6.788,-0.110,-0.100
6.790,-0.050,-0.095
6.792,-0.075,-0.090
6.794,-0.105,-0.085
6.796,-0.085,-0.085
6.798,-0.080,-0.085
6.800,-0.085,-0.090
6.802,-0.060,-0.095
6.804,-0.110,-0.105
6.806,-0.140,-0.110
6.808,-0.075,-0.115
6.810,-0.105,-0.115
6.812,-0.110,-0.115
6.814,-0.080,-0.115
6.816,-0.095,-0.110
6.818,-0.090,-0.110
6.820,-0.075,-0.110
6.822,-0.110,-0.110
6.824,-0.090,-0.110
6.826,-0.085,-0.110
6.828,-0.070,-0.110
6.830,-0.095,-0.105
6.832,-0.120,-0.100
6.834,-0.085,-0.090
6.836,-0.060,-0.085
6.838,-0.080,-0.080
6.840,-0.080,-0.080
6.842,-0.085,-0.080
6.844,-0.055,-0.085
6.846,-0.085,-0.095
6.848,-0.110,-0.100
6.850,-0.105,-0.105
6.852,-0.125,-0.105
6.854,-0.075,-0.105
6.856,-0.035,-0.095
6.858,-0.030,-0.085
6.860,-0.070,-0.075
6.862,-0.085,-0.065
6.864,-0.035,-0.060
6.866,-0.080,-0.060
6.868,-0.055,-0.060
6.870,-0.060,-0.065
6.872,-0.110,-0.075
6.874,-0.045,-0.080
6.876,-0.065,-0.085
6.878,-0.080,-0.085
6.880,-0.045,-0.080
6.882,-0.035,-0.075
6.884,-0.065,-0.070
6.886,-0.065,-0.060
6.888,-0.040,-0.050
6.890,0.010,-0.040
6.892,-0.010,-0.035
6.894,0.000,-0.030
6.896,0.005,-0.025
6.898,-0.005,-0.025
6.900,-0.060,-0.020
6.902,-0.020,-0.025
6.904,-0.035,-0.025
6.906,-0.040,-0.030
6.908,-0.005,-0.035
6.910,-0.040,-0.040
6.912,-0.050,-0.050
6.914,-0.050,-0.050
6.916,-0.035,-0.055
6.918,-0.045,-0.055
6.920,-0.040,-0.055
6.922,-0.025,-0.055
6.924,-0.030,-0.055
6.926,-0.065,-0.055
6.928,-0.045,-0.055
6.930,-0.040,-0.055
6.932,-0.030,-0.060
6.934,-0.025,-0.065
6.936,-0.015,-0.070
6.938,-0.075,-0.075
6.940,-0.125,-0.080
6.942,-0.070,-0.080
6.944,-0.045,-0.085
6.946,-0.115,-0.090
6.948,-0.080,-0.095
6.950,-0.085,-0.105
6.952,-0.100,-0.115
6.954,-0.105,-0.130
6.956,-0.095,-0.140
6.958,-0.065,-0.145
6.960,-0.185,-0.150
6.962,-0.180,-0.145
6.964,-0.115,-0.140
6.966,-0.135,-0.130
6.968,-0.060,-0.120
6.970,-0.050,-0.110
6.972,-0.110,-0.105
6.974,-0.140,-0.105
6.976,-0.080,-0.105
6.978,-0.060,-0.115
6.980,-0.110,-0.120
6.982,-0.135,-0.125
6.984,-0.145,-0.130
6.986,-0.135,-0.130
6.988,-0.095,-0.130
6.990,-0.100,-0.135
6.992,-0.140,-0.145
6.994,-0.165,-0.160
6.996,-0.190,-0.180
6.998,-0.230,-0.205
7.000,-0.245,-0.230
7.002,-0.265,-0.250
7.004,-0.255,-0.255
7.006,-0.295,-0.240
7.008,-0.275,-0.205
7.010,-0.125,-0.150
7.012,-0.040,-0.070
7.014,0.080,0.025
7.016,0.215,0.130
7.018,0.300,0.250
7.020,0.380,0.380
7.022,0.545,0.520
7.024,0.655,0.670
7.026,0.790,0.825
7.028,1.045,0.990
7.030,1.205,1.150
7.032,1.365,1.295
7.034,1.515,1.405
7.036,1.575,1.470
7.038,1.560,1.470
7.040,1.470,1.405
7.042,1.355,1.265
7.044,1.130,1.070
7.046,0.825,0.830
7.048,0.505,0.570
7.050,0.225,0.325
7.052,-0.010,0.115
7.054,-0.135,-0.050
7.056,-0.160,-0.155
7.058,-0.160,-0.200
7.060,-0.125,-0.205
7.062,-0.070,-0.180
7.064,-0.150,-0.140
7.066,-0.100,-0.105
7.068,-0.110,-0.080
7.070,-0.135,-0.075
7.072,-0.140,-0.080
7.074,-0.095,-0.100
7.076,-0.075,-0.115
7.078,-0.070,-0.130
7.080,-0.090,-0.130
7.082,-0.090,-0.125
7.084,-0.070,-0.110
7.086,-0.105,-0.095
7.088,-0.075,-0.080
7.090,-0.065,-0.075
7.092,-0.090,-0.075
7.094,-0.045,-0.080
7.096,-0.055,-0.090
7.098,-0.115,-0.100
7.100,-0.075,-0.105
7.102,-0.055,-0.100
7.104,-0.090,-0.095
7.106,-0.120,-0.085
7.108,-0.050,-0.080
7.110,-0.060,-0.070
7.112,-0.080,-0.065
7.114,-0.045,-0.065
7.116,-0.070,-0.065
7.118,-0.035,-0.070
7.120,-0.030,-0.070
7.122,-0.075,-0.065
7.124,-0.050,-0.060
7.126,-0.005,-0.050
7.128,-0.010,-0.045
7.130,-0.055,-0.040
7.132,-0.075,-0.040
7.134,-0.040,-0.045
7.136,0.015,-0.055
7.138,-0.070,-0.070
7.140,-0.045,-0.080
7.142,-0.035,-0.090
7.144,-0.035,-0.090
7.146,-0.050,-0.085
7.148,-0.035,-0.070
7.150,-0.015,-0.055
7.152,-0.030,-0.040
7.154,0.000,-0.025
7.156,-0.015,-0.010
7.158,-0.015,-0.005
7.160,0.010,-0.005
7.162,0.000,-0.010
7.164,-0.015,-0.015
7.166,0.000,-0.020
7.168,0.030,-0.020
7.170,0.015,-0.015
7.172,-0.020,-0.005
7.174,0.005,0.010
7.176,0.080,0.025
7.178,0.110,0.040
7.180,0.075,0.055
7.182,0.035,0.065
7.184,0.005,0.075
7.186,0.070,0.080
7.188,0.175,0.080
7.190,0.130,0.080
7.192,0.095,0.080
7.194,0.055,0.075
7.196,0.065,0.070
7.198,0.115,0.070
7.200,0.135,0.070
7.202,0.100,0.075
7.204,0.040,0.085
7.206,0.130,0.100
7.208,0.100,0.115
7.210,0.140,0.130
7.212,0.185,0.145
7.214,0.235,0.160
7.216,0.210,0.175
7.218,0.225,0.190
7.220,0.180,0.200
7.222,0.235,0.210
7.224,0.255,0.220
7.226,0.260,0.230
7.228,0.285,0.240
7.230,0.275,0.250
7.232,0.290,0.260
7.234,0.270,0.270
7.236,0.250,0.280
7.238,0.255,0.290
7.240,0.355,0.300
7.242,0.365,0.310
7.244,0.370,0.325
7.246,0.405,0.335
7.248,0.365,0.350
7.250,0.375,0.365
7.252,0.360,0.380
7.254,0.390,0.395
7.256,0.440,0.405
7.258,0.440,0.415
7.260,0.445,0.425
7.262,0.450,0.430
7.264,0.480,0.430
7.266,0.490,0.430
7.268,0.465,0.430
7.270,0.410,0.430
7.272,0.425,0.430
7.274,0.445,0.430
7.276,0.445,0.425
7.278,0.430,0.420
7.280,0.410,0.415
7.282,0.395,0.400
7.284,0.370,0.385
7.286,0.390,0.365
7.288,0.390,0.345
7.290,0.345,0.330
7.292,0.290,0.310
7.294,0.315,0.290
7.296,0.285,0.275
7.298,0.270,0.255
7.300,0.240,0.235
7.302,0.195,0.215
7.304,0.150,0.190
7.306,0.155,0.160
7.308,0.165,0.135
7.310,0.080,0.110
7.312,0.080,0.090
7.314,0.150,0.075
7.316,0.080,0.060
7.318,0.060,0.050
7.320,0.035,0.040
7.322,0.030,0.030
7.324,0.015,0.020
7.326,0.010,0.000
7.328,-0.015,-0.020
7.330,-0.060,-0.035
7.332,-0.055,-0.055
7.334,-0.040,-0.065
7.336,-0.090,-0.070
7.338,0.010,-0.070
7.340,-0.020,-0.065
7.342,-0.015,-0.055
7.344,-0.065,-0.050
7.346,-0.030,-0.045
7.348,-0.040,-0.050
7.350,-0.080,-0.055
7.352,-0.075,-0.070
7.354,-0.045,-0.085
7.356,-0.100,-0.100
7.358,-0.105,-0.115
7.360,-0.100,-0.120
7.362,-0.080,-0.125
7.364,-0.080,-0.120
7.366,-0.025,-0.115
7.368,-0.040,-0.105
7.370,-0.085,-0.100
7.372,-0.100,-0.095
7.374,-0.095,-0.090
7.376,-0.070,-0.090
7.378,-0.085,-0.090
7.380,-0.090,-0.090
7.382,-0.050,-0.085
7.384,-0.055,-0.085
7.386,-0.065,-0.080
7.388,-0.055,-0.075
7.390,-0.040,-0.075
7.392,-0.050,-0.075
7.394,-0.055,-0.075
7.396,-0.105,-0.080
7.398,-0.080,-0.090
7.400,-0.100,-0.095
7.402,-0.085,-0.100
7.404,-0.065,-0.105
7.406,-0.055,-0.105
7.408,-0.035,-0.105
7.410,-0.085,-0.105
7.412,-0.085,-0.105
7.414,-0.070,-0.105
7.416,-0.130,-0.105
7.418,-0.125,-0.115
7.420,-0.090,-0.120
7.422,-0.055,-0.125
7.424,-0.120,-0.130
7.426,-0.065,-0.135
7.428,-0.075,-0.130
7.430,-0.075,-0.125
7.432,-0.090,-0.115
7.434,-0.110,-0.100
7.436,-0.105,-0.090
7.438,-0.060,-0.085
7.440,-0.065,-0.080
7.442,-0.075,-0.080
7.444,-0.050,-0.085
7.446,-0.030,-0.090
7.448,-0.050,-0.090
7.450,-0.090,-0.095
7.452,-0.075,-0.095
7.454,-0.080,-0.090
7.456,-0.095,-0.085
7.458,-0.045,-0.080
7.460,-0.055,-0.080
7.462,-0.060,-0.075
7.464,-0.065,-0.080
7.466,-0.165,-0.085
7.468,-0.080,-0.090
7.470,-0.015,-0.095
7.472,-0.045,-0.095
7.474,-0.075,-0.090
7.476,-0.070,-0.085
7.478,-0.020,-0.075
7.480,-0.050,-0.065
7.482,-0.070,-0.060
7.484,-0.090,-0.055
7.486,-0.050,-0.055
7.488,-0.060,-0.065
7.490,-0.070,-0.070
7.492,-0.075,-0.085
7.494,-0.045,-0.090
7.496,-0.065,-0.095
7.498,-0.050,-0.095
7.500,-0.040,-0.090
7.502,-0.040,-0.080
7.504,-0.065,-0.070
7.506,-0.040,-0.060
7.508,-0.050,-0.055
7.510,-0.070,-0.055
7.512,-0.080,-0.060
7.514,-0.090,-0.070
7.516,-0.100,-0.080
7.518,-0.080,-0.095
7.520,-0.040,-0.105
7.522,-0.015,-0.110
7.524,-0.100,-0.105
7.526,-0.075,-0.100
7.528,-0.055,-0.090
7.530,-0.085,-0.080
7.532,-0.040,-0.075
7.534,-0.005,-0.070
7.536,-0.100,-0.070
7.538,-0.090,-0.070
7.540,-0.055,-0.080
7.542,-0.080,-0.085
7.544,-0.055,-0.090
7.546,-0.025,-0.090
7.548,-0.030,-0.085
7.550,-0.015,-0.080
7.552,-0.055,-0.075
7.554,-0.100,-0.075
7.556,-0.165,-0.075
7.558,-0.100,-0.080
7.560,-0.080,-0.090
7.562,-0.085,-0.100
7.564,-0.040,-0.105
7.566,-0.045,-0.110
7.568,-0.100,-0.110
7.570,-0.050,-0.105
7.572,-0.075,-0.100
7.574,-0.065,-0.085
7.576,-0.085,-0.075
7.578,-0.060,-0.065
7.580,-0.050,-0.060
7.582,-0.060,-0.065
7.584,-0.070,-0.070
7.586,-0.085,-0.075
7.588,-0.045,-0.090
7.590,-0.075,-0.095
7.592,-0.095,-0.105
7.594,-0.075,-0.110
7.596,-0.085,-0.110
7.598,-0.090,-0.105
7.600,-0.075,-0.100
7.602,-0.075,-0.095
7.604,-0.070,-0.090
7.606,-0.025,-0.085
7.608,-0.075,-0.090
7.610,-0.025,-0.090
7.612,-0.105,-0.095
7.614,-0.090,-0.105
7.616,-0.075,-0.110
7.618,-0.105,-0.115
7.620,-0.125,-0.120
7.622,-0.110,-0.120
7.624,-0.105,-0.120
7.626,-0.085,-0.120
7.628,-0.105,-0.115
7.630,-0.110,-0.110
7.632,-0.070,-0.100
7.634,-0.050,-0.090
7.636,-0.060,-0.085
7.638,-0.070,-0.075
7.640,-0.050,-0.070
7.642,-0.060,-0.070
7.644,-0.065,-0.070
7.646,-0.045,-0.075
7.648,-0.085,-0.080
7.650,-0.085,-0.090
7.652,-0.095,-0.100
7.654,-0.110,-0.110
7.656,-0.085,-0.120
7.658,-0.070,-0.130
7.660,-0.150,-0.130
7.662,-0.130,-0.130
7.664,-0.035,-0.125
7.666,-0.030,-0.115
7.668,-0.080,-0.105
7.670,-0.105,-0.095
7.672,-0.065,-0.085
7.674,-0.080,-0.080
7.676,-0.025,-0.080
7.678,-0.080,-0.085
7.680,-0.115,-0.090
7.682,-0.105,-0.095
7.684,-0.070,-0.105
7.686,-0.085,-0.110
7.688,-0.125,-0.115
7.690,-0.080,-0.120
7.692,-0.040,-0.125
7.694,-0.120,-0.125
7.696,-0.110,-0.125
7.698,-0.125,-0.125
7.700,-0.125,-0.125
7.702,-0.080,-0.120
7.704,-0.060,-0.120
7.706,-0.090,-0.115
7.708,-0.080,-0.110
7.710,-0.090,-0.105
7.712,-0.070,-0.100
7.714,-0.100,-0.095
7.716,-0.080,-0.095
7.718,-0.085,-0.100
7.720,-0.070,-0.100
7.722,-0.105,-0.110
7.724,-0.110,-0.115
7.726,-0.120,-0.125
7.728,-0.110,-0.130
7.730,-0.080,-0.135
7.732,-0.065,-0.135
7.734,-0.130,-0.135
7.736,-0.115,-0.130
7.738,-0.105,-0.125
7.740,-0.035,-0.115
7.742,-0.085,-0.110
7.744,-0.095,-0.100
7.746,-0.065,-0.090
7.748,-0.070,-0.085
7.750,-0.070,-0.080
7.752,-0.040,-0.075
7.754,-0.050,-0.075
7.756,-0.015,-0.070
7.758,-0.020,-0.070
7.760,-0.090,-0.070
7.762,-0.085,-0.070
7.764,-0.050,-0.070
7.766,-0.025,-0.070
7.768,-0.005,-0.065
7.770,-0.020,-0.065
7.772,-0.035,-0.065
7.774,-0.055,-0.065
7.776,-0.055,-0.065
7.778,-0.040,-0.070
7.780,-0.060,-0.070
7.782,-0.060,-0.075
7.784,-0.035,-0.075
7.786,0.015,-0.075
7.788,-0.055,-0.075
7.790,-0.090,-0.070
7.792,-0.045,-0.065
7.794,-0.035,-0.060
7.796,-0.030,-0.055
7.798,-0.035,-0.055
7.800,-0.040,-0.055
7.802,-0.050,-0.055
7.804,-0.045,-0.065
7.806,-0.075,-0.070
7.808,-0.060,-0.085
7.810,-0.070,-0.095
7.812,-0.080,-0.105
7.814,-0.080,-0.110
7.816,-0.110,-0.115
7.818,-0.090,-0.120
7.820,-0.080,-0.120
7.822,-0.105,-0.115
7.824,-0.125,-0.115
7.826,-0.085,-0.115
7.828,-0.100,-0.120
7.830,-0.120,-0.125
7.832,-0.140,-0.130
7.834,-0.130,-0.135
7.836,-0.115,-0.140
7.838,-0.145,-0.150
7.840,-0.155,-0.150
7.842,-0.155,-0.155
7.844,-0.115,-0.155
7.846,-0.090,-0.150
7.848,-0.140,-0.150
7.850,-0.125,-0.145
7.852,-0.105,-0.145
7.854,-0.085,-0.140
7.856,-0.095,-0.135
7.858,-0.090,-0.135
7.860,-0.090,-0.130
7.862,-0.135,-0.130
7.864,-0.135,-0.135
7.866,-0.150,-0.145
7.868,-0.160,-0.165
7.870,-0.180,-0.185
7.872,-0.210,-0.215
7.874,-0.250,-0.240
7.876,-0.235,-0.260
7.878,-0.240,-0.270
7.880,-0.260,-0.265
7.882,-0.265,-0.240
7.884,-0.245,-0.195
7.886,-0.110,-0.125
7.888,0.030,-0.045
7.890,0.130,0.055
7.892,0.185,0.165
7.894,0.280,0.285
7.896,0.470,0.415
7.898,0.625,0.550
7.900,0.730,0.695
7.902,0.870,0.845
7.904,1.000,0.995
7.906,1.175,1.145
7.908,1.375,1.275
7.910,1.455,1.375
7.912,1.505,1.425
7.914,1.540,1.420
7.916,1.465,1.350
7.918,1.290,1.220
7.920,1.095,1.035
7.922,0.865,0.810
7.924,0.470,0.575
7.926,0.225,0.345
7.928,0.025,0.145
7.930,-0.040,-0.005
7.932,-0.100,-0.110
7.934,-0.115,-0.160
7.936,-0.140,-0.175
7.938,-0.110,-0.155
7.940,-0.140,-0.130
7.942,-0.155,-0.100
7.944,-0.070,-0.085
7.946,-0.075,-0.080
7.948,-0.080,-0.090
7.950,-0.085,-0.105
7.952,-0.125,-0.120
7.954,-0.110,-0.130
7.956,-0.050,-0.135
7.958,-0.060,-0.125
7.960,-0.125,-0.110
7.962,-0.095,-0.095
7.964,-0.065,-0.080
7.966,-0.065,-0.070
7.968,-0.060,-0.070
7.970,-0.090,-0.075
7.972,-0.090,-0.090
7.974,-0.070,-0.100
7.976,-0.055,-0.110
7.978,-0.080,-0.115
7.980,-0.110,-0.115
7.982,-0.075,-0.110
7.984,-0.065,-0.095
7.986,-0.040,-0.085
7.988,-0.055,-0.075
7.990,-0.075,-0.070
7.992,-0.085,-0.070
7.994,-0.060,-0.075
7.996,-0.045,-0.080
7.998,-0.085,-0.090
8.000,-0.075,-0.100
8.002,-0.050,-0.105
8.004,-0.050,-0.105
8.006,-0.075,-0.095
8.008,-0.050,-0.085
8.010,-0.055,-0.070
8.012,-0.060,-0.055
8.014,-0.020,-0.040
8.016,0.005,-0.030
8.018,0.000,-0.025
8.020,-0.005,-0.030
8.022,-0.020,-0.035
8.024,-0.020,-0.040
8.026,-0.015,-0.050
8.028,-0.035,-0.055
8.030,-0.080,-0.055
8.032,-0.025,-0.050
8.034,0.025,-0.040
8.036,0.005,-0.030
8.038,-0.020,-0.020
8.040,-0.005,-0.010
8.042,0.035,-0.005
8.044,0.015,0.000
8.046,-0.010,-0.005
8.048,0.050,-0.010
8.050,0.060,-0.015
8.052,-0.030,-0.025
8.054,-0.025,-0.025
8.056,0.015,-0.020
8.058,0.025,-0.015
8.060,0.075,0.000
8.062,0.090,0.015
8.064,0.035,0.030
8.066,0.065,0.045
8.068,0.080,0.055
8.070,0.065,0.065
8.072,0.060,0.070
8.074,0.055,0.075
8.076,0.105,0.080
8.078,0.085,0.085
8.080,0.140,0.095
8.082,0.190,0.110
8.084,0.185,0.125
8.086,0.165,0.140
8.088,0.120,0.155
8.090,0.170,0.160
8.092,0.150,0.170
8.094,0.155,0.170
8.096,0.180,0.170
8.098,0.185,0.170
8.100,0.220,0.170
8.102,0.265,0.180
8.104,0.260,0.190
8.106,0.265,0.210
8.108,0.265,0.230
8.110,0.250,0.255
8.112,0.265,0.275
8.114,0.350,0.295
8.116,0.375,0.310
8.118,0.345,0.315
8.120,0.325,0.320
8.122,0.315,0.320
8.124,0.335,0.325
8.126,0.350,0.325
8.128,0.395,0.330
8.130,0.405,0.335
8.132,0.435,0.345
8.134,0.390,0.360
8.136,0.375,0.370
8.138,0.365,0.380
8.140,0.415,0.385
8.142,0.470,0.390
8.144,0.410,0.385
8.146,0.395,0.385
8.148,0.400,0.380
8.150,0.405,0.370
8.152,0.395,0.365
8.154,0.345,0.360
8.156,0.380,0.355
8.158,0.375,0.350
8.160,0.375,0.340
8.162,0.370,0.330
8.164,0.360,0.315
8.166,0.280,0.295
8.168,0.250,0.275
8.170,0.220,0.250
8.172,0.245,0.225
8.174,0.230,0.200
8.176,0.195,0.175
8.178,0.170,0.155
8.180,0.190,0.135
8.182,0.145,0.120
8.184,0.110,0.105
8.186,0.080,0.085
8.188,0.050,0.070
8.190,0.055,0.055
8.192,0.035,0.040
8.194,0.050,0.020
8.196,0.010,0.010
8.198,0.010,0.000
8.200,0.030,-0.005
8.202,0.090,-0.010
8.204,0.035,-0.015
8.206,-0.030,-0.015
8.208,-0.015,-0.020
8.210,-0.025,-0.030
8.212,-0.065,-0.040
8.214,-0.090,-0.055
8.216,-0.090,-0.070
8.218,-0.030,-0.085
8.220,0.000,-0.100
8.222,-0.060,-0.110
8.224,-0.055,-0.110
8.226,-0.055,-0.110
8.228,-0.080,-0.105
8.230,-0.065,-0.095
8.232,-0.070,-0.090
8.234,-0.045,-0.080
8.236,-0.045,-0.080
8.238,-0.095,-0.075
8.240,-0.055,-0.080
8.242,-0.050,-0.085
8.244,-0.080,-0.090
8.246,-0.095,-0.095
8.248,-0.070,-0.100
8.250,-0.095,-0.100
8.252,-0.050,-0.105
8.254,-0.035,-0.105
8.256,-0.055,-0.100
8.258,-0.095,-0.100
8.260,-0.100,-0.095
8.262,-0.075,-0.095
8.264,-0.035,-0.090
8.266,-0.010,-0.085
8.268,-0.050,-0.085
8.270,-0.075,-0.080
8.272,-0.055,-0.080
8.274,-0.065,-0.080
8.276,-0.065,-0.080
8.278,-0.075,-0.080
8.280,-0.050,-0.085
8.282,-0.045,-0.085
8.284,-0.060,-0.090
8.286,-0.105,-0.090
8.288,-0.095,-0.090
8.290,-0.055,-0.090
8.292,0.030,-0.085
8.294,-0.025,-0.085
8.296,-0.090,-0.080
8.298,-0.105,-0.080
8.300,-0.010,-0.080
8.302,-0.055,-0.080
8.304,-0.080,-0.085
8.306,-0.070,-0.090
8.308,-0.075,-0.095
8.310,-0.090,-0.100
8.312,-0.065,-0.105
8.314,-0.085,-0.105
8.316,-0.075,-0.105
8.318,-0.095,-0.105
8.320,-0.040,-0.100
8.322,-0.035,-0.100
8.324,-0.055,-0.095
8.326,-0.065,-0.090
8.328,-0.065,-0.085
8.330,-0.060,-0.085
8.332,-0.020,-0.085
8.334,-0.020,-0.080
8.336,-0.055,-0.080
8.338,-0.065,-0.080
8.340,-0.065,-0.080
8.342,-0.070,-0.085
8.344,-0.085,-0.085
8.346,-0.065,-0.085
8.348,-0.065,-0.090
8.350,-0.060,-0.090
8.352,-0.080,-0.095
8.354,-0.060,-0.095
8.356,-0.055,-0.095
8.358,-0.045,-0.095
8.360,-0.045,-0.095
8.362,-0.060,-0.090
8.364,-0.075,-0.085
8.366,-0.060,-0.085
8.368,-0.035,-0.080
8.370,-0.030,-0.075
8.372,-0.050,-0.075
8.374,-0.080,-0.075
8.376,-0.055,-0.075
8.378,-0.045,-0.075
8.380,-0.030,-0.080
8.382,-0.030,-0.080
8.384,-0.075,-0.085
8.386,-0.105,-0.090
8.388,-0.085,-0.090
8.390,-0.055,-0.090
8.392,-0.020,-0.090
8.394,-0.030,-0.085
8.396,-0.040,-0.080
8.398,-0.040,-0.075
8.400,-0.035,-0.070
8.402,-0.025,-0.065
8.404,-0.045,-0.065
8.406,-0.020,-0.065
8.408,-0.040,-0.070
8.410,-0.090,-0.080
8.412,-0.060,-0.085
8.414,-0.065,-0.090
8.416,-0.075,-0.095
8.418,-0.060,-0.095
8.420,-0.050,-0.090
8.422,-0.045,-0.085
8.424,-0.050,-0.080
8.426,-0.065,-0.080
8.428,-0.045,-0.080
8.430,-0.075,-0.080
8.432,-0.015,-0.085
8.434,-0.065,-0.090
8.436,-0.095,-0.095
8.438,-0.075,-0.100
8.440,-0.065,-0.100
8.442,-0.045,-0.095
8.444,-0.035,-0.095
8.446,-0.045,-0.090
8.448,-0.080,-0.085
8.450,-0.060,-0.085
8.452,-0.030,-0.085
8.454,-0.005,-0.090
8.456,-0.095,-0.095
8.458,-0.060,-0.095
8.460,-0.045,-0.100
8.462,-0.060,-0.095
8.464,-0.060,-0.090
8.466,-0.005,-0.085
8.468,-0.040,-0.080
8.470,-0.080,-0.080
8.472,-0.085,-0.080
8.474,-0.080,-0.080
8.476,-0.045,-0.090
8.478,-0.005,-0.095
8.480,-0.040,-0.105
8.482,-0.080,-0.110
8.484,-0.090,-0.115
8.486,-0.055,-0.110
8.488,-0.065,-0.105
8.490,-0.100,-0.100
8.492,-0.050,-0.090
8.494,-0.020,-0.085
8.496,-0.030,-0.080
8.498,-0.050,-0.080
8.500,-0.080,-0.080
8.502,-0.065,-0.090
8.504,-0.080,-0.095
8.506,-0.065,-0.105
8.508,-0.025,-0.105
8.510,-0.060,-0.110
8.512,-0.080,-0.105
8.514,-0.070,-0.100
8.516,-0.045,-0.095
8.518,-0.065,-0.090
8.520,-0.040,-0.080
8.522,-0.045,-0.075
8.524,-0.080,-0.075
8.526,-0.025,-0.075
8.528,-0.025,-0.075
8.530,-0.065,-0.080
8.532,-0.045,-0.085
8.534,-0.060,-0.085
8.536,-0.040,-0.090
8.538,-0.060,-0.090
8.540,-0.020,-0.090
8.542,-0.040,-0.085
8.544,-0.050,-0.085
8.546,-0.055,-0.080
8.548,-0.065,-0.080
8.550,-0.085,-0.085
8.552,-0.080,-0.090
8.554,-0.065,-0.095
8.556,-0.060,-0.100
8.558,-0.065,-0.105
8.560,-0.040,-0.110
8.562,-0.085,-0.110
8.564,-0.115,-0.110
8.566,-0.065,-0.110
8.568,-0.045,-0.105
8.570,-0.020,-0.100
8.572,-0.020,-0.095
8.574,-0.105,-0.095
8.576,-0.075,-0.090
8.578,-0.020,-0.090
8.580,-0.050,-0.095
8.582,-0.040,-0.095
8.584,-0.065,-0.095
8.586,-0.050,-0.095
8.588,-0.060,-0.095
8.590,-0.075,-0.095
8.592,-0.070,-0.095
8.594,-0.065,-0.095
8.596,-0.050,-0.095
8.598,-0.050,-0.095
8.600,-0.055,-0.095
8.602,-0.055,-0.100
8.604,-0.060,-0.100
8.606,-0.045,-0.095
8.608,-0.060,-0.095
8.610,-0.040,-0.090
8.612,-0.060,-0.090
8.614,-0.080,-0.085
8.616,-0.035,-0.085
8.618,-0.050,-0.085
8.620,-0.060,-0.090
8.622,-0.045,-0.090
8.624,-0.025,-0.090
8.626,-0.030,-0.090
8.628,-0.050,-0.090
8.630,-0.045,-0.085
8.632,-0.060,-0.085
8.634,-0.085,-0.080
8.636,-0.035,-0.075
8.638,-0.035,-0.075
8.640,-0.020,-0.080
8.642,-0.045,-0.085
8.644,-0.035,-0.090
8.646,-0.020,-0.090
8.648,-0.070,-0.090
8.650,-0.030,-0.090
8.652,-0.035,-0.080
8.654,-0.035,-0.070
8.656,0.030,-0.060
8.658,0.040,-0.050
8.660,0.020,-0.040
8.662,0.045,-0.035
8.664,-0.010,-0.035
8.666,-0.025,-0.035
8.668,-0.015,-0.040
8.670,0.010,-0.045
8.672,0.015,-0.050
8.674,0.030,-0.050
8.676,0.020,-0.050
8.678,0.010,-0.045
8.680,-0.005,-0.040
8.682,0.000,-0.040
8.684,0.000,-0.040
8.686,-0.010,-0.040
8.688,-0.020,-0.050
8.690,-0.025,-0.060
8.692,-0.005,-0.070
8.694,-0.045,-0.075
8.696,-0.020,-0.085
8.698,-0.005,-0.085
8.700,-0.030,-0.085
8.702,-0.030,-0.080
8.704,-0.015,-0.075
8.706,-0.005,-0.070
8.708,0.020,-0.065
8.710,0.000,-0.065
8.712,-0.010,-0.065
8.714,-0.045,-0.075
8.716,-0.080,-0.080
8.718,-0.080,-0.090
8.720,-0.075,-0.100
8.722,-0.100,-0.105
8.724,-0.085,-0.110
8.726,-0.075,-0.115
8.728,-0.055,-0.115
8.730,-0.040,-0.115
8.732,-0.040,-0.120
8.734,-0.070,-0.120
8.736,-0.085,-0.125
8.738,-0.085,-0.125
8.740,-0.115,-0.130
8.742,-0.080,-0.135
8.744,-0.040,-0.135
8.746,-0.070,-0.135
8.748,-0.060,-0.135
8.750,-0.065,-0.135
8.752,-0.065,-0.130
8.754,-0.080,-0.130
8.756,-0.080,-0.125
8.758,-0.055,-0.125
8.760,-0.020,-0.130
8.762,-0.080,-0.135
8.764,-0.150,-0.145
8.766,-0.130,-0.165
8.768,-0.085,-0.185
8.770,-0.165,-0.210
8.772,-0.210,-0.240
8.774,-0.185,-0.265
8.776,-0.225,-0.280
8.778,-0.270,-0.280
8.780,-0.260,-0.260
8.782,-0.180,-0.220
8.784,-0.070,-0.150
8.786,-0.005,-0.065
8.788,0.125,0.040
8.790,0.230,0.160
8.792,0.400,0.290
8.794,0.465,0.430
8.796,0.620,0.570
8.798,0.815,0.720
8.800,0.960,0.870
8.802,1.090,1.020
8.804,1.245,1.165
8.806,1.370,1.295
8.808,1.515,1.395
8.810,1.610,1.455
8.812,1.585,1.455
8.814,1.515,1.395
8.816,1.405,1.270
8.818,1.205,1.090
8.820,0.970,0.870
8.822,0.540,0.630
8.824,0.300,0.395
8.826,0.135,0.190
8.828,0.015,0.030
8.830,-0.030,-0.080
8.832,-0.045,-0.140
8.834,-0.050,-0.155
8.836,-0.080,-0.145
8.838,-0.025,-0.115
8.840,-0.025,-0.090
8.842,-0.060,-0.075
8.844,-0.050,-0.070
8.846,-0.050,-0.075
8.848,-0.065,-0.090
8.850,-0.050,-0.110
8.852,-0.035,-0.120
8.854,-0.030,-0.120
8.856,-0.020,-0.115
8.858,0.005,-0.105
8.860,-0.020,-0.090
8.862,-0.010,-0.080
8.864,-0.050,-0.075
8.866,-0.045,-0.075
8.868,-0.025,-0.075
8.870,-0.030,-0.085
8.872,-0.015,-0.090
8.874,-0.015,-0.090
8.876,0.010,-0.085
8.878,-0.005,-0.080
8.880,-0.030,-0.070
8.882,-0.010,-0.060
8.884,0.025,-0.050
8.886,0.005,-0.045
8.888,-0.005,-0.045
8.890,-0.015,-0.050
8.892,-0.010,-0.055
8.894,-0.010,-0.065
8.896,-0.010,-0.070
8.898,0.035,-0.075
8.900,-0.005,-0.075
8.902,-0.005,-0.075
8.904,0.000,-0.070
8.906,-0.005,-0.065
8.908,0.015,-0.060
8.910,0.005,-0.050
8.912,0.000,-0.045
8.914,-0.015,-0.040
8.916,0.050,-0.035
8.918,0.075,-0.035
8.920,0.075,-0.035
8.922,0.030,-0.035
8.924,-0.020,-0.030
8.926,-0.010,-0.030
8.928,0.065,-0.025
8.930,0.085,-0.025
8.932,0.050,-0.020
8.934,0.040,-0.015
8.936,0.055,-0.010
8.938,0.085,-0.005
8.940,0.110,-0.005
8.942,0.060,-0.005
8.944,0.055,-0.005
8.946,0.075,-0.005
8.948,0.080,-0.005
8.950,0.075,0.000
8.952,0.065,0.010
8.954,0.095,0.015
8.956,0.120,0.025
8.958,0.115,0.035
8.960,0.150,0.045
8.962,0.125,0.050
8.964,0.060,0.050
8.966,0.065,0.055
8.968,0.135,0.055
8.970,0.180,0.060
8.972,0.190,0.070
8.974,0.135,0.075
8.976,0.165,0.090
8.978,0.180,0.100
8.980,0.200,0.110
8.982,0.185,0.120
8.984,0.210,0.130
8.986,0.165,0.135
8.988,0.205,0.140
8.990,0.245,0.145
8.992,0.245,0.150
8.994,0.260,0.160
8.996,0.270,0.175
8.998,0.280,0.190
9.000,0.265,0.210
9.002,0.305,0.225
9.004,0.320,0.240
9.006,0.320,0.255
9.008,0.315,0.260
9.010,0.325,0.265
9.012,0.355,0.270
9.014,0.380,0.275
9.016,0.405,0.280
9.018,0.425,0.290
9.020,0.415,0.305
9.022,0.415,0.320
9.024,0.415,0.340
9.026,0.440,0.360
9.028,0.445,0.375
9.030,0.445,0.390
9.032,0.465,0.400
9.034,0.475,0.405
9.036,0.470,0.410
9.038,0.460,0.405
9.040,0.505,0.405
9.042,0.485,0.400
9.044,0.455,0.395
9.046,0.470,0.390
9.048,0.490,0.390
9.050,0.455,0.385
9.052,0.460,0.380
9.054,0.460,0.375
9.056,0.465,0.370
9.058,0.430,0.360
9.060,0.405,0.350
9.062,0.380,0.335
9.064,0.355,0.315
9.066,0.340,0.295
9.068,0.320,0.270
9.070,0.315,0.245
9.072,0.270,0.225
9.074,0.275,0.200
9.076,0.270,0.175
9.078,0.235,0.155
9.080,0.190,0.135
9.082,0.185,0.120
9.084,0.145,0.100
9.086,0.185,0.085
9.088,0.165,0.070
9.090,0.115,0.055
9.092,0.080,0.045
9.094,0.120,0.035
9.096,0.145,0.025
9.098,0.110,0.015
9.100,0.070,0.005
9.102,0.055,0.000
9.104,0.055,-0.010
9.106,0.035,-0.020
9.108,0.035,-0.030
9.110,0.020,-0.040
9.112,0.005,-0.055
9.114,-0.005,-0.060
9.116,0.020,-0.070
9.118,0.010,-0.075
9.120,0.020,-0.075
9.122,0.070,-0.080
9.124,0.030,-0.075
9.126,-0.030,-0.075
9.128,-0.005,-0.075
9.130,-0.010,-0.075
9.132,0.020,-0.075
9.134,0.025,-0.080
9.136,-0.015,-0.085
9.138,-0.020,-0.090
9.140,-0.025,-0.090
9.142,0.015,-0.095
9.144,0.025,-0.095
9.146,0.040,-0.090
9.148,0.015,-0.090
9.150,0.000,-0.085
9.152,0.020,-0.085
9.154,-0.015,-0.080
9.156,-0.015,-0.080
9.158,-0.010,-0.080
9.160,0.040,-0.075
9.162,0.050,-0.075
9.164,0.020,-0.075
9.166,-0.010,-0.070
9.168,-0.025,-0.070
9.170,-0.015,-0.070
9.172,-0.010,-0.075
9.174,-0.010,-0.075
9.176,0.025,-0.080
9.178,0.015,-0.085
9.180,0.035,-0.090
9.182,0.055,-0.090
9.184,0.010,-0.090
9.186,-0.035,-0.085
9.188,-0.025,-0.080
9.190,0.010,-0.075
9.192,0.000,-0.065
9.194,0.025,-0.065
9.196,0.040,-0.065
9.198,0.045,-0.065
9.200,0.005,-0.075
9.202,0.005,-0.085
9.204,-0.010,-0.095
9.206,-0.015,-0.105
9.208,-0.015,-0.110
9.210,0.005,-0.110
9.212,0.015,-0.105
9.214,0.055,-0.100
9.216,0.050,-0.090
9.218,0.010,-0.080
9.220,-0.035,-0.070
9.222,0.000,-0.065
9.224,-0.005,-0.065
9.226,-0.005,-0.070
9.228,-0.020,-0.075
9.230,0.015,-0.085
9.232,0.010,-0.095
9.234,0.010,-0.100
9.236,0.035,-0.100
9.238,0.030,-0.100
9.240,0.015,-0.090
9.242,0.030,-0.085
9.244,0.045,-0.075
9.246,0.000,-0.065
9.248,0.030,-0.060
9.250,0.000,-0.065
9.252,-0.005,-0.070
9.254,0.010,-0.075
9.256,0.020,-0.090
9.258,0.000,-0.095
9.260,0.005,-0.105
9.262,0.010,-0.110
9.264,-0.005,-0.105
9.266,0.010,-0.105
9.268,-0.010,-0.095
9.270,0.005,-0.090
9.272,0.005,-0.080
9.274,0.015,-0.080
9.276,0.000,-0.075
9.278,0.015,-0.075
9.280,0.015,-0.080
9.282,0.015,-0.085
9.284,0.005,-0.090
9.286,0.005,-0.090
9.288,0.010,-0.095
9.290,0.005,-0.095
9.292,0.015,-0.095
9.294,0.035,-0.090
9.296,0.015,-0.090
9.298,0.000,-0.090
9.300,0.020,-0.090
9.302,0.020,-0.090
9.304,-0.005,-0.090
9.306,-0.055,-0.090
9.308,-0.010,-0.090
9.310,0.070,-0.090
9.312,0.035,-0.095
9.314,0.015,-0.095
9.316,0.010,-0.095
9.318,-0.035,-0.095
9.320,0.010,-0.095
9.322,0.025,-0.095
9.324,-0.015,-0.095
9.326,0.010,-0.095
9.328,0.065,-0.090
9.330,0.015,-0.090
9.332,-0.020,-0.085
9.334,0.045,-0.080
9.336,0.015,-0.080
9.338,0.010,-0.075
9.340,0.010,-0.075
9.342,0.015,-0.075
9.344,0.020,-0.080
9.346,-0.030,-0.080
9.348,-0.035,-0.085
9.350,0.035,-0.090
9.352,0.080,-0.090
9.354,0.040,-0.095
9.356,-0.005,-0.095
9.358,0.025,-0.090
9.360,0.010,-0.090
9.362,-0.005,-0.085
9.364,0.015,-0.085
9.366,0.010,-0.080
9.368,0.005,-0.085
9.370,0.025,-0.085
9.372,0.035,-0.085
9.374,0.020,-0.090
9.376,-0.010,-0.095
9.378,0.005,-0.095
9.380,-0.005,-0.095
9.382,-0.020,-0.095
9.384,0.005,-0.095
9.386,0.015,-0.090
9.388,-0.005,-0.090
9.390,-0.010,-0.090
9.392,0.055,-0.090
9.394,0.075,-0.095
9.396,0.000,-0.100
9.398,0.005,-0.110
9.400,0.010,-0.115
9.402,-0.040,-0.115
9.404,-0.010,-0.115
9.406,0.020,-0.115
9.408,0.025,-0.110
9.410,-0.015,-0.100
9.412,0.040,-0.095
9.414,0.060,-0.090
9.416,0.020,-0.085
9.418,0.000,-0.085
9.420,-0.020,-0.090
9.422,-0.045,-0.100
9.424,-0.035,-0.105
9.426,0.030,-0.115
9.428,0.020,-0.120
9.430,0.005,-0.125
9.432,0.005,-0.120
9.434,0.030,-0.120
9.436,0.025,-0.110
9.438,0.015,-0.105
9.440,0.025,-0.095
9.442,0.010,-0.090
9.444,0.015,-0.090
9.446,0.035,-0.090
9.448,0.010,-0.095
9.450,-0.010,-0.095
9.452,0.025,-0.100
9.454,0.000,-0.100
9.456,0.020,-0.100
9.458,0.020,-0.100
9.460,0.005,-0.095
9.462,0.015,-0.090
9.464,0.000,-0.090
9.466,0.050,-0.085
9.468,0.015,-0.085
9.470,-0.005,-0.090
9.472,0.040,-0.090
9.474,0.025,-0.095
9.476,0.030,-0.095
9.478,0.040,-0.095
9.480,0.045,-0.095
9.482,0.020,-0.095
9.484,0.040,-0.095
9.486,0.040,-0.090
9.488,0.050,-0.090
9.490,0.060,-0.090
9.492,0.000,-0.090
9.494,-0.015,-0.090
9.496,0.015,-0.095
9.498,0.030,-0.095
9.500,0.025,-0.090
9.502,0.005,-0.090
9.504,0.055,-0.085
9.506,0.045,-0.085
9.508,0.025,-0.085
9.510,0.025,-0.085
9.512,0.035,-0.085
9.514,0.000,-0.090
9.516,0.050,-0.095
9.518,0.040,-0.100
9.520,0.010,-0.105
9.522,-0.010,-0.105
9.524,-0.015,-0.110
9.526,-0.010,-0.110
9.528,0.000,-0.110
9.530,0.035,-0.105
9.532,0.035,-0.105
9.534,0.045,-0.100
9.536,0.035,-0.095
9.538,0.040,-0.095
9.540,0.020,-0.090
9.542,0.010,-0.090
9.544,0.020,-0.085
9.546,0.030,-0.090
9.548,0.025,-0.090
9.550,0.045,-0.095
9.552,0.005,-0.100
9.554,0.030,-0.105
9.556,0.050,-0.110
9.558,0.020,-0.110
9.560,0.025,-0.110
9.562,0.020,-0.110
9.564,0.030,-0.100
9.566,0.050,-0.095
9.568,0.035,-0.085
9.570,0.045,-0.080
9.572,0.025,-0.080
9.574,0.035,-0.080
9.576,0.035,-0.085
9.578,0.015,-0.095
9.580,0.025,-0.105
9.582,-0.030,-0.115
9.584,0.020,-0.125
9.586,0.040,-0.125
9.588,0.005,-0.120
9.590,0.045,-0.110
9.592,0.015,-0.095
9.594,-0.015,-0.080
9.596,0.030,-0.065
9.598,0.125,-0.055
9.600,0.065,-0.050
9.602,0.060,-0.050
9.604,0.070,-0.055
9.606,0.030,-0.060
9.608,0.020,-0.065
9.610,0.030,-0.070
9.612,0.110,-0.070
9.614,0.100,-0.065
9.616,0.060,-0.060
9.618,0.060,-0.050
9.620,0.040,-0.045
9.622,0.080,-0.040
9.624,0.155,-0.040
9.626,0.085,-0.040
9.628,0.055,-0.045
9.630,0.065,-0.045
9.632,0.095,-0.040
9.634,0.125,-0.040
9.636,0.110,-0.035
9.638,0.095,-0.025
9.640,0.105,-0.020
9.642,0.080,-0.015
9.644,0.100,-0.015
9.646,0.105,-0.015
9.648,0.100,-0.020
9.650,0.100,-0.025
9.652,0.060,-0.030
9.654,0.055,-0.035
9.656,0.100,-0.040
9.658,0.085,-0.035
9.660,0.085,-0.035
9.662,0.075,-0.030
9.664,0.125,-0.030
9.666,0.125,-0.030
9.668,0.065,-0.030
9.670,0.050,-0.035
9.672,0.100,-0.040
9.674,0.065,-0.045
9.676,0.060,-0.050
9.678,0.115,-0.055
9.680,0.070,-0.060
9.682,0.030,-0.065
9.684,0.050,-0.070
9.686,0.090,-0.075
9.688,0.075,-0.080
9.690,0.030,-0.085
9.692,0.035,-0.095
9.694,0.040,-0.100
9.696,0.020,-0.105
9.698,0.025,-0.110
9.700,0.005,-0.105
9.702,-0.015,-0.105
9.704,0.060,-0.100
9.706,0.040,-0.100
9.708,0.005,-0.095
9.710,0.040,-0.095
9.712,0.040,-0.095
9.714,0.025,-0.100
9.716,0.005,-0.105
9.718,-0.005,-0.110
9.720,-0.020,-0.115
9.722,0.015,-0.115
9.724,0.035,-0.120
9.726,0.030,-0.120
9.728,0.020,-0.120
9.730,0.030,-0.120
9.732,0.035,-0.120
9.734,0.045,-0.120
9.736,0.025,-0.120
9.738,0.015,-0.130
9.740,-0.035,-0.140
9.742,-0.035,-0.155
9.744,-0.055,-0.175
9.746,-0.095,-0.200
9.748,-0.080,-0.225
9.750,-0.090,-0.245
9.752,-0.135,-0.260
9.754,-0.145,-0.260
9.756,-0.135,-0.245
9.758,-0.135,-0.210
9.760,-0.055,-0.155
9.762,0.070,-0.080
9.764,0.195,0.010
9.766,0.290,0.115
9.768,0.360,0.235
9.770,0.500,0.365
9.772,0.680,0.510
9.774,0.810,0.660
9.776,0.990,0.820
9.778,1.130,0.985
9.780,1.285,1.150
9.782,1.460,1.300
9.784,1.655,1.425
9.786,1.685,1.510
9.788,1.760,1.535
9.790,1.760,1.500
9.792,1.660,1.400
9.794,1.410,1.240
9.796,1.205,1.030
9.798,0.885,0.795
9.800,0.525,0.555
9.802,0.315,0.330
9.804,0.210,0.140
9.806,0.130,0.000
9.808,0.025,-0.090
9.810,0.045,-0.130
9.812,0.075,-0.140
9.814,0.020,-0.125
9.816,0.030,-0.100
9.818,0.040,-0.085
9.820,0.020,-0.070
9.822,0.050,-0.070
9.824,0.090,-0.080
9.826,0.040,-0.090
9.828,0.060,-0.095
9.830,0.095,-0.100
9.832,0.115,-0.095
9.834,0.105,-0.085
9.836,0.050,-0.075
9.838,0.045,-0.070
9.840,0.055,-0.065
9.842,0.095,-0.070
9.844,0.045,-0.080
9.846,0.015,-0.095
9.848,0.035,-0.105
9.850,0.055,-0.115
9.852,0.055,-0.115
9.854,0.055,-0.110
9.856,0.030,-0.100
9.858,0.070,-0.090
9.860,0.065,-0.080
9.862,0.055,-0.070
9.864,0.070,-0.065
9.866,0.045,-0.065
9.868,0.090,-0.065
9.870,0.105,-0.065
9.872,0.075,-0.065
9.874,0.080,-0.065
9.876,0.065,-0.060
9.878,0.100,-0.055
9.880,0.070,-0.050
9.882,0.115,-0.050
9.884,0.140,-0.050
9.886,0.055,-0.060
9.888,0.070,-0.065
9.890,0.100,-0.070
9.892,0.130,-0.075
9.894,0.130,-0.070
9.896,0.110,-0.065
9.898,0.060,-0.050
9.900,0.085,-0.035
9.902,0.070,-0.020
9.904,0.070,-0.005
9.906,0.170,0.005
9.908,0.195,0.010
9.910,0.145,0.005
9.912,0.155,0.005
9.914,0.125,-0.005
9.916,0.145,-0.010
9.918,0.140,-0.010
9.920,0.160,-0.010
9.922,0.155,-0.005
9.924,0.155,0.000
9.926,0.125,0.010
9.928,0.170,0.020
9.930,0.195,0.030
9.932,0.185,0.035
9.934,0.180,0.040
9.936,0.190,0.045
9.938,0.185,0.050
9.940,0.205,0.055
9.942,0.200,0.055
9.944,0.185,0.060
9.946,0.180,0.065
9.948,0.235,0.070
9.950,0.245,0.075
9.952,0.230,0.080
9.954,0.265,0.090
9.956,0.280,0.095
9.958,0.285,0.105
9.960,0.265,0.115
9.962,0.285,0.130
9.964,0.290,0.140
9.966,0.310,0.155
9.968,0.295,0.170
9.970,0.345,0.180
9.972,0.335,0.190
9.974,0.335,0.200
9.976,0.370,0.210
9.978,0.365,0.220
9.980,0.345,0.225
9.982,0.405,0.235
9.984,0.420,0.245
9.986,0.420,0.250
9.988,0.360,0.260
9.990,0.380,0.270
9.992,0.465,0.280
9.994,0.525,0.295
9.996,0.540,0.305
9.998,0.440,0.315
