'Elapsed time','ECG I','ECG I filtered'
'seconds','mV','mV'
0.000,-0.080,-0.040
0.002,-0.080,-0.025
0.004,-0.035,-0.010
0.006,0.015,0.005
0.008,0.005,0.015
0.010,-0.020,0.025
0.012,-0.040,0.030
0.014,-0.055,0.030
0.016,-0.015,0.025
0.018,-0.030,0.015
0.020,-0.035,0.000
0.022,-0.100,-0.015
0.024,-0.070,-0.030
0.026,-0.045,-0.035
0.028,-0.070,-0.040
0.030,-0.045,-0.035
0.032,-0.070,-0.030
0.034,-0.090,-0.020
0.036,-0.030,-0.010
0.038,-0.040,-0.005
0.040,-0.075,0.000
0.042,-0.095,-0.005
0.044,-0.125,-0.010
0.046,-0.025,-0.020
0.048,-0.030,-0.025
0.050,-0.070,-0.030
0.052,-0.060,-0.025
0.054,-0.070,-0.020
0.056,-0.045,-0.010
0.058,-0.060,0.000
0.060,-0.095,0.005
0.062,-0.015,0.005
0.064,-0.005,0.000
0.066,-0.060,-0.005
0.068,-0.120,-0.020
0.070,-0.115,-0.030
0.072,-0.075,-0.035
0.074,-0.075,-0.040
0.076,-0.050,-0.040
0.078,-0.065,-0.030
0.080,-0.090,-0.020
0.082,-0.040,-0.010
0.084,-0.055,0.000
0.086,-0.060,0.005
0.088,-0.060,0.005
0.090,-0.100,0.000
0.092,-0.100,-0.010
0.094,-0.090,-0.020
0.096,-0.025,-0.025
0.098,-0.055,-0.035
0.100,-0.065,-0.040
0.102,-0.075,-0.045
0.104,-0.065,-0.050
0.106,-0.060,-0.050
0.108,-0.125,-0.050
0.110,-0.100,-0.050
0.112,-0.115,-0.050
0.114,-0.100,-0.055
0.116,-0.080,-0.055
0.118,-0.085,-0.055
0.120,-0.120,-0.060
0.122,-0.090,-0.060
0.124,-0.095,-0.060
0.126,-0.100,-0.055
0.128,-0.115,-0.055
0.130,-0.070,-0.050
0.132,-0.115,-0.045
0.134,-0.085,-0.045
0.136,-0.080,-0.040
0.138,-0.060,-0.040
0.140,-0.100,-0.045
0.142,-0.110,-0.050
0.144,-0.085,-0.055
0.146,-0.100,-0.060
0.148,-0.155,-0.070
0.150,-0.115,-0.070
0.152,-0.120,-0.075
0.154,-0.140,-0.070
0.156,-0.115,-0.070
0.158,-0.110,-0.060
0.160,-0.115,-0.055
0.162,-0.045,-0.050
0.164,-0.100,-0.045
0.166,-0.075,-0.045
0.168,-0.105,-0.045
0.170,-0.100,-0.050
0.172,-0.095,-0.050
0.174,-0.105,-0.055
0.176,-0.130,-0.055
0.178,-0.100,-0.055
0.180,-0.125,-0.055
0.182,-0.080,-0.050
0.184,-0.080,-0.050
0.186,-0.095,-0.050
0.188,-0.105,-0.055
0.190,-0.130,-0.060
0.192,-0.130,-0.065
0.194,-0.135,-0.075
0.196,-0.150,-0.080
0.198,-0.125,-0.085
0.200,-0.095,-0.085
0.202,-0.060,-0.085
0.204,-0.110,-0.080
0.206,-0.100,-0.075
0.208,-0.140,-0.075
0.210,-0.120,-0.070
0.212,-0.085,-0.070
0.214,-0.155,-0.070
0.216,-0.135,-0.070
0.218,-0.100,-0.070
0.220,-0.100,-0.070
0.222,-0.110,-0.070
0.224,-0.075,-0.070
0.226,-0.095,-0.065
0.228,-0.115,-0.065
0.230,-0.100,-0.065
0.232,-0.110,-0.065
0.234,-0.145,-0.065
0.236,-0.155,-0.065
0.238,-0.120,-0.065
0.240,-0.125,-0.070
0.242,-0.080,-0.070
0.244,-0.085,-0.070
0.246,-0.080,-0.070
0.248,-0.110,-0.070
0.250,-0.125,-0.065
0.252,-0.100,-0.060
0.254,-0.075,-0.060
0.256,-0.105,-0.055
0.258,-0.115,-0.050
0.260,-0.135,-0.050
0.262,-0.105,-0.050
0.264,-0.095,-0.050
0.266,-0.115,-0.055
0.268,-0.080,-0.060
0.270,-0.090,-0.065
0.272,-0.135,-0.070
0.274,-0.110,-0.070
0.276,-0.090,-0.070
0.278,-0.115,-0.065
0.280,-0.130,-0.060
0.282,-0.105,-0.055
0.284,-0.080,-0.050
0.286,-0.090,-0.045
0.288,-0.090,-0.045
0.290,-0.075,-0.045
0.292,-0.110,-0.045
0.294,-0.115,-0.050
0.296,-0.075,-0.055
0.298,-0.120,-0.055
0.300,-0.100,-0.055
0.302,-0.070,-0.055
0.304,-0.090,-0.055
0.306,-0.100,-0.050
0.308,-0.120,-0.050
0.310,-0.135,-0.055
0.312,-0.120,-0.055
0.314,-0.100,-0.060
0.316,-0.115,-0.065
0.318,-0.055,-0.070
0.320,-0.105,-0.075
0.322,-0.095,-0.075
0.324,-0.115,-0.070
0.326,-0.125,-0.070
0.328,-0.110,-0.065
0.330,-0.120,-0.060
0.332,-0.115,-0.055
0.334,-0.065,-0.050
0.336,-0.050,-0.050
0.338,-0.120,-0.045
0.340,-0.130,-0.045
0.342,-0.075,-0.045
0.344,-0.075,-0.040
0.346,-0.055,-0.040
0.348,-0.065,-0.035
0.350,-0.075,-0.030
0.352,-0.080,-0.025
0.354,-0.080,-0.025
0.356,-0.100,-0.020
0.358,-0.055,-0.020
0.360,-0.100,-0.020
0.362,-0.105,-0.020
0.364,-0.045,-0.025
0.366,-0.015,-0.025
0.368,-0.010,-0.030
0.370,-0.100,-0.035
0.372,-0.125,-0.040
0.374,-0.120,-0.045
0.376,-0.105,-0.055
0.378,-0.135,-0.060
0.380,-0.095,-0.065
0.382,-0.075,-0.070
0.384,-0.095,-0.070
0.386,-0.075,-0.065
0.388,-0.060,-0.060
0.390,-0.120,-0.050
0.392,-0.085,-0.045
0.394,-0.080,-0.035
0.396,-0.120,-0.030
0.398,-0.090,-0.030
0.400,-0.080,-0.030
0.402,-0.070,-0.035
0.404,-0.105,-0.045
0.406,-0.060,-0.050
0.408,-0.110,-0.060
0.410,-0.135,-0.065
0.412,-0.130,-0.075
0.414,-0.080,-0.080
0.416,-0.140,-0.085
0.418,-0.195,-0.090
0.420,-0.130,-0.095
0.422,-0.135,-0.095
0.424,-0.120,-0.095
0.426,-0.145,-0.095
0.428,-0.155,-0.095
0.430,-0.175,-0.095
0.432,-0.145,-0.090
0.434,-0.125,-0.085
0.436,-0.120,-0.085
0.438,-0.120,-0.085
0.440,-0.150,-0.090
0.442,-0.150,-0.095
0.444,-0.120,-0.100
0.446,-0.145,-0.105
0.448,-0.160,-0.110
0.450,-0.200,-0.115
0.452,-0.180,-0.115
0.454,-0.145,-0.115
0.456,-0.170,-0.120
0.458,-0.185,-0.125
0.460,-0.135,-0.140
0.462,-0.200,-0.160
0.464,-0.245,-0.185
0.466,-0.255,-0.210
0.468,-0.290,-0.235
0.470,-0.350,-0.250
0.472,-0.350,-0.250
0.474,-0.300,-0.225
0.476,-0.235,-0.180
0.478,-0.150,-0.115
0.480,-0.025,-0.025
0.482,0.110,0.080
0.484,0.170,0.200
0.486,0.255,0.330
0.488,0.405,0.470
0.490,0.590,0.615
0.492,0.755,0.770
0.494,0.845,0.930
0.496,1.035,1.090
0.498,1.280,1.240
0.500,1.445,1.365
0.502,1.470,1.450
0.504,1.500,1.485
0.506,1.475,1.455
0.508,1.405,1.360
0.510,1.205,1.205
0.512,1.010,0.995
0.514,0.665,0.755
0.516,0.320,0.510
0.518,0.065,0.280
0.520,-0.055,0.085
0.522,-0.110,-0.055
0.524,-0.190,-0.145
0.526,-0.185,-0.185
0.528,-0.175,-0.190
0.530,-0.195,-0.170
0.532,-0.200,-0.140
0.534,-0.175,-0.115
0.536,-0.170,-0.100
0.538,-0.185,-0.095
0.540,-0.165,-0.095
0.542,-0.125,-0.105
0.544,-0.120,-0.110
0.546,-0.150,-0.110
0.548,-0.130,-0.105
0.550,-0.115,-0.095
0.552,-0.145,-0.085
0.554,-0.140,-0.080
0.556,-0.140,-0.075
0.558,-0.120,-0.075
0.560,-0.110,-0.080
0.562,-0.120,-0.085
0.564,-0.110,-0.090
0.566,-0.110,-0.090
0.568,-0.080,-0.085
0.570,-0.150,-0.075
0.572,-0.145,-0.065
0.574,-0.065,-0.050
0.576,-0.050,-0.040
0.578,-0.100,-0.035
0.580,-0.055,-0.035
0.582,-0.050,-0.040
0.584,-0.115,-0.050
0.586,-0.105,-0.060
0.588,-0.095,-0.065
0.590,-0.145,-0.065
0.592,-0.095,-0.065
0.594,-0.070,-0.055
0.596,-0.110,-0.045
0.598,-0.065,-0.035
0.600,-0.055,-0.025
0.602,-0.035,-0.015
0.604,-0.060,-0.015
0.606,-0.090,-0.015
0.608,-0.060,-0.020
0.610,-0.090,-0.030
0.612,-0.090,-0.040
0.614,-0.100,-0.045
0.616,-0.085,-0.045
0.618,-0.110,-0.045
0.620,-0.080,-0.040
0.622,-0.080,-0.030
0.624,-0.070,-0.020
0.626,0.000,-0.010
0.628,-0.025,0.000
0.630,-0.035,0.010
0.632,-0.035,0.020
0.634,-0.045,0.025
0.636,-0.035,0.030
0.638,-0.015,0.030
0.640,0.040,0.035
0.642,0.040,0.040
0.644,-0.020,0.045
0.646,0.010,0.050
0.648,0.015,0.060
0.650,-0.025,0.065
0.652,0.025,0.075
0.654,0.020,0.080
0.656,0.040,0.090
0.658,0.055,0.095
0.660,0.095,0.100
0.662,0.100,0.110
0.664,0.080,0.115
0.666,0.080,0.125
0.668,0.055,0.130
0.670,0.080,0.140
0.672,0.105,0.150
0.674,0.090,0.155
0.676,0.110,0.165
0.678,0.170,0.175
0.680,0.160,0.185
0.682,0.145,0.190
0.684,0.165,0.195
0.686,0.155,0.200
0.688,0.185,0.205
0.690,0.140,0.210
0.692,0.105,0.210
0.694,0.160,0.215
0.696,0.165,0.220
0.698,0.220,0.230
0.700,0.240,0.240
0.702,0.185,0.250
0.704,0.235,0.260
0.706,0.235,0.270
0.708,0.210,0.275
0.710,0.260,0.280
0.712,0.270,0.280
0.714,0.200,0.280
0.716,0.165,0.270
0.718,0.215,0.265
0.720,0.220,0.255
0.722,0.190,0.245
0.724,0.175,0.235
0.726,0.155,0.225
0.728,0.115,0.220
0.730,0.110,0.210
0.732,0.180,0.205
0.734,0.180,0.195
0.736,0.125,0.185
0.738,0.115,0.175
0.740,0.140,0.160
0.742,0.080,0.145
0.744,0.070,0.130
0.746,0.065,0.115
0.748,0.030,0.095
0.750,0.005,0.075
0.752,-0.010,0.060
0.754,-0.045,0.040
0.756,-0.025,0.025
0.758,-0.055,0.015
0.760,-0.005,0.005
0.762,0.010,0.000
0.764,-0.025,0.000
0.766,-0.040,0.000
0.768,-0.030,0.005
0.770,-0.030,0.000
0.772,-0.075,-0.005
0.774,-0.070,-0.015
0.776,-0.110,-0.025
0.778,-0.070,-0.045
0.780,-0.130,-0.060
0.782,-0.115,-0.075
0.784,-0.090,-0.085
0.786,-0.085,-0.085
0.788,-0.125,-0.085
0.790,-0.120,-0.080
0.792,-0.120,-0.070
0.794,-0.145,-0.065
0.796,-0.150,-0.060
0.798,-0.080,-0.060
0.800,-0.090,-0.060
0.802,-0.130,-0.070
0.804,-0.115,-0.075
0.806,-0.090,-0.080
0.808,-0.130,-0.085
0.810,-0.135,-0.085
0.812,-0.100,-0.080
0.814,-0.145,-0.075
0.816,-0.150,-0.070
0.818,-0.095,-0.065
0.820,-0.070,-0.065
0.822,-0.105,-0.065
0.824,-0.135,-0.070
0.826,-0.140,-0.070
0.828,-0.090,-0.075
0.830,-0.125,-0.080
0.832,-0.125,-0.080
0.834,-0.145,-0.080
0.836,-0.150,-0.075
0.838,-0.100,-0.075
0.840,-0.105,-0.070
0.842,-0.130,-0.070
0.844,-0.130,-0.065
0.846,-0.050,-0.065
0.848,-0.130,-0.065
0.850,-0.165,-0.070
0.852,-0.100,-0.070
0.854,-0.120,-0.070
0.856,-0.190,-0.070
0.858,-0.125,-0.070
0.860,-0.090,-0.070
0.862,-0.075,-0.065
0.864,-0.090,-0.065
0.866,-0.145,-0.065
0.868,-0.120,-0.060
0.870,-0.105,-0.060
0.872,-0.130,-0.060
0.874,-0.150,-0.065
0.876,-0.110,-0.070
0.878,-0.095,-0.075
0.880,-0.090,-0.080
0.882,-0.160,-0.085
0.884,-0.145,-0.085
0.886,-0.110,-0.085
0.888,-0.125,-0.080
0.890,-0.130,-0.070
0.892,-0.090,-0.060
0.894,-0.120,-0.050
0.896,-0.125,-0.045
0.898,-0.075,-0.040
0.900,-0.100,-0.040
0.902,-0.120,-0.045
0.904,-0.085,-0.055
0.906,-0.080,-0.065
0.908,-0.160,-0.080
0.910,-0.135,-0.090
0.912,-0.195,-0.095
0.914,-0.145,-0.100
0.916,-0.135,-0.100
0.918,-0.115,-0.100
0.920,-0.080,-0.100
0.922,-0.140,-0.095
0.924,-0.125,-0.090
0.926,-0.130,-0.085
0.928,-0.135,-0.080
0.930,-0.115,-0.075
0.932,-0.110,-0.065
0.934,-0.110,-0.060
0.936,-0.150,-0.055
0.938,-0.080,-0.055
0.940,-0.090,-0.060
0.942,-0.135,-0.065
0.944,-0.105,-0.075
0.946,-0.180,-0.085
0.948,-0.185,-0.095
0.950,-0.130,-0.100
0.952,-0.160,-0.095
0.954,-0.135,-0.090
0.956,-0.090,-0.080
0.958,-0.060,-0.065
0.960,-0.080,-0.050
0.962,-0.110,-0.040
0.964,-0.105,-0.035
0.966,-0.095,-0.035
0.968,-0.115,-0.045
0.970,-0.120,-0.055
0.972,-0.120,-0.070
0.974,-0.165,-0.080
0.976,-0.170,-0.090
0.978,-0.150,-0.095
0.980,-0.120,-0.090
0.982,-0.110,-0.085
0.984,-0.115,-0.080
0.986,-0.125,-0.070
0.988,-0.095,-0.065
0.990,-0.135,-0.060
0.992,-0.105,-0.060
0.994,-0.100,-0.065
0.996,-0.120,-0.070
0.998,-0.135,-0.075
1.000,-0.175,-0.080
1.002,-0.125,-0.090
1.004,-0.110,-0.095
1.006,-0.160,-0.105
1.008,-0.185,-0.105
1.010,-0.170,-0.110
1.012,-0.150,-0.110
1.014,-0.125,-0.105
1.016,-0.100,-0.100
1.018,-0.095,-0.095
1.020,-0.100,-0.085
1.022,-0.125,-0.075
1.024,-0.140,-0.065
1.026,-0.155,-0.060
1.028,-0.140,-0.060
1.030,-0.125,-0.065
1.032,-0.135,-0.070
1.034,-0.135,-0.080
1.036,-0.105,-0.090
1.038,-0.125,-0.100
1.040,-0.180,-0.105
1.042,-0.170,-0.105
1.044,-0.150,-0.100
1.046,-0.120,-0.095
1.048,-0.095,-0.090
1.050,-0.090,-0.080
1.052,-0.095,-0.075
1.054,-0.160,-0.075
1.056,-0.175,-0.075
1.058,-0.145,-0.080
1.060,-0.145,-0.085
1.062,-0.150,-0.090
1.064,-0.105,-0.095
1.066,-0.150,-0.095
1.068,-0.160,-0.095
1.070,-0.150,-0.095
1.072,-0.130,-0.090
1.074,-0.130,-0.085
1.076,-0.110,-0.085
1.078,-0.115,-0.080
1.080,-0.130,-0.080
1.082,-0.150,-0.080
1.084,-0.150,-0.080
1.086,-0.120,-0.080
1.088,-0.095,-0.080
1.090,-0.130,-0.080
1.092,-0.135,-0.080
1.094,-0.200,-0.080
1.096,-0.110,-0.080
1.098,-0.095,-0.085
1.100,-0.150,-0.090
1.102,-0.145,-0.095
1.104,-0.105,-0.095
1.106,-0.135,-0.100
1.108,-0.135,-0.100
1.110,-0.175,-0.095
1.112,-0.175,-0.090
1.114,-0.150,-0.085
1.116,-0.060,-0.080
1.118,-0.080,-0.075
1.120,-0.160,-0.075
1.122,-0.155,-0.075
1.124,-0.110,-0.080
1.126,-0.125,-0.085
1.128,-0.155,-0.090
1.130,-0.145,-0.090
1.132,-0.130,-0.090
1.134,-0.150,-0.090
1.136,-0.120,-0.090
1.138,-0.130,-0.090
1.140,-0.130,-0.085
1.142,-0.140,-0.085
1.144,-0.175,-0.090
1.146,-0.155,-0.090
1.148,-0.130,-0.095
1.150,-0.145,-0.100
1.152,-0.130,-0.100
1.154,-0.120,-0.100
1.156,-0.105,-0.100
1.158,-0.150,-0.095
1.160,-0.130,-0.090
1.162,-0.140,-0.090
1.164,-0.130,-0.085
1.166,-0.135,-0.080
1.168,-0.125,-0.080
1.170,-0.120,-0.075
1.172,-0.155,-0.075
1.174,-0.205,-0.070
1.176,-0.105,-0.070
1.178,-0.100,-0.070
1.180,-0.110,-0.070
1.182,-0.145,-0.075
1.184,-0.120,-0.075
1.186,-0.105,-0.080
1.188,-0.120,-0.080
1.190,-0.150,-0.085
1.192,-0.170,-0.085
1.194,-0.165,-0.080
1.196,-0.105,-0.080
1.198,-0.120,-0.075
1.200,-0.120,-0.070
1.202,-0.115,-0.070
1.204,-0.100,-0.075
1.206,-0.110,-0.075
1.208,-0.105,-0.080
1.210,-0.105,-0.085
1.212,-0.175,-0.085
1.214,-0.165,-0.085
1.216,-0.100,-0.085
1.218,-0.100,-0.080
1.220,-0.070,-0.080
1.222,-0.140,-0.075
1.224,-0.115,-0.075
1.226,-0.145,-0.075
1.228,-0.140,-0.075
1.230,-0.095,-0.075
1.232,-0.120,-0.075
1.234,-0.155,-0.075
1.236,-0.125,-0.070
1.238,-0.125,-0.070
1.240,-0.140,-0.065
1.242,-0.105,-0.055
1.244,-0.105,-0.055
1.246,-0.100,-0.050
1.248,-0.070,-0.050
1.250,-0.130,-0.055
1.252,-0.120,-0.055
1.254,-0.080,-0.060
1.256,-0.075,-0.065
1.258,-0.070,-0.065
1.260,-0.070,-0.060
1.262,-0.070,-0.055
1.264,-0.080,-0.045
1.266,-0.105,-0.035
1.268,-0.105,-0.025
1.270,-0.080,-0.025
1.272,-0.085,-0.020
1.274,-0.080,-0.025
1.276,-0.060,-0.030
1.278,-0.095,-0.040
1.280,-0.080,-0.050
1.282,-0.110,-0.060
1.284,-0.085,-0.060
1.286,-0.120,-0.060
1.288,-0.135,-0.060
1.290,-0.075,-0.055
1.292,-0.100,-0.045
1.294,-0.085,-0.040
1.296,-0.090,-0.030
1.298,-0.075,-0.030
1.300,-0.090,-0.025
1.302,-0.040,-0.030
1.304,-0.070,-0.030
1.306,-0.105,-0.035
1.308,-0.125,-0.040
1.310,-0.090,-0.045
1.312,-0.125,-0.050
1.314,-0.130,-0.055
1.316,-0.130,-0.065
1.318,-0.115,-0.075
1.320,-0.135,-0.085
1.322,-0.110,-0.095
1.324,-0.130,-0.105
1.326,-0.165,-0.110
1.328,-0.185,-0.115
1.330,-0.170,-0.110
1.332,-0.155,-0.105
1.334,-0.115,-0.100
1.336,-0.130,-0.095
1.338,-0.145,-0.090
1.340,-0.135,-0.090
1.342,-0.120,-0.095
1.344,-0.155,-0.100
1.346,-0.165,-0.105
1.348,-0.200,-0.110
1.350,-0.195,-0.110
1.352,-0.150,-0.105
1.354,-0.090,-0.100
1.356,-0.120,-0.095
1.358,-0.125,-0.090
1.360,-0.115,-0.095
1.362,-0.145,-0.110
1.364,-0.225,-0.135
1.366,-0.275,-0.165
1.368,-0.285,-0.195
1.370,-0.335,-0.225
1.372,-0.315,-0.235
1.374,-0.310,-0.230
1.376,-0.305,-0.200
1.378,-0.135,-0.145
1.380,-0.105,-0.065
1.382,0.035,0.030
1.384,0.145,0.135
1.386,0.220,0.250
1.388,0.270,0.375
1.390,0.430,0.505
1.392,0.600,0.645
1.394,0.780,0.795
1.396,0.925,0.955
1.398,1.100,1.120
1.400,1.305,1.270
1.402,1.465,1.405
1.404,1.485,1.495
1.406,1.540,1.530
1.408,1.515,1.500
1.410,1.400,1.405
1.412,1.265,1.240
1.414,1.050,1.025
1.416,0.735,0.790
1.418,0.355,0.545
1.420,0.130,0.320
1.422,0.030,0.140
1.424,-0.100,0.005
1.426,-0.155,-0.080
1.428,-0.200,-0.125
1.430,-0.140,-0.130
1.432,-0.160,-0.120
1.434,-0.150,-0.105
1.436,-0.150,-0.090
1.438,-0.175,-0.085
1.440,-0.135,-0.085
1.442,-0.120,-0.090
1.444,-0.140,-0.095
1.446,-0.115,-0.100
1.448,-0.130,-0.100
1.450,-0.135,-0.090
1.452,-0.130,-0.080
1.454,-0.080,-0.075
1.456,-0.110,-0.070
1.458,-0.135,-0.070
1.460,-0.120,-0.070
1.462,-0.110,-0.075
1.464,-0.165,-0.085
1.466,-0.135,-0.085
1.468,-0.090,-0.090
1.470,-0.110,-0.085
1.472,-0.120,-0.080
1.474,-0.080,-0.070
1.476,-0.130,-0.065
1.478,-0.095,-0.055
1.480,-0.055,-0.055
1.482,-0.125,-0.055
1.484,-0.155,-0.055
1.486,-0.100,-0.060
1.488,-0.130,-0.060
1.490,-0.085,-0.060
1.492,-0.070,-0.060
1.494,-0.055,-0.060
1.496,-0.085,-0.060
1.498,-0.125,-0.060
1.500,-0.130,-0.060
1.502,-0.080,-0.060
1.504,-0.135,-0.055
1.506,-0.110,-0.055
1.508,-0.080,-0.050
1.510,-0.090,-0.045
1.512,-0.120,-0.035
1.514,0.000,-0.030
1.516,-0.055,-0.030
1.518,-0.100,-0.025
1.520,-0.100,-0.025
1.522,-0.085,-0.030
1.524,-0.055,-0.030
1.526,-0.050,-0.025
1.528,-0.075,-0.025
1.530,-0.055,-0.015
1.532,-0.025,-0.010
1.534,-0.005,0.005
1.536,-0.035,0.015
1.538,-0.060,0.025
1.540,-0.030,0.030
1.542,-0.035,0.035
1.544,-0.030,0.035
1.546,0.005,0.035
1.548,0.000,0.040
1.550,-0.025,0.040
1.552,0.005,0.050
1.554,0.065,0.060
1.556,0.045,0.070
1.558,0.015,0.080
1.560,0.035,0.090
1.562,0.045,0.100
1.564,0.060,0.105
1.566,0.115,0.110
1.568,0.140,0.110
1.570,0.090,0.110
1.572,0.080,0.115
1.574,0.070,0.125
1.576,0.065,0.135
1.578,0.125,0.150
1.580,0.150,0.165
1.582,0.145,0.180
1.584,0.120,0.190
1.586,0.165,0.200
1.588,0.165,0.210
1.590,0.120,0.215
1.592,0.145,0.215
1.594,0.205,0.220
1.596,0.245,0.220
1.598,0.230,0.225
1.600,0.205,0.230
1.602,0.190,0.235
1.604,0.135,0.240
1.606,0.175,0.245
1.608,0.155,0.245
1.610,0.200,0.245
1.612,0.235,0.245
1.614,0.245,0.240
1.616,0.235,0.240
1.618,0.225,0.245
1.620,0.220,0.245
1.622,0.205,0.250
1.624,0.165,0.250
1.626,0.205,0.245
1.628,0.195,0.240
1.630,0.155,0.230
1.632,0.150,0.210
1.634,0.165,0.190
1.636,0.130,0.170
1.638,0.100,0.150
1.640,0.120,0.135
1.642,0.070,0.120
1.644,0.050,0.110
1.646,0.045,0.105
1.648,0.070,0.100
1.650,0.040,0.095
1.652,0.045,0.090
1.654,0.030,0.085
1.656,0.010,0.075
1.658,0.015,0.060
1.660,0.025,0.045
1.662,-0.020,0.030
1.664,-0.075,0.015
1.666,-0.045,0.000
1.668,-0.045,-0.015
1.670,-0.080,-0.030
1.672,-0.070,-0.040
1.674,-0.050,-0.050
1.676,-0.105,-0.060
1.678,-0.125,-0.070
1.680,-0.110,-0.070
1.682,-0.190,-0.075
1.684,-0.085,-0.075
1.686,-0.070,-0.070
1.688,-0.110,-0.070
1.690,-0.125,-0.065
1.692,-0.095,-0.065
1.694,-0.120,-0.065
1.696,-0.085,-0.065
1.698,-0.105,-0.065
1.700,-0.085,-0.065
1.702,-0.140,-0.070
1.704,-0.155,-0.065
1.706,-0.075,-0.065
1.708,-0.105,-0.060
1.710,-0.115,-0.060
1.712,-0.135,-0.055
1.714,-0.090,-0.055
1.716,-0.075,-0.060
1.718,-0.110,-0.065
1.720,-0.115,-0.070
1.722,-0.175,-0.080
1.724,-0.140,-0.090
1.726,-0.115,-0.095
1.728,-0.120,-0.100
1.730,-0.110,-0.100
1.732,-0.110,-0.100
1.734,-0.110,-0.095
1.736,-0.110,-0.090
1.738,-0.100,-0.085
1.740,-0.065,-0.075
1.742,-0.130,-0.070
1.744,-0.125,-0.065
1.746,-0.115,-0.065
1.748,-0.110,-0.065
1.750,-0.125,-0.065
1.752,-0.085,-0.065
1.754,-0.105,-0.070
1.756,-0.125,-0.075
1.758,-0.145,-0.075
1.760,-0.105,-0.080
1.762,-0.120,-0.080
1.764,-0.130,-0.075
1.766,-0.105,-0.075
1.768,-0.135,-0.075
1.770,-0.130,-0.075
1.772,-0.130,-0.075
1.774,-0.100,-0.075
1.776,-0.135,-0.080
1.778,-0.110,-0.090
1.780,-0.125,-0.095
1.782,-0.120,-0.105
1.784,-0.135,-0.110
1.786,-0.130,-0.110
1.788,-0.175,-0.105
1.790,-0.180,-0.100
1.792,-0.140,-0.090
1.794,-0.070,-0.080
1.796,-0.065,-0.075
1.798,-0.110,-0.070
1.800,-0.130,-0.070
1.802,-0.120,-0.075
1.804,-0.115,-0.080
1.806,-0.135,-0.090
1.808,-0.165,-0.095
1.810,-0.130,-0.100
1.812,-0.110,-0.100
1.814,-0.130,-0.095
1.816,-0.090,-0.090
1.818,-0.085,-0.080
1.820,-0.100,-0.070
1.822,-0.100,-0.065
1.824,-0.105,-0.065
1.826,-0.095,-0.065
1.828,-0.115,-0.070
1.830,-0.105,-0.075
1.832,-0.095,-0.080
1.834,-0.125,-0.085
1.836,-0.085,-0.085
1.838,-0.090,-0.085
1.840,-0.120,-0.080
1.842,-0.155,-0.075
1.844,-0.145,-0.075
1.846,-0.110,-0.070
1.848,-0.110,-0.070
1.850,-0.095,-0.070
1.852,0.000,-0.070
1.854,-0.105,-0.070
1.856,-0.110,-0.075
1.858,-0.080,-0.080
1.860,-0.150,-0.080
1.862,-0.130,-0.085
1.864,-0.115,-0.085
1.866,-0.135,-0.090
1.868,-0.175,-0.090
1.870,-0.130,-0.090
1.872,-0.095,-0.090
1.874,-0.090,-0.085
1.876,-0.105,-0.085
1.878,-0.105,-0.080
1.880,-0.100,-0.075
1.882,-0.135,-0.070
1.884,-0.090,-0.070
1.886,-0.110,-0.065
1.888,-0.170,-0.065
1.890,-0.105,-0.065
1.892,-0.045,-0.070
1.894,-0.090,-0.070
1.896,-0.130,-0.075
1.898,-0.085,-0.075
1.900,-0.110,-0.080
1.902,-0.125,-0.080
1.904,-0.120,-0.085
1.906,-0.100,-0.090
1.908,-0.135,-0.090
1.910,-0.130,-0.095
1.912,-0.110,-0.095
1.914,-0.095,-0.095
1.916,-0.105,-0.095
1.918,-0.100,-0.095
1.920,-0.155,-0.090
1.922,-0.160,-0.085
1.924,-0.120,-0.080
1.926,-0.110,-0.075
1.928,-0.135,-0.075
1.930,-0.100,-0.075
1.932,-0.090,-0.075
1.934,-0.115,-0.080
1.936,-0.145,-0.090
1.938,-0.115,-0.095
1.940,-0.160,-0.105
1.942,-0.150,-0.110
1.944,-0.120,-0.110
1.946,-0.135,-0.110
1.948,-0.195,-0.110
1.950,-0.125,-0.105
1.952,-0.120,-0.095
1.954,-0.085,-0.090
1.956,-0.095,-0.085
1.958,-0.080,-0.080
1.960,-0.120,-0.075
1.962,-0.125,-0.075
1.964,-0.115,-0.070
1.966,-0.130,-0.070
1.968,-0.155,-0.070
1.970,-0.080,-0.075
1.972,-0.080,-0.075
1.974,-0.115,-0.080
1.976,-0.095,-0.085
1.978,-0.140,-0.090
1.980,-0.135,-0.095
1.982,-0.140,-0.095
1.984,-0.125,-0.090
1.986,-0.145,-0.085
1.988,-0.150,-0.080
1.990,-0.065,-0.075
1.992,-0.080,-0.070
1.994,-0.115,-0.065
1.996,-0.135,-0.070
1.998,-0.120,-0.075
2.000,-0.135,-0.080
2.002,-0.100,-0.090
2.004,-0.115,-0.095
2.006,-0.150,-0.100
2.008,-0.145,-0.105
2.010,-0.095,-0.100
2.012,-0.095,-0.095
2.014,-0.105,-0.090
2.016,-0.160,-0.085
2.018,-0.140,-0.085
2.020,-0.155,-0.085
2.022,-0.115,-0.085
2.024,-0.115,-0.085
2.026,-0.120,-0.090
2.028,-0.130,-0.090
2.030,-0.115,-0.085
2.032,-0.130,-0.085
2.034,-0.095,-0.080
2.036,-0.110,-0.080
2.038,-0.105,-0.085
2.040,-0.165,-0.090
2.042,-0.115,-0.100
2.044,-0.085,-0.105
2.046,-0.155,-0.115
2.048,-0.145,-0.120
2.050,-0.140,-0.120
2.052,-0.130,-0.120
2.054,-0.125,-0.110
2.056,-0.140,-0.100
2.058,-0.125,-0.090
2.060,-0.135,-0.080
2.062,-0.080,-0.070
2.064,-0.090,-0.070
2.066,-0.150,-0.070
2.068,-0.125,-0.075
2.070,-0.100,-0.080
2.072,-0.085,-0.085
2.074,-0.130,-0.090
2.076,-0.100,-0.090
2.078,-0.100,-0.090
2.080,-0.140,-0.090
2.082,-0.125,-0.085
2.084,-0.135,-0.080
2.086,-0.140,-0.080
2.088,-0.115,-0.075
2.090,-0.080,-0.075
2.092,-0.100,-0.075
2.094,-0.100,-0.080
2.096,-0.120,-0.080
2.098,-0.115,-0.080
2.100,-0.125,-0.080
2.102,-0.130,-0.080
2.104,-0.110,-0.080
2.106,-0.105,-0.085
2.108,-0.125,-0.085
2.110,-0.095,-0.085
2.112,-0.120,-0.090
2.114,-0.120,-0.090
2.116,-0.100,-0.090
2.118,-0.115,-0.090
2.120,-0.150,-0.085
2.122,-0.160,-0.085
2.124,-0.130,-0.085
2.126,-0.120,-0.085
2.128,-0.155,-0.085
2.130,-0.105,-0.080
2.132,-0.090,-0.080
2.134,-0.095,-0.075
2.136,-0.080,-0.070
2.138,-0.085,-0.070
2.140,-0.100,-0.065
2.142,-0.105,-0.065
2.144,-0.115,-0.070
2.146,-0.120,-0.075
2.148,-0.130,-0.080
2.150,-0.075,-0.090
2.152,-0.115,-0.095
2.154,-0.170,-0.100
2.156,-0.155,-0.105
2.158,-0.160,-0.100
2.160,-0.115,-0.090
2.162,-0.065,-0.080
2.164,-0.095,-0.070
2.166,-0.080,-0.055
2.168,-0.075,-0.045
2.170,-0.040,-0.040
2.172,-0.060,-0.035
2.174,-0.045,-0.030
2.176,-0.065,-0.030
2.178,-0.075,-0.025
2.180,-0.080,-0.020
2.182,-0.080,-0.015
2.184,-0.040,-0.010
2.186,-0.035,-0.010
2.188,-0.055,-0.010
2.190,-0.075,-0.015
2.192,-0.080,-0.025
2.194,-0.085,-0.040
2.196,-0.025,-0.050
2.198,-0.120,-0.055
2.200,-0.100,-0.060
2.202,-0.080,-0.055
2.204,-0.080,-0.050
2.206,-0.100,-0.035
2.208,-0.030,-0.025
2.210,0.010,-0.015
2.212,-0.050,-0.010
2.214,-0.080,-0.015
2.216,-0.075,-0.030
2.218,-0.105,-0.045
2.220,-0.085,-0.065
2.222,-0.050,-0.080
2.224,-0.140,-0.090
2.226,-0.125,-0.095
2.228,-0.090,-0.095
2.230,-0.095,-0.090
2.232,-0.120,-0.080
2.234,-0.110,-0.075
2.236,-0.125,-0.075
2.238,-0.155,-0.080
2.240,-0.170,-0.085
2.242,-0.140,-0.095
2.244,-0.125,-0.100
2.246,-0.145,-0.105
2.248,-0.100,-0.110
2.250,-0.110,-0.105
2.252,-0.165,-0.100
2.254,-0.145,-0.095
2.256,-0.120,-0.090
2.258,-0.095,-0.090
2.260,-0.105,-0.090
2.262,-0.120,-0.090
2.264,-0.200,-0.085
2.266,-0.150,-0.085
2.268,-0.070,-0.080
2.270,-0.080,-0.080
2.272,-0.095,-0.085
2.274,-0.160,-0.095
2.276,-0.135,-0.115
2.278,-0.200,-0.145
2.280,-0.245,-0.180
2.282,-0.300,-0.220
2.284,-0.300,-0.250
2.286,-0.345,-0.265
2.288,-0.295,-0.260
2.290,-0.325,-0.230
2.292,-0.220,-0.175
2.294,-0.080,-0.090
2.296,0.050,0.010
2.298,0.130,0.130
2.300,0.190,0.255
2.302,0.350,0.390
2.304,0.475,0.535
2.306,0.630,0.680
2.308,0.860,0.835
2.310,1.010,0.990
2.312,1.155,1.150
2.314,1.295,1.300
2.316,1.475,1.430
2.318,1.525,1.520
2.320,1.585,1.560
2.322,1.545,1.540
2.324,1.460,1.450
2.326,1.295,1.295
2.328,1.115,1.090
2.330,0.875,0.850
2.332,0.485,0.605
2.334,0.160,0.370
2.336,0.045,0.170
2.338,-0.100,0.020
2.340,-0.125,-0.085
2.342,-0.140,-0.135
2.344,-0.150,-0.150
2.346,-0.175,-0.140
2.348,-0.135,-0.120
2.350,-0.130,-0.100
2.352,-0.150,-0.090
2.354,-0.180,-0.085
2.356,-0.135,-0.090
2.358,-0.115,-0.100
2.360,-0.100,-0.105
2.362,-0.080,-0.105
2.364,-0.105,-0.095
2.366,-0.110,-0.085
2.368,-0.095,-0.070
2.370,-0.095,-0.060
2.372,-0.105,-0.055
2.374,-0.120,-0.055
2.376,-0.105,-0.065
2.378,-0.125,-0.075
2.380,-0.150,-0.085
2.382,-0.160,-0.095
2.384,-0.145,-0.100
2.386,-0.150,-0.095
2.388,-0.070,-0.090
2.390,-0.030,-0.080
2.392,-0.110,-0.065
2.394,-0.090,-0.060
2.396,-0.055,-0.050
2.398,-0.135,-0.050
2.400,-0.150,-0.050
2.402,-0.100,-0.055
2.404,-0.080,-0.055
2.406,-0.065,-0.060
2.408,-0.085,-0.060
2.410,-0.100,-0.055
2.412,-0.100,-0.050
2.414,-0.100,-0.045
2.416,-0.065,-0.040
2.418,-0.075,-0.035
2.420,-0.095,-0.030
2.422,-0.105,-0.025
2.424,-0.110,-0.025
2.426,-0.060,-0.020
2.428,-0.045,-0.020
2.430,-0.045,-0.020
2.432,-0.055,-0.020
2.434,-0.070,-0.020
2.436,-0.085,-0.020
2.438,-0.115,-0.015
2.440,-0.085,-0.010
2.442,-0.010,-0.005
2.444,-0.010,0.000
2.446,-0.025,0.005
2.448,0.000,0.010
2.450,-0.025,0.010
2.452,-0.015,0.015
2.454,-0.020,0.015
2.456,-0.050,0.015
2.458,-0.035,0.020
2.460,0.015,0.025
2.462,-0.005,0.035
2.464,0.015,0.045
2.466,0.060,0.055
2.468,0.070,0.070
2.470,0.025,0.080
2.472,0.080,0.090
2.474,0.075,0.095
2.476,0.010,0.095
2.478,0.055,0.095
2.480,0.040,0.095
2.482,0.070,0.095
2.484,0.045,0.095
2.486,0.080,0.105
2.488,0.100,0.120
2.490,0.100,0.135
2.492,0.100,0.155
2.494,0.185,0.175
2.496,0.170,0.195
2.498,0.140,0.205
2.500,0.120,0.215
2.502,0.165,0.215
2.504,0.135,0.215
2.506,0.180,0.210
2.508,0.190,0.210
2.510,0.185,0.210
2.512,0.195,0.210
2.514,0.200,0.215
2.516,0.200,0.220
2.518,0.175,0.230
2.520,0.195,0.235
2.522,0.190,0.240
2.524,0.205,0.240
2.526,0.225,0.245
2.528,0.255,0.245
2.530,0.220,0.250
2.532,0.185,0.255
2.534,0.225,0.260
2.536,0.215,0.265
2.538,0.205,0.265
2.540,0.195,0.265
2.542,0.190,0.260
2.544,0.185,0.250
2.546,0.155,0.240
2.548,0.180,0.220
2.550,0.200,0.205
2.552,0.180,0.190
2.554,0.140,0.180
2.556,0.090,0.170
2.558,0.085,0.155
2.560,0.060,0.145
2.562,0.050,0.130
2.564,0.055,0.115
2.566,0.050,0.100
2.568,0.050,0.080
2.570,-0.015,0.060
2.572,-0.035,0.045
2.574,0.000,0.030
2.576,-0.010,0.025
2.578,-0.010,0.020
2.580,0.000,0.020
2.582,-0.015,0.015
2.584,-0.065,0.010
2.586,-0.055,0.005
2.588,-0.075,-0.005
2.590,-0.045,-0.020
2.592,-0.085,-0.035
2.594,-0.110,-0.045
2.596,-0.140,-0.050
2.598,-0.095,-0.055
2.600,-0.070,-0.050
2.602,-0.075,-0.045
2.604,-0.105,-0.035
2.606,-0.070,-0.030
2.608,-0.080,-0.030
2.610,-0.100,-0.035
2.612,-0.115,-0.045
2.614,-0.100,-0.055
2.616,-0.140,-0.070
2.618,-0.120,-0.080
2.620,-0.160,-0.090
2.622,-0.090,-0.090
2.624,-0.105,-0.085
2.626,-0.145,-0.080
2.628,-0.140,-0.070
2.630,-0.105,-0.060
2.632,-0.110,-0.055
2.634,-0.070,-0.055
2.636,-0.130,-0.055
2.638,-0.130,-0.060
2.640,-0.105,-0.070
2.642,-0.090,-0.080
2.644,-0.150,-0.085
2.646,-0.100,-0.085
2.648,-0.110,-0.085
2.650,-0.160,-0.085
2.652,-0.120,-0.080
2.654,-0.125,-0.080
2.656,-0.175,-0.075
2.658,-0.145,-0.070
2.660,-0.135,-0.070
2.662,-0.105,-0.070
2.664,-0.095,-0.065
2.666,-0.105,-0.070
2.668,-0.145,-0.070
2.670,-0.125,-0.070
2.672,-0.095,-0.070
2.674,-0.085,-0.075
2.676,-0.145,-0.075
2.678,-0.120,-0.080
2.680,-0.115,-0.080
2.682,-0.135,-0.080
2.684,-0.155,-0.080
2.686,-0.135,-0.080
2.688,-0.120,-0.080
2.690,-0.135,-0.080
2.692,-0.145,-0.075
2.694,-0.135,-0.075
2.696,-0.140,-0.075
2.698,-0.100,-0.070
2.700,-0.100,-0.070
2.702,-0.140,-0.070
2.704,-0.135,-0.065
2.706,-0.090,-0.065
2.708,-0.120,-0.065
2.710,-0.135,-0.065
2.712,-0.135,-0.065
2.714,-0.105,-0.070
2.716,-0.110,-0.070
2.718,-0.100,-0.075
2.720,-0.125,-0.070
2.722,-0.125,-0.070
2.724,-0.145,-0.065
2.726,-0.105,-0.060
2.728,-0.100,-0.055
2.730,-0.100,-0.050
2.732,-0.105,-0.045
2.734,-0.085,-0.045
2.736,-0.100,-0.050
2.738,-0.155,-0.055
2.740,-0.115,-0.060
2.742,-0.120,-0.065
2.744,-0.140,-0.065
2.746,-0.125,-0.070
2.748,-0.125,-0.070
2.750,-0.110,-0.070
2.752,-0.080,-0.070
2.754,-0.105,-0.070
2.756,-0.175,-0.070
2.758,-0.140,-0.070
2.760,-0.095,-0.065
2.762,-0.125,-0.065
2.764,-0.115,-0.065
2.766,-0.130,-0.060
2.768,-0.105,-0.055
2.770,-0.080,-0.055
2.772,-0.080,-0.055
2.774,-0.130,-0.055
2.776,-0.155,-0.060
2.778,-0.145,-0.065
2.780,-0.110,-0.070
2.782,-0.145,-0.080
2.784,-0.150,-0.085
2.786,-0.125,-0.085
2.788,-0.140,-0.085
2.790,-0.135,-0.080
2.792,-0.105,-0.070
2.794,-0.080,-0.065
2.796,-0.125,-0.055
2.798,-0.080,-0.045
2.800,-0.115,-0.045
2.802,-0.180,-0.045
2.804,-0.115,-0.050
2.806,-0.085,-0.055
2.808,-0.090,-0.065
2.810,-0.130,-0.070
2.812,-0.155,-0.075
2.814,-0.190,-0.075
2.816,-0.170,-0.075
2.818,-0.085,-0.075
2.820,-0.120,-0.070
2.822,-0.150,-0.070
2.824,-0.095,-0.065
2.826,-0.140,-0.065
2.828,-0.155,-0.070
2.830,-0.145,-0.070
2.832,-0.115,-0.070
2.834,-0.125,-0.070
2.836,-0.080,-0.065
2.838,-0.140,-0.060
2.840,-0.105,-0.055
2.842,-0.120,-0.055
2.844,-0.125,-0.055
2.846,-0.125,-0.060
2.848,-0.150,-0.065
2.850,-0.145,-0.070
2.852,-0.115,-0.080
2.854,-0.150,-0.090
2.856,-0.140,-0.095
2.858,-0.155,-0.095
2.860,-0.125,-0.090
2.862,-0.135,-0.085
2.864,-0.120,-0.080
2.866,-0.140,-0.070
2.868,-0.140,-0.065
2.870,-0.145,-0.065
2.872,-0.140,-0.065
2.874,-0.155,-0.070
2.876,-0.100,-0.075
2.878,-0.115,-0.080
2.880,-0.165,-0.085
2.882,-0.175,-0.090
2.884,-0.140,-0.095
2.886,-0.170,-0.095
2.888,-0.200,-0.095
2.890,-0.170,-0.095
2.892,-0.100,-0.095
2.894,-0.155,-0.090
2.896,-0.140,-0.090
2.898,-0.125,-0.080
2.900,-0.160,-0.075
2.902,-0.150,-0.070
2.904,-0.090,-0.060
2.906,-0.105,-0.055
2.908,-0.110,-0.050
2.910,-0.105,-0.050
2.912,-0.110,-0.055
2.914,-0.165,-0.060
2.916,-0.180,-0.065
2.918,-0.145,-0.075
2.920,-0.115,-0.080
2.922,-0.150,-0.080
2.924,-0.125,-0.080
2.926,-0.125,-0.080
2.928,-0.155,-0.075
2.930,-0.150,-0.070
2.932,-0.110,-0.070
2.934,-0.180,-0.070
2.936,-0.135,-0.070
2.938,-0.135,-0.075
2.940,-0.160,-0.080
2.942,-0.165,-0.085
2.944,-0.155,-0.085
2.946,-0.170,-0.085
2.948,-0.145,-0.080
2.950,-0.155,-0.075
2.952,-0.100,-0.070
2.954,-0.145,-0.065
2.956,-0.115,-0.060
2.958,-0.140,-0.060
2.960,-0.155,-0.065
2.962,-0.130,-0.070
2.964,-0.105,-0.075
2.966,-0.175,-0.085
2.968,-0.225,-0.090
2.970,-0.150,-0.090
2.972,-0.115,-0.085
2.974,-0.160,-0.080
2.976,-0.105,-0.075
2.978,-0.105,-0.065
2.980,-0.095,-0.055
2.982,-0.135,-0.050
2.984,-0.120,-0.045
2.986,-0.100,-0.045
2.988,-0.135,-0.045
2.990,-0.150,-0.050
2.992,-0.155,-0.055
2.994,-0.170,-0.060
2.996,-0.150,-0.065
2.998,-0.145,-0.065
3.000,-0.130,-0.065
3.002,-0.140,-0.065
3.004,-0.125,-0.060
3.006,-0.105,-0.055
3.008,-0.105,-0.055
3.010,-0.140,-0.055
3.012,-0.175,-0.060
3.014,-0.190,-0.065
3.016,-0.145,-0.070
3.018,-0.155,-0.075
3.020,-0.195,-0.080
3.022,-0.175,-0.085
3.024,-0.130,-0.090
3.026,-0.155,-0.090
3.028,-0.145,-0.090
3.030,-0.125,-0.085
3.032,-0.105,-0.085
3.034,-0.170,-0.080
3.036,-0.165,-0.075
3.038,-0.155,-0.070
3.040,-0.145,-0.065
3.042,-0.125,-0.065
3.044,-0.115,-0.060
3.046,-0.105,-0.055
3.048,-0.095,-0.050
3.050,-0.095,-0.050
3.052,-0.105,-0.045
3.054,-0.085,-0.045
3.056,-0.095,-0.040
3.058,-0.115,-0.040
3.060,-0.165,-0.035
3.062,-0.165,-0.035
3.064,-0.110,-0.030
3.066,-0.090,-0.030
3.068,-0.090,-0.025
3.070,-0.130,-0.020
3.072,-0.035,-0.020
3.074,-0.125,-0.020
3.076,-0.105,-0.020
3.078,-0.090,-0.025
3.080,-0.090,-0.030
3.082,-0.090,-0.035
3.084,-0.105,-0.040
3.086,-0.175,-0.045
3.088,-0.225,-0.050
3.090,-0.145,-0.050
3.092,-0.090,-0.050
3.094,-0.060,-0.045
3.096,-0.085,-0.040
3.098,-0.080,-0.035
3.100,-0.115,-0.030
3.102,-0.115,-0.025
3.104,-0.105,-0.025
3.106,-0.120,-0.025
3.108,-0.125,-0.030
3.110,-0.110,-0.035
3.112,-0.115,-0.045
3.114,-0.130,-0.050
3.116,-0.105,-0.060
3.118,-0.095,-0.070
3.120,-0.190,-0.075
3.122,-0.200,-0.080
3.124,-0.150,-0.085
3.126,-0.165,-0.090
3.128,-0.165,-0.090
3.130,-0.175,-0.085
3.132,-0.195,-0.085
3.134,-0.150,-0.080
3.136,-0.145,-0.075
3.138,-0.185,-0.075
3.140,-0.225,-0.075
3.142,-0.160,-0.080
3.144,-0.170,-0.085
3.146,-0.140,-0.095
3.148,-0.155,-0.105
3.150,-0.130,-0.110
3.152,-0.230,-0.115
3.154,-0.280,-0.115
3.156,-0.210,-0.110
3.158,-0.160,-0.100
3.160,-0.180,-0.100
3.162,-0.180,-0.100
3.164,-0.175,-0.110
3.166,-0.200,-0.130
3.168,-0.265,-0.160
3.170,-0.265,-0.200
3.172,-0.310,-0.235
3.174,-0.395,-0.260
3.176,-0.415,-0.265
3.178,-0.395,-0.250
3.180,-0.305,-0.200
3.182,-0.195,-0.125
3.184,-0.065,-0.020
3.186,0.080,0.100
3.188,0.180,0.235
3.190,0.285,0.375
3.192,0.435,0.520
3.194,0.590,0.670
3.196,0.745,0.820
3.198,0.880,0.975
3.200,1.040,1.125
3.202,1.265,1.275
3.204,1.410,1.400
3.206,1.460,1.500
3.208,1.510,1.550
3.210,1.555,1.540
3.212,1.450,1.465
3.214,1.290,1.320
3.216,1.085,1.120
3.218,0.800,0.885
3.220,0.410,0.635
3.222,0.160,0.390
3.224,-0.015,0.180
3.226,-0.090,0.020
3.228,-0.180,-0.090
3.230,-0.250,-0.145
3.232,-0.230,-0.160
3.234,-0.185,-0.145
3.236,-0.210,-0.120
3.238,-0.275,-0.090
3.240,-0.205,-0.070
3.242,-0.115,-0.060
3.244,-0.145,-0.060
3.246,-0.150,-0.065
3.248,-0.170,-0.075
3.250,-0.145,-0.080
3.252,-0.120,-0.080
3.254,-0.165,-0.075
3.256,-0.195,-0.070
3.258,-0.210,-0.070
3.260,-0.210,-0.070
3.262,-0.180,-0.075
3.264,-0.165,-0.080
3.266,-0.175,-0.090
3.268,-0.180,-0.095
3.270,-0.170,-0.100
3.272,-0.170,-0.095
3.274,-0.185,-0.090
3.276,-0.155,-0.080
3.278,-0.145,-0.075
3.280,-0.190,-0.065
3.282,-0.140,-0.065
3.284,-0.125,-0.065
3.286,-0.155,-0.065
3.288,-0.195,-0.070
3.290,-0.170,-0.075
3.292,-0.180,-0.075
3.294,-0.170,-0.075
3.296,-0.150,-0.070
3.298,-0.150,-0.060
3.300,-0.130,-0.055
3.302,-0.080,-0.045
3.304,-0.110,-0.040
3.306,-0.165,-0.035
3.308,-0.150,-0.035
3.310,-0.150,-0.040
3.312,-0.150,-0.040
3.314,-0.115,-0.040
3.316,-0.125,-0.040
3.318,-0.135,-0.040
3.320,-0.155,-0.040
3.322,-0.130,-0.035
3.324,-0.095,-0.030
3.326,-0.140,-0.025
3.328,-0.130,-0.020
3.330,-0.040,-0.015
3.332,-0.100,-0.010
3.334,-0.085,-0.010
3.336,-0.090,-0.005
3.338,-0.115,-0.005
3.340,-0.115,0.000
3.342,-0.070,0.000
3.344,-0.050,0.005
3.346,-0.105,0.010
3.348,-0.075,0.015
3.350,-0.085,0.020
3.352,-0.040,0.030
3.354,-0.035,0.040
3.356,-0.030,0.050
3.358,-0.040,0.060
3.360,-0.065,0.070
3.362,-0.010,0.080
3.364,-0.015,0.085
3.366,-0.050,0.090
3.368,0.010,0.095
3.370,0.030,0.105
3.372,0.030,0.110
3.374,0.055,0.115
3.376,0.060,0.125
3.378,0.040,0.135
3.380,0.050,0.140
3.382,0.055,0.150
3.384,0.030,0.160
3.386,0.060,0.165
3.388,0.100,0.175
3.390,0.090,0.185
3.392,0.090,0.195
3.394,0.105,0.205
3.396,0.135,0.215
3.398,0.130,0.225
3.400,0.155,0.235
3.402,0.145,0.240
3.404,0.145,0.245
3.406,0.160,0.250
3.408,0.190,0.245
3.410,0.155,0.245
3.412,0.120,0.235
3.414,0.105,0.230
3.416,0.100,0.225
3.418,0.100,0.220
3.420,0.120,0.220
3.422,0.175,0.215
3.424,0.115,0.215
3.426,0.105,0.215
3.428,0.140,0.220
3.430,0.135,0.220
3.432,0.145,0.220
3.434,0.160,0.215
3.436,0.160,0.215
3.438,0.070,0.210
3.440,0.110,0.200
3.442,0.055,0.185
3.444,0.045,0.170
3.446,0.025,0.155
3.448,0.030,0.135
3.450,0.020,0.115
3.452,-0.020,0.095
3.454,-0.040,0.075
3.456,-0.045,0.060
3.458,-0.080,0.045
3.460,-0.080,0.035
3.462,-0.045,0.025
3.464,-0.070,0.015
3.466,-0.100,0.010
3.468,-0.100,-0.005
3.470,-0.125,-0.015
3.472,-0.125,-0.025
3.474,-0.100,-0.035
3.476,-0.160,-0.045
3.478,-0.145,-0.050
3.480,-0.145,-0.055
3.482,-0.155,-0.060
3.484,-0.150,-0.060
3.486,-0.170,-0.060
3.488,-0.140,-0.065
3.490,-0.220,-0.070
3.492,-0.160,-0.080
3.494,-0.205,-0.090
3.496,-0.230,-0.095
3.498,-0.210,-0.105
3.500,-0.220,-0.115
3.502,-0.170,-0.115
3.504,-0.165,-0.115
3.506,-0.245,-0.115
3.508,-0.215,-0.110
3.510,-0.190,-0.105
3.512,-0.200,-0.100
3.514,-0.195,-0.095
3.516,-0.180,-0.090
3.518,-0.170,-0.085
3.520,-0.150,-0.085
3.522,-0.160,-0.085
3.524,-0.195,-0.085
3.526,-0.220,-0.080
3.528,-0.205,-0.080
3.530,-0.240,-0.075
3.532,-0.180,-0.075
3.534,-0.170,-0.075
3.536,-0.155,-0.075
3.538,-0.140,-0.080
3.540,-0.185,-0.090
3.542,-0.185,-0.100
3.544,-0.225,-0.105
3.546,-0.210,-0.115
3.548,-0.215,-0.120
3.550,-0.250,-0.120
3.552,-0.240,-0.120
3.554,-0.220,-0.115
3.556,-0.205,-0.105
3.558,-0.170,-0.095
3.560,-0.110,-0.090
3.562,-0.180,-0.080
3.564,-0.210,-0.080
3.566,-0.205,-0.080
3.568,-0.195,-0.090
3.570,-0.235,-0.095
3.572,-0.225,-0.100
3.574,-0.200,-0.105
3.576,-0.205,-0.110
3.578,-0.195,-0.105
3.580,-0.210,-0.105
3.582,-0.175,-0.095
3.584,-0.145,-0.090
3.586,-0.150,-0.085
3.588,-0.195,-0.085
3.590,-0.255,-0.085
3.592,-0.215,-0.090
3.594,-0.230,-0.095
3.596,-0.220,-0.100
3.598,-0.205,-0.100
3.600,-0.140,-0.100
3.602,-0.175,-0.100
3.604,-0.175,-0.095
3.606,-0.220,-0.090
3.608,-0.170,-0.085
3.610,-0.200,-0.080
3.612,-0.190,-0.080
3.614,-0.210,-0.085
3.616,-0.245,-0.090
3.618,-0.210,-0.100
3.620,-0.205,-0.105
3.622,-0.185,-0.110
3.624,-0.165,-0.110
3.626,-0.180,-0.105
3.628,-0.165,-0.100
3.630,-0.225,-0.090
3.632,-0.215,-0.085
3.634,-0.200,-0.080
3.636,-0.195,-0.075
3.638,-0.200,-0.075
3.640,-0.205,-0.080
3.642,-0.215,-0.085
3.644,-0.170,-0.090
3.646,-0.195,-0.090
3.648,-0.170,-0.095
3.650,-0.185,-0.090
3.652,-0.175,-0.090
3.654,-0.175,-0.085
3.656,-0.175,-0.080
3.658,-0.195,-0.080
3.660,-0.190,-0.075
3.662,-0.195,-0.075
3.664,-0.175,-0.075
3.666,-0.185,-0.080
3.668,-0.190,-0.080
3.670,-0.230,-0.085
3.672,-0.200,-0.085
3.674,-0.175,-0.085
3.676,-0.185,-0.085
3.678,-0.165,-0.085
3.680,-0.170,-0.080
3.682,-0.165,-0.080
3.684,-0.210,-0.080
3.686,-0.180,-0.080
3.688,-0.200,-0.080
3.690,-0.215,-0.080
3.692,-0.200,-0.080
3.694,-0.210,-0.085
3.696,-0.210,-0.085
3.698,-0.210,-0.090
3.700,-0.170,-0.090
3.702,-0.175,-0.090
3.704,-0.220,-0.090
3.706,-0.180,-0.090
3.708,-0.170,-0.085
3.710,-0.205,-0.085
3.712,-0.210,-0.080
3.714,-0.225,-0.080
3.716,-0.230,-0.080
3.718,-0.230,-0.080
3.720,-0.180,-0.085
3.722,-0.165,-0.085
3.724,-0.205,-0.085
3.726,-0.170,-0.090
3.728,-0.185,-0.090
3.730,-0.215,-0.090
3.732,-0.200,-0.095
3.734,-0.205,-0.095
3.736,-0.200,-0.095
3.738,-0.175,-0.095
3.740,-0.140,-0.095
3.742,-0.195,-0.100
3.744,-0.240,-0.095
3.746,-0.185,-0.095
3.748,-0.225,-0.095
3.750,-0.235,-0.090
3.752,-0.215,-0.090
3.754,-0.190,-0.085
3.756,-0.130,-0.085
3.758,-0.185,-0.085
3.760,-0.190,-0.090
3.762,-0.200,-0.095
3.764,-0.215,-0.105
3.766,-0.210,-0.110
3.768,-0.200,-0.115
3.770,-0.175,-0.120
3.772,-0.235,-0.125
3.774,-0.240,-0.120
3.776,-0.245,-0.120
3.778,-0.205,-0.110
3.780,-0.170,-0.105
3.782,-0.190,-0.095
3.784,-0.170,-0.085
3.786,-0.170,-0.080
3.788,-0.195,-0.080
3.790,-0.200,-0.080
3.792,-0.195,-0.080
3.794,-0.185,-0.090
3.796,-0.215,-0.095
3.798,-0.195,-0.105
3.800,-0.235,-0.110
3.802,-0.250,-0.115
3.804,-0.220,-0.120
3.806,-0.205,-0.120
3.808,-0.235,-0.120
3.810,-0.210,-0.115
3.812,-0.210,-0.110
3.814,-0.205,-0.110
3.816,-0.210,-0.105
3.818,-0.185,-0.100
3.820,-0.180,-0.100
3.822,-0.185,-0.100
3.824,-0.190,-0.100
3.826,-0.185,-0.100
3.828,-0.260,-0.100
3.830,-0.265,-0.095
3.832,-0.185,-0.095
3.834,-0.205,-0.095
3.836,-0.220,-0.090
3.838,-0.175,-0.090
3.840,-0.185,-0.090
3.842,-0.195,-0.090
3.844,-0.230,-0.090
3.846,-0.260,-0.095
3.848,-0.235,-0.100
3.850,-0.155,-0.105
3.852,-0.165,-0.105
3.854,-0.230,-0.105
3.856,-0.285,-0.105
3.858,-0.215,-0.100
3.860,-0.185,-0.095
3.862,-0.130,-0.090
3.864,-0.160,-0.090
3.866,-0.220,-0.085
3.868,-0.240,-0.090
3.870,-0.225,-0.090
3.872,-0.220,-0.095
3.874,-0.210,-0.100
3.876,-0.215,-0.105
3.878,-0.195,-0.105
3.880,-0.175,-0.105
3.882,-0.200,-0.100
3.884,-0.225,-0.095
3.886,-0.195,-0.090
3.888,-0.200,-0.080
3.890,-0.170,-0.075
3.892,-0.165,-0.070
3.894,-0.190,-0.065
3.896,-0.210,-0.065
3.898,-0.180,-0.065
3.900,-0.155,-0.065
3.902,-0.140,-0.065
3.904,-0.140,-0.065
3.906,-0.135,-0.060
3.908,-0.175,-0.060
3.910,-0.185,-0.055
3.912,-0.170,-0.050
3.914,-0.135,-0.045
3.916,-0.135,-0.045
3.918,-0.180,-0.045
3.920,-0.150,-0.050
3.922,-0.125,-0.055
3.924,-0.175,-0.060
3.926,-0.180,-0.065
3.928,-0.180,-0.070
3.930,-0.230,-0.070
3.932,-0.160,-0.070
3.934,-0.185,-0.070
3.936,-0.150,-0.065
3.938,-0.135,-0.060
3.940,-0.180,-0.055
3.942,-0.185,-0.050
3.944,-0.145,-0.050
3.946,-0.145,-0.050
3.948,-0.155,-0.050
3.950,-0.140,-0.055
3.952,-0.175,-0.055
3.954,-0.195,-0.060
3.956,-0.190,-0.065
3.958,-0.200,-0.070
3.960,-0.195,-0.075
3.962,-0.160,-0.080
3.964,-0.200,-0.090
3.966,-0.215,-0.095
3.968,-0.235,-0.100
3.970,-0.230,-0.110
3.972,-0.230,-0.110
3.974,-0.235,-0.115
3.976,-0.220,-0.115
3.978,-0.185,-0.115
3.980,-0.200,-0.115
3.982,-0.245,-0.115
3.984,-0.210,-0.115
3.986,-0.245,-0.120
3.988,-0.280,-0.125
3.990,-0.245,-0.130
3.992,-0.235,-0.135
3.994,-0.235,-0.135
3.996,-0.205,-0.130
3.998,-0.215,-0.120
4.000,-0.220,-0.105
4.002,-0.240,-0.095
4.004,-0.205,-0.090
4.006,-0.225,-0.095
4.008,-0.240,-0.110
4.010,-0.235,-0.140
4.012,-0.310,-0.175
4.014,-0.355,-0.215
4.016,-0.370,-0.250
4.018,-0.355,-0.270
4.020,-0.390,-0.275
4.022,-0.405,-0.250
4.024,-0.350,-0.205
4.026,-0.280,-0.135
4.028,-0.120,-0.050
4.030,0.005,0.055
4.032,0.075,0.170
4.034,0.160,0.290
4.036,0.340,0.420
4.038,0.450,0.555
4.040,0.630,0.705
4.042,0.775,0.865
4.044,0.930,1.030
4.046,1.115,1.195
4.048,1.290,1.345
4.050,1.425,1.465
4.052,1.480,1.540
4.054,1.495,1.555
4.056,1.490,1.495
4.058,1.365,1.370
4.060,1.125,1.185
4.062,0.890,0.955
4.064,0.505,0.700
4.066,0.225,0.455
4.068,-0.010,0.235
4.070,-0.150,0.060
4.072,-0.230,-0.065
4.074,-0.215,-0.135
4.076,-0.270,-0.165
4.078,-0.295,-0.160
4.080,-0.200,-0.135
4.082,-0.225,-0.110
4.084,-0.240,-0.090
4.086,-0.230,-0.085
4.088,-0.275,-0.085
4.090,-0.235,-0.095
4.092,-0.205,-0.105
4.094,-0.195,-0.115
4.096,-0.120,-0.110
4.098,-0.130,-0.100
4.100,-0.225,-0.085
4.102,-0.205,-0.070
4.104,-0.170,-0.060
4.106,-0.175,-0.055
4.108,-0.190,-0.055
4.110,-0.205,-0.065
4.112,-0.240,-0.080
4.114,-0.230,-0.095
4.116,-0.190,-0.105
4.118,-0.190,-0.110
4.120,-0.190,-0.110
4.122,-0.240,-0.100
4.124,-0.190,-0.085
4.126,-0.170,-0.070
4.128,-0.170,-0.060
4.130,-0.180,-0.055
4.132,-0.190,-0.050
4.134,-0.190,-0.055
4.136,-0.170,-0.060
4.138,-0.135,-0.070
4.140,-0.135,-0.075
4.142,-0.210,-0.080
4.144,-0.210,-0.080
4.146,-0.130,-0.075
4.148,-0.145,-0.065
4.150,-0.165,-0.060
4.152,-0.185,-0.055
4.154,-0.200,-0.050
4.156,-0.175,-0.050
4.158,-0.150,-0.050
4.160,-0.145,-0.055
4.162,-0.125,-0.055
4.164,-0.100,-0.060
4.166,-0.140,-0.060
4.168,-0.150,-0.060
4.170,-0.160,-0.050
4.172,-0.165,-0.040
4.174,-0.150,-0.030
4.176,-0.090,-0.015
4.178,-0.065,0.000
4.180,-0.090,0.010
4.182,-0.100,0.020
4.184,-0.035,0.025
4.186,-0.095,0.025
4.188,-0.115,0.025
4.190,-0.115,0.020
4.192,-0.085,0.015
4.194,-0.090,0.015
4.196,-0.055,0.015
4.198,-0.065,0.015
4.200,-0.050,0.025
4.202,-0.045,0.035
4.204,-0.080,0.045
4.206,-0.060,0.060
4.208,-0.020,0.070
4.210,-0.005,0.080
4.212,-0.020,0.090
4.214,-0.030,0.095
4.216,-0.005,0.100
4.218,0.035,0.105
4.220,0.010,0.105
4.222,0.030,0.115
4.224,0.015,0.120
4.226,-0.010,0.125
4.228,0.015,0.135
4.230,0.035,0.145
4.232,0.085,0.155
4.234,0.055,0.165
4.236,0.095,0.180
4.238,0.145,0.195
4.240,0.170,0.210
4.242,0.100,0.225
4.244,0.125,0.240
4.246,0.175,0.250
4.248,0.140,0.255
4.250,0.140,0.260
4.252,0.130,0.255
4.254,0.105,0.245
4.256,0.155,0.240
4.258,0.190,0.235
4.260,0.155,0.230
4.262,0.150,0.230
4.264,0.165,0.235
4.266,0.140,0.245
4.268,0.140,0.255
4.270,0.130,0.260
4.272,0.135,0.260
4.274,0.165,0.255
4.276,0.155,0.240
4.278,0.120,0.225
4.280,0.110,0.205
4.282,0.105,0.185
4.284,0.050,0.165
4.286,0.020,0.155
4.288,0.020,0.145
4.290,0.015,0.135
4.292,0.010,0.125
4.294,0.005,0.115
4.296,0.020,0.100
4.298,0.010,0.085
4.300,-0.050,0.060
4.302,-0.040,0.040
4.304,-0.095,0.015
4.306,-0.140,0.000
4.308,-0.125,-0.015
4.310,-0.140,-0.020
4.312,-0.140,-0.025
4.314,-0.095,-0.025
4.316,-0.090,-0.020
4.318,-0.100,-0.020
4.320,-0.135,-0.025
4.322,-0.140,-0.030
4.324,-0.135,-0.035
4.326,-0.135,-0.050
4.328,-0.180,-0.060
4.330,-0.210,-0.070
4.332,-0.225,-0.080
4.334,-0.175,-0.085
4.336,-0.170,-0.090
4.338,-0.180,-0.090
4.340,-0.205,-0.095
4.342,-0.200,-0.095
4.344,-0.205,-0.095
4.346,-0.190,-0.095
4.348,-0.150,-0.095
4.350,-0.185,-0.095
4.352,-0.170,-0.095
4.354,-0.160,-0.095
4.356,-0.210,-0.090
4.358,-0.200,-0.090
4.360,-0.155,-0.090
4.362,-0.170,-0.090
4.364,-0.220,-0.095
4.366,-0.220,-0.095
4.368,-0.215,-0.095
4.370,-0.175,-0.100
4.372,-0.175,-0.100
4.374,-0.195,-0.100
4.376,-0.230,-0.100
4.378,-0.250,-0.100
4.380,-0.190,-0.095
4.382,-0.150,-0.095
4.384,-0.185,-0.090
4.386,-0.205,-0.090
4.388,-0.155,-0.085
4.390,-0.140,-0.085
4.392,-0.180,-0.080
4.394,-0.160,-0.080
4.396,-0.185,-0.080
4.398,-0.195,-0.080
4.400,-0.165,-0.085
4.402,-0.155,-0.090
4.404,-0.220,-0.095
4.406,-0.220,-0.100
4.408,-0.225,-0.100
4.410,-0.205,-0.105
4.412,-0.220,-0.100
4.414,-0.160,-0.095
4.416,-0.135,-0.090
4.418,-0.135,-0.080
4.420,-0.185,-0.065
4.422,-0.145,-0.060
4.424,-0.190,-0.055
4.426,-0.130,-0.055
4.428,-0.145,-0.060
4.430,-0.175,-0.065
4.432,-0.205,-0.080
4.434,-0.225,-0.090
4.436,-0.200,-0.105
4.438,-0.170,-0.110
4.440,-0.180,-0.115
4.442,-0.165,-0.115
4.444,-0.200,-0.110
4.446,-0.170,-0.100
4.448,-0.190,-0.090
4.450,-0.180,-0.085
4.452,-0.170,-0.075
4.454,-0.130,-0.070
4.456,-0.145,-0.070
4.458,-0.170,-0.070
4.460,-0.135,-0.075
4.462,-0.175,-0.080
4.464,-0.220,-0.080
4.466,-0.190,-0.080
4.468,-0.155,-0.080
4.470,-0.155,-0.080
4.472,-0.185,-0.075
4.474,-0.150,-0.075
4.476,-0.155,-0.070
4.478,-0.175,-0.070
4.480,-0.135,-0.070
4.482,-0.165,-0.075
4.484,-0.200,-0.075
4.486,-0.175,-0.075
4.488,-0.185,-0.075
4.490,-0.175,-0.075
4.492,-0.180,-0.070
4.494,-0.175,-0.070
4.496,-0.130,-0.065
4.498,-0.130,-0.070
4.500,-0.160,-0.070
4.502,-0.165,-0.080
4.504,-0.205,-0.085
4.506,-0.185,-0.095
4.508,-0.150,-0.100
4.510,-0.200,-0.105
4.512,-0.190,-0.105
4.514,-0.135,-0.100
4.516,-0.180,-0.090
4.518,-0.155,-0.080
4.520,-0.155,-0.070
4.522,-0.160,-0.065
4.524,-0.170,-0.060
4.526,-0.150,-0.065
4.528,-0.165,-0.070
4.530,-0.195,-0.075
4.532,-0.150,-0.085
4.534,-0.145,-0.090
4.536,-0.185,-0.090
4.538,-0.175,-0.095
4.540,-0.175,-0.090
4.542,-0.150,-0.085
4.544,-0.150,-0.085
4.546,-0.165,-0.080
4.548,-0.170,-0.075
4.550,-0.160,-0.075
4.552,-0.160,-0.075
4.554,-0.145,-0.075
4.556,-0.160,-0.075
4.558,-0.165,-0.075
4.560,-0.175,-0.075
4.562,-0.200,-0.075
4.564,-0.175,-0.075
4.566,-0.165,-0.080
4.568,-0.150,-0.090
4.570,-0.200,-0.095
4.572,-0.190,-0.105
4.574,-0.145,-0.110
4.576,-0.185,-0.110
4.578,-0.190,-0.110
4.580,-0.150,-0.100
4.582,-0.180,-0.095
4.584,-0.160,-0.085
4.586,-0.160,-0.080
4.588,-0.170,-0.075
4.590,-0.170,-0.075
4.592,-0.140,-0.075
4.594,-0.165,-0.080
4.596,-0.175,-0.085
4.598,-0.220,-0.090
4.600,-0.160,-0.090
4.602,-0.150,-0.095
4.604,-0.155,-0.095
4.606,-0.145,-0.090
4.608,-0.115,-0.090
4.610,-0.180,-0.085
4.612,-0.180,-0.085
4.614,-0.145,-0.080
4.616,-0.120,-0.080
4.618,-0.175,-0.070
4.620,-0.170,-0.065
4.622,-0.075,-0.055
4.624,-0.100,-0.045
4.626,-0.160,-0.040
4.628,-0.105,-0.035
4.630,-0.110,-0.030
4.632,-0.155,-0.035
4.634,-0.120,-0.040
4.636,-0.095,-0.045
4.638,-0.105,-0.050
4.640,-0.115,-0.055
4.642,-0.105,-0.055
4.644,-0.145,-0.055
4.646,-0.150,-0.050
4.648,-0.120,-0.050
4.650,-0.115,-0.050
4.652,-0.130,-0.050
4.654,-0.150,-0.055
4.656,-0.185,-0.065
4.658,-0.165,-0.070
4.660,-0.120,-0.080
4.662,-0.095,-0.085
4.664,-0.135,-0.080
4.666,-0.145,-0.075
4.668,-0.115,-0.065
4.670,-0.075,-0.050
4.672,-0.090,-0.035
4.674,-0.125,-0.025
4.676,-0.110,-0.025
4.678,-0.130,-0.030
4.680,-0.140,-0.040
4.682,-0.150,-0.060
4.684,-0.160,-0.080
4.686,-0.175,-0.100
4.688,-0.150,-0.115
4.690,-0.210,-0.125
4.692,-0.260,-0.130
4.694,-0.170,-0.125
4.696,-0.145,-0.120
4.698,-0.175,-0.115
4.700,-0.220,-0.110
4.702,-0.180,-0.105
4.704,-0.185,-0.110
4.706,-0.175,-0.110
4.708,-0.170,-0.120
4.710,-0.220,-0.125
4.712,-0.200,-0.130
4.714,-0.190,-0.135
4.716,-0.210,-0.135
4.718,-0.205,-0.130
4.720,-0.150,-0.125
4.722,-0.160,-0.120
4.724,-0.180,-0.110
4.726,-0.185,-0.110
4.728,-0.175,-0.110
4.730,-0.215,-0.125
4.732,-0.195,-0.140
4.734,-0.240,-0.170
4.736,-0.275,-0.200
4.738,-0.310,-0.235
4.740,-0.315,-0.270
4.742,-0.395,-0.295
4.744,-0.415,-0.305
4.746,-0.360,-0.295
4.748,-0.335,-0.260
4.750,-0.295,-0.200
4.752,-0.165,-0.120
4.754,-0.020,-0.020
4.756,0.075,0.090
4.758,0.120,0.215
4.760,0.285,0.345
4.762,0.430,0.485
4.764,0.580,0.635
4.766,0.760,0.790
4.768,0.885,0.955
4.770,1.030,1.120
4.772,1.305,1.280
4.774,1.450,1.420
4.776,1.485,1.520
4.778,1.580,1.570
4.780,1.605,1.555
4.782,1.510,1.465
4.784,1.275,1.305
4.786,1.060,1.095
4.788,0.790,0.845
4.790,0.400,0.585
4.792,0.115,0.340
4.794,-0.020,0.135
4.796,-0.140,-0.020
4.798,-0.160,-0.120
4.800,-0.185,-0.170
4.802,-0.190,-0.180
4.804,-0.205,-0.165
4.806,-0.210,-0.140
4.808,-0.240,-0.120
4.810,-0.210,-0.110
4.812,-0.195,-0.105
4.814,-0.205,-0.115
4.816,-0.200,-0.125
4.818,-0.205,-0.130
4.820,-0.155,-0.135
4.822,-0.155,-0.125
4.824,-0.130,-0.115
4.826,-0.155,-0.095
4.828,-0.130,-0.085
4.830,-0.155,-0.075
4.832,-0.150,-0.070
4.834,-0.160,-0.075
4.836,-0.170,-0.085
4.838,-0.130,-0.095
4.840,-0.095,-0.105
4.842,-0.170,-0.110
4.844,-0.160,-0.105
4.846,-0.120,-0.100
4.848,-0.125,-0.090
4.850,-0.165,-0.080
4.852,-0.190,-0.075
4.854,-0.140,-0.070
4.856,-0.145,-0.070
4.858,-0.135,-0.075
4.860,-0.160,-0.080
4.862,-0.160,-0.085
4.864,-0.120,-0.090
4.866,-0.130,-0.095
4.868,-0.130,-0.090
4.870,-0.135,-0.085
4.872,-0.090,-0.075
4.874,-0.130,-0.065
4.876,-0.165,-0.060
4.878,-0.125,-0.055
4.880,-0.085,-0.050
4.882,-0.100,-0.055
4.884,-0.110,-0.055
4.886,-0.115,-0.060
4.888,-0.110,-0.065
4.890,-0.115,-0.065
4.892,-0.115,-0.060
4.894,-0.075,-0.050
4.896,-0.095,-0.040
4.898,-0.075,-0.030
4.900,-0.075,-0.025
4.902,-0.085,-0.015
4.904,-0.060,-0.015
4.906,-0.060,-0.015
4.908,-0.100,-0.020
4.910,-0.080,-0.025
4.912,-0.090,-0.030
4.914,-0.070,-0.030
4.916,-0.040,-0.030
4.918,-0.015,-0.020
4.920,-0.010,-0.010
4.922,0.005,0.005
4.924,-0.035,0.020
4.926,-0.030,0.035
4.928,-0.020,0.050
4.930,0.010,0.060
4.932,0.015,0.065
4.934,0.005,0.070
4.936,0.010,0.070
4.938,0.050,0.075
4.940,0.070,0.080
4.942,0.085,0.090
4.944,0.075,0.100
4.946,0.095,0.115
4.948,0.070,0.130
4.950,0.030,0.145
4.952,0.095,0.155
4.954,0.085,0.160
4.956,0.145,0.165
4.958,0.155,0.170
4.960,0.090,0.170
4.962,0.155,0.175
4.964,0.200,0.180
4.966,0.195,0.185
4.968,0.140,0.195
4.970,0.165,0.210
4.972,0.195,0.225
4.974,0.190,0.240
4.976,0.185,0.255
4.978,0.230,0.265
4.980,0.240,0.265
4.982,0.235,0.265
4.984,0.205,0.260
4.986,0.230,0.250
4.988,0.180,0.240
4.990,0.155,0.230
4.992,0.195,0.220
4.994,0.165,0.215
4.996,0.155,0.210
4.998,0.170,0.205
5.000,0.185,0.200
5.002,0.190,0.195
5.004,0.145,0.190
5.006,0.145,0.180
5.008,0.140,0.165
5.010,0.140,0.150
5.012,0.105,0.130
5.014,0.040,0.110
5.016,0.005,0.085
5.018,0.025,0.070
5.020,-0.010,0.050
5.022,0.005,0.040
5.024,0.020,0.030
5.026,-0.010,0.020
5.028,-0.045,0.020
5.030,-0.030,0.015
5.032,0.005,0.005
5.034,-0.020,0.000
5.036,-0.075,-0.010
5.038,-0.080,-0.020
5.040,-0.100,-0.035
5.042,-0.130,-0.050
5.044,-0.095,-0.065
5.046,-0.100,-0.075
5.048,-0.135,-0.085
5.050,-0.135,-0.095
5.052,-0.145,-0.100
5.054,-0.130,-0.105
5.056,-0.110,-0.110
5.058,-0.155,-0.110
5.060,-0.135,-0.110
5.062,-0.105,-0.110
5.064,-0.150,-0.110
5.066,-0.140,-0.110
5.068,-0.125,-0.110
5.070,-0.115,-0.110
5.072,-0.115,-0.105
5.074,-0.120,-0.105
5.076,-0.125,-0.100
5.078,-0.140,-0.100
5.080,-0.150,-0.105
5.082,-0.140,-0.105
5.084,-0.135,-0.110
5.086,-0.085,-0.110
5.088,-0.165,-0.115
5.090,-0.155,-0.120
5.092,-0.130,-0.120
5.094,-0.135,-0.120
5.096,-0.135,-0.120
5.098,-0.110,-0.120
5.100,-0.160,-0.115
5.102,-0.155,-0.115
5.104,-0.160,-0.115
5.106,-0.115,-0.110
5.108,-0.160,-0.110
5.110,-0.165,-0.115
5.112,-0.145,-0.115
5.114,-0.140,-0.115
5.116,-0.120,-0.120
5.118,-0.115,-0.120
5.120,-0.165,-0.120
5.122,-0.160,-0.120
5.124,-0.145,-0.120
5.126,-0.145,-0.120
5.128,-0.155,-0.115
5.130,-0.120,-0.110
5.132,-0.135,-0.110
5.134,-0.155,-0.105
5.136,-0.140,-0.105
5.138,-0.135,-0.105
5.140,-0.135,-0.110
5.142,-0.115,-0.110
5.144,-0.135,-0.115
5.146,-0.130,-0.115
5.148,-0.150,-0.115
5.150,-0.140,-0.120
5.152,-0.110,-0.120
5.154,-0.145,-0.120
5.156,-0.125,-0.120
5.158,-0.105,-0.120
5.160,-0.145,-0.125
5.162,-0.190,-0.125
5.164,-0.160,-0.120
5.166,-0.115,-0.120
5.168,-0.150,-0.115
5.170,-0.120,-0.110
5.172,-0.115,-0.105
5.174,-0.135,-0.100
5.176,-0.105,-0.100
5.178,-0.085,-0.100
5.180,-0.135,-0.105
5.182,-0.120,-0.110
5.184,-0.155,-0.115
5.186,-0.145,-0.115
5.188,-0.095,-0.115
5.190,-0.110,-0.115
5.192,-0.180,-0.110
5.194,-0.125,-0.105
5.196,-0.095,-0.100
5.198,-0.080,-0.100
5.200,-0.110,-0.095
5.202,-0.135,-0.100
5.204,-0.120,-0.100
5.206,-0.135,-0.110
5.208,-0.145,-0.115
5.210,-0.140,-0.115
5.212,-0.120,-0.120
5.214,-0.140,-0.120
5.216,-0.115,-0.120
5.218,-0.120,-0.120
5.220,-0.145,-0.120
5.222,-0.135,-0.120
5.224,-0.120,-0.120
5.226,-0.150,-0.125
5.228,-0.140,-0.125
5.230,-0.110,-0.125
5.232,-0.135,-0.120
5.234,-0.145,-0.115
5.236,-0.120,-0.105
5.238,-0.095,-0.100
5.240,-0.115,-0.100
5.242,-0.125,-0.100
5.244,-0.115,-0.105
5.246,-0.130,-0.115
5.248,-0.120,-0.125
5.250,-0.165,-0.135
5.252,-0.140,-0.140
5.254,-0.160,-0.145
5.256,-0.155,-0.140
5.258,-0.165,-0.130
5.260,-0.110,-0.115
5.262,-0.090,-0.100
5.264,-0.090,-0.090
5.266,-0.070,-0.085
5.268,-0.100,-0.080
5.270,-0.100,-0.080
5.272,-0.145,-0.085
5.274,-0.145,-0.090
5.276,-0.090,-0.095
5.278,-0.095,-0.100
5.280,-0.090,-0.095
5.282,-0.070,-0.090
5.284,-0.065,-0.085
5.286,-0.085,-0.075
5.288,-0.100,-0.070
5.290,-0.120,-0.070
5.292,-0.135,-0.075
5.294,-0.130,-0.080
5.296,-0.105,-0.090
5.298,-0.095,-0.095
5.300,-0.095,-0.095
5.302,-0.120,-0.095
5.304,-0.080,-0.085
5.306,-0.050,-0.070
5.308,-0.030,-0.055
5.310,-0.005,-0.040
5.312,-0.025,-0.030
5.314,-0.065,-0.025
5.316,-0.065,-0.030
5.318,-0.060,-0.040
5.320,-0.055,-0.055
5.322,-0.095,-0.070
5.324,-0.060,-0.085
5.326,-0.105,-0.100
5.328,-0.130,-0.110
5.330,-0.130,-0.110
5.332,-0.105,-0.105
5.334,-0.080,-0.095
5.336,-0.035,-0.085
5.338,-0.080,-0.075
5.340,-0.060,-0.070
5.342,-0.050,-0.065
5.344,-0.080,-0.065
5.346,-0.125,-0.070
5.348,-0.100,-0.075
5.350,-0.090,-0.080
5.352,-0.110,-0.085
5.354,-0.105,-0.090
5.356,-0.080,-0.095
5.358,-0.090,-0.095
5.360,-0.080,-0.100
5.362,-0.115,-0.105
5.364,-0.125,-0.115
5.366,-0.150,-0.120
5.368,-0.155,-0.125
5.370,-0.160,-0.130
5.372,-0.130,-0.130
5.374,-0.140,-0.135
5.376,-0.095,-0.130
5.378,-0.120,-0.130
5.380,-0.110,-0.130
5.382,-0.145,-0.130
5.384,-0.115,-0.135
5.386,-0.145,-0.135
5.388,-0.215,-0.135
5.390,-0.175,-0.135
5.392,-0.120,-0.130
5.394,-0.075,-0.125
5.396,-0.055,-0.120
5.398,-0.100,-0.110
5.400,-0.130,-0.115
5.402,-0.120,-0.125
5.404,-0.175,-0.150
5.406,-0.260,-0.185
5.408,-0.270,-0.225
5.410,-0.290,-0.270
5.412,-0.300,-0.310
5.414,-0.365,-0.330
5.416,-0.370,-0.330
5.418,-0.330,-0.305
5.420,-0.270,-0.245
5.422,-0.090,-0.165
5.424,-0.020,-0.060
5.426,0.055,0.060
5.428,0.185,0.190
5.430,0.300,0.325
5.432,0.445,0.470
5.434,0.635,0.620
5.436,0.845,0.780
5.438,0.995,0.950
5.440,1.105,1.125
5.442,1.375,1.290
5.444,1.515,1.435
5.446,1.575,1.540
5.448,1.665,1.590
5.450,1.660,1.575
5.452,1.535,1.485
5.454,1.365,1.330
5.456,1.190,1.115
5.458,0.945,0.875
5.460,0.530,0.620
5.462,0.210,0.385
5.464,0.040,0.185
5.466,-0.010,0.035
5.468,-0.095,-0.065
5.470,-0.100,-0.120
5.472,-0.135,-0.140
5.474,-0.115,-0.135
5.476,-0.135,-0.125
5.478,-0.150,-0.115
5.480,-0.165,-0.115
5.482,-0.120,-0.120
5.484,-0.135,-0.125
5.486,-0.140,-0.135
5.488,-0.130,-0.145
5.490,-0.105,-0.145
5.492,-0.120,-0.145
5.494,-0.145,-0.135
5.496,-0.115,-0.125
5.498,-0.095,-0.120
5.500,-0.135,-0.115
5.502,-0.135,-0.110
5.504,-0.145,-0.110
5.506,-0.110,-0.110
5.508,-0.115,-0.110
5.510,-0.115,-0.110
5.512,-0.115,-0.105
5.514,-0.095,-0.100
5.516,-0.080,-0.095
5.518,-0.095,-0.090
5.520,-0.090,-0.085
5.522,-0.030,-0.085
5.524,-0.055,-0.085
5.526,-0.085,-0.085
5.528,-0.100,-0.090
5.530,-0.130,-0.090
5.532,-0.160,-0.095
5.534,-0.085,-0.100
5.536,-0.085,-0.105
5.538,-0.090,-0.105
5.540,-0.105,-0.110
5.542,-0.095,-0.105
5.544,-0.110,-0.105
5.546,-0.080,-0.100
5.548,-0.110,-0.090
5.550,-0.070,-0.080
5.552,-0.080,-0.070
5.554,-0.045,-0.060
5.556,-0.040,-0.055
5.558,-0.065,-0.055
5.560,-0.070,-0.055
5.562,-0.050,-0.060
5.564,-0.075,-0.060
5.566,-0.045,-0.065
5.568,-0.070,-0.065
5.570,-0.035,-0.060
5.572,-0.050,-0.055
5.574,-0.015,-0.045
5.576,0.015,-0.030
5.578,-0.030,-0.020
5.580,-0.015,-0.010
5.582,0.025,-0.005
5.584,0.000,0.000
5.586,-0.025,0.000
5.588,0.005,0.000
5.590,0.020,0.005
5.592,0.070,0.005
5.594,0.095,0.010
5.596,0.010,0.015
5.598,0.000,0.025
5.600,0.040,0.035
5.602,0.095,0.040
5.604,0.050,0.045
5.606,0.045,0.050
5.608,0.070,0.055
5.610,0.085,0.060
5.612,0.110,0.070
5.614,0.135,0.080
5.616,0.135,0.090
5.618,0.115,0.105
5.620,0.135,0.120
5.622,0.135,0.140
5.624,0.140,0.150
5.626,0.200,0.160
5.628,0.185,0.170
5.630,0.195,0.175
5.632,0.175,0.175
5.634,0.210,0.175
5.636,0.210,0.180
5.638,0.205,0.180
5.640,0.220,0.180
5.642,0.220,0.185
5.644,0.215,0.195
5.646,0.240,0.200
5.648,0.245,0.210
5.650,0.240,0.215
5.652,0.215,0.225
5.654,0.215,0.230
5.656,0.245,0.235
5.658,0.280,0.235
5.660,0.275,0.235
5.662,0.235,0.230
5.664,0.190,0.225
5.666,0.210,0.215
5.668,0.230,0.205
5.670,0.180,0.190
5.672,0.170,0.175
5.674,0.215,0.160
5.676,0.150,0.145
5.678,0.120,0.130
5.680,0.130,0.115
5.682,0.130,0.100
5.684,0.080,0.085
5.686,0.065,0.070
5.688,0.040,0.055
5.690,0.040,0.045
5.692,0.025,0.035
5.694,0.025,0.025
5.696,0.030,0.015
5.698,0.015,0.005
5.700,0.020,-0.005
5.702,0.015,-0.015
5.704,-0.035,-0.025
5.706,-0.060,-0.035
5.708,-0.065,-0.050
5.710,-0.070,-0.055
5.712,-0.060,-0.065
5.714,-0.020,-0.070
5.716,-0.045,-0.075
5.718,-0.055,-0.075
5.720,-0.075,-0.080
5.722,-0.125,-0.080
5.724,-0.120,-0.080
5.726,-0.065,-0.085
5.728,-0.060,-0.085
5.730,-0.090,-0.090
5.732,-0.080,-0.095
5.734,-0.110,-0.095
5.736,-0.105,-0.095
5.738,-0.050,-0.095
5.740,-0.060,-0.090
5.742,-0.100,-0.090
5.744,-0.085,-0.090
5.746,-0.090,-0.090
5.748,-0.100,-0.090
5.750,-0.085,-0.090
5.752,-0.110,-0.090
5.754,-0.055,-0.095
5.756,-0.065,-0.095
5.758,-0.105,-0.095
5.760,-0.080,-0.100
5.762,-0.105,-0.100
5.764,-0.090,-0.100
5.766,-0.045,-0.100
5.768,-0.110,-0.105
5.770,-0.095,-0.105
5.772,-0.085,-0.105
5.774,-0.070,-0.105
5.776,-0.075,-0.105
5.778,-0.105,-0.100
5.780,-0.090,-0.095
5.782,-0.085,-0.095
5.784,-0.115,-0.090
5.786,-0.070,-0.090
5.788,-0.075,-0.090
5.790,-0.090,-0.095
5.792,-0.080,-0.100
5.794,-0.095,-0.105
5.796,-0.105,-0.110
5.798,-0.115,-0.115
5.800,-0.075,-0.115
5.802,-0.130,-0.115
5.804,-0.100,-0.115
5.806,-0.125,-0.115
5.808,-0.080,-0.115
5.810,-0.075,-0.110
5.812,-0.055,-0.105
5.814,-0.070,-0.105
5.816,-0.125,-0.100
5.818,-0.115,-0.095
5.820,-0.085,-0.095
5.822,-0.105,-0.090
5.824,-0.105,-0.095
5.826,-0.065,-0.095
5.828,-0.065,-0.100
5.830,-0.105,-0.100
5.832,-0.100,-0.105
5.834,-0.090,-0.105
5.836,-0.075,-0.105
5.838,-0.080,-0.105
5.840,-0.050,-0.100
5.842,-0.095,-0.095
5.844,-0.100,-0.090
5.846,-0.085,-0.085
5.848,-0.105,-0.085
5.850,-0.105,-0.085
5.852,-0.060,-0.085
5.854,-0.030,-0.090
5.856,-0.065,-0.095
5.858,-0.060,-0.095
5.860,-0.065,-0.090
5.862,-0.085,-0.090
5.864,-0.070,-0.080
5.866,-0.100,-0.075
5.868,-0.130,-0.075
5.870,-0.100,-0.075
5.872,-0.015,-0.075
5.874,-0.025,-0.080
5.876,-0.025,-0.085
5.878,-0.125,-0.090
5.880,-0.130,-0.095
5.882,-0.075,-0.095
5.884,-0.065,-0.090
5.886,-0.035,-0.090
5.888,-0.025,-0.080
5.890,-0.060,-0.075
5.892,-0.060,-0.070
5.894,-0.060,-0.070
5.896,-0.070,-0.070
5.898,-0.070,-0.070
5.900,-0.075,-0.075
5.902,-0.090,-0.080
5.904,-0.130,-0.085
5.906,-0.095,-0.090
5.908,-0.105,-0.090
5.910,-0.055,-0.090
5.912,0.015,-0.085
5.914,-0.065,-0.080
5.916,-0.085,-0.075
5.918,-0.065,-0.065
5.920,-0.045,-0.060
5.922,-0.075,-0.060
5.924,-0.055,-0.060
5.926,-0.080,-0.065
5.928,-0.080,-0.070
5.930,-0.060,-0.080
5.932,-0.030,-0.090
5.934,-0.060,-0.100
5.936,-0.110,-0.105
5.938,-0.105,-0.105
5.940,-0.110,-0.105
5.942,-0.100,-0.100
5.944,-0.050,-0.095
5.946,-0.065,-0.085
5.948,-0.080,-0.080
5.950,-0.085,-0.075
5.952,-0.050,-0.075
5.954,-0.075,-0.075
5.956,-0.065,-0.075
5.958,-0.035,-0.080
5.960,-0.050,-0.085
5.962,-0.090,-0.085
5.964,-0.140,-0.085
5.966,-0.105,-0.085
5.968,-0.070,-0.080
5.970,-0.075,-0.075
5.972,-0.070,-0.070
5.974,-0.030,-0.070
5.976,-0.050,-0.065
5.978,-0.050,-0.065
5.980,-0.070,-0.070
5.982,-0.060,-0.070
5.984,-0.015,-0.075
5.986,-0.055,-0.080
5.988,-0.160,-0.085
5.990,-0.120,-0.090
5.992,-0.095,-0.090
5.994,-0.040,-0.095
5.996,-0.040,-0.095
5.998,-0.040,-0.090
6.000,-0.050,-0.085
6.002,-0.050,-0.075
6.004,-0.060,-0.065
6.006,-0.040,-0.055
6.008,-0.045,-0.045
6.010,-0.065,-0.035
6.012,-0.005,-0.030
6.014,-0.015,-0.025
6.016,-0.035,-0.020
6.018,-0.005,-0.020
6.020,-0.020,-0.025
6.022,-0.045,-0.025
6.024,-0.005,-0.030
6.026,-0.030,-0.035
6.028,-0.070,-0.035
6.030,-0.035,-0.040
6.032,-0.025,-0.040
6.034,-0.025,-0.040
6.036,-0.010,-0.045
6.038,0.025,-0.045
6.040,-0.055,-0.045
6.042,-0.080,-0.040
6.044,-0.030,-0.040
6.046,-0.035,-0.035
6.048,-0.075,-0.035
6.050,-0.015,-0.035
6.052,-0.020,-0.035
6.054,-0.020,-0.040
6.056,-0.050,-0.050
6.058,-0.085,-0.055
6.060,-0.110,-0.065
6.062,-0.095,-0.075
6.064,-0.080,-0.085
6.066,-0.105,-0.090
6.068,-0.110,-0.095
6.070,-0.085,-0.095
6.072,-0.025,-0.095
6.074,-0.040,-0.100
6.076,-0.175,-0.100
6.078,-0.105,-0.105
6.080,-0.070,-0.110
6.082,-0.135,-0.115
6.084,-0.130,-0.120
6.086,-0.130,-0.120
6.088,-0.120,-0.120
6.090,-0.085,-0.115
6.092,-0.055,-0.110
6.094,-0.085,-0.110
6.096,-0.110,-0.105
6.098,-0.115,-0.105
6.100,-0.120,-0.105
6.102,-0.120,-0.105
6.104,-0.130,-0.105
6.106,-0.130,-0.105
6.108,-0.095,-0.105
6.110,-0.085,-0.105
6.112,-0.110,-0.110
6.114,-0.135,-0.120
6.116,-0.150,-0.140
6.118,-0.165,-0.165
6.120,-0.205,-0.200
6.122,-0.235,-0.235
6.124,-0.310,-0.260
6.126,-0.325,-0.275
6.128,-0.295,-0.270
6.130,-0.250,-0.240
6.132,-0.135,-0.185
6.134,-0.100,-0.100
6.136,0.055,0.005
6.138,0.160,0.130
6.140,0.240,0.270
6.142,0.385,0.415
6.144,0.590,0.565
6.146,0.715,0.725
6.148,0.935,0.890
6.150,1.060,1.060
6.152,1.285,1.225
6.154,1.440,1.380
6.156,1.575,1.510
6.158,1.660,1.595
6.160,1.690,1.625
6.162,1.635,1.585
6.164,1.560,1.475
6.166,1.315,1.300
6.168,1.095,1.075
6.170,0.785,0.825
6.172,0.475,0.570
6.174,0.225,0.335
6.176,0.060,0.145
6.178,-0.025,0.005
6.180,-0.105,-0.085
6.182,-0.110,-0.125
6.184,-0.110,-0.135
6.186,-0.135,-0.125
6.188,-0.155,-0.110
6.190,-0.130,-0.100
6.192,-0.115,-0.095
6.194,-0.165,-0.095
6.196,-0.080,-0.100
6.198,-0.035,-0.105
6.200,-0.070,-0.100
6.202,-0.075,-0.090
6.204,-0.040,-0.075
6.206,-0.070,-0.060
6.208,-0.115,-0.050
6.210,-0.085,-0.045
6.212,-0.075,-0.045
6.214,-0.065,-0.055
6.216,-0.075,-0.070
6.218,-0.055,-0.085
6.220,-0.110,-0.095
6.222,-0.125,-0.100
6.224,-0.090,-0.100
6.226,-0.105,-0.095
6.228,-0.100,-0.085
6.230,-0.060,-0.075
6.232,-0.030,-0.070
6.234,-0.060,-0.065
6.236,-0.095,-0.070
6.238,-0.075,-0.075
6.240,-0.080,-0.075
6.242,-0.075,-0.080
6.244,-0.090,-0.080
6.246,-0.105,-0.080
6.248,-0.075,-0.070
6.250,-0.040,-0.065
6.252,-0.020,-0.055
6.254,-0.050,-0.045
6.256,-0.045,-0.040
6.258,-0.060,-0.040
6.260,-0.040,-0.040
6.262,-0.030,-0.040
6.264,-0.030,-0.045
6.266,-0.050,-0.050
6.268,-0.050,-0.050
6.270,-0.035,-0.050
6.272,-0.025,-0.045
6.274,-0.045,-0.040
6.276,-0.035,-0.035
6.278,-0.050,-0.025
6.280,-0.080,-0.020
6.282,-0.030,-0.015
6.284,0.005,-0.010
6.286,0.005,-0.005
6.288,0.030,0.000
6.290,0.010,0.005
6.292,-0.020,0.010
6.294,-0.030,0.015
6.296,0.035,0.020
6.298,0.025,0.025
6.300,0.055,0.035
6.302,0.055,0.040
6.304,0.045,0.045
6.306,0.010,0.050
6.308,0.015,0.055
6.310,0.070,0.060
6.312,0.070,0.065
6.314,0.035,0.070
6.316,0.080,0.075
6.318,0.075,0.085
6.320,0.095,0.090
6.322,0.095,0.100
6.324,0.095,0.115
6.326,0.115,0.125
6.328,0.155,0.140
6.330,0.185,0.150
6.332,0.180,0.165
6.334,0.200,0.175
6.336,0.180,0.185
6.338,0.160,0.190
6.340,0.160,0.195
6.342,0.175,0.200
6.344,0.215,0.200
6.346,0.200,0.205
6.348,0.195,0.210
6.350,0.240,0.215
6.352,0.195,0.225
6.354,0.240,0.235
6.356,0.245,0.250
6.358,0.230,0.260
6.360,0.280,0.270
6.362,0.255,0.275
6.364,0.245,0.275
6.366,0.235,0.275
6.368,0.245,0.265
6.370,0.250,0.255
6.372,0.225,0.245
6.374,0.225,0.235
6.376,0.230,0.225
6.378,0.185,0.215
6.380,0.170,0.210
6.382,0.190,0.200
6.384,0.170,0.195
6.386,0.165,0.185
6.388,0.140,0.170
6.390,0.155,0.155
6.392,0.125,0.140
6.394,0.085,0.125
6.396,0.120,0.105
6.398,0.065,0.090
6.400,0.030,0.080
6.402,0.020,0.070
6.404,0.060,0.060
6.406,0.015,0.050
6.408,0.065,0.045
6.410,0.020,0.035
6.412,0.055,0.025
6.414,-0.015,0.015
6.416,-0.050,0.000
6.418,-0.020,-0.015
6.420,-0.045,-0.030
6.422,-0.100,-0.040
6.424,-0.080,-0.050
6.426,-0.055,-0.055
6.428,-0.060,-0.060
6.430,-0.065,-0.060
6.432,-0.065,-0.060
6.434,-0.075,-0.055
6.436,-0.050,-0.055
6.438,-0.080,-0.055
6.440,-0.085,-0.055
6.442,-0.095,-0.055
6.444,-0.105,-0.060
6.446,-0.115,-0.065
6.448,-0.035,-0.070
6.450,-0.090,-0.080
6.452,-0.125,-0.085
6.454,-0.120,-0.095
6.456,-0.120,-0.100
6.458,-0.105,-0.100
6.460,-0.095,-0.100
6.462,-0.100,-0.100
6.464,-0.100,-0.090
6.466,-0.090,-0.085
6.468,-0.100,-0.080
6.470,-0.095,-0.075
6.472,-0.075,-0.075
6.474,-0.090,-0.075
6.476,-0.120,-0.080
6.478,-0.110,-0.090
6.480,-0.090,-0.100
6.482,-0.130,-0.110
6.484,-0.120,-0.115
6.486,-0.110,-0.120
6.488,-0.105,-0.115
6.490,-0.130,-0.110
6.492,-0.175,-0.100
6.494,-0.100,-0.090
6.496,-0.080,-0.080
6.498,-0.115,-0.075
6.500,-0.075,-0.075
6.502,-0.095,-0.075
6.504,-0.100,-0.080
6.506,-0.130,-0.085
6.508,-0.100,-0.090
6.510,-0.090,-0.095
6.512,-0.125,-0.095
6.514,-0.140,-0.090
6.516,-0.100,-0.085
6.518,-0.105,-0.080
6.520,-0.075,-0.075
6.522,-0.085,-0.070
6.524,-0.115,-0.070
6.526,-0.105,-0.075
6.528,-0.065,-0.080
6.530,-0.120,-0.085
6.532,-0.080,-0.090
6.534,-0.105,-0.095
6.536,-0.115,-0.095
6.538,-0.100,-0.090
6.540,-0.110,-0.090
6.542,-0.115,-0.085
6.544,-0.120,-0.080
6.546,-0.095,-0.080
6.548,-0.080,-0.075
6.550,-0.080,-0.080
6.552,-0.110,-0.080
6.554,-0.095,-0.085
6.556,-0.100,-0.085
6.558,-0.120,-0.090
6.560,-0.130,-0.090
6.562,-0.130,-0.085
6.564,-0.125,-0.085
6.566,-0.095,-0.085
6.568,-0.095,-0.085
6.570,-0.115,-0.085
6.572,-0.120,-0.085
6.574,-0.115,-0.090
6.576,-0.135,-0.090
6.578,-0.160,-0.090
6.580,-0.095,-0.090
6.582,-0.085,-0.090
6.584,-0.130,-0.085
6.586,-0.135,-0.085
6.588,-0.140,-0.080
6.590,-0.130,-0.075
6.592,-0.055,-0.070
6.594,-0.075,-0.070
6.596,-0.055,-0.070
6.598,-0.070,-0.065
6.600,-0.105,-0.065
6.602,-0.115,-0.070
6.604,-0.130,-0.070
6.606,-0.115,-0.070
6.608,-0.115,-0.070
6.610,-0.090,-0.075
6.612,-0.075,-0.075
6.614,-0.065,-0.075
6.616,-0.090,-0.080
6.618,-0.130,-0.080
6.620,-0.110,-0.085
6.622,-0.115,-0.090
6.624,-0.145,-0.090
6.626,-0.125,-0.095
6.628,-0.105,-0.095
6.630,-0.090,-0.095
6.632,-0.140,-0.095
6.634,-0.110,-0.095
6.636,-0.105,-0.090
6.638,-0.115,-0.090
6.640,-0.115,-0.085
6.642,-0.125,-0.085
6.644,-0.115,-0.085
6.646,-0.080,-0.090
6.648,-0.130,-0.090
6.650,-0.145,-0.095
6.652,-0.150,-0.100
6.654,-0.090,-0.105
6.656,-0.110,-0.105
6.658,-0.145,-0.105
6.660,-0.140,-0.100
6.662,-0.130,-0.095
6.664,-0.135,-0.090
6.666,-0.095,-0.085
6.668,-0.080,-0.085
6.670,-0.125,-0.085
6.672,-0.075,-0.085
6.674,-0.080,-0.095
6.676,-0.120,-0.100
6.678,-0.185,-0.110
6.680,-0.195,-0.115
6.682,-0.160,-0.120
6.684,-0.140,-0.120
6.686,-0.070,-0.115
6.688,-0.115,-0.105
6.690,-0.105,-0.095
6.692,-0.140,-0.085
6.694,-0.090,-0.075
6.696,-0.090,-0.070
6.698,-0.115,-0.065
6.700,-0.105,-0.070
6.702,-0.100,-0.075
6.704,-0.170,-0.085
6.706,-0.155,-0.095
6.708,-0.130,-0.105
6.710,-0.130,-0.115
6.712,-0.115,-0.120
6.714,-0.115,-0.120
6.716,-0.165,-0.120
6.718,-0.130,-0.120
6.720,-0.115,-0.115
6.722,-0.185,-0.110
6.724,-0.180,-0.105
6.726,-0.125,-0.095
6.728,-0.065,-0.090
6.730,-0.085,-0.085
6.732,-0.120,-0.080
6.734,-0.105,-0.080
6.736,-0.145,-0.075
6.738,-0.120,-0.080
6.740,-0.125,-0.080
6.742,-0.115,-0.085
6.744,-0.125,-0.090
6.746,-0.100,-0.090
6.748,-0.120,-0.095
6.750,-0.145,-0.100
6.752,-0.145,-0.105
6.754,-0.130,-0.105
6.756,-0.160,-0.110
6.758,-0.120,-0.115
6.760,-0.115,-0.120
6.762,-0.180,-0.120
6.764,-0.175,-0.120
6.766,-0.165,-0.115
6.768,-0.075,-0.110
6.770,-0.075,-0.100
6.772,-0.135,-0.090
6.774,-0.120,-0.080
6.776,-0.140,-0.070
6.778,-0.115,-0.065
6.780,-0.125,-0.065
6.782,-0.125,-0.070
6.784,-0.140,-0.075
6.786,-0.120,-0.085
6.788,-0.110,-0.090
6.790,-0.130,-0.100
6.792,-0.125,-0.100
6.794,-0.110,-0.100
6.796,-0.125,-0.095
6.798,-0.130,-0.090
6.800,-0.120,-0.085
6.802,-0.140,-0.085
6.804,-0.160,-0.085
6.806,-0.115,-0.085
6.808,-0.145,-0.090
6.810,-0.115,-0.095
6.812,-0.120,-0.100
6.814,-0.130,-0.100
6.816,-0.195,-0.105
6.818,-0.155,-0.100
6.820,-0.140,-0.100
6.822,-0.135,-0.100
6.824,-0.075,-0.100
6.826,-0.150,-0.105
6.828,-0.150,-0.110
6.830,-0.135,-0.115
6.832,-0.165,-0.120
6.834,-0.160,-0.120
6.836,-0.155,-0.120
6.838,-0.115,-0.110
6.840,-0.115,-0.095
6.842,-0.115,-0.080
6.844,-0.085,-0.065
6.846,-0.040,-0.055
6.848,-0.080,-0.045
6.850,-0.105,-0.040
6.852,-0.075,-0.045
6.854,-0.105,-0.055
6.856,-0.240,-0.065
6.858,-0.150,-0.075
6.860,-0.055,-0.085
6.862,-0.075,-0.085
6.864,-0.095,-0.080
6.866,-0.090,-0.075
6.868,-0.105,-0.065
6.870,-0.135,-0.050
6.872,-0.100,-0.040
6.874,-0.035,-0.030
6.876,-0.080,-0.030
6.878,-0.085,-0.030
6.880,-0.110,-0.035
6.882,-0.150,-0.050
6.884,-0.105,-0.060
6.886,-0.045,-0.070
6.888,-0.115,-0.080
6.890,-0.125,-0.085
6.892,-0.125,-0.085
6.894,-0.100,-0.080
6.896,-0.100,-0.070
6.898,-0.090,-0.060
6.900,-0.140,-0.055
6.902,-0.145,-0.045
6.904,-0.065,-0.045
6.906,-0.035,-0.045
6.908,-0.080,-0.045
6.910,-0.110,-0.050
6.912,-0.115,-0.060
6.914,-0.105,-0.065
6.916,-0.115,-0.075
6.918,-0.145,-0.080
6.920,-0.120,-0.085
6.922,-0.175,-0.085
6.924,-0.120,-0.085
6.926,-0.130,-0.090
6.928,-0.150,-0.090
6.930,-0.145,-0.100
6.932,-0.155,-0.105
6.934,-0.140,-0.110
6.936,-0.185,-0.120
6.938,-0.190,-0.125
6.940,-0.195,-0.125
6.942,-0.150,-0.125
6.944,-0.165,-0.125
6.946,-0.150,-0.120
6.948,-0.150,-0.115
6.950,-0.180,-0.115
6.952,-0.185,-0.115
6.954,-0.205,-0.115
6.956,-0.175,-0.115
6.958,-0.165,-0.120
6.960,-0.160,-0.120
6.962,-0.180,-0.120
6.964,-0.150,-0.115
6.966,-0.170,-0.115
6.968,-0.160,-0.120
6.970,-0.170,-0.125
6.972,-0.235,-0.145
6.974,-0.250,-0.170
6.976,-0.265,-0.205
6.978,-0.300,-0.245
6.980,-0.395,-0.280
6.982,-0.380,-0.300
6.984,-0.365,-0.305
6.986,-0.350,-0.285
6.988,-0.295,-0.240
6.990,-0.195,-0.165
6.992,-0.105,-0.070
6.994,-0.020,0.045
6.996,0.110,0.175
6.998,0.270,0.315
7.000,0.425,0.460
7.002,0.585,0.615
7.004,0.765,0.775
7.006,0.900,0.940
7.008,1.055,1.105
7.010,1.240,1.270
7.012,1.425,1.415
7.014,1.535,1.525
7.016,1.585,1.595
7.018,1.625,1.600
7.020,1.575,1.535
7.022,1.405,1.405
7.024,1.195,1.215
7.026,0.980,0.980
7.028,0.575,0.730
7.030,0.280,0.485
7.032,0.115,0.260
7.034,-0.020,0.085
7.036,-0.160,-0.040
7.038,-0.185,-0.115
7.040,-0.180,-0.150
7.042,-0.190,-0.155
7.044,-0.195,-0.140
7.046,-0.210,-0.125
7.048,-0.185,-0.110
7.050,-0.160,-0.105
7.052,-0.130,-0.110
7.054,-0.175,-0.115
7.056,-0.175,-0.125
7.058,-0.140,-0.125
7.060,-0.135,-0.120
7.062,-0.145,-0.110
7.064,-0.135,-0.095
7.066,-0.130,-0.080
7.068,-0.145,-0.075
7.070,-0.155,-0.075
7.072,-0.170,-0.080
7.074,-0.200,-0.090
7.076,-0.210,-0.105
7.078,-0.205,-0.115
7.080,-0.215,-0.125
7.082,-0.175,-0.125
7.084,-0.095,-0.115
7.086,-0.130,-0.105
7.088,-0.145,-0.095
7.090,-0.145,-0.080
7.092,-0.125,-0.075
7.094,-0.150,-0.070
7.096,-0.155,-0.075
7.098,-0.180,-0.080
7.100,-0.160,-0.090
7.102,-0.155,-0.100
7.104,-0.115,-0.105
7.106,-0.170,-0.105
7.108,-0.155,-0.100
7.110,-0.100,-0.095
7.112,-0.140,-0.080
7.114,-0.140,-0.065
7.116,-0.110,-0.055
7.118,-0.150,-0.045
7.120,-0.140,-0.040
7.122,-0.060,-0.035
7.124,-0.065,-0.040
7.126,-0.095,-0.045
7.128,-0.100,-0.045
7.130,-0.090,-0.050
7.132,-0.095,-0.050
7.134,-0.125,-0.045
7.136,-0.095,-0.035
7.138,-0.115,-0.025
7.140,-0.095,-0.015
7.142,-0.095,-0.010
7.144,-0.055,0.000
7.146,-0.040,0.005
7.148,-0.055,0.005
7.150,-0.075,0.005
7.152,-0.100,0.010
7.154,-0.055,0.010
7.156,-0.040,0.010
7.158,-0.060,0.015
7.160,-0.060,0.020
7.162,-0.020,0.030
7.164,0.000,0.035
7.166,0.005,0.045
7.168,0.025,0.050
7.170,0.010,0.055
7.172,-0.005,0.060
7.174,-0.005,0.065
7.176,0.005,0.075
7.178,0.020,0.080
7.180,0.040,0.090
7.182,0.030,0.100
7.184,0.065,0.105
7.186,0.050,0.115
7.188,0.070,0.125
7.190,0.080,0.130
7.192,0.045,0.135
7.194,0.035,0.145
7.196,0.090,0.150
7.198,0.065,0.160
7.200,0.050,0.170
7.202,0.140,0.185
7.204,0.185,0.195
7.206,0.170,0.210
7.208,0.170,0.220
7.210,0.160,0.225
7.212,0.115,0.230
7.214,0.140,0.235
7.216,0.175,0.235
7.218,0.190,0.230
7.220,0.155,0.230
7.222,0.170,0.230
7.224,0.195,0.230
7.226,0.215,0.230
7.228,0.165,0.235
7.230,0.185,0.240
7.232,0.180,0.245
7.234,0.140,0.245
7.236,0.145,0.245
7.238,0.155,0.245
7.240,0.135,0.240
7.242,0.145,0.230
7.244,0.145,0.225
7.246,0.150,0.215
7.248,0.125,0.200
7.250,0.100,0.190
7.252,0.065,0.180
7.254,0.060,0.165
7.256,0.065,0.150
7.258,0.025,0.135
7.260,0.020,0.115
7.262,-0.010,0.095
7.264,0.045,0.070
7.266,-0.005,0.050
7.268,-0.050,0.030
7.270,-0.070,0.010
7.272,-0.135,-0.005
7.274,-0.100,-0.015
7.276,-0.090,-0.025
7.278,-0.115,-0.030
7.280,-0.095,-0.030
7.282,-0.095,-0.030
7.284,-0.100,-0.035
7.286,-0.125,-0.035
7.288,-0.115,-0.035
7.290,-0.115,-0.035
7.292,-0.090,-0.040
7.294,-0.105,-0.040
7.296,-0.130,-0.045
7.298,-0.110,-0.045
7.300,-0.160,-0.050
7.302,-0.120,-0.050
7.304,-0.130,-0.055
7.306,-0.150,-0.060
7.308,-0.135,-0.065
7.310,-0.155,-0.075
7.312,-0.195,-0.080
7.314,-0.170,-0.085
7.316,-0.165,-0.085
7.318,-0.130,-0.085
7.320,-0.165,-0.080
7.322,-0.135,-0.075
7.324,-0.150,-0.070
7.326,-0.120,-0.065
7.328,-0.155,-0.060
7.330,-0.155,-0.060
7.332,-0.165,-0.060
7.334,-0.110,-0.065
7.336,-0.130,-0.070
7.338,-0.190,-0.070
7.340,-0.175,-0.075
7.342,-0.130,-0.075
7.344,-0.140,-0.075
7.346,-0.105,-0.075
7.348,-0.150,-0.075
7.350,-0.185,-0.075
7.352,-0.195,-0.075
7.354,-0.200,-0.070
7.356,-0.115,-0.070
7.358,-0.125,-0.070
7.360,-0.175,-0.070
7.362,-0.185,-0.065
7.364,-0.135,-0.065
7.366,-0.100,-0.065
7.368,-0.130,-0.060
7.370,-0.160,-0.065
7.372,-0.145,-0.065
7.374,-0.160,-0.065
7.376,-0.135,-0.070
7.378,-0.170,-0.070
7.380,-0.230,-0.065
7.382,-0.125,-0.060
7.384,-0.065,-0.055
7.386,-0.125,-0.050
7.388,-0.140,-0.045
7.390,-0.100,-0.045
7.392,-0.130,-0.045
7.394,-0.135,-0.050
7.396,-0.185,-0.055
7.398,-0.155,-0.065
7.400,-0.125,-0.070
7.402,-0.150,-0.075
7.404,-0.125,-0.080
7.406,-0.125,-0.075
7.408,-0.145,-0.075
7.410,-0.160,-0.070
7.412,-0.195,-0.065
7.414,-0.140,-0.065
7.416,-0.125,-0.060
7.418,-0.180,-0.060
7.420,-0.170,-0.060
7.422,-0.085,-0.060
7.424,-0.130,-0.060
7.426,-0.160,-0.060
7.428,-0.200,-0.060
7.430,-0.135,-0.060
7.432,-0.115,-0.060
7.434,-0.155,-0.065
7.436,-0.165,-0.070
7.438,-0.145,-0.070
7.440,-0.180,-0.075
7.442,-0.165,-0.075
7.444,-0.100,-0.075
7.446,-0.155,-0.070
7.448,-0.140,-0.065
7.450,-0.140,-0.060
7.452,-0.150,-0.055
7.454,-0.135,-0.055
7.456,-0.125,-0.055
7.458,-0.135,-0.055
7.460,-0.160,-0.060
7.462,-0.180,-0.070
7.464,-0.180,-0.075
7.466,-0.160,-0.080
7.468,-0.160,-0.085
7.470,-0.145,-0.085
7.472,-0.170,-0.085
7.474,-0.165,-0.080
7.476,-0.135,-0.070
7.478,-0.130,-0.060
7.480,-0.150,-0.050
7.482,-0.105,-0.040
7.484,-0.105,-0.035
7.486,-0.125,-0.030
7.488,-0.135,-0.030
7.490,-0.155,-0.035
7.492,-0.150,-0.040
7.494,-0.145,-0.050
7.496,-0.180,-0.065
7.498,-0.170,-0.075
7.500,-0.150,-0.085
7.502,-0.140,-0.090
7.504,-0.130,-0.090
7.506,-0.130,-0.080
7.508,-0.145,-0.070
7.510,-0.170,-0.060
7.512,-0.220,-0.050
7.514,-0.115,-0.040
7.516,-0.115,-0.040
7.518,-0.170,-0.040
7.520,-0.170,-0.045
7.522,-0.110,-0.055
7.524,-0.130,-0.065
7.526,-0.170,-0.070
7.528,-0.175,-0.080
7.530,-0.125,-0.085
7.532,-0.170,-0.085
7.534,-0.165,-0.085
7.536,-0.165,-0.080
7.538,-0.190,-0.080
7.540,-0.190,-0.075
7.542,-0.175,-0.075
7.544,-0.195,-0.075
7.546,-0.200,-0.075
7.548,-0.130,-0.075
7.550,-0.135,-0.075
7.552,-0.175,-0.070
7.554,-0.170,-0.065
7.556,-0.120,-0.060
7.558,-0.140,-0.055
7.560,-0.135,-0.055
7.562,-0.125,-0.055
7.564,-0.170,-0.060
7.566,-0.150,-0.065
7.568,-0.130,-0.065
7.570,-0.160,-0.070
7.572,-0.160,-0.070
7.574,-0.140,-0.070
7.576,-0.165,-0.070
7.578,-0.165,-0.065
7.580,-0.135,-0.060
7.582,-0.115,-0.055
7.584,-0.145,-0.055
7.586,-0.165,-0.055
7.588,-0.140,-0.055
7.590,-0.155,-0.060
7.592,-0.195,-0.065
7.594,-0.170,-0.070
7.596,-0.150,-0.075
7.598,-0.175,-0.075
7.600,-0.145,-0.075
7.602,-0.150,-0.070
7.604,-0.175,-0.065
7.606,-0.120,-0.060
7.608,-0.160,-0.055
7.610,-0.165,-0.050
7.612,-0.140,-0.055
7.614,-0.135,-0.060
7.616,-0.190,-0.065
7.618,-0.195,-0.075
7.620,-0.160,-0.080
7.622,-0.145,-0.090
7.624,-0.190,-0.090
7.626,-0.180,-0.090
7.628,-0.140,-0.085
7.630,-0.145,-0.075
7.632,-0.125,-0.065
7.634,-0.125,-0.055
7.636,-0.150,-0.045
7.638,-0.175,-0.045
7.640,-0.145,-0.045
7.642,-0.160,-0.050
7.644,-0.165,-0.055
7.646,-0.185,-0.065
7.648,-0.215,-0.070
7.650,-0.175,-0.075
7.652,-0.130,-0.080
7.654,-0.120,-0.075
7.656,-0.140,-0.070
7.658,-0.200,-0.060
7.660,-0.155,-0.050
7.662,-0.140,-0.045
7.664,-0.170,-0.040
7.666,-0.140,-0.035
7.668,-0.125,-0.040
7.670,-0.125,-0.045
7.672,-0.155,-0.050
7.674,-0.165,-0.060
7.676,-0.155,-0.070
7.678,-0.215,-0.075
7.680,-0.170,-0.080
7.682,-0.175,-0.080
7.684,-0.155,-0.075
7.686,-0.150,-0.070
7.688,-0.190,-0.070
7.690,-0.165,-0.065
7.692,-0.170,-0.065
7.694,-0.155,-0.065
7.696,-0.145,-0.065
7.698,-0.160,-0.070
7.700,-0.140,-0.075
7.702,-0.135,-0.075
7.704,-0.190,-0.075
7.706,-0.165,-0.075
7.708,-0.165,-0.075
7.710,-0.175,-0.070
7.712,-0.160,-0.065
7.714,-0.180,-0.065
7.716,-0.180,-0.060
7.718,-0.160,-0.060
7.720,-0.160,-0.060
7.722,-0.175,-0.060
7.724,-0.135,-0.060
7.726,-0.120,-0.060
7.728,-0.135,-0.060
7.730,-0.185,-0.060
7.732,-0.175,-0.065
7.734,-0.185,-0.065
7.736,-0.140,-0.070
7.738,-0.190,-0.070
7.740,-0.175,-0.075
7.742,-0.175,-0.075
7.744,-0.165,-0.070
7.746,-0.115,-0.070
7.748,-0.140,-0.065
7.750,-0.170,-0.060
7.752,-0.180,-0.055
7.754,-0.130,-0.055
7.756,-0.195,-0.055
7.758,-0.150,-0.055
7.760,-0.150,-0.060
7.762,-0.125,-0.060
7.764,-0.150,-0.065
7.766,-0.175,-0.065
7.768,-0.175,-0.060
7.770,-0.205,-0.060
7.772,-0.130,-0.055
7.774,-0.155,-0.050
7.776,-0.170,-0.045
7.778,-0.135,-0.045
7.780,-0.100,-0.045
7.782,-0.095,-0.050
7.784,-0.175,-0.050
7.786,-0.200,-0.055
7.788,-0.175,-0.055
7.790,-0.190,-0.055
7.792,-0.160,-0.055
7.794,-0.105,-0.050
7.796,-0.125,-0.040
7.798,-0.120,-0.035
7.800,-0.145,-0.025
7.802,-0.130,-0.015
7.804,-0.100,-0.010
7.806,-0.075,-0.005
7.808,-0.095,-0.005
7.810,-0.105,-0.005
7.812,-0.110,-0.005
7.814,-0.130,-0.005
7.816,-0.105,-0.010
7.818,-0.090,-0.010
7.820,-0.105,-0.015
7.822,-0.115,-0.020
7.824,-0.110,-0.020
7.826,-0.100,-0.025
7.828,-0.145,-0.025
7.830,-0.160,-0.025
7.832,-0.125,-0.020
7.834,-0.105,-0.020
7.836,-0.105,-0.015
7.838,-0.120,-0.015
7.840,-0.075,-0.010
7.842,-0.135,-0.005
7.844,-0.140,-0.005
7.846,-0.100,-0.005
7.848,-0.090,-0.005
7.850,-0.090,-0.005
7.852,-0.095,-0.005
7.854,-0.095,-0.010
7.856,-0.150,-0.020
7.858,-0.135,-0.030
7.860,-0.110,-0.040
7.862,-0.140,-0.050
7.864,-0.130,-0.055
7.866,-0.175,-0.065
7.868,-0.205,-0.065
7.870,-0.175,-0.065
7.872,-0.165,-0.065
7.874,-0.140,-0.065
7.876,-0.155,-0.065
7.878,-0.130,-0.065
7.880,-0.130,-0.070
7.882,-0.220,-0.080
7.884,-0.220,-0.090
7.886,-0.200,-0.100
7.888,-0.215,-0.110
7.890,-0.205,-0.120
7.892,-0.235,-0.120
7.894,-0.235,-0.115
7.896,-0.220,-0.105
7.898,-0.170,-0.095
7.900,-0.145,-0.080
7.902,-0.145,-0.070
7.904,-0.160,-0.060
7.906,-0.155,-0.060
7.908,-0.200,-0.070
7.910,-0.215,-0.085
7.912,-0.195,-0.110
7.914,-0.230,-0.140
7.916,-0.360,-0.175
7.918,-0.275,-0.210
7.920,-0.335,-0.240
7.922,-0.285,-0.260
7.924,-0.375,-0.270
7.926,-0.410,-0.260
7.928,-0.415,-0.235
7.930,-0.340,-0.185
7.932,-0.200,-0.120
7.934,-0.090,-0.040
7.936,-0.010,0.060
7.938,0.110,0.175
7.940,0.205,0.300
7.942,0.340,0.440
7.944,0.510,0.595
7.946,0.670,0.755
7.948,0.845,0.930
7.950,0.980,1.100
7.952,1.190,1.270
7.954,1.395,1.420
7.956,1.505,1.535
7.958,1.580,1.605
7.960,1.610,1.620
7.962,1.555,1.565
7.964,1.385,1.440
7.966,1.200,1.255
7.968,0.965,1.030
7.970,0.610,0.780
7.972,0.270,0.530
7.974,0.060,0.300
7.976,-0.055,0.115
7.978,-0.140,-0.020
7.980,-0.195,-0.105
7.982,-0.195,-0.140
7.984,-0.205,-0.145
7.986,-0.185,-0.125
7.988,-0.180,-0.095
7.990,-0.240,-0.075
7.992,-0.225,-0.060
7.994,-0.175,-0.065
7.996,-0.140,-0.075
7.998,-0.125,-0.085
8.000,-0.165,-0.100
8.002,-0.190,-0.110
8.004,-0.200,-0.110
8.006,-0.210,-0.105
8.008,-0.225,-0.090
8.010,-0.215,-0.080
8.012,-0.155,-0.070
8.014,-0.140,-0.060
8.016,-0.140,-0.060
8.018,-0.175,-0.060
8.020,-0.215,-0.065
8.022,-0.180,-0.065
8.024,-0.155,-0.070
8.026,-0.150,-0.070
8.028,-0.185,-0.070
8.030,-0.155,-0.065
8.032,-0.155,-0.065
8.034,-0.180,-0.060
8.036,-0.180,-0.060
8.038,-0.140,-0.060
8.040,-0.115,-0.065
8.042,-0.155,-0.065
8.044,-0.195,-0.060
8.046,-0.180,-0.060
8.048,-0.190,-0.055
8.050,-0.125,-0.050
8.052,-0.115,-0.045
8.054,-0.135,-0.040
8.056,-0.105,-0.040
8.058,-0.130,-0.040
8.060,-0.195,-0.035
8.062,-0.155,-0.035
8.064,-0.120,-0.035
8.066,-0.135,-0.035
8.068,-0.115,-0.035
8.070,-0.095,-0.035
8.072,-0.140,-0.030
8.074,-0.115,-0.030
8.076,-0.105,-0.025
8.078,-0.100,-0.025
8.080,-0.095,-0.020
8.082,-0.085,-0.010
8.084,-0.080,-0.005
8.086,-0.110,0.005
8.088,-0.095,0.015
8.090,-0.075,0.025
8.092,-0.040,0.035
8.094,-0.050,0.040
8.096,-0.080,0.040
8.098,-0.030,0.045
8.100,-0.070,0.045
8.102,-0.105,0.045
8.104,-0.055,0.045
8.106,-0.070,0.050
8.108,-0.060,0.060
8.110,0.035,0.070
8.112,0.040,0.085
8.114,-0.030,0.100
8.116,-0.015,0.110
8.118,0.040,0.120
8.120,0.030,0.130
8.122,0.035,0.135
8.124,0.035,0.140
8.126,0.020,0.140
8.128,0.015,0.145
8.130,0.045,0.150
8.132,0.095,0.160
8.134,0.065,0.175
8.136,0.060,0.185
8.138,0.150,0.200
8.140,0.125,0.215
8.142,0.135,0.230
8.144,0.125,0.235
8.146,0.110,0.240
8.148,0.120,0.245
8.150,0.130,0.245
8.152,0.155,0.245
8.154,0.170,0.245
8.156,0.165,0.245
8.158,0.165,0.250
8.160,0.160,0.255
8.162,0.140,0.255
8.164,0.180,0.260
8.166,0.160,0.260
8.168,0.170,0.260
8.170,0.120,0.255
8.172,0.115,0.250
8.174,0.150,0.250
8.176,0.180,0.250
8.178,0.165,0.250
8.180,0.190,0.250
8.182,0.190,0.255
8.184,0.175,0.255
8.186,0.125,0.250
8.188,0.125,0.240
8.190,0.090,0.225
8.192,0.065,0.210
8.194,0.045,0.185
8.196,0.080,0.165
8.198,0.070,0.140
8.200,0.000,0.125
8.202,0.050,0.105
8.204,0.050,0.095
8.206,0.010,0.085
8.208,-0.055,0.080
8.210,-0.065,0.070
8.212,-0.040,0.065
8.214,-0.075,0.050
8.216,-0.080,0.040
8.218,-0.090,0.025
8.220,-0.105,0.010
8.222,-0.080,0.000
8.224,-0.085,-0.010
8.226,-0.120,-0.015
8.228,-0.105,-0.020
8.230,-0.130,-0.020
8.232,-0.165,-0.020
8.234,-0.170,-0.020
8.236,-0.120,-0.025
8.238,-0.135,-0.030
8.240,-0.145,-0.040
8.242,-0.155,-0.050
8.244,-0.140,-0.060
8.246,-0.120,-0.070
8.248,-0.150,-0.075
8.250,-0.155,-0.075
8.252,-0.215,-0.070
8.254,-0.215,-0.065
8.256,-0.105,-0.060
8.258,-0.145,-0.055
8.260,-0.170,-0.050
8.262,-0.175,-0.050
8.264,-0.175,-0.050
8.266,-0.175,-0.055
8.268,-0.160,-0.065
8.270,-0.170,-0.070
8.272,-0.175,-0.070
8.274,-0.185,-0.070
8.276,-0.155,-0.070
8.278,-0.135,-0.065
8.280,-0.140,-0.060
8.282,-0.170,-0.055
8.284,-0.155,-0.055
8.286,-0.170,-0.055
8.288,-0.190,-0.060
8.290,-0.165,-0.065
8.292,-0.185,-0.075
8.294,-0.170,-0.080
8.296,-0.165,-0.080
8.298,-0.170,-0.080
8.300,-0.185,-0.075
8.302,-0.175,-0.070
8.304,-0.185,-0.070
8.306,-0.185,-0.065
8.308,-0.130,-0.065
8.310,-0.150,-0.070
8.312,-0.180,-0.070
8.314,-0.190,-0.075
8.316,-0.160,-0.075
8.318,-0.165,-0.075
8.320,-0.145,-0.070
8.322,-0.150,-0.065
8.324,-0.195,-0.060
8.326,-0.145,-0.055
8.328,-0.150,-0.055
8.330,-0.190,-0.055
8.332,-0.195,-0.060
8.334,-0.175,-0.070
8.336,-0.135,-0.075
8.338,-0.150,-0.085
8.340,-0.180,-0.090
8.342,-0.225,-0.090
8.344,-0.180,-0.085
8.346,-0.155,-0.080
8.348,-0.150,-0.070
8.350,-0.170,-0.065
8.352,-0.175,-0.060
8.354,-0.180,-0.060
8.356,-0.155,-0.060
8.358,-0.155,-0.065
8.360,-0.190,-0.075
8.362,-0.170,-0.080
8.364,-0.210,-0.085
8.366,-0.185,-0.090
8.368,-0.130,-0.085
8.370,-0.160,-0.080
8.372,-0.180,-0.075
8.374,-0.165,-0.070
8.376,-0.170,-0.065
8.378,-0.145,-0.065
8.380,-0.160,-0.065
8.382,-0.180,-0.065
8.384,-0.165,-0.070
8.386,-0.170,-0.075
8.388,-0.190,-0.075
8.390,-0.165,-0.075
8.392,-0.155,-0.070
8.394,-0.165,-0.065
8.396,-0.175,-0.065
8.398,-0.150,-0.060
8.400,-0.130,-0.060
8.402,-0.120,-0.065
8.404,-0.160,-0.070
8.406,-0.180,-0.080
8.408,-0.195,-0.085
8.410,-0.195,-0.090
8.412,-0.190,-0.090
8.414,-0.165,-0.090
8.416,-0.165,-0.085
8.418,-0.185,-0.080
8.420,-0.155,-0.070
8.422,-0.130,-0.065
8.424,-0.170,-0.060
8.426,-0.155,-0.060
8.428,-0.160,-0.065
8.430,-0.205,-0.070
8.432,-0.215,-0.075
8.434,-0.170,-0.080
8.436,-0.185,-0.085
8.438,-0.185,-0.090
8.440,-0.165,-0.090
8.442,-0.155,-0.090
8.444,-0.175,-0.085
8.446,-0.170,-0.080
8.448,-0.150,-0.075
8.450,-0.135,-0.070
8.452,-0.155,-0.065
8.454,-0.185,-0.065
8.456,-0.180,-0.070
8.458,-0.200,-0.075
8.460,-0.240,-0.080
8.462,-0.165,-0.085
8.464,-0.165,-0.090
8.466,-0.195,-0.090
8.468,-0.135,-0.085
8.470,-0.170,-0.080
8.472,-0.200,-0.075
8.474,-0.190,-0.065
8.476,-0.130,-0.060
8.478,-0.145,-0.060
8.480,-0.175,-0.060
8.482,-0.175,-0.065
8.484,-0.200,-0.070
8.486,-0.180,-0.075
8.488,-0.165,-0.080
8.490,-0.175,-0.085
8.492,-0.210,-0.090
8.494,-0.180,-0.090
8.496,-0.205,-0.090
8.498,-0.175,-0.085
8.500,-0.170,-0.085
8.502,-0.150,-0.085
8.504,-0.185,-0.085
8.506,-0.185,-0.085
8.508,-0.175,-0.090
8.510,-0.185,-0.095
8.512,-0.165,-0.095
8.514,-0.155,-0.095
8.516,-0.210,-0.095
8.518,-0.200,-0.095
8.520,-0.180,-0.095
8.522,-0.180,-0.095
8.524,-0.215,-0.095
8.526,-0.225,-0.090
8.528,-0.200,-0.090
8.530,-0.135,-0.090
8.532,-0.185,-0.085
8.534,-0.160,-0.085
8.536,-0.145,-0.080
8.538,-0.155,-0.080
8.540,-0.180,-0.080
8.542,-0.215,-0.080
8.544,-0.195,-0.080
8.546,-0.185,-0.085
8.548,-0.190,-0.090
8.550,-0.205,-0.090
8.552,-0.160,-0.090
8.554,-0.195,-0.090
8.556,-0.175,-0.090
8.558,-0.110,-0.085
8.560,-0.135,-0.085
8.562,-0.200,-0.080
8.564,-0.225,-0.080
8.566,-0.205,-0.080
8.568,-0.170,-0.085
8.570,-0.165,-0.085
8.572,-0.175,-0.090
8.574,-0.175,-0.090
8.576,-0.205,-0.090
8.578,-0.185,-0.090
8.580,-0.160,-0.090
8.582,-0.205,-0.090
8.584,-0.215,-0.090
8.586,-0.185,-0.090
8.588,-0.150,-0.090
8.590,-0.145,-0.095
8.592,-0.205,-0.100
8.594,-0.205,-0.100
8.596,-0.185,-0.105
8.598,-0.205,-0.105
8.600,-0.180,-0.100
8.602,-0.210,-0.095
8.604,-0.195,-0.095
8.606,-0.195,-0.090
8.608,-0.165,-0.085
8.610,-0.160,-0.085
8.612,-0.150,-0.085
8.614,-0.130,-0.085
8.616,-0.195,-0.085
8.618,-0.215,-0.085
8.620,-0.180,-0.085
8.622,-0.190,-0.085
8.624,-0.215,-0.085
8.626,-0.180,-0.085
8.628,-0.175,-0.090
8.630,-0.185,-0.090
8.632,-0.225,-0.090
8.634,-0.150,-0.090
8.636,-0.170,-0.090
8.638,-0.215,-0.090
8.640,-0.190,-0.090
8.642,-0.165,-0.090
8.644,-0.170,-0.090
8.646,-0.155,-0.090
8.648,-0.135,-0.090
8.650,-0.230,-0.090
8.652,-0.180,-0.095
8.654,-0.190,-0.095
8.656,-0.180,-0.095
8.658,-0.170,-0.100
8.660,-0.160,-0.100
8.662,-0.155,-0.100
8.664,-0.190,-0.095
8.666,-0.205,-0.095
8.668,-0.210,-0.095
8.670,-0.190,-0.095
8.672,-0.190,-0.095
8.674,-0.165,-0.090
8.676,-0.170,-0.090
8.678,-0.205,-0.090
8.680,-0.180,-0.085
8.682,-0.185,-0.085
8.684,-0.175,-0.085
8.686,-0.170,-0.085
8.688,-0.165,-0.085
8.690,-0.175,-0.085
8.692,-0.175,-0.090
8.694,-0.155,-0.095
8.696,-0.195,-0.100
8.698,-0.215,-0.100
8.700,-0.195,-0.100
8.702,-0.185,-0.100
8.704,-0.200,-0.095
8.706,-0.165,-0.085
8.708,-0.165,-0.075
8.710,-0.185,-0.070
8.712,-0.145,-0.065
8.714,-0.145,-0.060
8.716,-0.170,-0.065
8.718,-0.160,-0.070
8.720,-0.175,-0.075
8.722,-0.205,-0.085
8.724,-0.190,-0.090
8.726,-0.160,-0.090
8.728,-0.155,-0.085
8.730,-0.150,-0.080
8.732,-0.130,-0.070
8.734,-0.130,-0.060
8.736,-0.095,-0.045
8.738,-0.135,-0.040
8.740,-0.160,-0.035
8.742,-0.145,-0.035
8.744,-0.135,-0.035
8.746,-0.150,-0.040
8.748,-0.135,-0.045
8.750,-0.140,-0.045
8.752,-0.120,-0.045
8.754,-0.090,-0.040
8.756,-0.120,-0.035
8.758,-0.140,-0.030
8.760,-0.125,-0.030
8.762,-0.090,-0.030
8.764,-0.145,-0.030
8.766,-0.170,-0.035
8.768,-0.125,-0.040
8.770,-0.125,-0.040
8.772,-0.125,-0.040
8.774,-0.160,-0.035
8.776,-0.115,-0.030
8.778,-0.115,-0.025
8.780,-0.130,-0.020
8.782,-0.135,-0.015
8.784,-0.140,-0.020
8.786,-0.085,-0.025
8.788,-0.100,-0.035
8.790,-0.165,-0.040
8.792,-0.135,-0.050
8.794,-0.120,-0.060
8.796,-0.125,-0.065
8.798,-0.195,-0.070
8.800,-0.145,-0.070
8.802,-0.175,-0.075
8.804,-0.210,-0.075
8.806,-0.185,-0.085
8.808,-0.155,-0.090
8.810,-0.200,-0.100
8.812,-0.165,-0.110
8.814,-0.175,-0.115
8.816,-0.175,-0.115
8.818,-0.215,-0.115
8.820,-0.190,-0.110
8.822,-0.175,-0.105
8.824,-0.235,-0.100
8.826,-0.240,-0.100
8.828,-0.230,-0.105
8.830,-0.190,-0.110
8.832,-0.160,-0.120
8.834,-0.175,-0.125
8.836,-0.175,-0.130
8.838,-0.180,-0.125
8.840,-0.190,-0.120
8.842,-0.225,-0.110
8.844,-0.175,-0.100
8.846,-0.210,-0.095
8.848,-0.230,-0.095
8.850,-0.245,-0.110
8.852,-0.260,-0.140
8.854,-0.285,-0.175
8.856,-0.265,-0.215
8.858,-0.320,-0.250
8.860,-0.365,-0.275
8.862,-0.415,-0.280
8.864,-0.380,-0.260
8.866,-0.340,-0.220
8.868,-0.270,-0.155
8.870,-0.145,-0.065
8.872,0.030,0.040
8.874,0.095,0.155
8.876,0.210,0.280
8.878,0.310,0.415
8.880,0.510,0.560
8.882,0.660,0.715
8.884,0.765,0.880
8.886,0.950,1.050
8.888,1.140,1.215
8.890,1.365,1.370
8.892,1.500,1.500
8.894,1.565,1.580
8.896,1.600,1.600
8.898,1.540,1.555
8.900,1.425,1.440
8.902,1.210,1.260
8.904,0.985,1.040
8.906,0.635,0.790
8.908,0.305,0.540
8.910,0.110,0.310
8.912,-0.025,0.125
8.914,-0.130,-0.015
8.916,-0.180,-0.100
8.918,-0.215,-0.140
8.920,-0.215,-0.145
8.922,-0.220,-0.130
8.924,-0.195,-0.105
8.926,-0.130,-0.085
8.928,-0.190,-0.070
8.930,-0.185,-0.070
8.932,-0.185,-0.080
8.934,-0.195,-0.090
8.936,-0.195,-0.105
8.938,-0.175,-0.110
8.940,-0.125,-0.110
8.942,-0.165,-0.100
8.944,-0.180,-0.090
8.946,-0.195,-0.085
8.948,-0.220,-0.075
8.950,-0.180,-0.075
8.952,-0.165,-0.075
8.954,-0.165,-0.080
8.956,-0.180,-0.090
8.958,-0.125,-0.095
8.960,-0.145,-0.095
8.962,-0.180,-0.095
8.964,-0.195,-0.090
8.966,-0.170,-0.085
8.968,-0.180,-0.080
8.970,-0.170,-0.075
8.972,-0.130,-0.075
8.974,-0.150,-0.080
8.976,-0.130,-0.085
8.978,-0.170,-0.085
8.980,-0.185,-0.090
8.982,-0.150,-0.085
8.984,-0.130,-0.080
8.986,-0.120,-0.075
8.988,-0.170,-0.060
8.990,-0.120,-0.050
8.992,-0.135,-0.045
8.994,-0.150,-0.040
8.996,-0.135,-0.040
8.998,-0.110,-0.045
9.000,-0.145,-0.055
9.002,-0.150,-0.065
9.004,-0.110,-0.075
9.006,-0.100,-0.080
9.008,-0.175,-0.075
9.010,-0.175,-0.070
9.012,-0.140,-0.060
9.014,-0.155,-0.045
9.016,-0.110,-0.035
9.018,-0.065,-0.020
9.020,-0.065,-0.015
9.022,-0.110,-0.010
9.024,-0.100,-0.010
9.026,-0.065,-0.015
9.028,-0.095,-0.015
9.030,-0.085,-0.015
9.032,-0.080,-0.010
9.034,-0.120,0.000
9.036,-0.060,0.015
9.038,0.010,0.030
9.040,-0.015,0.045
9.042,-0.020,0.060
9.044,-0.025,0.070
9.046,-0.055,0.075
9.048,-0.020,0.080
9.050,0.025,0.085
9.052,0.025,0.085
9.054,0.025,0.085
9.056,-0.005,0.090
9.058,0.020,0.100
9.060,0.005,0.105
9.062,0.030,0.115
9.064,0.080,0.130
9.066,0.075,0.140
9.068,0.045,0.150
9.070,0.080,0.155
9.072,0.115,0.165
9.074,0.110,0.170
9.076,0.080,0.180
9.078,0.110,0.185
9.080,0.115,0.190
9.082,0.140,0.200
9.084,0.145,0.205
9.086,0.115,0.215
9.088,0.135,0.220
9.090,0.185,0.225
9.092,0.180,0.235
9.094,0.130,0.240
9.096,0.165,0.250
9.098,0.210,0.260
9.100,0.155,0.265
9.102,0.155,0.275
9.104,0.255,0.280
9.106,0.260,0.285
9.108,0.195,0.290
9.110,0.175,0.285
9.112,0.165,0.280
9.114,0.155,0.275
9.116,0.155,0.260
9.118,0.160,0.250
9.120,0.135,0.235
9.122,0.145,0.225
9.124,0.145,0.210
9.126,0.140,0.200
9.128,0.090,0.190
9.130,0.095,0.175
9.132,0.095,0.165
9.134,0.060,0.150
9.136,0.030,0.135
9.138,0.020,0.120
9.140,-0.005,0.100
9.142,-0.025,0.075
9.144,-0.020,0.055
9.146,-0.040,0.040
9.148,-0.080,0.025
9.150,-0.065,0.015
9.152,-0.020,0.005
9.154,-0.040,0.000
9.156,-0.085,-0.005
9.158,-0.065,-0.005
9.160,-0.105,-0.010
9.162,-0.110,-0.015
9.164,-0.115,-0.020
9.166,-0.085,-0.030
9.168,-0.100,-0.040
9.170,-0.180,-0.050
9.172,-0.090,-0.060
9.174,-0.085,-0.070
9.176,-0.140,-0.075
9.178,-0.165,-0.075
9.180,-0.190,-0.075
9.182,-0.185,-0.075
9.184,-0.140,-0.075
9.186,-0.150,-0.070
9.188,-0.110,-0.070
9.190,-0.110,-0.065
9.192,-0.115,-0.065
9.194,-0.150,-0.070
9.196,-0.150,-0.070
9.198,-0.180,-0.075
9.200,-0.190,-0.075
9.202,-0.155,-0.080
9.204,-0.140,-0.085
9.206,-0.180,-0.085
9.208,-0.140,-0.090
9.210,-0.110,-0.090
9.212,-0.130,-0.090
9.214,-0.110,-0.085
9.216,-0.130,-0.085
9.218,-0.180,-0.085
9.220,-0.205,-0.085
9.222,-0.155,-0.085
9.224,-0.105,-0.085
9.226,-0.160,-0.085
9.228,-0.135,-0.085
9.230,-0.130,-0.085
9.232,-0.170,-0.085
9.234,-0.150,-0.085
9.236,-0.145,-0.080
9.238,-0.170,-0.085
9.240,-0.135,-0.085
9.242,-0.150,-0.090
9.244,-0.160,-0.095
9.246,-0.195,-0.100
9.248,-0.175,-0.105
9.250,-0.195,-0.105
9.252,-0.205,-0.105
9.254,-0.145,-0.100
9.256,-0.145,-0.090
9.258,-0.165,-0.080
9.260,-0.100,-0.075
9.262,-0.070,-0.065
9.264,-0.165,-0.065
9.266,-0.170,-0.060
9.268,-0.130,-0.065
9.270,-0.100,-0.065
9.272,-0.115,-0.070
9.274,-0.145,-0.070
9.276,-0.160,-0.075
9.278,-0.145,-0.080
9.280,-0.135,-0.080
9.282,-0.125,-0.080
9.284,-0.170,-0.080
9.286,-0.200,-0.085
9.288,-0.125,-0.085
9.290,-0.100,-0.085
9.292,-0.130,-0.080
9.294,-0.125,-0.080
9.296,-0.120,-0.075
9.298,-0.120,-0.070
9.300,-0.090,-0.065
9.302,-0.130,-0.065
9.304,-0.085,-0.065
9.306,-0.155,-0.065
9.308,-0.165,-0.065
9.310,-0.110,-0.070
9.312,-0.140,-0.075
9.314,-0.125,-0.080
9.316,-0.135,-0.085
9.318,-0.125,-0.085
9.320,-0.115,-0.080
9.322,-0.135,-0.075
9.324,-0.125,-0.070
9.326,-0.125,-0.060
9.328,-0.065,-0.055
9.330,-0.110,-0.055
9.332,-0.140,-0.055
9.334,-0.145,-0.055
9.336,-0.085,-0.055
9.338,-0.115,-0.060
9.340,-0.130,-0.060
9.342,-0.095,-0.060
9.344,-0.085,-0.060
9.346,-0.115,-0.055
9.348,-0.135,-0.050
9.350,-0.105,-0.050
9.352,-0.090,-0.050
9.354,-0.110,-0.050
9.356,-0.125,-0.055
9.358,-0.130,-0.060
9.360,-0.130,-0.065
9.362,-0.110,-0.070
9.364,-0.105,-0.070
9.366,-0.135,-0.065
9.368,-0.120,-0.065
9.370,-0.095,-0.055
9.372,-0.100,-0.055
9.374,-0.120,-0.050
9.376,-0.095,-0.050
9.378,-0.070,-0.055
9.380,-0.120,-0.060
9.382,-0.150,-0.070
9.384,-0.170,-0.080
9.386,-0.155,-0.090
9.388,-0.125,-0.095
9.390,-0.120,-0.100
9.392,-0.145,-0.100
9.394,-0.180,-0.100
9.396,-0.220,-0.100
9.398,-0.160,-0.095
9.400,-0.100,-0.090
9.402,-0.100,-0.085
9.404,-0.150,-0.080
9.406,-0.170,-0.075
9.408,-0.140,-0.070
9.410,-0.050,-0.060
9.412,-0.065,-0.055
9.414,-0.125,-0.050
9.416,-0.085,-0.050
9.418,-0.140,-0.055
9.420,-0.115,-0.060
9.422,-0.135,-0.070
9.424,-0.135,-0.080
9.426,-0.115,-0.095
9.428,-0.100,-0.105
9.430,-0.160,-0.105
9.432,-0.155,-0.105
9.434,-0.155,-0.100
9.436,-0.105,-0.090
9.438,-0.080,-0.080
9.440,-0.085,-0.075
9.442,-0.120,-0.065
9.444,-0.140,-0.065
9.446,-0.130,-0.065
9.448,-0.120,-0.075
9.450,-0.130,-0.085
9.452,-0.100,-0.095
9.454,-0.150,-0.100
9.456,-0.160,-0.105
9.458,-0.170,-0.110
9.460,-0.095,-0.110
9.462,-0.145,-0.105
9.464,-0.185,-0.100
9.466,-0.180,-0.095
9.468,-0.100,-0.095
9.470,-0.115,-0.090
9.472,-0.135,-0.085
9.474,-0.135,-0.080
9.476,-0.130,-0.075
9.478,-0.145,-0.070
9.480,-0.075,-0.060
9.482,-0.070,-0.055
9.484,-0.095,-0.050
9.486,-0.125,-0.045
9.488,-0.070,-0.050
9.490,-0.105,-0.055
9.492,-0.115,-0.065
9.494,-0.155,-0.080
9.496,-0.155,-0.090
9.498,-0.155,-0.100
9.500,-0.180,-0.105
9.502,-0.160,-0.105
9.504,-0.100,-0.100
9.506,-0.105,-0.095
9.508,-0.085,-0.085
9.510,-0.045,-0.075
9.512,-0.115,-0.070
9.514,-0.105,-0.065
9.516,-0.100,-0.070
9.518,-0.140,-0.075
9.520,-0.125,-0.080
9.522,-0.115,-0.090
9.524,-0.165,-0.095
9.526,-0.145,-0.100
9.528,-0.095,-0.100
9.530,-0.110,-0.095
9.532,-0.105,-0.090
9.534,-0.070,-0.080
9.536,-0.095,-0.075
9.538,-0.105,-0.075
9.540,-0.135,-0.075
9.542,-0.115,-0.075
9.544,-0.145,-0.080
9.546,-0.175,-0.085
9.548,-0.100,-0.085
9.550,-0.095,-0.085
9.552,-0.100,-0.085
9.554,-0.095,-0.085
9.556,-0.090,-0.080
9.558,-0.075,-0.075
9.560,-0.075,-0.075
9.562,-0.100,-0.075
9.564,-0.115,-0.080
9.566,-0.130,-0.080
9.568,-0.130,-0.085
9.570,-0.110,-0.085
9.572,-0.085,-0.090
9.574,-0.095,-0.090
9.576,-0.140,-0.090
9.578,-0.115,-0.095
9.580,-0.075,-0.095
9.582,-0.135,-0.095
9.584,-0.145,-0.100
9.586,-0.090,-0.100
9.588,-0.145,-0.095
9.590,-0.125,-0.090
9.592,-0.065,-0.085
9.594,-0.110,-0.075
9.596,-0.075,-0.070
9.598,-0.090,-0.060
9.600,-0.070,-0.060
9.602,-0.100,-0.060
9.604,-0.110,-0.065
9.606,-0.095,-0.075
9.608,-0.105,-0.085
9.610,-0.160,-0.090
9.612,-0.140,-0.095
9.614,-0.070,-0.095
9.616,-0.065,-0.090
9.618,-0.120,-0.085
9.620,-0.090,-0.080
9.622,-0.065,-0.075
9.624,-0.135,-0.070
9.626,-0.085,-0.075
9.628,-0.140,-0.075
9.630,-0.090,-0.080
9.632,-0.060,-0.080
9.634,-0.040,-0.080
9.636,-0.075,-0.080
9.638,-0.070,-0.075
9.640,-0.090,-0.070
9.642,-0.095,-0.070
9.644,-0.070,-0.065
9.646,-0.085,-0.065
9.648,-0.075,-0.065
9.650,-0.060,-0.065
9.652,-0.095,-0.060
9.654,-0.040,-0.055
9.656,-0.090,-0.045
9.658,-0.060,-0.035
9.660,0.010,-0.020
9.662,0.020,-0.010
9.664,-0.005,-0.005
9.666,-0.045,-0.005
9.668,-0.080,-0.010
9.670,-0.040,-0.020
9.672,-0.050,-0.030
9.674,-0.045,-0.040
9.676,-0.130,-0.050
9.678,-0.050,-0.050
9.680,-0.045,-0.050
9.682,-0.040,-0.050
9.684,-0.050,-0.045
9.686,-0.040,-0.045
9.688,-0.030,-0.045
9.690,-0.045,-0.050
9.692,-0.075,-0.055
9.694,-0.045,-0.055
9.696,-0.150,-0.060
9.698,-0.175,-0.060
9.700,-0.085,-0.050
9.702,0.060,-0.045
9.704,0.050,-0.035
9.706,-0.025,-0.025
9.708,-0.065,-0.025
9.710,-0.060,-0.025
9.712,-0.070,-0.035
9.714,-0.060,-0.045
9.716,-0.115,-0.060
9.718,-0.055,-0.070
9.720,-0.050,-0.080
9.722,-0.075,-0.080
9.724,-0.075,-0.075
9.726,-0.095,-0.070
9.728,-0.060,-0.065
9.730,-0.065,-0.060
9.732,-0.060,-0.065
9.734,-0.050,-0.070
9.736,-0.075,-0.085
9.738,-0.160,-0.100
9.740,-0.145,-0.115
9.742,-0.090,-0.120
9.744,-0.070,-0.125
9.746,-0.100,-0.120
9.748,-0.125,-0.110
9.750,-0.145,-0.095
9.752,-0.055,-0.085
9.754,-0.080,-0.075
9.756,-0.105,-0.070
9.758,-0.070,-0.070
9.760,-0.080,-0.075
9.762,-0.090,-0.080
9.764,-0.090,-0.085
9.766,-0.065,-0.090
9.768,-0.050,-0.090
9.770,-0.095,-0.095
9.772,-0.090,-0.100
9.774,-0.115,-0.115
9.776,-0.140,-0.135
9.778,-0.160,-0.160
9.780,-0.245,-0.190
9.782,-0.280,-0.215
9.784,-0.265,-0.235
9.786,-0.245,-0.240
9.788,-0.260,-0.225
9.790,-0.205,-0.185
9.792,-0.105,-0.120
9.794,0.015,-0.040
9.796,0.135,0.060
9.798,0.225,0.170
9.800,0.305,0.290
9.802,0.345,0.415
9.804,0.545,0.555
9.806,0.755,0.700
9.808,0.880,0.855
9.810,0.970,1.015
9.812,1.260,1.175
9.814,1.455,1.315
9.816,1.500,1.420
9.818,1.610,1.480
9.820,1.495,1.480
9.822,1.455,1.405
9.824,1.300,1.270
9.826,1.155,1.075
9.828,0.855,0.845
9.830,0.560,0.600
9.832,0.280,0.365
9.834,0.085,0.170
9.836,-0.070,0.015
9.838,-0.085,-0.080
9.840,-0.105,-0.135
9.842,-0.110,-0.145
9.844,-0.125,-0.140
9.846,-0.075,-0.120
9.848,-0.100,-0.105
9.850,-0.125,-0.100
9.852,-0.105,-0.100
9.854,-0.130,-0.105
9.856,-0.100,-0.115
9.858,-0.045,-0.115
9.860,-0.075,-0.110
9.862,-0.095,-0.095
9.864,-0.030,-0.075
9.866,-0.050,-0.055
9.868,-0.025,-0.040
9.870,-0.025,-0.030
9.872,-0.015,-0.030
9.874,-0.085,-0.035
9.876,-0.075,-0.050
9.878,-0.015,-0.060
9.880,-0.045,-0.070
9.882,0.000,-0.070
9.884,0.005,-0.065
9.886,-0.025,-0.055
9.888,-0.050,-0.045
9.890,-0.025,-0.035
9.892,-0.025,-0.030
9.894,-0.035,-0.030
9.896,-0.015,-0.035
9.898,-0.010,-0.045
9.900,-0.025,-0.050
9.902,-0.010,-0.055
9.904,-0.010,-0.055
9.906,-0.010,-0.050
9.908,-0.025,-0.040
9.910,0.005,-0.025
9.912,0.045,-0.010
9.914,0.030,0.000
9.916,-0.020,0.005
9.918,0.040,0.010
9.920,0.020,0.005
9.922,-0.025,0.000
9.924,0.035,-0.005
9.926,0.035,-0.015
9.928,0.010,-0.020
9.930,-0.010,-0.020
9.932,0.005,-0.020
9.934,-0.015,-0.020
9.936,0.010,-0.015
9.938,0.055,-0.010
9.940,0.045,0.000
9.942,-0.020,0.005
9.944,0.045,0.010
9.946,0.090,0.015
9.948,0.095,0.020
9.950,0.045,0.025
9.952,0.055,0.025
9.954,0.070,0.030
9.956,0.095,0.035
9.958,0.100,0.040
9.960,0.100,0.045
9.962,0.100,0.055
9.964,0.140,0.065
9.966,0.135,0.075
9.968,0.105,0.080
9.970,0.105,0.090
9.972,0.120,0.095
9.974,0.120,0.100
9.976,0.160,0.105
9.978,0.150,0.110
9.980,0.100,0.115
9.982,0.140,0.120
9.984,0.230,0.130
9.986,0.170,0.145
9.988,0.230,0.160
9.990,0.225,0.175
9.992,0.245,0.190
9.994,0.270,0.200
9.996,0.225,0.210
9.998,0.280,0.220
