'Elapsed time','ECG I','ECG I filtered'
'seconds','mV','mV'
0.000,-0.815,-0.010
0.002,-0.795,-0.020
0.004,-0.830,-0.025
0.006,-0.855,-0.030
0.008,-0.835,-0.030
0.010,-0.815,-0.025
0.012,-0.830,-0.020
0.014,-0.825,-0.010
0.016,-0.830,-0.005
0.018,-0.770,0.000
0.020,-0.780,0.000
0.022,-0.805,-0.005
0.024,-0.860,-0.015
0.026,-0.860,-0.020
0.028,-0.880,-0.035
0.030,-0.865,-0.040
0.032,-0.835,-0.045
0.034,-0.830,-0.050
0.036,-0.820,-0.045
0.038,-0.830,-0.040
0.040,-0.820,-0.035
0.042,-0.820,-0.025
0.044,-0.815,-0.020
0.046,-0.840,-0.020
0.048,-0.825,-0.020
0.050,-0.785,-0.020
0.052,-0.830,-0.025
0.054,-0.860,-0.025
0.056,-0.825,-0.030
0.058,-0.845,-0.030
0.060,-0.830,-0.030
0.062,-0.835,-0.030
0.064,-0.860,-0.030
0.066,-0.885,-0.030
0.068,-0.800,-0.030
0.070,-0.830,-0.035
0.072,-0.860,-0.035
0.074,-0.845,-0.040
0.076,-0.825,-0.040
0.078,-0.835,-0.040
0.080,-0.820,-0.040
0.082,-0.835,-0.040
0.084,-0.840,-0.035
0.086,-0.855,-0.035
0.088,-0.840,-0.030
0.090,-0.850,-0.030
0.092,-0.850,-0.030
0.094,-0.830,-0.030
0.096,-0.805,-0.035
0.098,-0.830,-0.035
0.100,-0.840,-0.035
0.102,-0.825,-0.035
0.104,-0.860,-0.035
0.106,-0.855,-0.035
0.108,-0.795,-0.035
0.110,-0.780,-0.040
0.112,-0.860,-0.040
0.114,-0.845,-0.045
0.116,-0.850,-0.045
0.118,-0.855,-0.045
0.120,-0.875,-0.045
0.122,-0.840,-0.045
0.124,-0.850,-0.045
0.126,-0.825,-0.045
0.128,-0.805,-0.045
0.130,-0.820,-0.045
0.132,-0.890,-0.045
0.134,-0.870,-0.050
0.136,-0.810,-0.050
0.138,-0.850,-0.050
0.140,-0.885,-0.045
0.142,-0.835,-0.045
0.144,-0.855,-0.040
0.146,-0.825,-0.040
0.148,-0.845,-0.040
0.150,-0.830,-0.045
0.152,-0.860,-0.045
0.154,-0.830,-0.050
0.156,-0.825,-0.055
0.158,-0.815,-0.055
0.160,-0.845,-0.055
0.162,-0.835,-0.050
0.164,-0.865,-0.045
0.166,-0.875,-0.040
0.168,-0.885,-0.040
0.170,-0.840,-0.040
0.172,-0.830,-0.040
0.174,-0.820,-0.045
0.176,-0.845,-0.045
0.178,-0.840,-0.050
0.180,-0.870,-0.050
0.182,-0.865,-0.050
0.184,-0.830,-0.045
0.186,-0.785,-0.035
0.188,-0.810,-0.030
0.190,-0.780,-0.025
0.192,-0.855,-0.025
0.194,-0.885,-0.025
0.196,-0.815,-0.025
0.198,-0.840,-0.035
0.200,-0.870,-0.040
0.202,-0.830,-0.045
0.204,-0.880,-0.055
0.206,-0.825,-0.055
0.208,-0.790,-0.055
0.210,-0.855,-0.055
0.212,-0.815,-0.050
0.214,-0.810,-0.045
0.216,-0.870,-0.040
0.218,-0.850,-0.035
0.220,-0.825,-0.030
0.222,-0.825,-0.025
0.224,-0.835,-0.020
0.226,-0.840,-0.020
0.228,-0.810,-0.020
0.230,-0.810,-0.020
0.232,-0.810,-0.025
0.234,-0.840,-0.030
0.236,-0.875,-0.035
0.238,-0.855,-0.045
0.240,-0.840,-0.055
0.242,-0.805,-0.060
0.244,-0.850,-0.065
0.246,-0.840,-0.065
0.248,-0.835,-0.065
0.250,-0.860,-0.060
0.252,-0.860,-0.055
0.254,-0.830,-0.045
0.256,-0.840,-0.040
0.258,-0.870,-0.035
0.260,-0.850,-0.035
0.262,-0.875,-0.035
0.264,-0.815,-0.040
0.266,-0.755,-0.045
0.268,-0.815,-0.050
0.270,-0.815,-0.055
0.272,-0.830,-0.055
0.274,-0.845,-0.055
0.276,-0.850,-0.055
0.278,-0.855,-0.050
0.280,-0.830,-0.045
0.282,-0.845,-0.045
0.284,-0.820,-0.045
0.286,-0.830,-0.045
0.288,-0.820,-0.045
0.290,-0.875,-0.045
0.292,-0.840,-0.045
0.294,-0.825,-0.045
0.296,-0.795,-0.045
0.298,-0.810,-0.040
0.300,-0.870,-0.040
0.302,-0.830,-0.040
0.304,-0.820,-0.040
0.306,-0.845,-0.040
0.308,-0.860,-0.045
0.310,-0.855,-0.050
0.312,-0.850,-0.055
0.314,-0.830,-0.055
0.316,-0.810,-0.060
0.318,-0.830,-0.055
0.320,-0.855,-0.050
0.322,-0.900,-0.045
0.324,-0.850,-0.035
0.326,-0.800,-0.030
0.328,-0.820,-0.025
0.330,-0.835,-0.025
0.332,-0.810,-0.025
0.334,-0.825,-0.030
0.336,-0.810,-0.040
0.338,-0.790,-0.045
0.340,-0.765,-0.055
0.342,-0.875,-0.055
0.344,-0.885,-0.060
0.346,-0.880,-0.060
0.348,-0.845,-0.060
0.350,-0.800,-0.055
0.352,-0.800,-0.055
0.354,-0.865,-0.050
0.356,-0.855,-0.050
0.358,-0.825,-0.045
0.360,-0.850,-0.045
0.362,-0.870,-0.045
0.364,-0.825,-0.040
0.366,-0.825,-0.040
0.368,-0.840,-0.035
0.370,-0.835,-0.035
0.372,-0.795,-0.035
0.374,-0.800,-0.035
0.376,-0.845,-0.035
0.378,-0.860,-0.040
0.380,-0.810,-0.045
0.382,-0.880,-0.050
0.384,-0.855,-0.055
0.386,-0.835,-0.055
0.388,-0.830,-0.060
0.390,-0.815,-0.060
0.392,-0.780,-0.055
0.394,-0.865,-0.055
0.396,-0.850,-0.055
0.398,-0.830,-0.050
0.400,-0.860,-0.050
0.402,-0.830,-0.050
0.404,-0.815,-0.050
0.406,-0.860,-0.050
0.408,-0.825,-0.050
0.410,-0.835,-0.050
0.412,-0.825,-0.055
0.414,-0.820,-0.055
0.416,-0.845,-0.055
0.418,-0.835,-0.055
0.420,-0.820,-0.055
0.422,-0.840,-0.055
0.424,-0.840,-0.050
0.426,-0.860,-0.050
0.428,-0.850,-0.045
0.430,-0.875,-0.045
0.432,-0.805,-0.045
0.434,-0.790,-0.045
0.436,-0.790,-0.040
0.438,-0.795,-0.040
0.440,-0.805,-0.045
0.442,-0.870,-0.045
0.444,-0.845,-0.045
0.446,-0.835,-0.050
0.448,-0.835,-0.050
0.450,-0.875,-0.055
0.452,-0.850,-0.060
0.454,-0.845,-0.065
0.456,-0.865,-0.065
0.458,-0.845,-0.065
0.460,-0.865,-0.065
0.462,-0.830,-0.060
0.464,-0.820,-0.055
0.466,-0.795,-0.045
0.468,-0.780,-0.040
0.470,-0.825,-0.030
0.472,-0.810,-0.030
0.474,-0.830,-0.030
0.476,-0.860,-0.030
0.478,-0.835,-0.040
0.480,-0.810,-0.045
0.482,-0.850,-0.055
0.484,-0.870,-0.060
0.486,-0.820,-0.060
0.488,-0.835,-0.060
0.490,-0.860,-0.060
0.492,-0.820,-0.055
0.494,-0.820,-0.055
0.496,-0.860,-0.050
0.498,-0.880,-0.050
0.500,-0.850,-0.055
0.502,-0.820,-0.055
0.504,-0.835,-0.060
0.506,-0.840,-0.065
0.508,-0.850,-0.065
0.510,-0.805,-0.060
0.512,-0.800,-0.055
0.514,-0.850,-0.050
0.516,-0.865,-0.045
0.518,-0.815,-0.045
0.520,-0.800,-0.040
0.522,-0.760,-0.040
0.524,-0.825,-0.040
0.526,-0.845,-0.045
0.528,-0.890,-0.045
0.530,-0.855,-0.040
0.532,-0.810,-0.035
0.534,-0.800,-0.030
0.536,-0.775,-0.020
0.538,-0.790,-0.015
0.540,-0.785,-0.005
0.542,-0.790,-0.005
0.544,-0.795,-0.005
0.546,-0.830,-0.005
0.548,-0.845,-0.010
0.550,-0.770,-0.015
0.552,-0.815,-0.015
0.554,-0.785,-0.015
0.556,-0.785,-0.015
0.558,-0.795,-0.010
0.560,-0.805,-0.005
0.562,-0.840,-0.005
0.564,-0.780,-0.005
0.566,-0.785,-0.010
0.568,-0.805,-0.015
0.570,-0.840,-0.020
0.572,-0.805,-0.030
0.574,-0.865,-0.035
0.576,-0.785,-0.035
0.578,-0.765,-0.030
0.580,-0.765,-0.025
0.582,-0.805,-0.015
0.584,-0.825,-0.010
0.586,-0.785,-0.005
0.588,-0.770,0.000
0.590,-0.740,-0.005
0.592,-0.820,-0.015
0.594,-0.815,-0.025
0.596,-0.820,-0.035
0.598,-0.820,-0.045
0.600,-0.855,-0.050
0.602,-0.845,-0.055
0.604,-0.845,-0.060
0.606,-0.855,-0.060
0.608,-0.850,-0.065
0.610,-0.835,-0.070
0.612,-0.840,-0.075
0.614,-0.860,-0.085
0.616,-0.845,-0.095
0.618,-0.845,-0.100
0.620,-0.935,-0.105
0.622,-0.905,-0.100
0.624,-0.865,-0.095
0.626,-0.825,-0.085
0.628,-0.870,-0.075
0.630,-0.820,-0.070
0.632,-0.825,-0.060
0.634,-0.825,-0.055
0.636,-0.870,-0.055
0.638,-0.870,-0.055
0.640,-0.800,-0.055
0.642,-0.800,-0.055
0.644,-0.845,-0.055
0.646,-0.860,-0.055
0.648,-0.880,-0.065
0.650,-0.895,-0.080
0.652,-0.850,-0.100
0.654,-0.945,-0.130
0.656,-0.955,-0.170
0.658,-0.990,-0.205
0.660,-1.005,-0.235
0.662,-1.035,-0.245
0.664,-1.075,-0.240
0.666,-1.060,-0.210
0.668,-0.970,-0.150
0.670,-0.830,-0.070
0.672,-0.700,0.035
0.674,-0.585,0.150
0.676,-0.460,0.275
0.678,-0.340,0.410
0.680,-0.205,0.545
0.682,-0.095,0.690
0.684,0.065,0.835
0.686,0.185,0.990
0.688,0.340,1.145
0.690,0.570,1.290
0.692,0.735,1.410
0.694,0.815,1.500
0.696,0.830,1.535
0.698,0.790,1.510
0.700,0.705,1.415
0.702,0.505,1.260
0.704,0.305,1.050
0.706,0.010,0.815
0.708,-0.320,0.570
0.710,-0.580,0.340
0.712,-0.715,0.145
0.714,-0.820,0.005
0.716,-0.840,-0.080
0.718,-0.860,-0.115
0.720,-0.865,-0.115
0.722,-0.815,-0.095
0.724,-0.840,-0.065
0.726,-0.895,-0.035
0.728,-0.840,-0.025
0.730,-0.840,-0.025
0.732,-0.845,-0.035
0.734,-0.835,-0.045
0.736,-0.830,-0.060
0.738,-0.790,-0.065
0.740,-0.805,-0.060
0.742,-0.800,-0.055
0.744,-0.820,-0.045
0.746,-0.830,-0.035
0.748,-0.845,-0.030
0.750,-0.805,-0.030
0.752,-0.840,-0.040
0.754,-0.825,-0.055
0.756,-0.815,-0.065
0.758,-0.855,-0.075
0.760,-0.865,-0.080
0.762,-0.820,-0.075
0.764,-0.835,-0.065
0.766,-0.820,-0.050
0.768,-0.805,-0.035
0.770,-0.825,-0.025
0.772,-0.775,-0.025
0.774,-0.775,-0.025
0.776,-0.825,-0.030
0.778,-0.870,-0.040
0.780,-0.840,-0.050
0.782,-0.815,-0.055
0.784,-0.840,-0.060
0.786,-0.840,-0.055
0.788,-0.780,-0.045
0.790,-0.760,-0.035
0.792,-0.815,-0.025
0.794,-0.805,-0.020
0.796,-0.745,-0.015
0.798,-0.790,-0.015
0.800,-0.825,-0.020
0.802,-0.830,-0.030
0.804,-0.815,-0.035
0.806,-0.810,-0.040
0.808,-0.820,-0.045
0.810,-0.795,-0.040
0.812,-0.780,-0.030
0.814,-0.785,-0.020
0.816,-0.760,-0.005
0.818,-0.735,0.005
0.820,-0.775,0.015
0.822,-0.805,0.020
0.824,-0.770,0.020
0.826,-0.745,0.015
0.828,-0.765,0.015
0.830,-0.715,0.010
0.832,-0.745,0.010
0.834,-0.745,0.010
0.836,-0.745,0.015
0.838,-0.725,0.025
0.840,-0.730,0.030
0.842,-0.720,0.040
0.844,-0.735,0.045
0.846,-0.730,0.050
0.848,-0.690,0.055
0.850,-0.660,0.055
0.852,-0.735,0.055
0.854,-0.730,0.055
0.856,-0.680,0.060
0.858,-0.705,0.070
0.860,-0.740,0.080
0.862,-0.710,0.090
0.864,-0.625,0.100
0.866,-0.615,0.110
0.868,-0.675,0.115
0.870,-0.670,0.120
0.872,-0.635,0.125
0.874,-0.600,0.130
0.876,-0.635,0.135
0.878,-0.635,0.145
0.880,-0.610,0.155
0.882,-0.630,0.165
0.884,-0.580,0.180
0.886,-0.585,0.190
0.888,-0.545,0.195
0.890,-0.530,0.205
0.892,-0.580,0.205
0.894,-0.550,0.210
0.896,-0.545,0.215
0.898,-0.550,0.220
0.900,-0.540,0.235
0.902,-0.485,0.250
0.904,-0.520,0.270
0.906,-0.495,0.290
0.908,-0.430,0.305
0.910,-0.420,0.320
0.912,-0.480,0.325
0.914,-0.440,0.320
0.916,-0.435,0.315
0.918,-0.460,0.305
0.920,-0.465,0.300
0.922,-0.465,0.295
0.924,-0.445,0.295
0.926,-0.445,0.300
0.928,-0.425,0.310
0.930,-0.415,0.320
0.932,-0.430,0.335
0.934,-0.450,0.340
0.936,-0.435,0.345
0.938,-0.435,0.340
0.940,-0.440,0.330
0.942,-0.505,0.310
0.944,-0.495,0.290
0.946,-0.465,0.270
0.948,-0.440,0.250
0.950,-0.530,0.235
0.952,-0.530,0.220
0.954,-0.525,0.210
0.956,-0.550,0.205
0.958,-0.555,0.195
0.960,-0.560,0.185
0.962,-0.650,0.165
0.964,-0.660,0.150
0.966,-0.670,0.125
0.968,-0.690,0.100
0.970,-0.675,0.080
0.972,-0.730,0.060
0.974,-0.730,0.045
0.976,-0.690,0.035
0.978,-0.730,0.030
0.980,-0.750,0.025
0.982,-0.755,0.020
0.984,-0.785,0.015
0.986,-0.770,0.005
0.988,-0.755,-0.005
0.990,-0.795,-0.020
0.992,-0.790,-0.030
0.994,-0.790,-0.045
0.996,-0.785,-0.050
0.998,-0.850,-0.055
1.000,-0.810,-0.055
1.002,-0.805,-0.050
1.004,-0.815,-0.045
1.006,-0.800,-0.040
1.008,-0.790,-0.035
1.010,-0.810,-0.035
1.012,-0.830,-0.035
1.014,-0.785,-0.040
1.016,-0.770,-0.050
1.018,-0.840,-0.055
1.020,-0.835,-0.060
1.022,-0.820,-0.065
1.024,-0.830,-0.070
1.026,-0.810,-0.075
1.028,-0.800,-0.075
1.030,-0.860,-0.075
1.032,-0.860,-0.075
1.034,-0.870,-0.080
1.036,-0.865,-0.080
1.038,-0.830,-0.085
1.040,-0.785,-0.085
1.042,-0.835,-0.085
1.044,-0.835,-0.085
1.046,-0.835,-0.085
1.048,-0.840,-0.080
1.050,-0.810,-0.075
1.052,-0.845,-0.065
1.054,-0.835,-0.060
1.056,-0.840,-0.055
1.058,-0.850,-0.050
1.060,-0.800,-0.050
1.062,-0.830,-0.050
1.064,-0.830,-0.055
1.066,-0.825,-0.060
1.068,-0.800,-0.065
1.070,-0.860,-0.070
1.072,-0.880,-0.075
1.074,-0.830,-0.075
1.076,-0.800,-0.075
1.078,-0.830,-0.075
1.080,-0.845,-0.075
1.082,-0.845,-0.075
1.084,-0.840,-0.075
1.086,-0.840,-0.075
1.088,-0.830,-0.075
1.090,-0.870,-0.075
1.092,-0.805,-0.075
1.094,-0.780,-0.075
1.096,-0.840,-0.070
1.098,-0.830,-0.070
1.100,-0.850,-0.070
1.102,-0.885,-0.065
1.104,-0.845,-0.065
1.106,-0.840,-0.065
1.108,-0.820,-0.070
1.110,-0.815,-0.070
1.112,-0.845,-0.075
1.114,-0.835,-0.080
1.116,-0.830,-0.085
1.118,-0.840,-0.085
1.120,-0.840,-0.090
1.122,-0.845,-0.090
1.124,-0.865,-0.090
1.126,-0.855,-0.085
1.128,-0.845,-0.085
1.130,-0.825,-0.080
1.132,-0.785,-0.075
1.134,-0.775,-0.070
1.136,-0.825,-0.070
1.138,-0.860,-0.065
1.140,-0.855,-0.065
1.142,-0.855,-0.065
1.144,-0.850,-0.065
1.146,-0.810,-0.065
1.148,-0.815,-0.065
1.150,-0.835,-0.070
1.152,-0.825,-0.070
1.154,-0.850,-0.070
1.156,-0.805,-0.070
1.158,-0.865,-0.065
1.160,-0.785,-0.065
1.162,-0.780,-0.060
1.164,-0.845,-0.055
1.166,-0.830,-0.050
1.168,-0.830,-0.050
1.170,-0.830,-0.050
1.172,-0.820,-0.050
1.174,-0.790,-0.055
1.176,-0.795,-0.060
1.178,-0.790,-0.065
1.180,-0.780,-0.075
1.182,-0.865,-0.080
1.184,-0.915,-0.085
1.186,-0.880,-0.085
1.188,-0.830,-0.085
1.190,-0.845,-0.080
1.192,-0.845,-0.080
1.194,-0.820,-0.075
1.196,-0.820,-0.075
1.198,-0.865,-0.075
1.200,-0.885,-0.080
1.202,-0.855,-0.080
1.204,-0.820,-0.085
1.206,-0.805,-0.090
1.208,-0.835,-0.090
1.210,-0.835,-0.090
1.212,-0.855,-0.085
1.214,-0.845,-0.075
1.216,-0.865,-0.070
1.218,-0.825,-0.060
1.220,-0.805,-0.055
1.222,-0.790,-0.055
1.224,-0.830,-0.055
1.226,-0.850,-0.060
1.228,-0.830,-0.065
1.230,-0.840,-0.075
1.232,-0.845,-0.080
1.234,-0.840,-0.085
1.236,-0.900,-0.090
1.238,-0.840,-0.090
1.240,-0.785,-0.090
1.242,-0.870,-0.090
1.244,-0.855,-0.085
1.246,-0.820,-0.085
1.248,-0.820,-0.080
1.250,-0.805,-0.080
1.252,-0.820,-0.080
1.254,-0.820,-0.080
1.256,-0.885,-0.075
1.258,-0.905,-0.075
1.260,-0.875,-0.075
1.262,-0.820,-0.080
1.264,-0.825,-0.080
1.266,-0.820,-0.080
1.268,-0.845,-0.085
1.270,-0.835,-0.090
1.272,-0.840,-0.095
1.274,-0.825,-0.100
1.276,-0.890,-0.100
1.278,-0.875,-0.100
1.280,-0.855,-0.100
1.282,-0.835,-0.095
1.284,-0.850,-0.095
1.286,-0.830,-0.090
1.288,-0.845,-0.085
1.290,-0.830,-0.085
1.292,-0.865,-0.080
1.294,-0.845,-0.080
1.296,-0.855,-0.080
1.298,-0.870,-0.080
1.300,-0.840,-0.080
1.302,-0.835,-0.080
1.304,-0.885,-0.080
1.306,-0.820,-0.080
1.308,-0.830,-0.085
1.310,-0.840,-0.085
1.312,-0.845,-0.090
1.314,-0.840,-0.090
1.316,-0.880,-0.095
1.318,-0.860,-0.095
1.320,-0.880,-0.090
1.322,-0.825,-0.090
1.324,-0.835,-0.085
1.326,-0.860,-0.085
1.328,-0.845,-0.085
1.330,-0.850,-0.085
1.332,-0.890,-0.090
1.334,-0.870,-0.095
1.336,-0.875,-0.100
1.338,-0.840,-0.100
1.340,-0.865,-0.105
1.342,-0.825,-0.105
1.344,-0.815,-0.100
1.346,-0.865,-0.095
1.348,-0.850,-0.095
1.350,-0.880,-0.090
1.352,-0.865,-0.085
1.354,-0.850,-0.085
1.356,-0.855,-0.085
1.358,-0.850,-0.090
1.360,-0.855,-0.090
1.362,-0.870,-0.095
1.364,-0.860,-0.095
1.366,-0.845,-0.095
1.368,-0.840,-0.095
1.370,-0.875,-0.090
1.372,-0.885,-0.090
1.374,-0.855,-0.085
1.376,-0.850,-0.085
1.378,-0.805,-0.085
1.380,-0.870,-0.085
1.382,-0.855,-0.085
1.384,-0.805,-0.090
1.386,-0.825,-0.090
1.388,-0.855,-0.090
1.390,-0.870,-0.085
1.392,-0.850,-0.085
1.394,-0.840,-0.080
1.396,-0.835,-0.075
1.398,-0.805,-0.075
1.400,-0.830,-0.075
1.402,-0.845,-0.075
1.404,-0.855,-0.075
1.406,-0.830,-0.080
1.408,-0.815,-0.085
1.410,-0.855,-0.090
1.412,-0.860,-0.090
1.414,-0.850,-0.095
1.416,-0.865,-0.095
1.418,-0.870,-0.095
1.420,-0.865,-0.095
1.422,-0.875,-0.090
1.424,-0.880,-0.090
1.426,-0.855,-0.085
1.428,-0.835,-0.085
1.430,-0.820,-0.085
1.432,-0.830,-0.090
1.434,-0.860,-0.095
1.436,-0.900,-0.095
1.438,-0.890,-0.100
1.440,-0.865,-0.100
1.442,-0.875,-0.105
1.444,-0.850,-0.100
1.446,-0.850,-0.095
1.448,-0.815,-0.090
1.450,-0.825,-0.085
1.452,-0.825,-0.080
1.454,-0.865,-0.080
1.456,-0.875,-0.080
1.458,-0.835,-0.080
1.460,-0.835,-0.085
1.462,-0.855,-0.090
1.464,-0.920,-0.090
1.466,-0.840,-0.095
1.468,-0.805,-0.095
1.470,-0.850,-0.095
1.472,-0.880,-0.095
1.474,-0.855,-0.095
1.476,-0.840,-0.090
1.478,-0.845,-0.090
1.480,-0.875,-0.095
1.482,-0.865,-0.095
1.484,-0.900,-0.100
1.486,-0.855,-0.100
1.488,-0.855,-0.100
1.490,-0.840,-0.105
1.492,-0.840,-0.100
1.494,-0.895,-0.100
1.496,-0.855,-0.095
1.498,-0.855,-0.095
1.500,-0.865,-0.090
1.502,-0.870,-0.090
1.504,-0.840,-0.090
1.506,-0.820,-0.090
1.508,-0.860,-0.085
1.510,-0.865,-0.085
1.512,-0.830,-0.085
1.514,-0.845,-0.080
1.516,-0.830,-0.080
1.518,-0.875,-0.075
1.520,-0.820,-0.075
1.522,-0.845,-0.080
1.524,-0.875,-0.085
1.526,-0.840,-0.090
1.528,-0.860,-0.095
1.530,-0.875,-0.105
1.532,-0.865,-0.110
1.534,-0.900,-0.115
1.536,-0.885,-0.115
1.538,-0.860,-0.115
1.540,-0.835,-0.115
1.542,-0.850,-0.110
1.544,-0.840,-0.105
1.546,-0.850,-0.100
1.548,-0.840,-0.095
1.550,-0.845,-0.090
1.552,-0.840,-0.085
1.554,-0.860,-0.085
1.556,-0.880,-0.080
1.558,-0.830,-0.080
1.560,-0.815,-0.080
1.562,-0.845,-0.075
1.564,-0.855,-0.075
1.566,-0.835,-0.070
1.568,-0.840,-0.070
1.570,-0.855,-0.065
1.572,-0.800,-0.065
1.574,-0.840,-0.060
1.576,-0.845,-0.060
1.578,-0.815,-0.060
1.580,-0.770,-0.055
1.582,-0.855,-0.055
1.584,-0.800,-0.055
1.586,-0.770,-0.055
1.588,-0.810,-0.055
1.590,-0.835,-0.055
1.592,-0.820,-0.055
1.594,-0.870,-0.055
1.596,-0.850,-0.055
1.598,-0.785,-0.055
1.600,-0.810,-0.050
1.602,-0.830,-0.045
1.604,-0.760,-0.045
1.606,-0.775,-0.040
1.608,-0.810,-0.040
1.610,-0.850,-0.040
1.612,-0.850,-0.045
1.614,-0.850,-0.055
1.616,-0.845,-0.065
1.618,-0.855,-0.075
1.620,-0.870,-0.085
1.622,-0.840,-0.095
1.624,-0.810,-0.095
1.626,-0.800,-0.090
1.628,-0.805,-0.085
1.630,-0.785,-0.075
1.632,-0.805,-0.065
1.634,-0.880,-0.055
1.636,-0.860,-0.055
1.638,-0.800,-0.060
1.640,-0.860,-0.065
1.642,-0.825,-0.075
1.644,-0.830,-0.080
1.646,-0.855,-0.090
1.648,-0.830,-0.090
1.650,-0.845,-0.090
1.652,-0.875,-0.090
1.654,-0.925,-0.085
1.656,-0.865,-0.085
1.658,-0.865,-0.090
1.660,-0.900,-0.090
1.662,-0.875,-0.100
1.664,-0.825,-0.105
1.666,-0.855,-0.115
1.668,-0.875,-0.120
1.670,-0.880,-0.125
1.672,-0.870,-0.125
1.674,-0.900,-0.125
1.676,-0.915,-0.125
1.678,-0.910,-0.130
1.680,-0.875,-0.130
1.682,-0.895,-0.135
1.684,-0.870,-0.140
1.686,-0.865,-0.140
1.688,-0.860,-0.135
1.690,-0.850,-0.130
1.692,-0.895,-0.125
1.694,-0.915,-0.125
1.696,-0.915,-0.130
1.698,-0.920,-0.145
1.700,-0.970,-0.170
1.702,-0.995,-0.205
1.704,-1.010,-0.240
1.706,-1.060,-0.270
1.708,-1.070,-0.280
1.710,-1.055,-0.270
1.712,-0.990,-0.235
1.714,-0.920,-0.175
1.716,-0.870,-0.090
1.718,-0.700,0.015
1.720,-0.615,0.125
1.722,-0.555,0.245
1.724,-0.415,0.365
1.726,-0.275,0.490
1.728,-0.065,0.620
1.730,0.025,0.760
1.732,0.155,0.910
1.734,0.305,1.070
1.736,0.485,1.225
1.738,0.630,1.360
1.740,0.745,1.465
1.742,0.825,1.515
1.744,0.785,1.495
1.746,0.750,1.405
1.748,0.535,1.245
1.750,0.320,1.030
1.752,-0.030,0.785
1.754,-0.355,0.535
1.756,-0.615,0.305
1.758,-0.720,0.115
1.760,-0.830,-0.020
1.762,-0.875,-0.105
1.764,-0.890,-0.145
1.766,-0.915,-0.150
1.768,-0.900,-0.130
1.770,-0.855,-0.110
1.772,-0.865,-0.095
1.774,-0.900,-0.085
1.776,-0.870,-0.085
1.778,-0.875,-0.085
1.780,-0.850,-0.090
1.782,-0.820,-0.090
1.784,-0.835,-0.085
1.786,-0.805,-0.080
1.788,-0.830,-0.070
1.790,-0.860,-0.065
1.792,-0.875,-0.065
1.794,-0.905,-0.070
1.796,-0.870,-0.080
1.798,-0.860,-0.095
1.800,-0.880,-0.110
1.802,-0.870,-0.115
1.804,-0.880,-0.120
1.806,-0.835,-0.110
1.808,-0.850,-0.100
1.810,-0.860,-0.090
1.812,-0.875,-0.075
1.814,-0.850,-0.070
1.816,-0.870,-0.065
1.818,-0.825,-0.070
1.820,-0.850,-0.080
1.822,-0.875,-0.085
1.824,-0.830,-0.095
1.826,-0.825,-0.100
1.828,-0.875,-0.100
1.830,-0.845,-0.095
1.832,-0.845,-0.085
1.834,-0.835,-0.075
1.836,-0.840,-0.065
1.838,-0.830,-0.055
1.840,-0.845,-0.050
1.842,-0.795,-0.050
1.844,-0.815,-0.045
1.846,-0.815,-0.045
1.848,-0.820,-0.045
1.850,-0.835,-0.045
1.852,-0.830,-0.045
1.854,-0.795,-0.045
1.856,-0.785,-0.045
1.858,-0.805,-0.040
1.860,-0.835,-0.040
1.862,-0.845,-0.045
1.864,-0.820,-0.045
1.866,-0.810,-0.045
1.868,-0.800,-0.045
1.870,-0.785,-0.040
1.872,-0.790,-0.035
1.874,-0.760,-0.030
1.876,-0.755,-0.020
1.878,-0.825,-0.015
1.880,-0.795,-0.010
1.882,-0.775,-0.005
1.884,-0.765,0.000
1.886,-0.720,0.000
1.888,-0.765,0.005
1.890,-0.735,0.005
1.892,-0.750,0.010
1.894,-0.765,0.015
1.896,-0.760,0.020
1.898,-0.740,0.025
1.900,-0.740,0.035
1.902,-0.715,0.045
1.904,-0.705,0.050
1.906,-0.705,0.055
1.908,-0.720,0.060
1.910,-0.715,0.065
1.912,-0.700,0.070
1.914,-0.650,0.075
1.916,-0.695,0.080
1.918,-0.675,0.090
1.920,-0.690,0.105
1.922,-0.645,0.120
1.924,-0.610,0.135
1.926,-0.635,0.145
1.928,-0.600,0.160
1.930,-0.600,0.170
1.932,-0.625,0.175
1.934,-0.635,0.180
1.936,-0.590,0.185
1.938,-0.565,0.185
1.940,-0.540,0.185
1.942,-0.575,0.190
1.944,-0.565,0.195
1.946,-0.535,0.210
1.948,-0.520,0.220
1.950,-0.505,0.235
1.952,-0.515,0.250
1.954,-0.495,0.270
1.956,-0.480,0.280
1.958,-0.490,0.295
1.960,-0.480,0.305
1.962,-0.480,0.310
1.964,-0.455,0.310
1.966,-0.455,0.315
1.968,-0.405,0.315
1.970,-0.480,0.310
1.972,-0.475,0.310
1.974,-0.450,0.310
1.976,-0.450,0.305
1.978,-0.500,0.305
1.980,-0.480,0.305
1.982,-0.455,0.305
1.984,-0.450,0.300
1.986,-0.490,0.300
1.988,-0.505,0.295
1.990,-0.500,0.285
1.992,-0.520,0.280
1.994,-0.495,0.265
1.996,-0.490,0.255
1.998,-0.545,0.240
2.000,-0.565,0.225
2.002,-0.585,0.210
2.004,-0.640,0.190
2.006,-0.635,0.175
2.008,-0.570,0.160
2.010,-0.590,0.145
2.012,-0.650,0.130
2.014,-0.675,0.110
2.016,-0.675,0.095
2.018,-0.735,0.080
2.020,-0.705,0.065
2.022,-0.685,0.050
2.024,-0.745,0.040
2.026,-0.780,0.030
2.028,-0.745,0.020
2.030,-0.760,0.010
2.032,-0.785,0.005
2.034,-0.815,0.000
2.036,-0.820,-0.010
2.038,-0.845,-0.015
2.040,-0.785,-0.020
2.042,-0.800,-0.025
2.044,-0.795,-0.030
2.046,-0.775,-0.035
2.048,-0.790,-0.040
2.050,-0.860,-0.040
2.052,-0.835,-0.045
2.054,-0.770,-0.045
2.056,-0.845,-0.050
2.058,-0.880,-0.055
2.060,-0.855,-0.060
2.062,-0.850,-0.070
2.064,-0.855,-0.075
2.066,-0.845,-0.080
2.068,-0.825,-0.080
2.070,-0.810,-0.075
2.072,-0.800,-0.070
2.074,-0.840,-0.060
2.076,-0.830,-0.050
2.078,-0.860,-0.045
2.080,-0.825,-0.040
2.082,-0.835,-0.040
2.084,-0.865,-0.045
2.086,-0.830,-0.055
2.088,-0.810,-0.060
2.090,-0.850,-0.070
2.092,-0.835,-0.070
2.094,-0.855,-0.070
2.096,-0.835,-0.060
2.098,-0.790,-0.055
2.100,-0.815,-0.045
2.102,-0.825,-0.040
2.104,-0.840,-0.045
2.106,-0.870,-0.045
2.108,-0.840,-0.055
2.110,-0.835,-0.065
2.112,-0.865,-0.075
2.114,-0.885,-0.080
2.116,-0.850,-0.080
2.118,-0.840,-0.075
2.120,-0.765,-0.065
2.122,-0.820,-0.055
2.124,-0.845,-0.050
2.126,-0.845,-0.045
2.128,-0.825,-0.045
2.130,-0.845,-0.050
2.132,-0.830,-0.055
2.134,-0.825,-0.060
2.136,-0.850,-0.065
2.138,-0.850,-0.070
2.140,-0.820,-0.065
2.142,-0.845,-0.060
2.144,-0.855,-0.055
2.146,-0.870,-0.050
2.148,-0.810,-0.045
2.150,-0.825,-0.050
2.152,-0.865,-0.055
2.154,-0.865,-0.060
2.156,-0.880,-0.070
2.158,-0.850,-0.075
2.160,-0.830,-0.080
2.162,-0.810,-0.080
2.164,-0.815,-0.075
2.166,-0.830,-0.070
2.168,-0.810,-0.060
2.170,-0.805,-0.055
2.172,-0.900,-0.050
2.174,-0.855,-0.050
2.176,-0.860,-0.050
2.178,-0.815,-0.055
2.180,-0.780,-0.060
2.182,-0.840,-0.065
2.184,-0.840,-0.065
2.186,-0.840,-0.065
2.188,-0.820,-0.060
2.190,-0.825,-0.055
2.192,-0.840,-0.055
2.194,-0.830,-0.050
2.196,-0.865,-0.055
2.198,-0.870,-0.055
2.200,-0.830,-0.060
2.202,-0.845,-0.065
2.204,-0.835,-0.070
2.206,-0.815,-0.070
2.208,-0.820,-0.065
2.210,-0.875,-0.060
2.212,-0.820,-0.050
2.214,-0.800,-0.045
2.216,-0.835,-0.040
2.218,-0.865,-0.040
2.220,-0.875,-0.045
2.222,-0.835,-0.050
2.224,-0.775,-0.055
2.226,-0.805,-0.065
2.228,-0.870,-0.070
2.230,-0.870,-0.070
2.232,-0.835,-0.070
2.234,-0.785,-0.065
2.236,-0.845,-0.060
2.238,-0.880,-0.055
2.240,-0.855,-0.055
2.242,-0.870,-0.055
2.244,-0.875,-0.060
2.246,-0.855,-0.065
2.248,-0.830,-0.070
2.250,-0.805,-0.075
2.252,-0.835,-0.075
2.254,-0.840,-0.075
2.256,-0.860,-0.070
2.258,-0.850,-0.065
2.260,-0.880,-0.060
2.262,-0.845,-0.055
2.264,-0.855,-0.055
2.266,-0.825,-0.055
2.268,-0.840,-0.060
2.270,-0.845,-0.060
2.272,-0.815,-0.065
2.274,-0.815,-0.065
2.276,-0.815,-0.065
2.278,-0.855,-0.060
2.280,-0.825,-0.055
2.282,-0.875,-0.055
2.284,-0.850,-0.055
2.286,-0.835,-0.055
2.288,-0.810,-0.060
2.290,-0.810,-0.060
2.292,-0.840,-0.060
2.294,-0.845,-0.060
2.296,-0.865,-0.060
2.298,-0.845,-0.055
2.300,-0.810,-0.055
2.302,-0.855,-0.055
2.304,-0.845,-0.060
2.306,-0.835,-0.065
2.308,-0.865,-0.070
2.310,-0.855,-0.080
2.312,-0.875,-0.085
2.314,-0.865,-0.090
2.316,-0.855,-0.090
2.318,-0.850,-0.085
2.320,-0.840,-0.080
2.322,-0.855,-0.070
2.324,-0.825,-0.060
2.326,-0.805,-0.055
2.328,-0.830,-0.055
2.330,-0.885,-0.060
2.332,-0.870,-0.065
2.334,-0.845,-0.075
2.336,-0.905,-0.085
2.338,-0.870,-0.090
2.340,-0.810,-0.095
2.342,-0.830,-0.090
2.344,-0.850,-0.080
2.346,-0.850,-0.065
2.348,-0.820,-0.050
2.350,-0.835,-0.040
2.352,-0.850,-0.030
2.354,-0.860,-0.030
2.356,-0.860,-0.030
2.358,-0.810,-0.040
2.360,-0.820,-0.050
2.362,-0.840,-0.060
2.364,-0.860,-0.070
2.366,-0.840,-0.080
2.368,-0.865,-0.090
2.370,-0.875,-0.090
2.372,-0.880,-0.090
2.374,-0.860,-0.090
2.376,-0.870,-0.080
2.378,-0.840,-0.070
2.380,-0.815,-0.065
2.382,-0.830,-0.055
2.384,-0.880,-0.050
2.386,-0.840,-0.050
2.388,-0.850,-0.050
2.390,-0.860,-0.055
2.392,-0.810,-0.060
2.394,-0.880,-0.070
2.396,-0.860,-0.075
2.398,-0.805,-0.075
2.400,-0.845,-0.075
2.402,-0.880,-0.075
2.404,-0.860,-0.070
2.406,-0.830,-0.065
2.408,-0.860,-0.060
2.410,-0.850,-0.060
2.412,-0.855,-0.060
2.414,-0.860,-0.065
2.416,-0.845,-0.075
2.418,-0.885,-0.080
2.420,-0.865,-0.080
2.422,-0.825,-0.085
2.424,-0.830,-0.080
2.426,-0.845,-0.080
2.428,-0.890,-0.075
2.430,-0.865,-0.070
2.432,-0.820,-0.065
2.434,-0.880,-0.065
2.436,-0.845,-0.065
2.438,-0.850,-0.070
2.440,-0.880,-0.075
2.442,-0.850,-0.075
2.444,-0.850,-0.075
2.446,-0.785,-0.075
2.448,-0.855,-0.070
2.450,-0.895,-0.065
2.452,-0.835,-0.060
2.454,-0.870,-0.055
2.456,-0.875,-0.050
2.458,-0.850,-0.050
2.460,-0.845,-0.055
2.462,-0.810,-0.055
2.464,-0.830,-0.060
2.466,-0.805,-0.065
2.468,-0.820,-0.065
2.470,-0.830,-0.065
2.472,-0.890,-0.065
2.474,-0.915,-0.065
2.476,-0.895,-0.065
2.478,-0.850,-0.070
2.480,-0.830,-0.070
2.482,-0.840,-0.070
2.484,-0.850,-0.070
2.486,-0.870,-0.070
2.488,-0.855,-0.070
2.490,-0.870,-0.065
2.492,-0.860,-0.065
2.494,-0.840,-0.060
2.496,-0.830,-0.060
2.498,-0.830,-0.055
2.500,-0.870,-0.060
2.502,-0.850,-0.060
2.504,-0.850,-0.065
2.506,-0.865,-0.065
2.508,-0.895,-0.065
2.510,-0.860,-0.065
2.512,-0.845,-0.060
2.514,-0.850,-0.055
2.516,-0.825,-0.050
2.518,-0.820,-0.040
2.520,-0.825,-0.040
2.522,-0.845,-0.040
2.524,-0.825,-0.040
2.526,-0.835,-0.050
2.528,-0.865,-0.055
2.530,-0.860,-0.065
2.532,-0.875,-0.075
2.534,-0.830,-0.080
2.536,-0.830,-0.080
2.538,-0.925,-0.080
2.540,-0.880,-0.075
2.542,-0.800,-0.075
2.544,-0.830,-0.070
2.546,-0.895,-0.070
2.548,-0.905,-0.070
2.550,-0.865,-0.070
2.552,-0.840,-0.075
2.554,-0.855,-0.080
2.556,-0.870,-0.080
2.558,-0.860,-0.080
2.560,-0.830,-0.075
2.562,-0.825,-0.070
2.564,-0.840,-0.065
2.566,-0.825,-0.060
2.568,-0.855,-0.055
2.570,-0.855,-0.050
2.572,-0.885,-0.050
2.574,-0.835,-0.050
2.576,-0.830,-0.055
2.578,-0.840,-0.055
2.580,-0.850,-0.060
2.582,-0.845,-0.060
2.584,-0.820,-0.065
2.586,-0.835,-0.070
2.588,-0.880,-0.075
2.590,-0.905,-0.080
2.592,-0.895,-0.085
2.594,-0.875,-0.090
2.596,-0.830,-0.095
2.598,-0.855,-0.095
2.600,-0.895,-0.090
2.602,-0.845,-0.085
2.604,-0.840,-0.075
2.606,-0.870,-0.065
2.608,-0.855,-0.055
2.610,-0.810,-0.050
2.612,-0.825,-0.050
2.614,-0.860,-0.050
2.616,-0.840,-0.055
2.618,-0.845,-0.060
2.620,-0.850,-0.065
2.622,-0.855,-0.065
2.624,-0.845,-0.070
2.626,-0.845,-0.070
2.628,-0.865,-0.065
2.630,-0.820,-0.060
2.632,-0.865,-0.060
2.634,-0.870,-0.055
2.636,-0.860,-0.055
2.638,-0.810,-0.055
2.640,-0.840,-0.055
2.642,-0.840,-0.060
2.644,-0.810,-0.060
2.646,-0.855,-0.060
2.648,-0.865,-0.065
2.650,-0.850,-0.060
2.652,-0.820,-0.060
2.654,-0.800,-0.050
2.656,-0.780,-0.045
2.658,-0.775,-0.035
2.660,-0.815,-0.025
2.662,-0.840,-0.015
2.664,-0.775,-0.010
2.666,-0.790,-0.005
2.668,-0.785,-0.005
2.670,-0.820,-0.005
2.672,-0.805,-0.010
2.674,-0.800,-0.020
2.676,-0.815,-0.035
2.678,-0.845,-0.045
2.680,-0.825,-0.055
2.682,-0.830,-0.060
2.684,-0.815,-0.060
2.686,-0.840,-0.060
2.688,-0.860,-0.050
2.690,-0.815,-0.045
2.692,-0.860,-0.035
2.694,-0.875,-0.025
2.696,-0.800,-0.020
2.698,-0.800,-0.020
2.700,-0.790,-0.020
2.702,-0.775,-0.025
2.704,-0.795,-0.030
2.706,-0.840,-0.035
2.708,-0.835,-0.040
2.710,-0.835,-0.045
2.712,-0.850,-0.050
2.714,-0.855,-0.055
2.716,-0.820,-0.060
2.718,-0.870,-0.065
2.720,-0.840,-0.070
2.722,-0.850,-0.075
2.724,-0.875,-0.080
2.726,-0.880,-0.085
2.728,-0.905,-0.090
2.730,-0.870,-0.090
2.732,-0.850,-0.090
2.734,-0.855,-0.090
2.736,-0.840,-0.090
2.738,-0.840,-0.090
2.740,-0.880,-0.090
2.742,-0.890,-0.095
2.744,-0.865,-0.100
2.746,-0.915,-0.105
2.748,-0.920,-0.115
2.750,-0.870,-0.120
2.752,-0.850,-0.125
2.754,-0.900,-0.125
2.756,-0.900,-0.120
2.758,-0.905,-0.115
2.760,-0.885,-0.105
2.762,-0.820,-0.095
2.764,-0.865,-0.090
2.766,-0.900,-0.090
2.768,-0.920,-0.100
2.770,-0.910,-0.120
2.772,-0.945,-0.145
2.774,-1.000,-0.175
2.776,-1.025,-0.205
2.778,-0.995,-0.230
2.780,-1.010,-0.240
2.782,-1.015,-0.235
2.784,-0.995,-0.210
2.786,-0.975,-0.165
2.788,-0.895,-0.100
2.790,-0.795,-0.020
2.792,-0.690,0.080
2.794,-0.605,0.190
2.796,-0.460,0.310
2.798,-0.325,0.445
2.800,-0.175,0.585
2.802,-0.025,0.740
2.804,0.170,0.900
2.806,0.300,1.060
2.808,0.430,1.215
2.810,0.615,1.350
2.812,0.715,1.450
2.814,0.800,1.505
2.816,0.800,1.500
2.818,0.695,1.430
2.820,0.585,1.305
2.822,0.400,1.120
2.824,0.165,0.905
2.826,-0.205,0.675
2.828,-0.485,0.450
2.830,-0.640,0.250
2.832,-0.795,0.090
2.834,-0.825,-0.025
2.836,-0.870,-0.090
2.838,-0.870,-0.120
2.840,-0.895,-0.115
2.842,-0.835,-0.100
2.844,-0.840,-0.080
2.846,-0.895,-0.060
2.848,-0.865,-0.050
2.850,-0.875,-0.050
2.852,-0.845,-0.060
2.854,-0.840,-0.070
2.856,-0.820,-0.075
2.858,-0.835,-0.080
2.860,-0.835,-0.080
2.862,-0.840,-0.070
2.864,-0.850,-0.060
2.866,-0.885,-0.055
2.868,-0.840,-0.045
2.870,-0.820,-0.045
2.872,-0.850,-0.045
2.874,-0.845,-0.050
2.876,-0.810,-0.050
2.878,-0.825,-0.055
2.880,-0.805,-0.055
2.882,-0.830,-0.055
2.884,-0.840,-0.050
2.886,-0.840,-0.050
2.888,-0.845,-0.045
2.890,-0.810,-0.045
2.892,-0.810,-0.045
2.894,-0.845,-0.045
2.896,-0.850,-0.045
2.898,-0.860,-0.050
2.900,-0.835,-0.050
2.902,-0.785,-0.055
2.904,-0.795,-0.050
2.906,-0.830,-0.050
2.908,-0.900,-0.050
2.910,-0.845,-0.045
2.912,-0.830,-0.045
2.914,-0.785,-0.045
2.916,-0.805,-0.045
2.918,-0.845,-0.045
2.920,-0.820,-0.045
2.922,-0.800,-0.040
2.924,-0.800,-0.035
2.926,-0.815,-0.030
2.928,-0.785,-0.020
2.930,-0.775,-0.015
2.932,-0.775,-0.010
2.934,-0.790,-0.005
2.936,-0.840,0.000
2.938,-0.760,0.000
2.940,-0.805,-0.005
2.942,-0.780,-0.005
2.944,-0.785,-0.010
2.946,-0.775,-0.010
2.948,-0.815,-0.010
2.950,-0.770,-0.010
2.952,-0.795,0.000
2.954,-0.760,0.005
2.956,-0.760,0.015
2.958,-0.770,0.025
2.960,-0.730,0.030
2.962,-0.715,0.040
2.964,-0.745,0.045
2.966,-0.755,0.045
2.968,-0.730,0.050
2.970,-0.720,0.060
2.972,-0.730,0.065
2.974,-0.690,0.070
2.976,-0.685,0.080
2.978,-0.690,0.090
2.980,-0.635,0.100
2.982,-0.665,0.105
2.984,-0.710,0.110
2.986,-0.715,0.115
2.988,-0.675,0.120
2.990,-0.610,0.120
2.992,-0.645,0.125
2.994,-0.650,0.125
2.996,-0.650,0.130
2.998,-0.625,0.135
3.000,-0.605,0.145
3.002,-0.585,0.155
3.004,-0.645,0.165
3.006,-0.605,0.170
3.008,-0.600,0.180
3.010,-0.585,0.190
3.012,-0.565,0.200
3.014,-0.530,0.205
3.016,-0.520,0.215
3.018,-0.525,0.225
3.020,-0.505,0.235
3.022,-0.525,0.245
3.024,-0.515,0.255
3.026,-0.520,0.270
3.028,-0.495,0.280
3.030,-0.495,0.290
3.032,-0.495,0.305
3.034,-0.440,0.315
3.036,-0.450,0.320
3.038,-0.425,0.325
3.040,-0.455,0.330
3.042,-0.430,0.330
3.044,-0.425,0.335
3.046,-0.460,0.335
3.048,-0.440,0.330
3.050,-0.470,0.330
3.052,-0.455,0.330
3.054,-0.445,0.325
3.056,-0.445,0.320
3.058,-0.460,0.315
3.060,-0.460,0.305
3.062,-0.490,0.295
3.064,-0.490,0.285
3.066,-0.480,0.275
3.068,-0.530,0.260
3.070,-0.565,0.250
3.072,-0.570,0.235
3.074,-0.555,0.225
3.076,-0.580,0.210
3.078,-0.585,0.195
3.080,-0.615,0.180
3.082,-0.640,0.165
3.084,-0.660,0.145
3.086,-0.685,0.125
3.088,-0.690,0.110
3.090,-0.705,0.095
3.092,-0.715,0.080
3.094,-0.725,0.070
3.096,-0.735,0.060
3.098,-0.745,0.055
3.100,-0.745,0.045
3.102,-0.765,0.030
3.104,-0.790,0.015
3.106,-0.790,0.000
3.108,-0.765,-0.015
3.110,-0.830,-0.030
3.112,-0.845,-0.045
3.114,-0.855,-0.055
3.116,-0.840,-0.060
3.118,-0.795,-0.065
3.120,-0.840,-0.060
3.122,-0.825,-0.060
3.124,-0.830,-0.055
3.126,-0.830,-0.050
3.128,-0.855,-0.050
3.130,-0.875,-0.050
3.132,-0.820,-0.045
3.134,-0.805,-0.050
3.136,-0.815,-0.050
3.138,-0.815,-0.050
3.140,-0.820,-0.055
3.142,-0.815,-0.055
3.144,-0.850,-0.060
3.146,-0.860,-0.060
3.148,-0.840,-0.060
3.150,-0.850,-0.060
3.152,-0.865,-0.060
3.154,-0.850,-0.060
3.156,-0.845,-0.060
3.158,-0.840,-0.060
3.160,-0.840,-0.065
3.162,-0.850,-0.070
3.164,-0.850,-0.070
3.166,-0.830,-0.075
3.168,-0.875,-0.075
3.170,-0.885,-0.075
3.172,-0.830,-0.075
3.174,-0.810,-0.070
3.176,-0.825,-0.065
3.178,-0.875,-0.065
3.180,-0.840,-0.060
3.182,-0.855,-0.060
3.184,-0.875,-0.060
3.186,-0.845,-0.065
3.188,-0.840,-0.065
3.190,-0.865,-0.065
3.192,-0.795,-0.065
3.194,-0.845,-0.065
3.196,-0.870,-0.065
3.198,-0.830,-0.065
3.200,-0.845,-0.065
3.202,-0.870,-0.065
3.204,-0.860,-0.065
3.206,-0.860,-0.070
3.208,-0.845,-0.075
3.210,-0.845,-0.080
3.212,-0.825,-0.085
3.214,-0.810,-0.090
3.216,-0.875,-0.090
3.218,-0.875,-0.090
3.220,-0.865,-0.090
3.222,-0.875,-0.085
3.224,-0.840,-0.080
3.226,-0.880,-0.075
3.228,-0.875,-0.070
3.230,-0.825,-0.065
3.232,-0.860,-0.060
3.234,-0.825,-0.060
3.236,-0.825,-0.060
3.238,-0.785,-0.060
3.240,-0.725,-0.060
3.242,-0.865,-0.065
3.244,-0.925,-0.070
3.246,-0.890,-0.080
3.248,-0.875,-0.090
3.250,-0.855,-0.095
3.252,-0.815,-0.105
3.254,-0.845,-0.105
3.256,-0.870,-0.105
3.258,-0.870,-0.100
3.260,-0.870,-0.090
3.262,-0.870,-0.080
3.264,-0.825,-0.065
3.266,-0.830,-0.055
3.268,-0.845,-0.055
3.270,-0.855,-0.055
3.272,-0.835,-0.060
3.274,-0.850,-0.075
3.276,-0.870,-0.085
3.278,-0.855,-0.095
3.280,-0.835,-0.100
3.282,-0.880,-0.105
3.284,-0.865,-0.100
3.286,-0.880,-0.090
3.288,-0.900,-0.080
3.290,-0.845,-0.075
3.292,-0.820,-0.070
3.294,-0.850,-0.070
3.296,-0.865,-0.075
3.298,-0.840,-0.085
3.300,-0.820,-0.095
3.302,-0.880,-0.100
3.304,-0.850,-0.100
3.306,-0.860,-0.095
3.308,-0.875,-0.090
3.310,-0.820,-0.075
3.312,-0.795,-0.065
3.314,-0.840,-0.060
3.316,-0.855,-0.060
3.318,-0.840,-0.060
3.320,-0.845,-0.070
3.322,-0.905,-0.080
3.324,-0.875,-0.090
3.326,-0.865,-0.095
3.328,-0.895,-0.095
3.330,-0.815,-0.090
3.332,-0.815,-0.080
3.334,-0.830,-0.070
3.336,-0.855,-0.060
3.338,-0.840,-0.055
3.340,-0.810,-0.060
3.342,-0.860,-0.070
3.344,-0.865,-0.085
3.346,-0.835,-0.100
3.348,-0.920,-0.110
3.350,-0.915,-0.120
3.352,-0.870,-0.120
3.354,-0.850,-0.115
3.356,-0.810,-0.105
3.358,-0.835,-0.090
3.360,-0.825,-0.080
3.362,-0.885,-0.070
3.364,-0.890,-0.065
3.366,-0.840,-0.065
3.368,-0.810,-0.070
3.370,-0.840,-0.080
3.372,-0.830,-0.090
3.374,-0.885,-0.100
3.376,-0.895,-0.105
3.378,-0.850,-0.110
3.380,-0.890,-0.105
3.382,-0.860,-0.105
3.384,-0.900,-0.100
3.386,-0.880,-0.095
3.388,-0.840,-0.090
3.390,-0.845,-0.090
3.392,-0.815,-0.090
3.394,-0.810,-0.090
3.396,-0.885,-0.095
3.398,-0.880,-0.100
3.400,-0.865,-0.100
3.402,-0.895,-0.100
3.404,-0.855,-0.105
3.406,-0.840,-0.100
3.408,-0.900,-0.100
3.410,-0.900,-0.095
3.412,-0.830,-0.095
3.414,-0.830,-0.090
3.416,-0.860,-0.090
3.418,-0.875,-0.090
3.420,-0.870,-0.090
3.422,-0.880,-0.090
3.424,-0.845,-0.090
3.426,-0.840,-0.090
3.428,-0.895,-0.090
3.430,-0.880,-0.090
3.432,-0.860,-0.090
3.434,-0.855,-0.085
3.436,-0.775,-0.085
3.438,-0.765,-0.085
3.440,-0.885,-0.085
3.442,-0.890,-0.085
3.444,-0.870,-0.090
3.446,-0.840,-0.095
3.448,-0.865,-0.100
3.450,-0.900,-0.105
3.452,-0.885,-0.110
3.454,-0.855,-0.110
3.456,-0.835,-0.115
3.458,-0.825,-0.115
3.460,-0.870,-0.115
3.462,-0.885,-0.110
3.464,-0.875,-0.105
3.466,-0.860,-0.100
3.468,-0.910,-0.095
3.470,-0.850,-0.090
3.472,-0.780,-0.085
3.474,-0.875,-0.085
3.476,-0.880,-0.085
3.478,-0.835,-0.085
3.480,-0.880,-0.090
3.482,-0.860,-0.095
3.484,-0.830,-0.095
3.486,-0.870,-0.095
3.488,-0.840,-0.095
3.490,-0.830,-0.090
3.492,-0.840,-0.090
3.494,-0.850,-0.085
3.496,-0.895,-0.080
3.498,-0.820,-0.075
3.500,-0.860,-0.075
3.502,-0.875,-0.075
3.504,-0.875,-0.080
3.506,-0.830,-0.080
3.508,-0.845,-0.085
3.510,-0.875,-0.090
3.512,-0.835,-0.090
3.514,-0.855,-0.090
3.516,-0.870,-0.090
3.518,-0.850,-0.085
3.520,-0.860,-0.085
3.522,-0.850,-0.085
3.524,-0.825,-0.080
3.526,-0.855,-0.085
3.528,-0.870,-0.085
3.530,-0.830,-0.085
3.532,-0.840,-0.090
3.534,-0.845,-0.095
3.536,-0.885,-0.095
3.538,-0.900,-0.100
3.540,-0.915,-0.100
3.542,-0.895,-0.095
3.544,-0.805,-0.095
3.546,-0.820,-0.090
3.548,-0.880,-0.085
3.550,-0.805,-0.075
3.552,-0.780,-0.070
3.554,-0.820,-0.070
3.556,-0.890,-0.070
3.558,-0.865,-0.070
3.560,-0.875,-0.075
3.562,-0.890,-0.080
3.564,-0.830,-0.085
3.566,-0.845,-0.090
3.568,-0.850,-0.095
3.570,-0.830,-0.095
3.572,-0.820,-0.095
3.574,-0.880,-0.090
3.576,-0.845,-0.090
3.578,-0.830,-0.085
3.580,-0.825,-0.085
3.582,-0.825,-0.085
3.584,-0.910,-0.090
3.586,-0.920,-0.095
3.588,-0.890,-0.100
3.590,-0.825,-0.105
3.592,-0.845,-0.105
3.594,-0.870,-0.100
3.596,-0.835,-0.095
3.598,-0.830,-0.090
3.600,-0.840,-0.085
3.602,-0.875,-0.085
3.604,-0.845,-0.085
3.606,-0.880,-0.090
3.608,-0.935,-0.095
3.610,-0.860,-0.105
3.612,-0.830,-0.115
3.614,-0.850,-0.115
3.616,-0.835,-0.115
3.618,-0.835,-0.110
3.620,-0.865,-0.100
3.622,-0.835,-0.085
3.624,-0.845,-0.070
3.626,-0.870,-0.060
3.628,-0.875,-0.050
3.630,-0.800,-0.050
3.632,-0.790,-0.055
3.634,-0.840,-0.065
3.636,-0.840,-0.070
3.638,-0.810,-0.080
3.640,-0.810,-0.085
3.642,-0.835,-0.085
3.644,-0.840,-0.080
3.646,-0.840,-0.075
3.648,-0.880,-0.070
3.650,-0.800,-0.060
3.652,-0.820,-0.060
3.654,-0.830,-0.060
3.656,-0.845,-0.065
3.658,-0.875,-0.075
3.660,-0.855,-0.080
3.662,-0.810,-0.085
3.664,-0.835,-0.090
3.666,-0.845,-0.085
3.668,-0.815,-0.080
3.670,-0.825,-0.070
3.672,-0.850,-0.060
3.674,-0.785,-0.050
3.676,-0.795,-0.040
3.678,-0.825,-0.035
3.680,-0.810,-0.035
3.682,-0.815,-0.035
3.684,-0.815,-0.045
3.686,-0.825,-0.050
3.688,-0.795,-0.055
3.690,-0.775,-0.055
3.692,-0.800,-0.055
3.694,-0.795,-0.045
3.696,-0.785,-0.035
3.698,-0.765,-0.025
3.700,-0.745,-0.015
3.702,-0.715,-0.005
3.704,-0.765,0.000
3.706,-0.815,-0.005
3.708,-0.800,-0.010
3.710,-0.735,-0.025
3.712,-0.775,-0.040
3.714,-0.830,-0.055
3.716,-0.885,-0.065
3.718,-0.835,-0.070
3.720,-0.845,-0.070
3.722,-0.780,-0.065
3.724,-0.770,-0.050
3.726,-0.780,-0.040
3.728,-0.810,-0.025
3.730,-0.770,-0.015
3.732,-0.790,-0.010
3.734,-0.770,-0.010
3.736,-0.790,-0.020
3.738,-0.775,-0.035
3.740,-0.795,-0.050
3.742,-0.770,-0.065
3.744,-0.845,-0.075
3.746,-0.835,-0.080
3.748,-0.825,-0.085
3.750,-0.830,-0.085
3.752,-0.790,-0.080
3.754,-0.845,-0.075
3.756,-0.840,-0.075
3.758,-0.865,-0.080
3.760,-0.825,-0.085
3.762,-0.830,-0.090
3.764,-0.875,-0.095
3.766,-0.905,-0.100
3.768,-0.850,-0.100
3.770,-0.860,-0.100
3.772,-0.865,-0.095
3.774,-0.825,-0.085
3.776,-0.825,-0.080
3.778,-0.845,-0.080
3.780,-0.870,-0.080
3.782,-0.830,-0.085
3.784,-0.845,-0.090
3.786,-0.900,-0.095
3.788,-0.865,-0.095
3.790,-0.785,-0.095
3.792,-0.825,-0.090
3.794,-0.860,-0.085
3.796,-0.790,-0.080
3.798,-0.825,-0.090
3.800,-0.900,-0.105
3.802,-0.955,-0.135
3.804,-0.985,-0.170
3.806,-0.985,-0.210
3.808,-1.030,-0.240
3.810,-0.985,-0.255
3.812,-0.960,-0.250
3.814,-1.000,-0.215
3.816,-0.935,-0.155
3.818,-0.825,-0.070
3.820,-0.700,0.035
3.822,-0.595,0.150
3.824,-0.500,0.270
3.826,-0.385,0.395
3.828,-0.150,0.525
3.830,-0.045,0.655
3.832,0.090,0.795
3.834,0.215,0.945
3.836,0.355,1.095
3.838,0.505,1.240
3.840,0.640,1.370
3.842,0.725,1.460
3.844,0.830,1.500
3.846,0.810,1.480
3.848,0.735,1.390
3.850,0.555,1.240
3.852,0.335,1.035
3.854,0.005,0.805
3.856,-0.265,0.565
3.858,-0.570,0.345
3.860,-0.725,0.160
3.862,-0.755,0.020
3.864,-0.825,-0.070
3.866,-0.820,-0.115
3.868,-0.850,-0.130
3.870,-0.915,-0.120
3.872,-0.880,-0.100
3.874,-0.835,-0.085
3.876,-0.825,-0.070
3.878,-0.830,-0.065
3.880,-0.825,-0.065
3.882,-0.785,-0.070
3.884,-0.785,-0.075
3.886,-0.805,-0.075
3.888,-0.785,-0.075
3.890,-0.855,-0.070
3.892,-0.825,-0.075
3.894,-0.815,-0.075
3.896,-0.790,-0.080
3.898,-0.850,-0.090
3.900,-0.840,-0.095
3.902,-0.830,-0.100
3.904,-0.835,-0.100
3.906,-0.845,-0.095
3.908,-0.800,-0.085
3.910,-0.800,-0.075
3.912,-0.840,-0.065
3.914,-0.810,-0.060
3.916,-0.815,-0.055
3.918,-0.815,-0.055
3.920,-0.825,-0.060
3.922,-0.845,-0.065
3.924,-0.835,-0.070
3.926,-0.825,-0.070
3.928,-0.770,-0.070
3.930,-0.810,-0.065
3.932,-0.830,-0.060
3.934,-0.780,-0.050
3.936,-0.765,-0.045
3.938,-0.765,-0.045
3.940,-0.735,-0.045
3.942,-0.805,-0.045
3.944,-0.825,-0.045
3.946,-0.825,-0.050
3.948,-0.795,-0.050
3.950,-0.810,-0.050
3.952,-0.810,-0.050
3.954,-0.780,-0.045
3.956,-0.775,-0.040
3.958,-0.780,-0.035
3.960,-0.780,-0.030
3.962,-0.745,-0.025
3.964,-0.770,-0.020
3.966,-0.775,-0.015
3.968,-0.720,-0.015
3.970,-0.735,-0.015
3.972,-0.800,-0.015
3.974,-0.765,-0.015
3.976,-0.775,-0.015
3.978,-0.770,-0.020
3.980,-0.745,-0.015
3.982,-0.750,-0.010
3.984,-0.760,-0.005
3.986,-0.720,0.005
3.988,-0.695,0.020
3.990,-0.685,0.035
3.992,-0.710,0.050
3.994,-0.670,0.060
3.996,-0.685,0.065
3.998,-0.700,0.065
4.000,-0.695,0.060
4.002,-0.725,0.055
4.004,-0.715,0.045
4.006,-0.690,0.045
4.008,-0.670,0.045
4.010,-0.675,0.050
4.012,-0.650,0.060
4.014,-0.630,0.075
4.016,-0.660,0.090
4.018,-0.650,0.105
4.020,-0.630,0.120
4.022,-0.635,0.130
4.024,-0.610,0.135
4.026,-0.590,0.140
4.028,-0.560,0.140
4.030,-0.560,0.145
4.032,-0.565,0.155
4.034,-0.530,0.165
4.036,-0.600,0.180
4.038,-0.560,0.200
4.040,-0.515,0.215
4.042,-0.525,0.230
4.044,-0.550,0.240
4.046,-0.500,0.245
4.048,-0.480,0.245
4.050,-0.485,0.245
4.052,-0.510,0.240
4.054,-0.490,0.240
4.056,-0.475,0.240
4.058,-0.445,0.245
4.060,-0.515,0.260
4.062,-0.505,0.275
4.064,-0.450,0.300
4.066,-0.345,0.320
4.068,-0.370,0.335
4.070,-0.395,0.350
4.072,-0.420,0.355
4.074,-0.405,0.355
4.076,-0.425,0.345
4.078,-0.450,0.335
4.080,-0.420,0.320
4.082,-0.405,0.310
4.084,-0.430,0.300
4.086,-0.420,0.290
4.088,-0.400,0.285
4.090,-0.455,0.285
4.092,-0.475,0.285
4.094,-0.450,0.280
4.096,-0.480,0.270
4.098,-0.500,0.260
4.100,-0.530,0.245
4.102,-0.550,0.225
4.104,-0.570,0.200
4.106,-0.560,0.180
4.108,-0.590,0.155
4.110,-0.560,0.135
4.112,-0.635,0.115
4.114,-0.660,0.100
4.116,-0.660,0.085
4.118,-0.620,0.070
4.120,-0.660,0.055
4.122,-0.735,0.040
4.124,-0.735,0.030
4.126,-0.705,0.020
4.128,-0.745,0.010
4.130,-0.745,0.000
4.132,-0.740,-0.010
4.134,-0.745,-0.015
4.136,-0.770,-0.025
4.138,-0.780,-0.030
4.140,-0.765,-0.040
4.142,-0.830,-0.050
4.144,-0.845,-0.060
4.146,-0.790,-0.070
4.148,-0.795,-0.075
4.150,-0.785,-0.080
4.152,-0.810,-0.080
4.154,-0.790,-0.075
4.156,-0.825,-0.075
4.158,-0.810,-0.070
4.160,-0.785,-0.065
4.162,-0.810,-0.065
4.164,-0.780,-0.065
4.166,-0.805,-0.065
4.168,-0.840,-0.070
4.170,-0.825,-0.075
4.172,-0.800,-0.080
4.174,-0.775,-0.085
4.176,-0.780,-0.085
4.178,-0.810,-0.080
4.180,-0.825,-0.075
4.182,-0.845,-0.070
4.184,-0.820,-0.070
4.186,-0.815,-0.070
4.188,-0.855,-0.075
4.190,-0.845,-0.080
4.192,-0.785,-0.085
4.194,-0.750,-0.090
4.196,-0.800,-0.095
4.198,-0.850,-0.095
4.200,-0.815,-0.090
4.202,-0.830,-0.085
4.204,-0.855,-0.075
4.206,-0.790,-0.070
4.208,-0.790,-0.065
4.210,-0.815,-0.065
4.212,-0.820,-0.070
4.214,-0.835,-0.080
4.216,-0.840,-0.090
4.218,-0.825,-0.100
4.220,-0.845,-0.105
4.222,-0.830,-0.105
4.224,-0.815,-0.100
4.226,-0.770,-0.095
4.228,-0.765,-0.080
4.230,-0.815,-0.070
4.232,-0.775,-0.060
4.234,-0.785,-0.060
4.236,-0.800,-0.060
4.238,-0.865,-0.065
4.240,-0.835,-0.075
4.242,-0.815,-0.085
4.244,-0.835,-0.095
4.246,-0.810,-0.095
4.248,-0.820,-0.100
4.250,-0.790,-0.095
4.252,-0.800,-0.090
4.254,-0.815,-0.085
4.256,-0.830,-0.080
4.258,-0.830,-0.075
4.260,-0.830,-0.075
4.262,-0.830,-0.075
4.264,-0.845,-0.080
4.266,-0.805,-0.085
4.268,-0.815,-0.085
4.270,-0.785,-0.085
4.272,-0.780,-0.085
4.274,-0.825,-0.080
4.276,-0.820,-0.075
4.278,-0.795,-0.075
4.280,-0.810,-0.070
4.282,-0.815,-0.070
4.284,-0.850,-0.075
4.286,-0.820,-0.075
4.288,-0.810,-0.080
4.290,-0.810,-0.085
4.292,-0.820,-0.085
4.294,-0.790,-0.085
4.296,-0.825,-0.085
4.298,-0.835,-0.085
4.300,-0.830,-0.085
4.302,-0.835,-0.085
4.304,-0.805,-0.085
4.306,-0.775,-0.085
4.308,-0.805,-0.085
4.310,-0.785,-0.080
4.312,-0.775,-0.080
4.314,-0.780,-0.075
4.316,-0.785,-0.070
4.318,-0.805,-0.065
4.320,-0.785,-0.060
4.322,-0.780,-0.065
4.324,-0.810,-0.065
4.326,-0.785,-0.070
4.328,-0.840,-0.080
4.330,-0.810,-0.090
4.332,-0.835,-0.095
4.334,-0.795,-0.095
4.336,-0.785,-0.095
4.338,-0.795,-0.090
4.340,-0.800,-0.080
4.342,-0.840,-0.070
4.344,-0.815,-0.065
4.346,-0.770,-0.060
4.348,-0.775,-0.060
4.350,-0.795,-0.065
4.352,-0.815,-0.075
4.354,-0.840,-0.085
4.356,-0.855,-0.090
4.358,-0.830,-0.100
4.360,-0.805,-0.100
4.362,-0.845,-0.100
4.364,-0.790,-0.095
4.366,-0.775,-0.095
4.368,-0.780,-0.090
4.370,-0.760,-0.090
4.372,-0.815,-0.090
4.374,-0.845,-0.095
4.376,-0.845,-0.100
4.378,-0.825,-0.105
4.380,-0.855,-0.110
4.382,-0.870,-0.105
4.384,-0.840,-0.100
4.386,-0.830,-0.095
4.388,-0.765,-0.085
4.390,-0.775,-0.080
4.392,-0.790,-0.075
4.394,-0.835,-0.075
4.396,-0.840,-0.080
4.398,-0.830,-0.090
4.400,-0.825,-0.105
4.402,-0.855,-0.115
4.404,-0.835,-0.125
4.406,-0.825,-0.125
4.408,-0.810,-0.125
4.410,-0.845,-0.120
4.412,-0.800,-0.110
4.414,-0.810,-0.100
4.416,-0.800,-0.085
4.418,-0.835,-0.075
4.420,-0.840,-0.070
4.422,-0.840,-0.065
4.424,-0.805,-0.070
4.426,-0.785,-0.075
4.428,-0.790,-0.080
4.430,-0.830,-0.090
4.432,-0.800,-0.100
4.434,-0.795,-0.110
4.436,-0.840,-0.115
4.438,-0.860,-0.115
4.440,-0.870,-0.115
4.442,-0.840,-0.110
4.444,-0.805,-0.105
4.446,-0.815,-0.095
4.448,-0.830,-0.090
4.450,-0.775,-0.085
4.452,-0.795,-0.085
4.454,-0.860,-0.085
4.456,-0.820,-0.090
4.458,-0.795,-0.090
4.460,-0.835,-0.095
4.462,-0.840,-0.095
4.464,-0.800,-0.095
4.466,-0.835,-0.095
4.468,-0.790,-0.090
4.470,-0.770,-0.085
4.472,-0.800,-0.085
4.474,-0.840,-0.080
4.476,-0.805,-0.080
4.478,-0.815,-0.085
4.480,-0.870,-0.090
4.482,-0.870,-0.100
4.484,-0.825,-0.105
4.486,-0.815,-0.110
4.488,-0.810,-0.110
4.490,-0.805,-0.105
4.492,-0.795,-0.095
4.494,-0.820,-0.090
4.496,-0.835,-0.080
4.498,-0.785,-0.075
4.500,-0.820,-0.070
4.502,-0.840,-0.075
4.504,-0.815,-0.085
4.506,-0.770,-0.095
4.508,-0.805,-0.105
4.510,-0.855,-0.115
4.512,-0.830,-0.125
4.514,-0.830,-0.125
4.516,-0.810,-0.125
4.518,-0.815,-0.120
4.520,-0.855,-0.110
4.522,-0.870,-0.100
4.524,-0.795,-0.090
4.526,-0.755,-0.085
4.528,-0.810,-0.085
4.530,-0.795,-0.085
4.532,-0.810,-0.090
4.534,-0.835,-0.090
4.536,-0.810,-0.085
4.538,-0.800,-0.080
4.540,-0.790,-0.070
4.542,-0.785,-0.055
4.544,-0.735,-0.045
4.546,-0.740,-0.035
4.548,-0.745,-0.030
4.550,-0.715,-0.030
4.552,-0.745,-0.035
4.554,-0.775,-0.045
4.556,-0.830,-0.055
4.558,-0.835,-0.065
4.560,-0.845,-0.075
4.562,-0.780,-0.075
4.564,-0.740,-0.075
4.566,-0.750,-0.070
4.568,-0.765,-0.065
4.570,-0.770,-0.055
4.572,-0.765,-0.050
4.574,-0.780,-0.045
4.576,-0.790,-0.045
4.578,-0.770,-0.045
4.580,-0.775,-0.050
4.582,-0.790,-0.060
4.584,-0.770,-0.065
4.586,-0.825,-0.070
4.588,-0.790,-0.070
4.590,-0.700,-0.070
4.592,-0.800,-0.070
4.594,-0.820,-0.070
4.596,-0.795,-0.070
4.598,-0.785,-0.075
4.600,-0.795,-0.080
4.602,-0.860,-0.090
4.604,-0.825,-0.105
4.606,-0.840,-0.115
4.608,-0.870,-0.125
4.610,-0.845,-0.135
4.612,-0.825,-0.140
4.614,-0.855,-0.140
4.616,-0.840,-0.140
4.618,-0.830,-0.130
4.620,-0.825,-0.125
4.622,-0.815,-0.115
4.624,-0.835,-0.110
4.626,-0.830,-0.110
4.628,-0.830,-0.110
4.630,-0.835,-0.115
4.632,-0.830,-0.120
4.634,-0.865,-0.130
4.636,-0.865,-0.135
4.638,-0.825,-0.135
4.640,-0.840,-0.135
4.642,-0.820,-0.130
4.644,-0.860,-0.125
4.646,-0.830,-0.120
4.648,-0.820,-0.125
4.650,-0.875,-0.140
4.652,-0.900,-0.160
4.654,-0.955,-0.195
4.656,-0.975,-0.230
4.658,-1.005,-0.260
4.660,-1.030,-0.280
4.662,-1.030,-0.285
4.664,-1.050,-0.265
4.666,-0.955,-0.215
4.668,-0.855,-0.145
4.670,-0.705,-0.045
4.672,-0.650,0.070
4.674,-0.500,0.195
4.676,-0.370,0.330
4.678,-0.245,0.470
4.680,-0.095,0.610
4.682,0.065,0.760
4.684,0.215,0.915
4.686,0.355,1.075
4.688,0.515,1.225
4.690,0.705,1.365
4.692,0.815,1.470
4.694,0.895,1.525
4.696,0.910,1.525
4.698,0.845,1.460
4.700,0.645,1.325
4.702,0.440,1.135
4.704,0.200,0.900
4.706,-0.175,0.650
4.708,-0.485,0.410
4.710,-0.610,0.200
4.712,-0.745,0.035
4.714,-0.785,-0.075
4.716,-0.800,-0.135
4.718,-0.845,-0.155
4.720,-0.870,-0.145
4.722,-0.830,-0.120
4.724,-0.830,-0.095
4.726,-0.875,-0.080
4.728,-0.835,-0.070
4.730,-0.825,-0.075
4.732,-0.815,-0.085
4.734,-0.750,-0.090
4.736,-0.740,-0.100
4.738,-0.730,-0.100
4.740,-0.805,-0.095
4.742,-0.840,-0.090
4.744,-0.855,-0.085
4.746,-0.840,-0.080
4.748,-0.800,-0.085
4.750,-0.760,-0.090
4.752,-0.800,-0.095
4.754,-0.815,-0.105
4.756,-0.790,-0.110
4.758,-0.845,-0.110
4.760,-0.830,-0.105
4.762,-0.810,-0.095
4.764,-0.795,-0.085
4.766,-0.805,-0.080
4.768,-0.785,-0.075
4.770,-0.785,-0.070
4.772,-0.765,-0.075
4.774,-0.800,-0.080
4.776,-0.795,-0.085
4.778,-0.795,-0.090
4.780,-0.800,-0.095
4.782,-0.760,-0.095
4.784,-0.825,-0.090
4.786,-0.830,-0.080
4.788,-0.755,-0.070
4.790,-0.730,-0.055
4.792,-0.760,-0.045
4.794,-0.755,-0.040
4.796,-0.765,-0.035
4.798,-0.760,-0.035
4.800,-0.770,-0.040
4.802,-0.755,-0.045
4.804,-0.765,-0.050
4.806,-0.795,-0.055
4.808,-0.780,-0.055
4.810,-0.690,-0.050
4.812,-0.785,-0.045
4.814,-0.805,-0.035
4.816,-0.715,-0.025
4.818,-0.735,-0.010
4.820,-0.750,-0.005
4.822,-0.715,0.000
4.824,-0.720,-0.005
4.826,-0.750,-0.010
4.828,-0.765,-0.015
4.830,-0.730,-0.025
4.832,-0.690,-0.030
4.834,-0.740,-0.030
4.836,-0.735,-0.025
4.838,-0.715,-0.020
4.840,-0.690,-0.010
4.842,-0.725,0.005
4.844,-0.715,0.015
4.846,-0.690,0.020
4.848,-0.705,0.025
4.850,-0.675,0.030
4.852,-0.690,0.030
4.854,-0.670,0.030
4.856,-0.660,0.030
4.858,-0.690,0.035
4.860,-0.670,0.040
4.862,-0.630,0.050
4.864,-0.625,0.065
4.866,-0.665,0.080
4.868,-0.615,0.090
4.870,-0.605,0.100
4.872,-0.610,0.110
4.874,-0.635,0.115
4.876,-0.595,0.115
4.878,-0.570,0.120
4.880,-0.595,0.125
4.882,-0.580,0.130
4.884,-0.540,0.145
4.886,-0.525,0.160
4.888,-0.520,0.180
4.890,-0.475,0.200
4.892,-0.490,0.215
4.894,-0.485,0.230
4.896,-0.495,0.240
4.898,-0.500,0.245
4.900,-0.475,0.250
4.902,-0.435,0.250
4.904,-0.410,0.255
4.906,-0.470,0.260
4.908,-0.425,0.270
4.910,-0.380,0.285
4.912,-0.375,0.305
4.914,-0.385,0.320
4.916,-0.380,0.330
4.918,-0.390,0.340
4.920,-0.405,0.345
4.922,-0.395,0.340
4.924,-0.370,0.335
4.926,-0.385,0.320
4.928,-0.385,0.310
4.930,-0.370,0.300
4.932,-0.450,0.295
4.934,-0.435,0.285
4.936,-0.455,0.285
4.938,-0.440,0.280
4.940,-0.390,0.275
4.942,-0.435,0.270
4.944,-0.495,0.255
4.946,-0.510,0.240
4.948,-0.465,0.225
4.950,-0.530,0.200
4.952,-0.560,0.180
4.954,-0.565,0.160
4.956,-0.580,0.145
4.958,-0.615,0.130
4.960,-0.635,0.110
4.962,-0.640,0.095
4.964,-0.690,0.080
4.966,-0.650,0.060
4.968,-0.635,0.040
4.970,-0.655,0.020
4.972,-0.745,0.000
4.974,-0.735,-0.020
4.976,-0.735,-0.030
4.978,-0.780,-0.040
4.980,-0.765,-0.045
4.982,-0.770,-0.045
4.984,-0.775,-0.045
4.986,-0.780,-0.040
4.988,-0.750,-0.040
4.990,-0.750,-0.035
4.992,-0.735,-0.040
4.994,-0.735,-0.045
4.996,-0.770,-0.050
4.998,-0.825,-0.060
5.000,-0.785,-0.070
5.002,-0.810,-0.080
5.004,-0.795,-0.085
5.006,-0.775,-0.090
5.008,-0.790,-0.090
5.010,-0.795,-0.090
5.012,-0.790,-0.085
5.014,-0.795,-0.085
5.016,-0.805,-0.080
5.018,-0.825,-0.080
5.020,-0.805,-0.080
5.022,-0.815,-0.085
5.024,-0.820,-0.085
5.026,-0.800,-0.090
5.028,-0.785,-0.095
5.030,-0.820,-0.095
5.032,-0.805,-0.095
5.034,-0.805,-0.095
5.036,-0.800,-0.095
5.038,-0.820,-0.095
5.040,-0.850,-0.095
5.042,-0.810,-0.100
5.044,-0.780,-0.105
5.046,-0.840,-0.110
5.048,-0.790,-0.110
5.050,-0.830,-0.115
5.052,-0.815,-0.110
5.054,-0.815,-0.105
5.056,-0.770,-0.100
5.058,-0.795,-0.090
5.060,-0.820,-0.085
5.062,-0.825,-0.080
5.064,-0.830,-0.080
5.066,-0.810,-0.085
5.068,-0.785,-0.095
5.070,-0.840,-0.110
5.072,-0.795,-0.120
5.074,-0.780,-0.125
5.076,-0.865,-0.130
5.078,-0.840,-0.130
5.080,-0.830,-0.120
5.082,-0.800,-0.110
5.084,-0.830,-0.100
5.086,-0.810,-0.095
5.088,-0.785,-0.090
5.090,-0.760,-0.090
5.092,-0.790,-0.090
5.094,-0.820,-0.095
5.096,-0.805,-0.095
5.098,-0.810,-0.100
5.100,-0.820,-0.100
5.102,-0.840,-0.100
5.104,-0.810,-0.095
5.106,-0.790,-0.090
5.108,-0.790,-0.090
5.110,-0.825,-0.085
5.112,-0.785,-0.085
5.114,-0.790,-0.090
5.116,-0.770,-0.090
5.118,-0.820,-0.090
5.120,-0.790,-0.090
5.122,-0.825,-0.085
5.124,-0.860,-0.085
5.126,-0.770,-0.080
5.128,-0.795,-0.075
5.130,-0.790,-0.075
5.132,-0.795,-0.080
5.134,-0.770,-0.080
5.136,-0.810,-0.085
5.138,-0.795,-0.090
5.140,-0.815,-0.095
5.142,-0.800,-0.095
5.144,-0.810,-0.095
5.146,-0.810,-0.095
5.148,-0.760,-0.090
5.150,-0.805,-0.085
5.152,-0.775,-0.085
5.154,-0.810,-0.085
5.156,-0.835,-0.085
5.158,-0.800,-0.085
5.160,-0.780,-0.090
5.162,-0.805,-0.090
5.164,-0.775,-0.095
5.166,-0.805,-0.090
5.168,-0.780,-0.090
5.170,-0.805,-0.090
5.172,-0.805,-0.085
5.174,-0.785,-0.085
5.176,-0.800,-0.085
5.178,-0.780,-0.085
5.180,-0.780,-0.085
5.182,-0.845,-0.090
5.184,-0.805,-0.095
5.186,-0.820,-0.100
5.188,-0.795,-0.100
5.190,-0.815,-0.100
5.192,-0.820,-0.095
5.194,-0.855,-0.095
5.196,-0.785,-0.090
5.198,-0.755,-0.085
5.200,-0.785,-0.085
5.202,-0.825,-0.090
5.204,-0.815,-0.095
5.206,-0.760,-0.095
5.208,-0.805,-0.100
5.210,-0.805,-0.100
5.212,-0.795,-0.095
5.214,-0.780,-0.090
5.216,-0.780,-0.080
5.218,-0.770,-0.070
5.220,-0.780,-0.065
5.222,-0.795,-0.065
5.224,-0.840,-0.065
5.226,-0.790,-0.075
5.228,-0.775,-0.085
5.230,-0.825,-0.095
5.232,-0.825,-0.105
5.234,-0.800,-0.110
5.236,-0.820,-0.115
5.238,-0.820,-0.110
5.240,-0.785,-0.105
5.242,-0.800,-0.100
5.244,-0.785,-0.090
5.246,-0.785,-0.085
5.248,-0.780,-0.080
5.250,-0.780,-0.080
5.252,-0.810,-0.085
5.254,-0.795,-0.085
5.256,-0.830,-0.090
5.258,-0.790,-0.090
5.260,-0.780,-0.090
5.262,-0.775,-0.085
5.264,-0.800,-0.085
5.266,-0.765,-0.080
5.268,-0.805,-0.080
5.270,-0.800,-0.085
5.272,-0.785,-0.090
5.274,-0.770,-0.095
5.276,-0.810,-0.105
5.278,-0.790,-0.105
5.280,-0.840,-0.110
5.282,-0.805,-0.105
5.284,-0.795,-0.105
5.286,-0.790,-0.100
5.288,-0.780,-0.095
5.290,-0.780,-0.090
5.292,-0.780,-0.090
5.294,-0.790,-0.090
5.296,-0.860,-0.095
5.298,-0.820,-0.095
5.300,-0.780,-0.100
5.302,-0.810,-0.100
5.304,-0.800,-0.100
5.306,-0.755,-0.095
5.308,-0.800,-0.095
5.310,-0.765,-0.090
5.312,-0.800,-0.085
5.314,-0.790,-0.080
5.316,-0.785,-0.075
5.318,-0.750,-0.075
5.320,-0.790,-0.070
5.322,-0.790,-0.070
5.324,-0.770,-0.070
5.326,-0.745,-0.070
5.328,-0.785,-0.070
5.330,-0.805,-0.075
5.332,-0.780,-0.075
5.334,-0.760,-0.080
5.336,-0.775,-0.085
5.338,-0.775,-0.085
5.340,-0.770,-0.085
5.342,-0.815,-0.085
5.344,-0.770,-0.080
5.346,-0.785,-0.080
5.348,-0.820,-0.075
5.350,-0.805,-0.075
5.352,-0.740,-0.075
5.354,-0.750,-0.080
5.356,-0.830,-0.080
5.358,-0.780,-0.085
5.360,-0.770,-0.085
5.362,-0.770,-0.085
5.364,-0.790,-0.085
5.366,-0.795,-0.080
5.368,-0.785,-0.075
5.370,-0.730,-0.065
5.372,-0.775,-0.060
5.374,-0.775,-0.060
5.376,-0.795,-0.060
5.378,-0.735,-0.065
5.380,-0.775,-0.075
5.382,-0.835,-0.085
5.384,-0.835,-0.095
5.386,-0.825,-0.100
5.388,-0.780,-0.105
5.390,-0.785,-0.110
5.392,-0.755,-0.105
5.394,-0.790,-0.100
5.396,-0.805,-0.095
5.398,-0.775,-0.085
5.400,-0.780,-0.080
5.402,-0.765,-0.075
5.404,-0.780,-0.075
5.406,-0.755,-0.075
5.408,-0.775,-0.075
5.410,-0.780,-0.075
5.412,-0.780,-0.080
5.414,-0.805,-0.080
5.416,-0.785,-0.080
5.418,-0.785,-0.080
5.420,-0.830,-0.080
5.422,-0.795,-0.080
5.424,-0.745,-0.080
5.426,-0.705,-0.080
5.428,-0.755,-0.080
5.430,-0.755,-0.080
5.432,-0.755,-0.075
5.434,-0.765,-0.075
5.436,-0.775,-0.070
5.438,-0.785,-0.070
5.440,-0.805,-0.065
5.442,-0.815,-0.065
5.444,-0.760,-0.070
5.446,-0.775,-0.070
5.448,-0.780,-0.075
5.450,-0.750,-0.085
5.452,-0.790,-0.090
5.454,-0.765,-0.090
5.456,-0.770,-0.090
5.458,-0.755,-0.090
5.460,-0.760,-0.085
5.462,-0.765,-0.080
5.464,-0.745,-0.070
5.466,-0.750,-0.065
5.468,-0.765,-0.060
5.470,-0.795,-0.060
5.472,-0.765,-0.060
5.474,-0.775,-0.065
5.476,-0.755,-0.070
5.478,-0.805,-0.075
5.480,-0.735,-0.080
5.482,-0.780,-0.080
5.484,-0.755,-0.085
5.486,-0.755,-0.085
5.488,-0.750,-0.080
5.490,-0.775,-0.080
5.492,-0.775,-0.075
5.494,-0.765,-0.070
5.496,-0.745,-0.070
5.498,-0.765,-0.065
5.500,-0.815,-0.060
5.502,-0.755,-0.055
5.504,-0.705,-0.055
5.506,-0.705,-0.050
5.508,-0.765,-0.045
5.510,-0.785,-0.045
5.512,-0.755,-0.050
5.514,-0.765,-0.055
5.516,-0.735,-0.060
5.518,-0.775,-0.065
5.520,-0.735,-0.075
5.522,-0.780,-0.080
5.524,-0.785,-0.085
5.526,-0.780,-0.085
5.528,-0.790,-0.080
5.530,-0.770,-0.070
5.532,-0.750,-0.065
5.534,-0.725,-0.055
5.536,-0.720,-0.045
5.538,-0.730,-0.040
5.540,-0.760,-0.040
5.542,-0.765,-0.040
5.544,-0.710,-0.040
5.546,-0.700,-0.040
5.548,-0.725,-0.040
5.550,-0.735,-0.040
5.552,-0.740,-0.035
5.554,-0.750,-0.030
5.556,-0.685,-0.025
5.558,-0.735,-0.020
5.560,-0.740,-0.020
5.562,-0.705,-0.020
5.564,-0.680,-0.020
5.566,-0.725,-0.020
5.568,-0.720,-0.020
5.570,-0.675,-0.020
5.572,-0.675,-0.015
5.574,-0.710,-0.015
5.576,-0.730,-0.010
5.578,-0.750,-0.005
5.580,-0.735,-0.005
5.582,-0.660,-0.010
5.584,-0.685,-0.015
5.586,-0.680,-0.020
5.588,-0.745,-0.030
5.590,-0.770,-0.040
5.592,-0.725,-0.045
5.594,-0.780,-0.050
5.596,-0.740,-0.050
5.598,-0.700,-0.045
5.600,-0.705,-0.035
5.602,-0.740,-0.030
5.604,-0.700,-0.020
5.606,-0.715,-0.015
5.608,-0.730,-0.010
5.610,-0.685,-0.015
5.612,-0.675,-0.020
5.614,-0.730,-0.025
5.616,-0.720,-0.035
5.618,-0.725,-0.045
5.620,-0.745,-0.055
5.622,-0.755,-0.060
5.624,-0.735,-0.065
5.626,-0.785,-0.070
5.628,-0.755,-0.075
5.630,-0.755,-0.075
5.632,-0.775,-0.080
5.634,-0.770,-0.080
5.636,-0.795,-0.080
5.638,-0.775,-0.085
5.640,-0.770,-0.080
5.642,-0.775,-0.080
5.644,-0.745,-0.075
5.646,-0.755,-0.070
5.648,-0.755,-0.065
5.650,-0.705,-0.060
5.652,-0.740,-0.060
5.654,-0.780,-0.060
5.656,-0.755,-0.060
5.658,-0.760,-0.060
5.660,-0.780,-0.065
5.662,-0.745,-0.065
5.664,-0.725,-0.065
5.666,-0.720,-0.060
5.668,-0.750,-0.060
5.670,-0.700,-0.065
5.672,-0.770,-0.075
5.674,-0.830,-0.090
5.676,-0.805,-0.115
5.678,-0.835,-0.150
5.680,-0.900,-0.180
5.682,-0.925,-0.215
5.684,-0.895,-0.235
5.686,-0.935,-0.240
5.688,-0.945,-0.225
5.690,-0.890,-0.185
5.692,-0.815,-0.120
5.694,-0.695,-0.035
5.696,-0.585,0.070
5.698,-0.475,0.185
5.700,-0.360,0.315
5.702,-0.240,0.445
5.704,-0.090,0.585
5.706,0.095,0.735
5.708,0.215,0.890
5.710,0.400,1.045
5.712,0.570,1.195
5.714,0.665,1.335
5.716,0.810,1.445
5.718,0.910,1.515
5.720,0.905,1.535
5.722,0.880,1.485
5.724,0.770,1.375
5.726,0.595,1.210
5.728,0.335,0.995
5.730,0.035,0.765
5.732,-0.295,0.530
5.734,-0.495,0.315
5.736,-0.605,0.135
5.738,-0.705,0.005
5.740,-0.800,-0.080
5.742,-0.755,-0.120
5.744,-0.760,-0.125
5.746,-0.740,-0.110
5.748,-0.740,-0.085
5.750,-0.735,-0.065
5.752,-0.765,-0.045
5.754,-0.780,-0.040
5.756,-0.730,-0.040
5.758,-0.715,-0.045
5.760,-0.710,-0.050
5.762,-0.685,-0.055
5.764,-0.745,-0.060
5.766,-0.710,-0.055
5.768,-0.690,-0.050
5.770,-0.685,-0.045
5.772,-0.705,-0.040
5.774,-0.755,-0.035
5.776,-0.760,-0.035
5.778,-0.730,-0.040
5.780,-0.730,-0.045
5.782,-0.725,-0.055
5.784,-0.710,-0.065
5.786,-0.735,-0.075
5.788,-0.775,-0.085
5.790,-0.765,-0.085
5.792,-0.745,-0.085
5.794,-0.730,-0.080
5.796,-0.715,-0.065
5.798,-0.745,-0.055
5.800,-0.710,-0.040
5.802,-0.670,-0.030
5.804,-0.705,-0.025
5.806,-0.715,-0.020
5.808,-0.710,-0.025
5.810,-0.700,-0.030
5.812,-0.750,-0.035
5.814,-0.705,-0.040
5.816,-0.690,-0.040
5.818,-0.690,-0.040
5.820,-0.705,-0.040
5.822,-0.705,-0.035
5.824,-0.705,-0.030
5.826,-0.685,-0.030
5.828,-0.685,-0.030
5.830,-0.680,-0.030
5.832,-0.755,-0.030
5.834,-0.715,-0.035
5.836,-0.660,-0.030
5.838,-0.645,-0.025
5.840,-0.680,-0.015
5.842,-0.675,-0.005
5.844,-0.695,0.000
5.846,-0.660,0.010
5.848,-0.650,0.010
5.850,-0.675,0.010
5.852,-0.675,0.005
5.854,-0.660,0.000
5.856,-0.670,-0.005
5.858,-0.665,-0.005
5.860,-0.655,0.000
5.862,-0.625,0.010
5.864,-0.610,0.025
5.866,-0.650,0.040
5.868,-0.595,0.050
5.870,-0.595,0.060
5.872,-0.600,0.060
5.874,-0.645,0.060
5.876,-0.630,0.055
5.878,-0.650,0.050
5.880,-0.625,0.050
5.882,-0.580,0.050
5.884,-0.570,0.055
5.886,-0.570,0.070
5.888,-0.575,0.080
5.890,-0.535,0.095
5.892,-0.505,0.110
5.894,-0.580,0.115
5.896,-0.590,0.120
5.898,-0.555,0.125
5.900,-0.515,0.125
5.902,-0.475,0.135
5.904,-0.500,0.140
5.906,-0.525,0.155
5.908,-0.505,0.175
5.910,-0.470,0.190
5.912,-0.495,0.210
5.914,-0.415,0.225
5.916,-0.380,0.235
5.918,-0.435,0.245
5.920,-0.395,0.250
5.922,-0.415,0.255
5.924,-0.430,0.260
5.926,-0.405,0.265
5.928,-0.370,0.275
5.930,-0.350,0.290
5.932,-0.350,0.300
5.934,-0.355,0.315
5.936,-0.365,0.320
5.938,-0.355,0.325
5.940,-0.365,0.330
5.942,-0.325,0.330
5.944,-0.325,0.330
5.946,-0.290,0.330
5.948,-0.305,0.335
5.950,-0.350,0.340
5.952,-0.340,0.345
5.954,-0.280,0.350
5.956,-0.290,0.355
5.958,-0.355,0.355
5.960,-0.355,0.345
5.962,-0.320,0.330
5.964,-0.335,0.315
5.966,-0.365,0.295
5.968,-0.360,0.275
5.970,-0.410,0.260
5.972,-0.410,0.245
5.974,-0.410,0.235
5.976,-0.435,0.230
5.978,-0.445,0.230
5.980,-0.435,0.225
5.982,-0.470,0.215
5.984,-0.470,0.205
5.986,-0.475,0.185
5.988,-0.490,0.165
5.990,-0.555,0.140
5.992,-0.600,0.110
5.994,-0.590,0.080
5.996,-0.620,0.055
5.998,-0.640,0.035
6.000,-0.630,0.015
6.002,-0.645,0.005
6.004,-0.640,-0.005
6.006,-0.635,-0.010
6.008,-0.625,-0.010
6.010,-0.670,-0.005
6.012,-0.680,-0.005
6.014,-0.645,-0.005
6.016,-0.660,-0.005
6.018,-0.665,-0.010
6.020,-0.685,-0.015
6.022,-0.710,-0.025
6.024,-0.675,-0.040
6.026,-0.725,-0.050
6.028,-0.700,-0.060
6.030,-0.680,-0.065
6.032,-0.730,-0.070
6.034,-0.685,-0.070
6.036,-0.720,-0.065
6.038,-0.740,-0.060
6.040,-0.705,-0.050
6.042,-0.695,-0.045
6.044,-0.665,-0.040
6.046,-0.655,-0.040
6.048,-0.670,-0.040
6.050,-0.755,-0.040
6.052,-0.715,-0.040
6.054,-0.710,-0.045
6.056,-0.655,-0.045
6.058,-0.670,-0.045
6.060,-0.680,-0.045
6.062,-0.730,-0.050
6.064,-0.725,-0.050
6.066,-0.705,-0.055
6.068,-0.715,-0.055
6.070,-0.715,-0.060
6.072,-0.715,-0.060
6.074,-0.670,-0.060
6.076,-0.655,-0.060
6.078,-0.705,-0.055
6.080,-0.695,-0.050
6.082,-0.710,-0.045
6.084,-0.730,-0.045
6.086,-0.715,-0.040
6.088,-0.685,-0.045
6.090,-0.695,-0.045
6.092,-0.705,-0.050
6.094,-0.685,-0.060
6.096,-0.700,-0.065
6.098,-0.705,-0.070
6.100,-0.705,-0.075
6.102,-0.705,-0.075
6.104,-0.710,-0.075
6.106,-0.695,-0.070
6.108,-0.680,-0.065
6.110,-0.685,-0.060
6.112,-0.700,-0.055
6.114,-0.710,-0.050
6.116,-0.695,-0.045
6.118,-0.695,-0.040
6.120,-0.690,-0.040
6.122,-0.670,-0.040
6.124,-0.640,-0.045
6.126,-0.645,-0.045
6.128,-0.685,-0.050
6.130,-0.745,-0.050
6.132,-0.765,-0.055
6.134,-0.690,-0.055
6.136,-0.725,-0.055
6.138,-0.705,-0.060
6.140,-0.650,-0.060
6.142,-0.630,-0.060
6.144,-0.665,-0.060
6.146,-0.685,-0.065
6.148,-0.705,-0.065
6.150,-0.715,-0.065
6.152,-0.725,-0.070
6.154,-0.700,-0.065
6.156,-0.740,-0.065
6.158,-0.690,-0.060
6.160,-0.700,-0.060
6.162,-0.700,-0.055
6.164,-0.685,-0.050
6.166,-0.665,-0.050
6.168,-0.690,-0.050
6.170,-0.710,-0.055
6.172,-0.695,-0.055
6.174,-0.675,-0.060
6.176,-0.735,-0.065
6.178,-0.725,-0.065
6.180,-0.670,-0.060
6.182,-0.675,-0.060
6.184,-0.690,-0.055
6.186,-0.695,-0.050
6.188,-0.665,-0.045
6.190,-0.685,-0.040
6.192,-0.680,-0.040
6.194,-0.690,-0.045
6.196,-0.730,-0.050
6.198,-0.700,-0.055
6.200,-0.695,-0.065
6.202,-0.700,-0.070
6.204,-0.705,-0.070
6.206,-0.695,-0.070
6.208,-0.670,-0.070
6.210,-0.675,-0.065
6.212,-0.720,-0.055
6.214,-0.720,-0.050
6.216,-0.730,-0.045
6.218,-0.670,-0.045
6.220,-0.610,-0.045
6.222,-0.660,-0.050
6.224,-0.735,-0.055
6.226,-0.695,-0.060
6.228,-0.710,-0.070
6.230,-0.740,-0.075
6.232,-0.705,-0.075
6.234,-0.685,-0.075
6.236,-0.710,-0.070
6.238,-0.715,-0.065
6.240,-0.695,-0.060
6.242,-0.695,-0.055
6.244,-0.730,-0.050
6.246,-0.660,-0.045
6.248,-0.635,-0.045
6.250,-0.660,-0.050
6.252,-0.705,-0.055
6.254,-0.725,-0.060
6.256,-0.740,-0.065
6.258,-0.740,-0.070
6.260,-0.740,-0.075
6.262,-0.695,-0.080
6.264,-0.625,-0.080
6.266,-0.685,-0.080
6.268,-0.705,-0.075
6.270,-0.740,-0.075
6.272,-0.740,-0.070
6.274,-0.695,-0.065
6.276,-0.720,-0.065
6.278,-0.700,-0.060
6.280,-0.620,-0.060
6.282,-0.685,-0.060
6.284,-0.685,-0.060
6.286,-0.700,-0.060
6.288,-0.730,-0.065
6.290,-0.725,-0.070
6.292,-0.735,-0.075
6.294,-0.710,-0.080
6.296,-0.745,-0.085
6.298,-0.720,-0.090
6.300,-0.650,-0.090
6.302,-0.645,-0.090
6.304,-0.735,-0.090
6.306,-0.710,-0.085
6.308,-0.730,-0.080
6.310,-0.725,-0.080
6.312,-0.745,-0.080
6.314,-0.710,-0.080
6.316,-0.680,-0.085
6.318,-0.665,-0.090
6.320,-0.715,-0.095
6.322,-0.710,-0.095
6.324,-0.725,-0.100
6.326,-0.730,-0.100
6.328,-0.725,-0.100
6.330,-0.685,-0.100
6.332,-0.705,-0.090
6.334,-0.740,-0.085
6.336,-0.725,-0.080
6.338,-0.710,-0.080
6.340,-0.705,-0.075
6.342,-0.710,-0.075
6.344,-0.690,-0.075
6.346,-0.695,-0.080
6.348,-0.725,-0.080
6.350,-0.710,-0.085
6.352,-0.715,-0.085
6.354,-0.690,-0.085
6.356,-0.735,-0.085
6.358,-0.745,-0.085
6.360,-0.705,-0.085
6.362,-0.710,-0.085
6.364,-0.695,-0.090
6.366,-0.655,-0.090
6.368,-0.725,-0.095
6.370,-0.740,-0.095
6.372,-0.720,-0.095
6.374,-0.715,-0.095
6.376,-0.735,-0.090
6.378,-0.705,-0.090
6.380,-0.680,-0.085
6.382,-0.695,-0.080
6.384,-0.705,-0.075
6.386,-0.730,-0.075
6.388,-0.700,-0.080
6.390,-0.650,-0.080
6.392,-0.720,-0.090
6.394,-0.760,-0.095
6.396,-0.720,-0.100
6.398,-0.725,-0.100
6.400,-0.710,-0.100
6.402,-0.715,-0.100
6.404,-0.715,-0.100
6.406,-0.720,-0.100
6.408,-0.700,-0.095
6.410,-0.695,-0.095
6.412,-0.685,-0.095
6.414,-0.730,-0.095
6.416,-0.705,-0.095
6.418,-0.715,-0.095
6.420,-0.715,-0.095
6.422,-0.705,-0.100
6.424,-0.730,-0.105
6.426,-0.695,-0.110
6.428,-0.745,-0.115
6.430,-0.740,-0.120
6.432,-0.720,-0.120
6.434,-0.745,-0.120
6.436,-0.735,-0.120
6.438,-0.710,-0.115
6.440,-0.690,-0.105
6.442,-0.705,-0.100
6.444,-0.685,-0.090
6.446,-0.705,-0.085
6.448,-0.770,-0.080
6.450,-0.720,-0.080
6.452,-0.710,-0.080
6.454,-0.705,-0.085
6.456,-0.715,-0.090
6.458,-0.700,-0.095
6.460,-0.705,-0.100
6.462,-0.685,-0.105
6.464,-0.675,-0.105
6.466,-0.705,-0.110
6.468,-0.785,-0.110
6.470,-0.760,-0.115
6.472,-0.735,-0.115
6.474,-0.700,-0.115
6.476,-0.705,-0.115
6.478,-0.695,-0.110
6.480,-0.735,-0.105
6.482,-0.695,-0.100
6.484,-0.690,-0.090
6.486,-0.665,-0.085
6.488,-0.695,-0.085
6.490,-0.715,-0.080
6.492,-0.740,-0.085
6.494,-0.735,-0.085
6.496,-0.730,-0.090
6.498,-0.720,-0.100
6.500,-0.715,-0.100
6.502,-0.700,-0.105
6.504,-0.690,-0.105
6.506,-0.710,-0.105
6.508,-0.735,-0.100
6.510,-0.760,-0.100
6.512,-0.735,-0.100
6.514,-0.735,-0.100
6.516,-0.730,-0.100
6.518,-0.695,-0.105
6.520,-0.710,-0.110
6.522,-0.715,-0.110
6.524,-0.710,-0.110
6.526,-0.680,-0.110
6.528,-0.725,-0.110
6.530,-0.715,-0.110
6.532,-0.715,-0.105
6.534,-0.740,-0.105
6.536,-0.710,-0.105
6.538,-0.680,-0.105
6.540,-0.725,-0.110
6.542,-0.710,-0.115
6.544,-0.715,-0.115
6.546,-0.715,-0.115
6.548,-0.700,-0.115
6.550,-0.750,-0.110
6.552,-0.705,-0.110
6.554,-0.695,-0.105
6.556,-0.710,-0.100
6.558,-0.700,-0.100
6.560,-0.715,-0.100
6.562,-0.710,-0.105
6.564,-0.675,-0.110
6.566,-0.735,-0.115
6.568,-0.720,-0.120
6.570,-0.700,-0.130
6.572,-0.745,-0.130
6.574,-0.745,-0.135
6.576,-0.735,-0.130
6.578,-0.720,-0.125
6.580,-0.710,-0.120
6.582,-0.680,-0.110
6.584,-0.660,-0.100
6.586,-0.685,-0.095
6.588,-0.650,-0.085
6.590,-0.735,-0.085
6.592,-0.740,-0.085
6.594,-0.700,-0.095
6.596,-0.710,-0.100
6.598,-0.715,-0.110
6.600,-0.740,-0.115
6.602,-0.745,-0.120
6.604,-0.710,-0.125
6.606,-0.715,-0.125
6.608,-0.720,-0.120
6.610,-0.725,-0.115
6.612,-0.725,-0.110
6.614,-0.730,-0.105
6.616,-0.675,-0.105
6.618,-0.710,-0.100
6.620,-0.695,-0.100
6.622,-0.735,-0.100
6.624,-0.675,-0.100
6.626,-0.645,-0.100
6.628,-0.690,-0.100
6.630,-0.740,-0.095
6.632,-0.765,-0.095
6.634,-0.715,-0.090
6.636,-0.670,-0.090
6.638,-0.665,-0.090
6.640,-0.720,-0.090
6.642,-0.650,-0.095
6.644,-0.635,-0.100
6.646,-0.720,-0.100
6.648,-0.710,-0.100
6.650,-0.690,-0.100
6.652,-0.695,-0.100
6.654,-0.695,-0.090
6.656,-0.625,-0.085
6.658,-0.680,-0.075
6.660,-0.675,-0.070
6.662,-0.640,-0.065
6.664,-0.645,-0.060
6.666,-0.700,-0.060
6.668,-0.675,-0.065
6.670,-0.670,-0.065
6.672,-0.670,-0.070
6.674,-0.670,-0.070
6.676,-0.660,-0.070
6.678,-0.665,-0.070
6.680,-0.680,-0.065
6.682,-0.660,-0.065
6.684,-0.650,-0.060
6.686,-0.660,-0.060
6.688,-0.635,-0.055
6.690,-0.655,-0.055
6.692,-0.650,-0.060
6.694,-0.655,-0.060
6.696,-0.655,-0.060
6.698,-0.650,-0.060
6.700,-0.680,-0.060
6.702,-0.620,-0.060
6.704,-0.635,-0.055
6.706,-0.715,-0.055
6.708,-0.645,-0.050
6.710,-0.630,-0.045
6.712,-0.610,-0.040
6.714,-0.625,-0.035
6.716,-0.650,-0.035
6.718,-0.565,-0.030
6.720,-0.600,-0.030
6.722,-0.705,-0.030
6.724,-0.665,-0.035
6.726,-0.660,-0.035
6.728,-0.655,-0.040
6.730,-0.645,-0.045
6.732,-0.655,-0.050
6.734,-0.650,-0.055
6.736,-0.635,-0.055
6.738,-0.615,-0.055
6.740,-0.605,-0.050
6.742,-0.640,-0.045
6.744,-0.625,-0.040
6.746,-0.605,-0.035
6.748,-0.615,-0.030
6.750,-0.585,-0.025
6.752,-0.620,-0.025
6.754,-0.660,-0.025
6.756,-0.625,-0.030
6.758,-0.615,-0.030
6.760,-0.645,-0.030
6.762,-0.600,-0.030
6.764,-0.595,-0.025
6.766,-0.615,-0.015
6.768,-0.605,-0.005
6.770,-0.555,0.005
6.772,-0.600,0.010
6.774,-0.580,0.020
6.776,-0.575,0.025
6.778,-0.555,0.025
6.780,-0.560,0.025
6.782,-0.550,0.020
6.784,-0.575,0.010
6.786,-0.565,0.005
6.788,-0.615,-0.005
6.790,-0.620,-0.010
6.792,-0.615,-0.020
6.794,-0.570,-0.025
6.796,-0.575,-0.025
6.798,-0.645,-0.025
6.800,-0.620,-0.020
6.802,-0.585,-0.020
6.804,-0.625,-0.010
6.806,-0.620,-0.005
6.808,-0.555,-0.005
6.810,-0.580,0.000
6.812,-0.555,0.005
6.814,-0.585,0.005
6.816,-0.575,0.000
6.818,-0.610,0.000
6.820,-0.610,-0.005
6.822,-0.570,-0.005
6.824,-0.590,-0.010
6.826,-0.605,-0.010
6.828,-0.620,-0.010
6.830,-0.670,-0.015
6.832,-0.625,-0.015
6.834,-0.580,-0.020
6.836,-0.575,-0.020
6.838,-0.585,-0.025
6.840,-0.575,-0.025
6.842,-0.625,-0.030
6.844,-0.680,-0.035
6.846,-0.635,-0.040
6.848,-0.660,-0.045
6.850,-0.655,-0.050
6.852,-0.655,-0.060
6.854,-0.620,-0.065
6.856,-0.625,-0.065
6.858,-0.635,-0.070
6.860,-0.645,-0.065
6.862,-0.655,-0.065
6.864,-0.635,-0.060
6.866,-0.620,-0.055
6.868,-0.600,-0.050
6.870,-0.625,-0.045
6.872,-0.690,-0.040
6.874,-0.625,-0.040
6.876,-0.575,-0.040
6.878,-0.615,-0.045
6.880,-0.675,-0.050
6.882,-0.625,-0.065
6.884,-0.610,-0.080
6.886,-0.710,-0.100
6.888,-0.745,-0.125
6.890,-0.715,-0.150
6.892,-0.785,-0.180
6.894,-0.805,-0.200
6.896,-0.835,-0.215
6.898,-0.845,-0.210
6.900,-0.810,-0.185
6.902,-0.725,-0.140
6.904,-0.625,-0.070
6.906,-0.505,0.025
6.908,-0.375,0.130
6.910,-0.335,0.255
6.912,-0.245,0.390
6.914,-0.040,0.525
6.916,0.110,0.670
6.918,0.295,0.815
6.920,0.380,0.965
6.922,0.505,1.115
6.924,0.680,1.260
6.926,0.900,1.390
6.928,1.015,1.490
6.930,1.085,1.550
6.932,1.055,1.555
6.934,1.010,1.495
6.936,0.780,1.370
6.938,0.630,1.185
6.940,0.420,0.960
6.942,0.060,0.710
6.944,-0.240,0.470
6.946,-0.445,0.255
6.948,-0.560,0.085
6.950,-0.620,-0.025
6.952,-0.625,-0.085
6.954,-0.680,-0.100
6.956,-0.650,-0.080
6.958,-0.605,-0.045
6.960,-0.615,-0.010
6.962,-0.630,0.010
6.964,-0.540,0.020
6.966,-0.585,0.010
6.968,-0.595,-0.010
6.970,-0.645,-0.030
6.972,-0.600,-0.050
6.974,-0.585,-0.055
6.976,-0.620,-0.055
6.978,-0.625,-0.045
6.980,-0.595,-0.030
6.982,-0.565,-0.015
6.984,-0.595,-0.005
6.986,-0.605,0.000
6.988,-0.600,0.000
6.990,-0.605,-0.010
6.992,-0.595,-0.015
6.994,-0.550,-0.025
6.996,-0.585,-0.030
6.998,-0.620,-0.035
7.000,-0.650,-0.035
7.002,-0.615,-0.030
7.004,-0.610,-0.030
7.006,-0.590,-0.030
7.008,-0.590,-0.030
7.010,-0.540,-0.030
7.012,-0.635,-0.030
7.014,-0.635,-0.035
7.016,-0.585,-0.030
7.018,-0.590,-0.025
7.020,-0.595,-0.020
7.022,-0.585,-0.015
7.024,-0.550,-0.010
7.026,-0.595,-0.005
7.028,-0.560,0.000
7.030,-0.585,0.000
7.032,-0.620,0.000
7.034,-0.570,-0.005
7.036,-0.590,-0.005
7.038,-0.585,-0.005
7.040,-0.580,-0.005
7.042,-0.570,0.000
7.044,-0.570,0.000
7.046,-0.525,0.005
7.048,-0.525,0.010
7.050,-0.580,0.015
7.052,-0.550,0.015
7.054,-0.555,0.020
7.056,-0.545,0.020
7.058,-0.525,0.025
7.060,-0.525,0.025
7.062,-0.575,0.030
7.064,-0.545,0.030
7.066,-0.520,0.035
7.068,-0.540,0.040
7.070,-0.560,0.045
7.072,-0.520,0.050
7.074,-0.500,0.055
7.076,-0.535,0.060
7.078,-0.500,0.070
7.080,-0.420,0.075
7.082,-0.420,0.080
7.084,-0.500,0.085
7.086,-0.545,0.090
7.088,-0.505,0.095
7.090,-0.515,0.095
7.092,-0.480,0.100
7.094,-0.450,0.105
7.096,-0.430,0.110
7.098,-0.425,0.115
7.100,-0.470,0.120
7.102,-0.450,0.130
7.104,-0.465,0.135
7.106,-0.430,0.140
7.108,-0.405,0.145
7.110,-0.425,0.150
7.112,-0.415,0.155
7.114,-0.390,0.160
7.116,-0.380,0.170
7.118,-0.340,0.180
7.120,-0.335,0.195
7.122,-0.310,0.210
7.124,-0.350,0.230
7.126,-0.350,0.245
7.128,-0.345,0.260
7.130,-0.340,0.270
7.132,-0.305,0.275
7.134,-0.280,0.275
7.136,-0.280,0.275
7.138,-0.285,0.270
7.140,-0.290,0.270
7.142,-0.290,0.275
7.144,-0.275,0.285
7.146,-0.215,0.300
7.148,-0.250,0.320
7.150,-0.280,0.340
7.152,-0.220,0.355
7.154,-0.230,0.370
7.156,-0.190,0.375
7.158,-0.190,0.375
7.160,-0.185,0.365
7.162,-0.225,0.355
7.164,-0.210,0.340
7.166,-0.275,0.330
7.168,-0.265,0.320
7.170,-0.230,0.315
7.172,-0.200,0.315
7.174,-0.185,0.315
7.176,-0.235,0.320
7.178,-0.290,0.325
7.180,-0.275,0.320
7.182,-0.265,0.315
7.184,-0.280,0.305
7.186,-0.285,0.290
7.188,-0.285,0.270
7.190,-0.350,0.250
7.192,-0.315,0.230
7.194,-0.365,0.210
7.196,-0.385,0.190
7.198,-0.430,0.175
7.200,-0.420,0.160
7.202,-0.405,0.145
7.204,-0.405,0.130
7.206,-0.425,0.115
7.208,-0.510,0.105
7.210,-0.550,0.090
7.212,-0.500,0.075
7.214,-0.525,0.060
7.216,-0.520,0.045
7.218,-0.520,0.035
7.220,-0.565,0.025
7.222,-0.575,0.020
7.224,-0.560,0.015
7.226,-0.555,0.010
7.228,-0.580,0.005
7.230,-0.595,0.000
7.232,-0.530,0.000
7.234,-0.600,-0.005
7.236,-0.565,-0.010
7.238,-0.545,-0.015
7.240,-0.585,-0.020
7.242,-0.590,-0.025
7.244,-0.620,-0.030
7.246,-0.630,-0.035
7.248,-0.605,-0.040
7.250,-0.590,-0.045
7.252,-0.605,-0.055
7.254,-0.625,-0.060
7.256,-0.630,-0.065
7.258,-0.620,-0.070
7.260,-0.585,-0.070
7.262,-0.635,-0.070
7.264,-0.645,-0.065
7.266,-0.630,-0.060
7.268,-0.610,-0.055
7.270,-0.625,-0.045
7.272,-0.570,-0.040
7.274,-0.590,-0.040
7.276,-0.630,-0.040
7.278,-0.630,-0.050
7.280,-0.610,-0.055
7.282,-0.615,-0.065
7.284,-0.670,-0.075
7.286,-0.650,-0.085
7.288,-0.640,-0.085
7.290,-0.625,-0.085
7.292,-0.595,-0.080
7.294,-0.595,-0.070
7.296,-0.615,-0.060
7.298,-0.615,-0.050
7.300,-0.620,-0.040
7.302,-0.605,-0.035
7.304,-0.605,-0.035
7.306,-0.625,-0.040
7.308,-0.650,-0.045
7.310,-0.600,-0.055
7.312,-0.630,-0.060
7.314,-0.615,-0.065
7.316,-0.615,-0.070
7.318,-0.615,-0.070
7.320,-0.615,-0.065
7.322,-0.650,-0.060
7.324,-0.580,-0.055
7.326,-0.620,-0.055
7.328,-0.665,-0.050
7.330,-0.650,-0.055
7.332,-0.630,-0.060
7.334,-0.610,-0.065
7.336,-0.625,-0.070
7.338,-0.620,-0.075
7.340,-0.600,-0.075
7.342,-0.635,-0.075
7.344,-0.620,-0.070
7.346,-0.625,-0.060
7.348,-0.610,-0.055
7.350,-0.625,-0.050
7.352,-0.640,-0.045
7.354,-0.625,-0.045
7.356,-0.580,-0.050
7.358,-0.590,-0.055
7.360,-0.625,-0.060
7.362,-0.655,-0.065
7.364,-0.640,-0.065
7.366,-0.645,-0.060
7.368,-0.655,-0.060
7.370,-0.600,-0.055
7.372,-0.615,-0.050
7.374,-0.630,-0.050
7.376,-0.640,-0.050
7.378,-0.610,-0.055
7.380,-0.610,-0.060
7.382,-0.605,-0.070
7.384,-0.590,-0.075
7.386,-0.650,-0.075
7.388,-0.645,-0.075
7.390,-0.630,-0.075
7.392,-0.640,-0.070
7.394,-0.635,-0.065
7.396,-0.635,-0.060
7.398,-0.615,-0.060
7.400,-0.635,-0.060
7.402,-0.600,-0.060
7.404,-0.615,-0.060
7.406,-0.615,-0.065
7.408,-0.640,-0.065
7.410,-0.625,-0.065
7.412,-0.610,-0.060
7.414,-0.620,-0.055
7.416,-0.595,-0.050
7.418,-0.625,-0.050
7.420,-0.640,-0.050
7.422,-0.625,-0.050
7.424,-0.615,-0.055
7.426,-0.650,-0.060
7.428,-0.655,-0.065
7.430,-0.640,-0.065
7.432,-0.600,-0.065
7.434,-0.600,-0.065
7.436,-0.615,-0.060
7.438,-0.595,-0.055
7.440,-0.635,-0.050
7.442,-0.650,-0.050
7.444,-0.660,-0.055
7.446,-0.625,-0.060
7.448,-0.675,-0.070
7.450,-0.615,-0.080
7.452,-0.625,-0.090
7.454,-0.655,-0.095
7.456,-0.635,-0.100
7.458,-0.615,-0.100
7.460,-0.665,-0.095
7.462,-0.730,-0.090
7.464,-0.660,-0.085
7.466,-0.675,-0.085
7.468,-0.690,-0.085
7.470,-0.635,-0.090
7.472,-0.630,-0.095
7.474,-0.655,-0.100
7.476,-0.675,-0.105
7.478,-0.660,-0.105
7.480,-0.645,-0.100
7.482,-0.640,-0.095
7.484,-0.630,-0.090
7.486,-0.635,-0.080
7.488,-0.680,-0.075
7.490,-0.645,-0.070
7.492,-0.655,-0.075
7.494,-0.605,-0.075
7.496,-0.675,-0.080
7.498,-0.625,-0.085
7.500,-0.670,-0.090
7.502,-0.625,-0.095
7.504,-0.605,-0.095
7.506,-0.665,-0.090
7.508,-0.660,-0.090
7.510,-0.635,-0.090
7.512,-0.660,-0.090
7.514,-0.690,-0.090
7.516,-0.665,-0.090
7.518,-0.645,-0.095
7.520,-0.650,-0.095
7.522,-0.640,-0.100
7.524,-0.650,-0.100
7.526,-0.685,-0.095
7.528,-0.645,-0.090
7.530,-0.650,-0.085
7.532,-0.625,-0.085
7.534,-0.645,-0.080
7.536,-0.650,-0.085
7.538,-0.675,-0.090
7.540,-0.710,-0.095
7.542,-0.680,-0.100
7.544,-0.660,-0.105
7.546,-0.645,-0.110
7.548,-0.665,-0.110
7.550,-0.650,-0.110
7.552,-0.650,-0.110
7.554,-0.695,-0.105
7.556,-0.675,-0.105
7.558,-0.655,-0.100
7.560,-0.635,-0.100
7.562,-0.610,-0.100
7.564,-0.640,-0.100
7.566,-0.730,-0.100
7.568,-0.695,-0.100
7.570,-0.640,-0.095
7.572,-0.655,-0.095
7.574,-0.665,-0.090
7.576,-0.675,-0.085
7.578,-0.660,-0.085
7.580,-0.660,-0.080
7.582,-0.610,-0.080
7.584,-0.625,-0.085
7.586,-0.695,-0.085
7.588,-0.630,-0.085
7.590,-0.605,-0.090
7.592,-0.670,-0.090
7.594,-0.710,-0.090
7.596,-0.640,-0.090
7.598,-0.625,-0.090
7.600,-0.685,-0.095
7.602,-0.640,-0.100
7.604,-0.650,-0.105
7.606,-0.690,-0.110
7.608,-0.740,-0.115
7.610,-0.700,-0.120
7.612,-0.675,-0.120
7.614,-0.635,-0.115
7.616,-0.610,-0.110
7.618,-0.665,-0.105
7.620,-0.685,-0.100
7.622,-0.660,-0.095
7.624,-0.685,-0.095
7.626,-0.685,-0.095
7.628,-0.645,-0.095
7.630,-0.640,-0.100
7.632,-0.690,-0.105
7.634,-0.675,-0.110
7.636,-0.655,-0.115
7.638,-0.665,-0.115
7.640,-0.705,-0.115
7.642,-0.680,-0.110
7.644,-0.650,-0.105
7.646,-0.670,-0.100
7.648,-0.665,-0.095
7.650,-0.655,-0.090
7.652,-0.640,-0.080
7.654,-0.655,-0.075
7.656,-0.630,-0.070
7.658,-0.630,-0.065
7.660,-0.655,-0.065
7.662,-0.600,-0.070
7.664,-0.585,-0.075
7.666,-0.695,-0.085
7.668,-0.670,-0.095
7.670,-0.650,-0.110
7.672,-0.690,-0.120
7.674,-0.665,-0.125
7.676,-0.655,-0.125
7.678,-0.685,-0.120
7.680,-0.705,-0.110
7.682,-0.665,-0.095
7.684,-0.620,-0.085
7.686,-0.620,-0.075
7.688,-0.640,-0.070
7.690,-0.680,-0.070
7.692,-0.685,-0.075
7.694,-0.670,-0.085
7.696,-0.635,-0.095
7.698,-0.655,-0.105
7.700,-0.640,-0.110
7.702,-0.670,-0.115
7.704,-0.670,-0.110
7.706,-0.705,-0.105
7.708,-0.655,-0.100
7.710,-0.650,-0.095
7.712,-0.670,-0.090
7.714,-0.685,-0.090
7.716,-0.655,-0.090
7.718,-0.680,-0.095
7.720,-0.660,-0.100
7.722,-0.625,-0.100
7.724,-0.635,-0.105
7.726,-0.625,-0.100
7.728,-0.700,-0.100
7.730,-0.695,-0.095
7.732,-0.665,-0.090
7.734,-0.700,-0.090
7.736,-0.630,-0.085
7.738,-0.590,-0.085
7.740,-0.615,-0.085
7.742,-0.690,-0.085
7.744,-0.655,-0.085
7.746,-0.690,-0.085
7.748,-0.635,-0.085
7.750,-0.635,-0.085
7.752,-0.675,-0.090
7.754,-0.660,-0.090
7.756,-0.655,-0.095
7.758,-0.670,-0.095
7.760,-0.665,-0.095
7.762,-0.640,-0.095
7.764,-0.620,-0.090
7.766,-0.670,-0.085
7.768,-0.690,-0.080
7.770,-0.625,-0.075
7.772,-0.630,-0.070
7.774,-0.665,-0.070
7.776,-0.680,-0.070
7.778,-0.680,-0.075
7.780,-0.670,-0.085
7.782,-0.695,-0.095
7.784,-0.700,-0.105
7.786,-0.670,-0.110
7.788,-0.630,-0.115
7.790,-0.615,-0.115
7.792,-0.665,-0.115
7.794,-0.665,-0.110
7.796,-0.685,-0.105
7.798,-0.690,-0.100
7.800,-0.645,-0.095
7.802,-0.630,-0.090
7.804,-0.675,-0.090
7.806,-0.685,-0.090
7.808,-0.660,-0.095
7.810,-0.675,-0.095
7.812,-0.635,-0.095
7.814,-0.675,-0.090
7.816,-0.680,-0.090
7.818,-0.650,-0.085
7.820,-0.670,-0.080
7.822,-0.680,-0.080
7.824,-0.665,-0.080
7.826,-0.610,-0.085
7.828,-0.625,-0.090
7.830,-0.685,-0.095
7.832,-0.650,-0.100
7.834,-0.650,-0.105
7.836,-0.705,-0.105
7.838,-0.700,-0.105
7.840,-0.670,-0.105
7.842,-0.640,-0.100
7.844,-0.640,-0.095
7.846,-0.670,-0.085
7.848,-0.660,-0.080
7.850,-0.620,-0.080
7.852,-0.665,-0.075
7.854,-0.665,-0.075
7.856,-0.660,-0.080
7.858,-0.665,-0.080
7.860,-0.640,-0.085
7.862,-0.625,-0.085
7.864,-0.670,-0.090
7.866,-0.680,-0.090
7.868,-0.670,-0.090
7.870,-0.645,-0.095
7.872,-0.640,-0.095
7.874,-0.670,-0.095
7.876,-0.655,-0.095
7.878,-0.655,-0.095
7.880,-0.640,-0.095
7.882,-0.665,-0.090
7.884,-0.650,-0.085
7.886,-0.650,-0.080
7.888,-0.670,-0.075
7.890,-0.680,-0.075
7.892,-0.645,-0.070
7.894,-0.640,-0.070
7.896,-0.655,-0.070
7.898,-0.670,-0.065
7.900,-0.650,-0.065
7.902,-0.590,-0.060
7.904,-0.620,-0.055
7.906,-0.600,-0.050
7.908,-0.610,-0.045
7.910,-0.640,-0.045
7.912,-0.645,-0.045
7.914,-0.610,-0.050
7.916,-0.595,-0.050
7.918,-0.635,-0.055
7.920,-0.615,-0.055
7.922,-0.630,-0.055
7.924,-0.660,-0.050
7.926,-0.635,-0.045
7.928,-0.575,-0.040
7.930,-0.595,-0.030
7.932,-0.615,-0.030
7.934,-0.655,-0.035
7.936,-0.655,-0.040
7.938,-0.620,-0.050
7.940,-0.625,-0.060
7.942,-0.675,-0.070
7.944,-0.660,-0.070
7.946,-0.605,-0.070
7.948,-0.560,-0.060
7.950,-0.585,-0.050
7.952,-0.610,-0.035
7.954,-0.595,-0.020
7.956,-0.625,-0.015
7.958,-0.630,-0.015
7.960,-0.650,-0.020
7.962,-0.650,-0.035
7.964,-0.635,-0.050
7.966,-0.630,-0.070
7.968,-0.675,-0.085
7.970,-0.660,-0.095
7.972,-0.655,-0.105
7.974,-0.675,-0.105
7.976,-0.690,-0.100
7.978,-0.695,-0.095
7.980,-0.645,-0.090
7.982,-0.660,-0.090
7.984,-0.670,-0.095
7.986,-0.700,-0.100
7.988,-0.680,-0.105
7.990,-0.715,-0.110
7.992,-0.700,-0.115
7.994,-0.705,-0.120
7.996,-0.735,-0.115
7.998,-0.640,-0.110
8.000,-0.660,-0.105
8.002,-0.685,-0.095
8.004,-0.685,-0.090
8.006,-0.660,-0.085
8.008,-0.645,-0.080
8.010,-0.655,-0.080
8.012,-0.680,-0.080
8.014,-0.635,-0.080
8.016,-0.600,-0.090
8.018,-0.595,-0.100
8.020,-0.700,-0.115
8.022,-0.805,-0.140
8.024,-0.790,-0.165
8.026,-0.775,-0.200
8.028,-0.810,-0.230
8.030,-0.825,-0.260
8.032,-0.830,-0.275
8.034,-0.890,-0.275
8.036,-0.890,-0.255
8.038,-0.830,-0.210
8.040,-0.730,-0.145
8.042,-0.610,-0.060
8.044,-0.490,0.040
8.046,-0.355,0.155
8.048,-0.295,0.275
8.050,-0.210,0.400
8.052,-0.060,0.530
8.054,0.115,0.670
8.056,0.255,0.815
8.058,0.395,0.970
8.060,0.595,1.120
8.062,0.715,1.265
8.064,0.840,1.385
8.066,0.945,1.465
8.068,1.010,1.490
8.070,0.990,1.455
8.072,0.845,1.360
8.074,0.690,1.200
8.076,0.430,0.990
8.078,0.120,0.760
8.080,-0.205,0.525
8.082,-0.405,0.315
8.084,-0.520,0.135
8.086,-0.590,0.005
8.088,-0.665,-0.075
8.090,-0.680,-0.115
8.092,-0.635,-0.125
8.094,-0.605,-0.110
8.096,-0.720,-0.095
8.098,-0.710,-0.085
8.100,-0.685,-0.080
8.102,-0.670,-0.080
8.104,-0.650,-0.085
8.106,-0.620,-0.095
8.108,-0.620,-0.095
8.110,-0.605,-0.090
8.112,-0.645,-0.085
8.114,-0.660,-0.075
8.116,-0.705,-0.065
8.118,-0.665,-0.060
8.120,-0.640,-0.060
8.122,-0.685,-0.065
8.124,-0.680,-0.075
8.126,-0.635,-0.085
8.128,-0.630,-0.095
8.130,-0.635,-0.100
8.132,-0.655,-0.100
8.134,-0.670,-0.095
8.136,-0.665,-0.085
8.138,-0.655,-0.075
8.140,-0.660,-0.070
8.142,-0.670,-0.060
8.144,-0.655,-0.060
8.146,-0.635,-0.060
8.148,-0.635,-0.060
8.150,-0.625,-0.065
8.152,-0.615,-0.065
8.154,-0.645,-0.065
8.156,-0.625,-0.060
8.158,-0.605,-0.055
8.160,-0.605,-0.050
8.162,-0.635,-0.040
8.164,-0.635,-0.030
8.166,-0.600,-0.020
8.168,-0.630,-0.015
8.170,-0.575,-0.010
8.172,-0.575,-0.005
8.174,-0.600,-0.010
8.176,-0.575,-0.010
8.178,-0.565,-0.015
8.180,-0.580,-0.025
8.182,-0.630,-0.030
8.184,-0.710,-0.035
8.186,-0.670,-0.035
8.188,-0.590,-0.035
8.190,-0.560,-0.030
8.192,-0.565,-0.025
8.194,-0.555,-0.020
8.196,-0.570,-0.010
8.198,-0.585,-0.005
8.200,-0.555,0.000
8.202,-0.560,0.000
8.204,-0.615,0.005
8.206,-0.600,0.005
8.208,-0.575,0.005
8.210,-0.540,0.005
8.212,-0.580,0.010
8.214,-0.545,0.015
8.216,-0.565,0.020
8.218,-0.535,0.025
8.220,-0.530,0.035
8.222,-0.530,0.045
8.224,-0.520,0.050
8.226,-0.495,0.060
8.228,-0.500,0.070
8.230,-0.515,0.085
8.232,-0.460,0.095
8.234,-0.490,0.105
8.236,-0.515,0.110
8.238,-0.460,0.115
8.240,-0.470,0.120
8.242,-0.500,0.125
8.244,-0.435,0.130
8.246,-0.410,0.130
8.248,-0.445,0.140
8.250,-0.460,0.145
8.252,-0.435,0.150
8.254,-0.360,0.160
8.256,-0.425,0.170
8.258,-0.410,0.175
8.260,-0.385,0.180
8.262,-0.445,0.185
8.264,-0.410,0.190
8.266,-0.340,0.200
8.268,-0.350,0.210
8.270,-0.335,0.225
8.272,-0.305,0.245
8.274,-0.310,0.265
8.276,-0.280,0.285
8.278,-0.290,0.305
8.280,-0.265,0.320
8.282,-0.245,0.330
8.284,-0.250,0.330
8.286,-0.280,0.330
8.288,-0.235,0.325
8.290,-0.280,0.320
8.292,-0.260,0.315
8.294,-0.280,0.315
8.296,-0.290,0.315
8.298,-0.250,0.325
8.300,-0.230,0.330
8.302,-0.245,0.340
8.304,-0.210,0.350
8.306,-0.240,0.355
8.308,-0.220,0.355
8.310,-0.245,0.355
8.312,-0.190,0.345
8.314,-0.255,0.335
8.316,-0.260,0.320
8.318,-0.310,0.305
8.320,-0.300,0.285
8.322,-0.300,0.270
8.324,-0.330,0.255
8.326,-0.375,0.235
8.328,-0.380,0.220
8.330,-0.355,0.200
8.332,-0.395,0.185
8.334,-0.425,0.170
8.336,-0.450,0.150
8.338,-0.420,0.135
8.340,-0.505,0.120
8.342,-0.505,0.105
8.344,-0.490,0.090
8.346,-0.515,0.080
8.348,-0.505,0.070
8.350,-0.475,0.060
8.352,-0.505,0.050
8.354,-0.530,0.040
8.356,-0.600,0.030
8.358,-0.590,0.020
8.360,-0.585,0.010
8.362,-0.565,0.000
8.364,-0.575,-0.015
8.366,-0.625,-0.025
8.368,-0.605,-0.035
8.370,-0.620,-0.045
8.372,-0.620,-0.050
8.374,-0.605,-0.050
8.376,-0.610,-0.055
8.378,-0.650,-0.050
8.380,-0.675,-0.045
8.382,-0.640,-0.040
8.384,-0.590,-0.040
8.386,-0.610,-0.035
8.388,-0.590,-0.040
8.390,-0.625,-0.045
8.392,-0.650,-0.055
8.394,-0.660,-0.065
8.396,-0.640,-0.075
8.398,-0.625,-0.085
8.400,-0.695,-0.090
8.402,-0.675,-0.085
8.404,-0.625,-0.080
8.406,-0.610,-0.065
8.408,-0.630,-0.045
8.410,-0.655,-0.030
8.412,-0.575,-0.020
8.414,-0.630,-0.020
8.416,-0.635,-0.020
8.418,-0.630,-0.035
8.420,-0.655,-0.050
8.422,-0.680,-0.065
8.424,-0.630,-0.075
8.426,-0.675,-0.080
8.428,-0.635,-0.080
8.430,-0.575,-0.065
8.432,-0.605,-0.050
8.434,-0.665,-0.035
8.436,-0.610,-0.020
8.438,-0.625,-0.015
8.440,-0.640,-0.015
8.442,-0.630,-0.025
8.444,-0.650,-0.040
8.446,-0.640,-0.055
8.448,-0.625,-0.065
8.450,-0.655,-0.075
8.452,-0.635,-0.075
8.454,-0.655,-0.065
8.456,-0.650,-0.055
8.458,-0.605,-0.045
8.460,-0.580,-0.035
8.462,-0.575,-0.030
8.464,-0.635,-0.035
8.466,-0.625,-0.040
8.468,-0.650,-0.050
8.470,-0.645,-0.065
8.472,-0.630,-0.075
8.474,-0.650,-0.080
8.476,-0.650,-0.080
8.478,-0.615,-0.075
8.480,-0.640,-0.070
8.482,-0.680,-0.065
8.484,-0.640,-0.055
8.486,-0.630,-0.055
8.488,-0.600,-0.050
8.490,-0.570,-0.050
8.492,-0.640,-0.050
8.494,-0.625,-0.050
8.496,-0.580,-0.050
8.498,-0.610,-0.050
8.500,-0.665,-0.045
8.502,-0.655,-0.045
8.504,-0.625,-0.050
8.506,-0.640,-0.055
8.508,-0.650,-0.060
8.510,-0.620,-0.065
8.512,-0.585,-0.070
8.514,-0.635,-0.070
8.516,-0.635,-0.065
8.518,-0.595,-0.060
8.520,-0.655,-0.055
8.522,-0.640,-0.050
8.524,-0.610,-0.045
8.526,-0.630,-0.040
8.528,-0.640,-0.040
8.530,-0.595,-0.040
8.532,-0.585,-0.035
8.534,-0.645,-0.035
8.536,-0.595,-0.035
8.538,-0.610,-0.030
8.540,-0.630,-0.025
8.542,-0.570,-0.025
8.544,-0.595,-0.030
8.546,-0.665,-0.040
8.548,-0.625,-0.050
8.550,-0.595,-0.065
8.552,-0.635,-0.075
8.554,-0.690,-0.085
8.556,-0.640,-0.085
8.558,-0.615,-0.080
8.560,-0.660,-0.070
8.562,-0.625,-0.055
8.564,-0.625,-0.045
8.566,-0.620,-0.035
8.568,-0.580,-0.030
8.570,-0.590,-0.035
8.572,-0.615,-0.040
8.574,-0.630,-0.045
8.576,-0.635,-0.055
8.578,-0.635,-0.060
8.580,-0.620,-0.065
8.582,-0.595,-0.060
8.584,-0.600,-0.060
8.586,-0.620,-0.055
8.588,-0.610,-0.055
8.590,-0.620,-0.055
8.592,-0.660,-0.060
8.594,-0.655,-0.070
8.596,-0.650,-0.080
8.598,-0.635,-0.085
8.600,-0.690,-0.090
8.602,-0.620,-0.085
8.604,-0.640,-0.080
8.606,-0.630,-0.070
8.608,-0.610,-0.060
8.610,-0.585,-0.050
8.612,-0.590,-0.040
8.614,-0.615,-0.040
8.616,-0.655,-0.040
8.618,-0.660,-0.050
8.620,-0.635,-0.055
8.622,-0.615,-0.060
8.624,-0.610,-0.065
8.626,-0.585,-0.070
8.628,-0.635,-0.070
8.630,-0.630,-0.070
8.632,-0.610,-0.070
8.634,-0.665,-0.070
8.636,-0.645,-0.070
8.638,-0.625,-0.075
8.640,-0.635,-0.080
8.642,-0.595,-0.085
8.644,-0.685,-0.085
8.646,-0.665,-0.090
8.648,-0.630,-0.085
8.650,-0.620,-0.080
8.652,-0.630,-0.075
8.654,-0.605,-0.065
8.656,-0.625,-0.060
8.658,-0.625,-0.050
8.660,-0.605,-0.050
8.662,-0.605,-0.050
8.664,-0.640,-0.050
8.666,-0.620,-0.060
8.668,-0.610,-0.065
8.670,-0.645,-0.070
8.672,-0.675,-0.075
8.674,-0.670,-0.080
8.676,-0.605,-0.080
8.678,-0.630,-0.075
8.680,-0.580,-0.075
8.682,-0.615,-0.070
8.684,-0.660,-0.065
8.686,-0.640,-0.065
8.688,-0.635,-0.070
8.690,-0.615,-0.070
8.692,-0.630,-0.075
8.694,-0.635,-0.080
8.696,-0.625,-0.085
8.698,-0.625,-0.085
8.700,-0.630,-0.080
8.702,-0.630,-0.075
8.704,-0.660,-0.070
8.706,-0.630,-0.070
8.708,-0.600,-0.065
8.710,-0.615,-0.070
8.712,-0.640,-0.070
8.714,-0.655,-0.080
8.716,-0.640,-0.085
8.718,-0.630,-0.090
8.720,-0.625,-0.095
8.722,-0.700,-0.095
8.724,-0.675,-0.095
8.726,-0.600,-0.090
8.728,-0.585,-0.085
8.730,-0.615,-0.080
8.732,-0.650,-0.075
8.734,-0.635,-0.075
8.736,-0.635,-0.070
8.738,-0.640,-0.070
8.740,-0.615,-0.070
8.742,-0.595,-0.070
8.744,-0.560,-0.065
8.746,-0.595,-0.060
8.748,-0.615,-0.055
8.750,-0.665,-0.055
8.752,-0.620,-0.060
8.754,-0.625,-0.065
8.756,-0.635,-0.075
8.758,-0.695,-0.085
8.760,-0.660,-0.095
8.762,-0.620,-0.105
8.764,-0.615,-0.105
8.766,-0.630,-0.105
8.768,-0.635,-0.095
8.770,-0.600,-0.085
8.772,-0.605,-0.070
8.774,-0.650,-0.060
8.776,-0.630,-0.055
8.778,-0.630,-0.055
8.780,-0.625,-0.060
8.782,-0.600,-0.070
8.784,-0.620,-0.075
8.786,-0.620,-0.085
8.788,-0.600,-0.090
8.790,-0.655,-0.090
8.792,-0.655,-0.090
8.794,-0.615,-0.085
8.796,-0.630,-0.085
8.798,-0.625,-0.080
8.800,-0.600,-0.080
8.802,-0.595,-0.085
8.804,-0.660,-0.090
8.806,-0.665,-0.095
8.808,-0.630,-0.100
8.810,-0.615,-0.100
8.812,-0.620,-0.100
8.814,-0.625,-0.095
8.816,-0.625,-0.090
8.818,-0.635,-0.085
8.820,-0.620,-0.075
8.822,-0.610,-0.070
8.824,-0.610,-0.065
8.826,-0.625,-0.065
8.828,-0.580,-0.065
8.830,-0.640,-0.070
8.832,-0.620,-0.075
8.834,-0.550,-0.080
8.836,-0.645,-0.085
8.838,-0.660,-0.090
8.840,-0.620,-0.095
8.842,-0.620,-0.095
8.844,-0.630,-0.095
8.846,-0.630,-0.095
8.848,-0.630,-0.090
8.850,-0.585,-0.085
8.852,-0.575,-0.080
8.854,-0.610,-0.075
8.856,-0.630,-0.075
8.858,-0.630,-0.070
8.860,-0.610,-0.070
8.862,-0.620,-0.070
8.864,-0.625,-0.075
8.866,-0.605,-0.080
8.868,-0.585,-0.085
8.870,-0.635,-0.090
8.872,-0.635,-0.095
8.874,-0.625,-0.100
8.876,-0.615,-0.100
8.878,-0.620,-0.095
8.880,-0.590,-0.085
8.882,-0.610,-0.080
8.884,-0.610,-0.075
8.886,-0.565,-0.070
8.888,-0.605,-0.065
8.890,-0.635,-0.065
8.892,-0.620,-0.070
8.894,-0.630,-0.080
8.896,-0.630,-0.085
8.898,-0.620,-0.090
8.900,-0.580,-0.095
8.902,-0.610,-0.095
8.904,-0.635,-0.090
8.906,-0.610,-0.080
8.908,-0.575,-0.070
8.910,-0.620,-0.065
8.912,-0.580,-0.060
8.914,-0.595,-0.060
8.916,-0.615,-0.060
8.918,-0.600,-0.070
8.920,-0.600,-0.075
8.922,-0.610,-0.085
8.924,-0.650,-0.090
8.926,-0.630,-0.090
8.928,-0.600,-0.090
8.930,-0.600,-0.090
8.932,-0.610,-0.085
8.934,-0.585,-0.080
8.936,-0.620,-0.075
8.938,-0.645,-0.075
8.940,-0.610,-0.075
8.942,-0.585,-0.075
8.944,-0.595,-0.075
8.946,-0.580,-0.075
8.948,-0.560,-0.075
8.950,-0.570,-0.070
8.952,-0.600,-0.070
8.954,-0.595,-0.065
8.956,-0.610,-0.065
8.958,-0.620,-0.060
8.960,-0.560,-0.065
8.962,-0.610,-0.070
8.964,-0.600,-0.070
8.966,-0.585,-0.075
8.968,-0.550,-0.075
8.970,-0.580,-0.070
8.972,-0.580,-0.065
8.974,-0.560,-0.055
8.976,-0.570,-0.040
8.978,-0.505,-0.030
8.980,-0.530,-0.025
8.982,-0.530,-0.020
8.984,-0.570,-0.020
8.986,-0.585,-0.025
8.988,-0.560,-0.030
8.990,-0.555,-0.035
8.992,-0.530,-0.040
8.994,-0.555,-0.045
8.996,-0.565,-0.045
8.998,-0.570,-0.050
9.000,-0.555,-0.050
9.002,-0.535,-0.055
9.004,-0.555,-0.055
9.006,-0.570,-0.055
9.008,-0.620,-0.060
9.010,-0.615,-0.060
9.012,-0.595,-0.055
9.014,-0.535,-0.055
9.016,-0.535,-0.045
9.018,-0.545,-0.040
9.020,-0.520,-0.035
9.022,-0.535,-0.025
9.024,-0.505,-0.025
9.026,-0.560,-0.020
9.028,-0.610,-0.025
9.030,-0.575,-0.035
9.032,-0.555,-0.045
9.034,-0.570,-0.055
9.036,-0.575,-0.065
9.038,-0.595,-0.080
9.040,-0.580,-0.090
9.042,-0.600,-0.095
9.044,-0.605,-0.100
9.046,-0.625,-0.105
9.048,-0.605,-0.105
9.050,-0.660,-0.105
9.052,-0.605,-0.100
9.054,-0.605,-0.095
9.056,-0.610,-0.090
9.058,-0.575,-0.080
9.060,-0.580,-0.075
9.062,-0.600,-0.070
9.064,-0.555,-0.075
9.066,-0.585,-0.080
9.068,-0.635,-0.085
9.070,-0.655,-0.100
9.072,-0.600,-0.110
9.074,-0.615,-0.120
9.076,-0.645,-0.125
9.078,-0.625,-0.125
9.080,-0.640,-0.120
9.082,-0.615,-0.110
9.084,-0.555,-0.105
9.086,-0.575,-0.100
9.088,-0.615,-0.105
9.090,-0.635,-0.125
9.092,-0.685,-0.155
9.094,-0.720,-0.195
9.096,-0.780,-0.230
9.098,-0.800,-0.260
9.100,-0.775,-0.270
9.102,-0.780,-0.260
9.104,-0.740,-0.220
9.106,-0.605,-0.155
9.108,-0.505,-0.060
9.110,-0.465,0.045
9.112,-0.340,0.165
9.114,-0.225,0.290
9.116,-0.115,0.415
9.118,0.100,0.545
9.120,0.240,0.680
9.122,0.355,0.825
9.124,0.470,0.975
9.126,0.650,1.125
9.128,0.820,1.275
9.130,0.970,1.395
9.132,1.030,1.480
9.134,1.100,1.510
9.136,1.025,1.475
9.138,0.945,1.365
9.140,0.750,1.195
9.142,0.510,0.970
9.144,0.165,0.725
9.146,-0.075,0.480
9.148,-0.360,0.255
9.150,-0.565,0.080
9.152,-0.575,-0.050
9.154,-0.560,-0.125
9.156,-0.635,-0.150
9.158,-0.625,-0.150
9.160,-0.595,-0.125
9.162,-0.610,-0.100
9.164,-0.605,-0.080
9.166,-0.595,-0.070
9.168,-0.585,-0.070
9.170,-0.560,-0.070
9.172,-0.565,-0.080
9.174,-0.480,-0.080
9.176,-0.575,-0.080
9.178,-0.595,-0.080
9.180,-0.580,-0.075
9.182,-0.580,-0.070
9.184,-0.570,-0.070
9.186,-0.555,-0.075
9.188,-0.590,-0.080
9.190,-0.585,-0.090
9.192,-0.570,-0.095
9.194,-0.585,-0.095
9.196,-0.615,-0.090
9.198,-0.570,-0.085
9.200,-0.515,-0.080
9.202,-0.510,-0.075
9.204,-0.595,-0.070
9.206,-0.585,-0.070
9.208,-0.595,-0.075
9.210,-0.525,-0.080
9.212,-0.580,-0.085
9.214,-0.565,-0.090
9.216,-0.575,-0.090
9.218,-0.550,-0.085
9.220,-0.575,-0.080
9.222,-0.550,-0.075
9.224,-0.535,-0.070
9.226,-0.510,-0.065
9.228,-0.535,-0.065
9.230,-0.535,-0.065
9.232,-0.555,-0.065
9.234,-0.555,-0.070
9.236,-0.545,-0.070
9.238,-0.570,-0.070
9.240,-0.545,-0.065
9.242,-0.495,-0.065
9.244,-0.540,-0.060
9.246,-0.520,-0.060
9.248,-0.540,-0.055
9.250,-0.525,-0.050
9.252,-0.505,-0.050
9.254,-0.520,-0.045
9.256,-0.530,-0.040
9.258,-0.495,-0.035
9.260,-0.505,-0.025
9.262,-0.510,-0.015
9.264,-0.490,-0.010
9.266,-0.485,0.000
9.268,-0.485,0.005
9.270,-0.450,0.005
9.272,-0.465,0.005
9.274,-0.460,0.000
9.276,-0.495,0.000
9.278,-0.480,-0.005
9.280,-0.475,-0.005
9.282,-0.405,-0.005
9.284,-0.460,0.000
9.286,-0.490,0.005
9.288,-0.490,0.015
9.290,-0.440,0.030
9.292,-0.410,0.045
9.294,-0.450,0.055
9.296,-0.365,0.070
9.298,-0.375,0.080
9.300,-0.350,0.090
9.302,-0.370,0.095
9.304,-0.390,0.100
9.306,-0.380,0.105
9.308,-0.410,0.105
9.310,-0.350,0.110
9.312,-0.340,0.115
9.314,-0.395,0.125
9.316,-0.320,0.135
9.318,-0.280,0.145
9.320,-0.265,0.155
9.322,-0.275,0.165
9.324,-0.270,0.175
9.326,-0.295,0.185
9.328,-0.290,0.195
9.330,-0.285,0.200
9.332,-0.260,0.210
9.334,-0.225,0.220
9.336,-0.210,0.230
9.338,-0.240,0.245
9.340,-0.170,0.255
9.342,-0.175,0.270
9.344,-0.150,0.280
9.346,-0.125,0.290
9.348,-0.220,0.295
9.350,-0.200,0.300
9.352,-0.150,0.300
9.354,-0.140,0.305
9.356,-0.160,0.305
9.358,-0.140,0.310
9.360,-0.160,0.320
9.362,-0.155,0.325
9.364,-0.090,0.330
9.366,-0.120,0.335
9.368,-0.115,0.335
9.370,-0.110,0.335
9.372,-0.115,0.325
9.374,-0.170,0.320
9.376,-0.190,0.310
9.378,-0.170,0.300
9.380,-0.160,0.290
9.382,-0.130,0.285
9.384,-0.150,0.285
9.386,-0.175,0.280
9.388,-0.200,0.280
9.390,-0.195,0.275
9.392,-0.220,0.265
9.394,-0.235,0.250
9.396,-0.240,0.235
9.398,-0.300,0.210
9.400,-0.295,0.190
9.402,-0.275,0.165
9.404,-0.295,0.145
9.406,-0.365,0.125
9.408,-0.380,0.110
9.410,-0.355,0.095
9.412,-0.330,0.085
9.414,-0.350,0.070
9.416,-0.420,0.060
9.418,-0.445,0.040
9.420,-0.470,0.025
9.422,-0.505,0.005
9.424,-0.480,-0.015
9.426,-0.445,-0.030
9.428,-0.485,-0.040
9.430,-0.485,-0.045
9.432,-0.490,-0.045
9.434,-0.510,-0.040
9.436,-0.475,-0.030
9.438,-0.435,-0.020
9.440,-0.440,-0.015
9.442,-0.480,-0.015
9.444,-0.495,-0.015
9.446,-0.550,-0.025
9.448,-0.470,-0.035
9.450,-0.485,-0.050
9.452,-0.500,-0.060
9.454,-0.560,-0.070
9.456,-0.520,-0.075
9.458,-0.515,-0.075
9.460,-0.515,-0.075
9.462,-0.495,-0.070
9.464,-0.520,-0.065
9.466,-0.535,-0.060
9.468,-0.550,-0.055
9.470,-0.500,-0.055
9.472,-0.510,-0.055
9.474,-0.530,-0.050
9.476,-0.485,-0.055
9.478,-0.500,-0.055
9.480,-0.515,-0.060
9.482,-0.535,-0.065
9.484,-0.495,-0.075
9.486,-0.520,-0.080
9.488,-0.500,-0.085
9.490,-0.580,-0.085
9.492,-0.570,-0.085
9.494,-0.485,-0.080
9.496,-0.500,-0.070
9.498,-0.490,-0.060
9.500,-0.460,-0.055
9.502,-0.475,-0.050
9.504,-0.510,-0.045
9.506,-0.510,-0.050
9.508,-0.505,-0.060
9.510,-0.530,-0.070
9.512,-0.505,-0.080
9.514,-0.535,-0.085
9.516,-0.545,-0.090
9.518,-0.540,-0.090
9.520,-0.500,-0.090
9.522,-0.510,-0.085
9.524,-0.525,-0.075
9.526,-0.545,-0.075
9.528,-0.485,-0.070
9.530,-0.445,-0.070
9.532,-0.545,-0.070
9.534,-0.560,-0.070
9.536,-0.515,-0.070
9.538,-0.535,-0.065
9.540,-0.455,-0.060
9.542,-0.490,-0.055
9.544,-0.500,-0.055
9.546,-0.525,-0.055
9.548,-0.500,-0.060
9.550,-0.505,-0.065
9.552,-0.550,-0.075
9.554,-0.555,-0.085
9.556,-0.525,-0.095
9.558,-0.505,-0.095
9.560,-0.505,-0.090
9.562,-0.510,-0.085
9.564,-0.475,-0.070
9.566,-0.500,-0.055
9.568,-0.485,-0.045
9.570,-0.495,-0.035
9.572,-0.460,-0.030
9.574,-0.465,-0.035
9.576,-0.515,-0.040
9.578,-0.510,-0.050
9.580,-0.515,-0.060
9.582,-0.540,-0.070
9.584,-0.570,-0.080
9.586,-0.490,-0.085
9.588,-0.460,-0.085
9.590,-0.490,-0.080
9.592,-0.520,-0.080
9.594,-0.525,-0.075
9.596,-0.500,-0.070
9.598,-0.520,-0.070
9.600,-0.495,-0.070
9.602,-0.485,-0.070
9.604,-0.485,-0.070
9.606,-0.530,-0.070
9.608,-0.510,-0.070
9.610,-0.515,-0.070
9.612,-0.515,-0.070
9.614,-0.505,-0.065
9.616,-0.490,-0.065
9.618,-0.475,-0.065
9.620,-0.455,-0.065
9.622,-0.500,-0.065
9.624,-0.540,-0.065
9.626,-0.515,-0.070
9.628,-0.470,-0.070
9.630,-0.510,-0.075
9.632,-0.545,-0.080
9.634,-0.520,-0.080
9.636,-0.490,-0.080
9.638,-0.495,-0.080
9.640,-0.480,-0.075
9.642,-0.525,-0.070
9.644,-0.460,-0.065
9.646,-0.500,-0.065
9.648,-0.485,-0.065
9.650,-0.540,-0.065
9.652,-0.560,-0.070
9.654,-0.510,-0.075
9.656,-0.465,-0.080
9.658,-0.480,-0.080
9.660,-0.495,-0.085
9.662,-0.500,-0.085
9.664,-0.550,-0.080
9.666,-0.505,-0.080
9.668,-0.515,-0.075
9.670,-0.540,-0.075
9.672,-0.525,-0.075
9.674,-0.485,-0.075
9.676,-0.500,-0.080
9.678,-0.490,-0.080
9.680,-0.495,-0.085
9.682,-0.465,-0.090
9.684,-0.525,-0.095
9.686,-0.540,-0.100
9.688,-0.545,-0.100
9.690,-0.530,-0.100
9.692,-0.515,-0.100
9.694,-0.525,-0.095
9.696,-0.470,-0.090
9.698,-0.505,-0.085
9.700,-0.525,-0.080
9.702,-0.510,-0.075
9.704,-0.520,-0.070
9.706,-0.535,-0.065
9.708,-0.530,-0.065
9.710,-0.505,-0.065
9.712,-0.490,-0.070
9.714,-0.450,-0.070
9.716,-0.430,-0.075
9.718,-0.460,-0.080
9.720,-0.540,-0.080
9.722,-0.515,-0.080
9.724,-0.545,-0.080
9.726,-0.495,-0.080
9.728,-0.490,-0.080
9.730,-0.540,-0.080
9.732,-0.520,-0.080
9.734,-0.495,-0.085
9.736,-0.505,-0.085
9.738,-0.530,-0.085
9.740,-0.500,-0.085
9.742,-0.455,-0.080
9.744,-0.520,-0.080
9.746,-0.515,-0.080
9.748,-0.510,-0.080
9.750,-0.500,-0.085
9.752,-0.515,-0.090
9.754,-0.530,-0.095
9.756,-0.530,-0.100
9.758,-0.540,-0.105
9.760,-0.525,-0.105
9.762,-0.485,-0.100
9.764,-0.540,-0.095
9.766,-0.510,-0.085
9.768,-0.435,-0.075
9.770,-0.460,-0.065
9.772,-0.515,-0.060
9.774,-0.480,-0.060
9.776,-0.525,-0.060
9.778,-0.490,-0.070
9.780,-0.540,-0.080
9.782,-0.525,-0.090
9.784,-0.505,-0.100
9.786,-0.465,-0.105
9.788,-0.445,-0.100
9.790,-0.545,-0.095
9.792,-0.520,-0.090
9.794,-0.485,-0.080
9.796,-0.485,-0.075
9.798,-0.495,-0.070
9.800,-0.530,-0.070
9.802,-0.535,-0.075
9.804,-0.520,-0.080
9.806,-0.515,-0.085
9.808,-0.500,-0.090
9.810,-0.480,-0.090
9.812,-0.515,-0.085
9.814,-0.480,-0.080
9.816,-0.495,-0.075
9.818,-0.465,-0.070
9.820,-0.500,-0.070
9.822,-0.505,-0.070
9.824,-0.520,-0.075
9.826,-0.530,-0.080
9.828,-0.495,-0.085
9.830,-0.515,-0.090
9.832,-0.480,-0.090
9.834,-0.460,-0.090
9.836,-0.505,-0.085
9.838,-0.465,-0.075
9.840,-0.485,-0.070
9.842,-0.520,-0.060
9.844,-0.540,-0.055
9.846,-0.505,-0.050
9.848,-0.490,-0.055
9.850,-0.460,-0.055
9.852,-0.485,-0.060
9.854,-0.455,-0.070
9.856,-0.465,-0.075
9.858,-0.470,-0.080
9.860,-0.450,-0.080
9.862,-0.510,-0.085
9.864,-0.530,-0.090
9.866,-0.515,-0.090
9.868,-0.500,-0.095
9.870,-0.545,-0.100
9.872,-0.515,-0.100
9.874,-0.440,-0.100
9.876,-0.505,-0.095
9.878,-0.500,-0.090
9.880,-0.455,-0.080
9.882,-0.460,-0.075
9.884,-0.505,-0.065
9.886,-0.540,-0.060
9.888,-0.495,-0.060
9.890,-0.485,-0.060
9.892,-0.460,-0.060
9.894,-0.465,-0.065
9.896,-0.490,-0.065
9.898,-0.470,-0.070
9.900,-0.430,-0.070
9.902,-0.465,-0.070
9.904,-0.480,-0.065
9.906,-0.510,-0.070
9.908,-0.525,-0.070
9.910,-0.525,-0.075
9.912,-0.490,-0.080
9.914,-0.480,-0.085
9.916,-0.485,-0.090
9.918,-0.480,-0.095
9.920,-0.460,-0.090
9.922,-0.500,-0.085
9.924,-0.520,-0.080
9.926,-0.470,-0.070
9.928,-0.500,-0.060
9.930,-0.460,-0.055
9.932,-0.465,-0.050
9.934,-0.475,-0.055
9.936,-0.490,-0.060
9.938,-0.505,-0.065
9.940,-0.495,-0.070
9.942,-0.510,-0.075
9.944,-0.510,-0.080
9.946,-0.430,-0.080
9.948,-0.485,-0.075
9.950,-0.475,-0.075
9.952,-0.480,-0.070
9.954,-0.485,-0.065
9.956,-0.500,-0.065
9.958,-0.480,-0.065
9.960,-0.460,-0.070
9.962,-0.470,-0.075
9.964,-0.460,-0.080
9.966,-0.435,-0.085
9.968,-0.505,-0.085
9.970,-0.520,-0.085
9.972,-0.490,-0.080
9.974,-0.470,-0.075
9.976,-0.480,-0.070
9.978,-0.465,-0.070
9.980,-0.455,-0.065
9.982,-0.465,-0.065
9.984,-0.490,-0.070
9.986,-0.495,-0.070
9.988,-0.485,-0.075
9.990,-0.490,-0.075
9.992,-0.485,-0.075
9.994,-0.440,-0.070
9.996,-0.460,-0.070
9.998,-0.455,-0.065
