'Elapsed time','ECG I','ECG I filtered'
'seconds','mV','mV'
0.000,0.335,0.020
0.002,0.125,-0.040
0.004,-0.055,-0.060
0.006,0.060,-0.070
0.008,0.135,-0.055
0.010,0.355,-0.025
0.012,0.535,0.015
0.014,0.595,0.050
0.016,0.590,0.075
0.018,0.560,0.075
0.020,0.350,0.055
0.022,0.190,0.025
0.024,0.040,-0.010
0.026,0.005,-0.035
0.028,0.085,-0.045
0.030,0.290,-0.040
0.032,0.510,-0.020
0.034,0.620,0.005
0.036,0.650,0.030
0.038,0.600,0.050
0.040,0.340,0.055
0.042,0.145,0.045
0.044,0.060,0.030
0.046,0.065,0.015
0.048,0.100,0.005
0.050,0.320,-0.005
0.052,0.550,-0.005
0.054,0.680,0.000
0.056,0.600,0.005
0.058,0.550,0.005
0.060,0.255,-0.005
0.062,0.035,-0.015
0.064,-0.005,-0.025
0.066,0.060,-0.035
0.068,0.145,-0.035
0.070,0.365,-0.030
0.072,0.535,-0.020
0.074,0.595,-0.010
0.076,0.590,0.005
0.078,0.520,0.010
0.080,0.295,0.005
0.082,0.070,-0.005
0.084,-0.010,-0.015
0.086,0.005,-0.030
0.088,0.110,-0.045
0.090,0.340,-0.050
0.092,0.525,-0.045
0.094,0.585,-0.035
0.096,0.550,-0.025
0.098,0.465,-0.010
0.100,0.260,-0.005
0.102,0.080,0.000
0.104,0.030,-0.005
0.106,0.050,-0.015
0.108,0.115,-0.030
0.110,0.335,-0.040
0.112,0.515,-0.045
0.114,0.615,-0.045
0.116,0.610,-0.040
0.118,0.500,-0.030
0.120,0.215,-0.015
0.122,0.055,-0.005
0.124,0.055,0.005
0.126,0.135,0.010
0.128,0.175,0.010
0.130,0.390,0.005
0.132,0.575,0.000
0.134,0.585,-0.005
0.136,0.595,-0.010
0.138,0.505,-0.015
0.140,0.245,-0.010
0.142,0.110,0.000
0.144,0.040,0.010
0.146,0.115,0.025
0.148,0.245,0.035
0.150,0.495,0.045
0.152,0.625,0.055
0.154,0.635,0.055
0.156,0.585,0.055
0.158,0.510,0.050
0.160,0.290,0.045
0.162,0.105,0.040
0.164,0.085,0.035
0.166,0.125,0.035
0.168,0.285,0.030
0.170,0.475,0.030
0.172,0.610,0.025
0.174,0.605,0.020
0.176,0.570,0.015
0.178,0.450,0.005
0.180,0.235,0.000
0.182,0.070,-0.010
0.184,0.030,-0.015
0.186,0.055,-0.025
0.188,0.195,-0.030
0.190,0.455,-0.035
0.192,0.545,-0.040
0.194,0.545,-0.050
0.196,0.505,-0.055
0.198,0.355,-0.055
0.200,0.155,-0.055
0.202,0.025,-0.055
0.204,-0.005,-0.050
0.206,0.055,-0.045
0.208,0.250,-0.040
0.210,0.410,-0.035
0.212,0.565,-0.030
0.214,0.585,-0.030
0.216,0.550,-0.030
0.218,0.410,-0.035
0.220,0.155,-0.040
0.222,0.065,-0.045
0.224,-0.005,-0.050
0.226,0.055,-0.050
0.228,0.200,-0.055
0.230,0.400,-0.055
0.232,0.545,-0.050
0.234,0.545,-0.050
0.236,0.555,-0.045
0.238,0.445,-0.045
0.240,0.180,-0.040
0.242,0.025,-0.040
0.244,-0.020,-0.035
0.246,0.040,-0.030
0.248,0.240,-0.030
0.250,0.495,-0.025
0.252,0.630,-0.025
0.254,0.590,-0.025
0.256,0.550,-0.030
0.258,0.400,-0.035
0.260,0.145,-0.045
0.262,-0.015,-0.055
0.264,-0.045,-0.065
0.266,0.010,-0.070
0.268,0.195,-0.075
0.270,0.460,-0.080
0.272,0.560,-0.080
0.274,0.575,-0.080
0.276,0.465,-0.075
0.278,0.310,-0.065
0.280,0.100,-0.055
0.282,-0.005,-0.035
0.284,0.035,-0.005
0.286,0.145,0.045
0.288,0.450,0.105
0.290,0.750,0.190
0.292,0.985,0.295
0.294,1.070,0.415
0.296,1.135,0.540
0.298,1.040,0.665
0.300,0.945,0.775
0.302,0.935,0.855
0.304,0.935,0.895
0.306,1.030,0.885
0.308,1.340,0.830
0.310,1.455,0.735
0.312,1.260,0.610
0.314,0.940,0.465
0.316,0.745,0.325
0.318,0.440,0.195
0.320,0.190,0.090
0.322,0.090,0.015
0.324,0.090,-0.025
0.326,0.110,-0.045
0.328,0.280,-0.040
0.330,0.500,-0.030
0.332,0.640,-0.020
0.334,0.605,-0.005
0.336,0.565,0.000
0.338,0.325,0.000
0.340,0.120,-0.005
0.342,0.060,-0.010
0.344,0.085,-0.015
0.346,0.150,-0.020
0.348,0.315,-0.020
0.350,0.545,-0.020
0.352,0.625,-0.020
0.354,0.565,-0.020
0.356,0.530,-0.025
0.358,0.285,-0.025
0.360,0.095,-0.030
0.362,0.015,-0.035
0.364,0.105,-0.035
0.366,0.145,-0.030
0.368,0.345,-0.025
0.370,0.600,-0.020
0.372,0.630,-0.015
0.374,0.565,-0.010
0.376,0.505,-0.010
0.378,0.305,-0.010
0.380,0.100,-0.015
0.382,0.050,-0.020
0.384,0.095,-0.025
0.386,0.175,-0.030
0.388,0.355,-0.035
0.390,0.525,-0.035
0.392,0.615,-0.035
0.394,0.540,-0.035
0.396,0.480,-0.035
0.398,0.280,-0.030
0.400,0.095,-0.035
0.402,0.055,-0.040
0.404,0.095,-0.045
0.406,0.140,-0.055
0.408,0.370,-0.070
0.410,0.495,-0.075
0.412,0.525,-0.080
0.414,0.470,-0.080
0.416,0.385,-0.075
0.418,0.285,-0.060
0.420,0.110,-0.040
0.422,0.060,-0.020
0.424,0.195,-0.005
0.426,0.255,0.005
0.428,0.445,0.010
0.430,0.575,0.010
0.432,0.605,0.005
0.434,0.535,-0.005
0.436,0.460,-0.020
0.438,0.240,-0.025
0.440,0.095,-0.030
0.442,0.095,-0.030
0.444,0.125,-0.020
0.446,0.235,-0.010
0.448,0.455,0.000
0.450,0.590,0.010
0.452,0.635,0.015
0.454,0.550,0.020
0.456,0.485,0.015
0.458,0.275,0.010
0.460,0.140,0.000
0.462,0.105,-0.010
0.464,0.150,-0.020
0.466,0.225,-0.025
0.468,0.440,-0.020
0.470,0.590,-0.015
0.472,0.655,-0.005
0.474,0.585,0.010
0.476,0.495,0.020
0.478,0.290,0.025
0.480,0.140,0.025
0.482,0.130,0.020
0.484,0.195,0.010
0.486,0.250,-0.005
0.488,0.480,-0.015
0.490,0.635,-0.025
0.492,0.600,-0.025
0.494,0.510,-0.020
0.496,0.435,-0.005
0.498,0.240,0.015
0.500,0.155,0.035
0.502,0.210,0.055
0.504,0.245,0.070
0.506,0.385,0.075
0.508,0.565,0.075
0.510,0.720,0.070
0.512,0.690,0.065
0.514,0.635,0.065
0.516,0.490,0.065
0.518,0.300,0.070
0.520,0.185,0.075
0.522,0.240,0.090
0.524,0.280,0.100
0.526,0.450,0.110
0.528,0.595,0.120
0.530,0.735,0.120
0.532,0.745,0.125
0.534,0.730,0.125
0.536,0.565,0.125
0.538,0.375,0.130
0.540,0.255,0.135
0.542,0.255,0.145
0.544,0.300,0.155
0.546,0.515,0.165
0.548,0.700,0.170
0.550,0.800,0.170
0.552,0.780,0.165
0.554,0.710,0.155
0.556,0.590,0.145
0.558,0.385,0.140
0.560,0.270,0.135
0.562,0.315,0.135
0.564,0.305,0.140
0.566,0.480,0.150
0.568,0.680,0.165
0.570,0.840,0.175
0.572,0.825,0.190
0.574,0.810,0.200
0.576,0.600,0.200
0.578,0.445,0.200
0.580,0.320,0.190
0.582,0.310,0.175
0.584,0.325,0.160
0.586,0.490,0.145
0.588,0.700,0.130
0.590,0.735,0.120
0.592,0.790,0.120
0.594,0.720,0.120
0.596,0.550,0.125
0.598,0.340,0.130
0.600,0.250,0.130
0.602,0.265,0.130
0.604,0.285,0.115
0.606,0.435,0.100
0.608,0.645,0.075
0.610,0.695,0.045
0.612,0.655,0.020
0.614,0.605,-0.005
0.616,0.350,-0.020
0.618,0.195,-0.030
0.620,0.125,-0.030
0.622,0.130,-0.030
0.624,0.165,-0.030
0.626,0.355,-0.035
0.628,0.470,-0.040
0.630,0.570,-0.055
0.632,0.600,-0.070
0.634,0.510,-0.085
0.636,0.250,-0.095
0.638,0.105,-0.100
0.640,0.050,-0.100
0.642,0.085,-0.095
0.644,0.105,-0.085
0.646,0.370,-0.075
0.648,0.545,-0.070
0.650,0.610,-0.070
0.652,0.495,-0.075
0.654,0.465,-0.085
0.656,0.255,-0.100
0.658,0.055,-0.115
0.660,0.015,-0.125
0.662,0.020,-0.125
0.664,0.140,-0.125
0.666,0.355,-0.115
0.668,0.495,-0.100
0.670,0.530,-0.085
0.672,0.545,-0.075
0.674,0.520,-0.070
0.676,0.270,-0.070
0.678,0.105,-0.075
0.680,0.055,-0.085
0.682,0.100,-0.095
0.684,0.115,-0.100
0.686,0.340,-0.105
0.688,0.530,-0.105
0.690,0.610,-0.100
0.692,0.525,-0.095
0.694,0.480,-0.085
0.696,0.240,-0.080
0.698,0.095,-0.075
0.700,0.055,-0.075
0.702,0.080,-0.080
0.704,0.180,-0.090
0.706,0.375,-0.095
0.708,0.495,-0.100
0.710,0.545,-0.100
0.712,0.490,-0.095
0.714,0.465,-0.085
0.716,0.255,-0.075
0.718,0.115,-0.060
0.720,0.060,-0.050
0.722,0.185,-0.045
0.724,0.280,-0.045
0.726,0.395,-0.055
0.728,0.545,-0.070
0.730,0.535,-0.090
0.732,0.525,-0.110
0.734,0.450,-0.120
0.736,0.200,-0.125
0.738,0.010,-0.125
0.740,0.000,-0.115
0.742,0.110,-0.105
0.744,0.215,-0.090
0.746,0.410,-0.080
0.748,0.580,-0.080
0.750,0.585,-0.085
0.752,0.520,-0.095
0.754,0.410,-0.105
0.756,0.185,-0.120
0.758,0.055,-0.125
0.760,0.010,-0.125
0.762,0.070,-0.120
0.764,0.260,-0.110
0.766,0.445,-0.095
0.768,0.565,-0.085
0.770,0.560,-0.075
0.772,0.560,-0.070
0.774,0.430,-0.070
0.776,0.225,-0.070
0.778,0.075,-0.080
0.780,0.035,-0.085
0.782,0.100,-0.090
0.784,0.230,-0.090
0.786,0.465,-0.090
0.788,0.540,-0.090
0.790,0.565,-0.095
0.792,0.525,-0.100
0.794,0.440,-0.105
0.796,0.210,-0.110
0.798,0.010,-0.115
0.800,-0.020,-0.120
0.802,0.080,-0.120
0.804,0.265,-0.120
0.806,0.445,-0.115
0.808,0.585,-0.105
0.810,0.590,-0.100
0.812,0.545,-0.095
0.814,0.405,-0.095
0.816,0.185,-0.100
0.818,0.060,-0.105
0.820,0.045,-0.110
0.822,0.040,-0.115
0.824,0.200,-0.120
0.826,0.460,-0.115
0.828,0.590,-0.115
0.830,0.585,-0.110
0.832,0.530,-0.100
0.834,0.385,-0.095
0.836,0.200,-0.095
0.838,0.000,-0.090
0.840,0.045,-0.095
0.842,0.085,-0.095
0.844,0.230,-0.100
0.846,0.495,-0.105
0.848,0.575,-0.110
0.850,0.565,-0.115
0.852,0.510,-0.115
0.854,0.330,-0.115
0.856,0.135,-0.120
0.858,0.015,-0.120
0.860,0.060,-0.120
0.862,0.105,-0.120
0.864,0.270,-0.120
0.866,0.475,-0.115
0.868,0.565,-0.110
0.870,0.590,-0.105
0.872,0.525,-0.095
0.874,0.360,-0.090
0.876,0.170,-0.085
0.878,0.090,-0.085
0.880,0.070,-0.085
0.882,0.110,-0.095
0.884,0.265,-0.105
0.886,0.455,-0.120
0.888,0.590,-0.130
0.890,0.550,-0.140
0.892,0.520,-0.140
0.894,0.285,-0.140
0.896,0.070,-0.135
0.898,0.020,-0.130
0.900,0.035,-0.120
0.902,0.095,-0.110
0.904,0.310,-0.105
0.906,0.545,-0.100
0.908,0.605,-0.100
0.910,0.580,-0.105
0.912,0.500,-0.105
0.914,0.310,-0.110
0.916,0.120,-0.110
0.918,0.015,-0.110
0.920,0.005,-0.110
0.922,0.105,-0.110
0.924,0.320,-0.110
0.926,0.510,-0.115
0.928,0.595,-0.120
0.930,0.535,-0.125
0.932,0.465,-0.130
0.934,0.290,-0.135
0.936,0.080,-0.135
0.938,0.015,-0.135
0.940,0.030,-0.135
0.942,0.110,-0.130
0.944,0.330,-0.120
0.946,0.520,-0.110
0.948,0.595,-0.105
0.950,0.610,-0.100
0.952,0.565,-0.095
0.954,0.300,-0.090
0.956,0.130,-0.090
0.958,0.050,-0.090
0.960,0.095,-0.095
0.962,0.165,-0.090
0.964,0.345,-0.090
0.966,0.555,-0.080
0.968,0.635,-0.070
0.970,0.600,-0.060
0.972,0.585,-0.050
0.974,0.340,-0.040
0.976,0.155,-0.035
0.978,0.110,-0.035
0.980,0.120,-0.035
0.982,0.195,-0.045
0.984,0.405,-0.055
0.986,0.605,-0.065
0.988,0.640,-0.075
0.990,0.610,-0.080
0.992,0.585,-0.085
0.994,0.270,-0.085
0.996,0.060,-0.080
0.998,-0.005,-0.080
1.000,0.085,-0.080
1.002,0.220,-0.080
1.004,0.450,-0.090
1.006,0.580,-0.095
1.008,0.595,-0.105
1.010,0.560,-0.115
1.012,0.480,-0.125
1.014,0.225,-0.125
1.016,0.045,-0.125
1.018,-0.005,-0.120
1.020,0.040,-0.115
1.022,0.155,-0.115
1.024,0.430,-0.110
1.026,0.590,-0.110
1.028,0.625,-0.115
1.030,0.510,-0.125
1.032,0.410,-0.130
1.034,0.170,-0.135
1.036,0.035,-0.135
1.038,0.045,-0.135
1.040,0.095,-0.130
1.042,0.220,-0.125
1.044,0.415,-0.120
1.046,0.565,-0.115
1.048,0.580,-0.110
1.050,0.540,-0.110
1.052,0.465,-0.115
1.054,0.220,-0.120
1.056,0.035,-0.125
1.058,-0.005,-0.130
1.060,0.070,-0.135
1.062,0.180,-0.135
1.064,0.405,-0.135
1.066,0.550,-0.135
1.068,0.560,-0.130
1.070,0.525,-0.130
1.072,0.435,-0.125
1.074,0.205,-0.125
1.076,0.050,-0.125
1.078,0.015,-0.125
1.080,0.085,-0.125
1.082,0.175,-0.125
1.084,0.405,-0.125
1.086,0.600,-0.130
1.088,0.605,-0.130
1.090,0.545,-0.135
1.092,0.420,-0.140
1.094,0.160,-0.145
1.096,0.005,-0.155
1.098,-0.025,-0.160
1.100,0.025,-0.165
1.102,0.140,-0.170
1.104,0.345,-0.165
1.106,0.545,-0.145
1.108,0.605,-0.110
1.110,0.590,-0.055
1.112,0.545,0.025
1.114,0.455,0.125
1.116,0.415,0.245
1.118,0.570,0.375
1.120,0.740,0.510
1.122,1.025,0.630
1.124,1.315,0.730
1.126,1.475,0.800
1.128,1.510,0.830
1.130,1.520,0.820
1.132,1.415,0.765
1.134,1.150,0.675
1.136,0.775,0.560
1.138,0.410,0.425
1.140,0.320,0.290
1.142,0.430,0.160
1.144,0.595,0.050
1.146,0.620,-0.035
1.148,0.595,-0.090
1.150,0.565,-0.120
1.152,0.340,-0.130
1.154,0.220,-0.115
1.156,0.120,-0.095
1.158,0.100,-0.075
1.160,0.160,-0.055
1.162,0.325,-0.045
1.164,0.530,-0.040
1.166,0.620,-0.050
1.168,0.605,-0.065
1.170,0.555,-0.085
1.172,0.395,-0.100
1.174,0.165,-0.110
1.176,0.045,-0.115
1.178,0.055,-0.115
1.180,0.105,-0.105
1.182,0.280,-0.100
1.184,0.495,-0.090
1.186,0.650,-0.090
1.188,0.610,-0.090
1.190,0.560,-0.095
1.192,0.325,-0.100
1.194,0.135,-0.105
1.196,0.050,-0.105
1.198,0.050,-0.105
1.200,0.115,-0.105
1.202,0.315,-0.100
1.204,0.485,-0.100
1.206,0.620,-0.095
1.208,0.585,-0.100
1.210,0.530,-0.100
1.212,0.310,-0.105
1.214,0.130,-0.110
1.216,0.030,-0.115
1.218,0.060,-0.115
1.220,0.105,-0.110
1.222,0.315,-0.100
1.224,0.545,-0.090
1.226,0.610,-0.080
1.228,0.610,-0.070
1.230,0.505,-0.070
1.232,0.330,-0.070
1.234,0.120,-0.075
1.236,0.060,-0.080
1.238,0.065,-0.085
1.240,0.115,-0.085
1.242,0.405,-0.085
1.244,0.590,-0.080
1.246,0.600,-0.070
1.248,0.540,-0.065
1.250,0.590,-0.055
1.252,0.360,-0.050
1.254,0.130,-0.050
1.256,0.095,-0.055
1.258,0.080,-0.060
1.260,0.135,-0.070
1.262,0.360,-0.075
1.264,0.555,-0.075
1.266,0.635,-0.070
1.268,0.620,-0.065
1.270,0.575,-0.055
1.272,0.335,-0.045
1.274,0.165,-0.040
1.276,0.075,-0.035
1.278,0.155,-0.040
1.280,0.200,-0.040
1.282,0.405,-0.045
1.284,0.575,-0.050
1.286,0.625,-0.050
1.288,0.590,-0.050
1.290,0.535,-0.045
1.292,0.315,-0.035
1.294,0.150,-0.030
1.296,0.105,-0.020
1.298,0.155,-0.015
1.300,0.270,-0.015
1.302,0.490,-0.020
1.304,0.600,-0.020
1.306,0.680,-0.025
1.308,0.645,-0.030
1.310,0.550,-0.035
1.312,0.285,-0.030
1.314,0.120,-0.030
1.316,0.135,-0.025
1.318,0.205,-0.020
1.320,0.255,-0.010
1.322,0.470,-0.005
1.324,0.615,0.000
1.326,0.670,0.005
1.328,0.660,0.010
1.330,0.510,0.015
1.332,0.355,0.025
1.334,0.235,0.030
1.336,0.230,0.035
1.338,0.275,0.040
1.340,0.335,0.045
1.342,0.550,0.045
1.344,0.630,0.050
1.346,0.680,0.055
1.348,0.680,0.065
1.350,0.645,0.075
1.352,0.435,0.090
1.354,0.275,0.105
1.356,0.260,0.115
1.358,0.275,0.125
1.360,0.425,0.130
1.362,0.650,0.130
1.364,0.765,0.130
1.366,0.775,0.125
1.368,0.730,0.120
1.370,0.635,0.115
1.372,0.425,0.115
1.374,0.280,0.120
1.376,0.255,0.130
1.378,0.280,0.140
1.380,0.465,0.150
1.382,0.665,0.160
1.384,0.830,0.165
1.386,0.860,0.170
1.388,0.815,0.175
1.390,0.655,0.175
1.392,0.440,0.175
1.394,0.340,0.180
1.396,0.310,0.185
1.398,0.320,0.190
1.400,0.510,0.200
1.402,0.725,0.205
1.404,0.875,0.205
1.406,0.885,0.200
1.408,0.810,0.195
1.410,0.650,0.180
1.412,0.390,0.165
1.414,0.255,0.150
1.416,0.285,0.135
1.418,0.315,0.120
1.420,0.415,0.110
1.422,0.600,0.100
1.424,0.760,0.095
1.426,0.750,0.090
1.428,0.710,0.085
1.430,0.520,0.075
1.432,0.290,0.065
1.434,0.190,0.050
1.436,0.170,0.035
1.438,0.160,0.025
1.440,0.325,0.015
1.442,0.550,0.005
1.444,0.690,0.000
1.446,0.710,0.000
1.448,0.635,0.000
1.450,0.390,0.000
1.452,0.155,0.000
1.454,0.115,-0.005
1.456,0.085,-0.010
1.458,0.110,-0.020
1.460,0.310,-0.025
1.462,0.520,-0.035
1.464,0.635,-0.040
1.466,0.640,-0.045
1.468,0.555,-0.045
1.470,0.370,-0.040
1.472,0.145,-0.040
1.474,0.020,-0.035
1.476,0.070,-0.035
1.478,0.125,-0.035
1.480,0.310,-0.035
1.482,0.510,-0.040
1.484,0.610,-0.045
1.486,0.580,-0.050
1.488,0.560,-0.055
1.490,0.330,-0.055
1.492,0.155,-0.055
1.494,0.035,-0.055
1.496,0.070,-0.050
1.498,0.115,-0.050
1.500,0.310,-0.045
1.502,0.510,-0.040
1.504,0.645,-0.040
1.506,0.595,-0.040
1.508,0.550,-0.035
1.510,0.365,-0.035
1.512,0.145,-0.035
1.514,0.065,-0.035
1.516,0.065,-0.035
1.518,0.090,-0.030
1.520,0.325,-0.030
1.522,0.545,-0.030
1.524,0.625,-0.030
1.526,0.560,-0.025
1.528,0.605,-0.025
1.530,0.340,-0.025
1.532,0.100,-0.025
1.534,-0.025,-0.020
1.536,0.060,-0.015
1.538,0.145,-0.015
1.540,0.385,-0.010
1.542,0.565,-0.005
1.544,0.650,-0.005
1.546,0.600,0.000
1.548,0.535,-0.005
1.550,0.320,-0.005
1.552,0.150,-0.010
1.554,0.075,-0.015
1.556,0.090,-0.020
1.558,0.145,-0.025
1.560,0.370,-0.020
1.562,0.520,-0.020
1.564,0.625,-0.010
1.566,0.585,-0.005
1.568,0.520,0.005
1.570,0.335,0.010
1.572,0.125,0.010
1.574,0.090,0.010
1.576,0.125,0.005
1.578,0.190,0.000
1.580,0.340,-0.005
1.582,0.540,-0.010
1.584,0.650,-0.010
1.586,0.610,-0.005
1.588,0.445,0.000
1.590,0.330,0.005
1.592,0.130,0.005
1.594,0.075,0.010
1.596,0.075,0.005
1.598,0.165,0.000
1.600,0.360,-0.005
1.602,0.535,-0.010
1.604,0.625,-0.010
1.606,0.600,-0.010
1.608,0.510,0.000
1.610,0.300,0.005
1.612,0.115,0.015
1.614,-0.005,0.020
1.616,0.090,0.020
1.618,0.220,0.015
1.620,0.450,0.005
1.622,0.510,-0.005
1.624,0.575,-0.015
1.626,0.570,-0.020
1.628,0.480,-0.020
1.630,0.255,-0.020
1.632,0.105,-0.010
1.634,0.080,0.000
1.636,0.115,0.010
1.638,0.180,0.015
1.640,0.420,0.015
1.642,0.540,0.010
1.644,0.570,0.000
1.646,0.520,-0.010
1.648,0.430,-0.020
1.650,0.245,-0.020
1.652,0.095,-0.020
1.654,0.055,-0.015
1.656,0.110,-0.005
1.658,0.220,0.010
1.660,0.450,0.015
1.662,0.565,0.020
1.664,0.550,0.020
1.666,0.475,0.015
1.668,0.430,0.010
1.670,0.245,0.005
1.672,0.080,0.000
1.674,0.060,0.000
1.676,0.150,0.005
1.678,0.245,0.010
1.680,0.445,0.020
1.682,0.555,0.025
1.684,0.540,0.025
1.686,0.545,0.020
1.688,0.410,0.015
1.690,0.175,0.000
1.692,0.015,-0.010
1.694,0.030,-0.025
1.696,0.080,-0.035
1.698,0.235,-0.040
1.700,0.375,-0.040
1.702,0.505,-0.030
1.704,0.550,-0.020
1.706,0.530,-0.005
1.708,0.375,0.010
1.710,0.200,0.025
1.712,0.035,0.035
1.714,0.105,0.040
1.716,0.105,0.040
1.718,0.255,0.030
1.720,0.435,0.025
1.722,0.580,0.010
1.724,0.545,0.000
1.726,0.475,-0.005
1.728,0.355,-0.010
1.730,0.170,-0.005
1.732,0.020,0.000
1.734,0.010,0.005
1.736,0.080,0.015
1.738,0.270,0.020
1.740,0.445,0.030
1.742,0.575,0.030
1.744,0.570,0.035
1.746,0.545,0.035
1.748,0.360,0.030
1.750,0.160,0.030
1.752,0.060,0.030
1.754,0.060,0.030
1.756,0.120,0.030
1.758,0.290,0.025
1.760,0.505,0.020
1.762,0.545,0.015
1.764,0.500,0.005
1.766,0.475,0.000
1.768,0.325,-0.010
1.770,0.110,-0.010
1.772,-0.025,-0.010
1.774,0.015,-0.005
1.776,0.110,0.000
1.778,0.320,0.010
1.780,0.440,0.025
1.782,0.585,0.035
1.784,0.540,0.050
1.786,0.545,0.055
1.788,0.365,0.060
1.790,0.150,0.065
1.792,0.070,0.065
1.794,0.090,0.070
1.796,0.155,0.070
1.798,0.315,0.075
1.800,0.510,0.080
1.802,0.640,0.085
1.804,0.640,0.090
1.806,0.585,0.095
1.808,0.370,0.100
1.810,0.145,0.100
1.812,0.090,0.100
1.814,0.120,0.100
1.816,0.175,0.095
1.818,0.320,0.090
1.820,0.535,0.085
1.822,0.610,0.085
1.824,0.605,0.080
1.826,0.515,0.080
1.828,0.305,0.075
1.830,0.130,0.070
1.832,0.070,0.065
1.834,0.100,0.060
1.836,0.135,0.055
1.838,0.330,0.050
1.840,0.470,0.045
1.842,0.535,0.040
1.844,0.485,0.035
1.846,0.460,0.030
1.848,0.250,0.025
1.850,0.065,0.020
1.852,0.000,0.015
1.854,0.055,0.015
1.856,0.120,0.010
1.858,0.295,0.015
1.860,0.460,0.015
1.862,0.545,0.015
1.864,0.500,0.020
1.866,0.435,0.020
1.868,0.235,0.020
1.870,0.055,0.020
1.872,-0.030,0.020
1.874,0.005,0.015
1.876,0.090,0.010
1.878,0.295,0.005
1.880,0.455,0.000
1.882,0.510,0.000
1.884,0.465,0.000
1.886,0.375,0.000
1.888,0.165,0.005
1.890,0.035,0.005
1.892,-0.020,0.010
1.894,0.045,0.015
1.896,0.140,0.015
1.898,0.315,0.020
1.900,0.490,0.025
1.902,0.540,0.030
1.904,0.465,0.035
1.906,0.370,0.040
1.908,0.210,0.040
1.910,0.055,0.040
1.912,-0.020,0.035
1.914,0.000,0.025
1.916,0.105,0.015
1.918,0.280,0.005
1.920,0.435,-0.010
1.922,0.475,-0.025
1.924,0.390,-0.035
1.926,0.315,-0.045
1.928,0.085,-0.045
1.930,-0.100,-0.040
1.932,-0.085,-0.025
1.934,-0.010,0.005
1.936,0.150,0.050
1.938,0.435,0.120
1.940,0.690,0.210
1.942,0.830,0.325
1.944,0.895,0.450
1.946,0.940,0.585
1.948,0.910,0.715
1.950,0.850,0.830
1.952,0.865,0.920
1.954,0.925,0.970
1.956,1.065,0.975
1.958,1.310,0.940
1.960,1.465,0.860
1.962,1.420,0.750
1.964,1.035,0.625
1.966,0.630,0.490
1.968,0.325,0.360
1.970,0.085,0.245
1.972,0.050,0.155
1.974,0.120,0.090
1.976,0.165,0.050
1.978,0.350,0.030
1.980,0.495,0.030
1.982,0.475,0.035
1.984,0.475,0.050
1.986,0.355,0.060
1.988,0.165,0.065
1.990,0.005,0.070
1.992,-0.040,0.065
1.994,0.010,0.060
1.996,0.135,0.050
1.998,0.310,0.040
2.000,0.515,0.030
2.002,0.465,0.020
2.004,0.475,0.015
2.006,0.290,0.015
2.008,0.110,0.020
2.010,-0.055,0.020
2.012,-0.045,0.025
2.014,-0.045,0.030
2.016,0.095,0.035
2.018,0.325,0.035
2.020,0.475,0.030
2.022,0.465,0.025
2.024,0.440,0.020
2.026,0.300,0.015
2.028,0.085,0.010
2.030,-0.060,0.005
2.032,-0.090,0.005
2.034,-0.030,0.005
2.036,0.130,0.005
2.038,0.275,0.010
2.040,0.465,0.010
2.042,0.470,0.015
2.044,0.395,0.015
2.046,0.225,0.020
2.048,0.055,0.025
2.050,-0.055,0.030
2.052,-0.030,0.035
2.054,0.030,0.040
2.056,0.155,0.045
2.058,0.385,0.045
2.060,0.455,0.045
2.062,0.435,0.040
2.064,0.380,0.030
2.066,0.215,0.020
2.068,0.030,0.010
2.070,-0.070,0.005
2.072,-0.075,0.000
2.074,-0.035,-0.005
2.076,0.155,0.000
2.078,0.335,0.005
2.080,0.450,0.015
2.082,0.475,0.030
2.084,0.420,0.040
2.086,0.235,0.045
2.088,0.030,0.055
2.090,-0.075,0.055
2.092,-0.040,0.060
2.094,0.045,0.055
2.096,0.210,0.050
2.098,0.355,0.045
2.100,0.435,0.040
2.102,0.410,0.030
2.104,0.365,0.025
2.106,0.160,0.015
2.108,-0.010,0.010
2.110,-0.070,0.010
2.112,-0.065,0.010
2.114,-0.050,0.015
2.116,0.170,0.025
2.118,0.395,0.040
2.120,0.470,0.055
2.122,0.405,0.070
2.124,0.460,0.080
2.126,0.245,0.085
2.128,-0.010,0.090
2.130,-0.035,0.090
2.132,0.010,0.085
2.134,0.030,0.075
2.136,0.240,0.070
2.138,0.400,0.065
2.140,0.490,0.060
2.142,0.440,0.060
2.144,0.405,0.065
2.146,0.160,0.070
2.148,-0.050,0.075
2.150,-0.035,0.080
2.152,-0.040,0.085
2.154,0.015,0.085
2.156,0.275,0.085
2.158,0.450,0.090
2.160,0.515,0.090
2.162,0.480,0.100
2.164,0.410,0.105
2.166,0.235,0.115
2.168,0.050,0.125
2.170,-0.020,0.140
2.172,0.040,0.150
2.174,0.090,0.155
2.176,0.350,0.160
2.178,0.505,0.160
2.180,0.560,0.155
2.182,0.545,0.150
2.184,0.425,0.140
2.186,0.275,0.135
2.188,0.005,0.130
2.190,-0.020,0.125
2.192,-0.025,0.130
2.194,0.100,0.135
2.196,0.330,0.150
2.198,0.520,0.165
2.200,0.620,0.180
2.202,0.580,0.200
2.204,0.520,0.215
2.206,0.285,0.230
2.208,0.120,0.240
2.210,0.080,0.245
2.212,0.135,0.240
2.214,0.235,0.235
2.216,0.365,0.225
2.218,0.580,0.210
2.220,0.580,0.200
2.222,0.465,0.190
2.224,0.460,0.190
2.226,0.305,0.190
2.228,0.050,0.200
2.230,0.045,0.210
2.232,0.150,0.220
2.234,0.235,0.230
2.236,0.405,0.230
2.238,0.545,0.230
2.240,0.565,0.215
2.242,0.510,0.200
2.244,0.435,0.180
2.246,0.165,0.160
2.248,-0.010,0.140
2.250,-0.010,0.125
2.252,0.005,0.115
2.254,0.110,0.105
2.256,0.285,0.095
2.258,0.400,0.085
2.260,0.385,0.075
2.262,0.335,0.065
2.264,0.295,0.050
2.266,0.050,0.035
2.268,-0.110,0.020
2.270,-0.140,0.010
2.272,-0.085,0.005
2.274,0.015,0.000
2.276,0.190,0.000
2.278,0.350,0.000
2.280,0.340,-0.005
2.282,0.310,-0.010
2.284,0.170,-0.015
2.286,-0.055,-0.030
2.288,-0.195,-0.040
2.290,-0.240,-0.050
2.292,-0.195,-0.055
2.294,-0.040,-0.060
2.296,0.175,-0.060
2.298,0.300,-0.055
2.300,0.310,-0.045
2.302,0.275,-0.040
2.304,0.110,-0.035
2.306,-0.080,-0.040
2.308,-0.220,-0.045
2.310,-0.295,-0.055
2.312,-0.210,-0.065
2.314,-0.050,-0.075
2.316,0.160,-0.080
2.318,0.285,-0.080
2.320,0.285,-0.075
2.322,0.215,-0.070
2.324,0.130,-0.060
2.326,-0.090,-0.050
2.328,-0.215,-0.045
2.330,-0.225,-0.040
2.332,-0.185,-0.045
2.334,-0.010,-0.050
2.336,0.170,-0.060
2.338,0.275,-0.065
2.340,0.245,-0.075
2.342,0.190,-0.080
2.344,0.060,-0.080
2.346,-0.170,-0.080
2.348,-0.210,-0.075
2.350,-0.165,-0.075
2.352,-0.190,-0.070
2.354,-0.045,-0.070
2.356,0.145,-0.070
2.358,0.225,-0.075
2.360,0.245,-0.075
2.362,0.250,-0.080
2.364,0.060,-0.080
2.366,-0.175,-0.080
2.368,-0.310,-0.080
2.370,-0.265,-0.080
2.372,-0.225,-0.075
2.374,-0.005,-0.075
2.376,0.165,-0.075
2.378,0.240,-0.075
2.380,0.220,-0.080
2.382,0.195,-0.080
2.384,0.005,-0.085
2.386,-0.165,-0.085
2.388,-0.315,-0.085
2.390,-0.250,-0.080
2.392,-0.210,-0.080
2.394,-0.025,-0.075
2.396,0.150,-0.070
2.398,0.295,-0.065
2.400,0.260,-0.065
2.402,0.240,-0.065
2.404,0.005,-0.065
2.406,-0.195,-0.070
2.408,-0.280,-0.075
2.410,-0.255,-0.080
2.412,-0.200,-0.090
2.414,-0.020,-0.095
2.416,0.095,-0.100
2.418,0.250,-0.105
2.420,0.235,-0.110
2.422,0.130,-0.110
2.424,-0.100,-0.110
2.426,-0.240,-0.105
2.428,-0.280,-0.105
2.430,-0.280,-0.100
2.432,-0.240,-0.095
2.434,0.010,-0.090
2.436,0.175,-0.090
2.438,0.205,-0.090
2.440,0.160,-0.090
2.442,0.160,-0.090
2.444,-0.035,-0.090
2.446,-0.210,-0.095
2.448,-0.310,-0.095
2.450,-0.315,-0.100
2.452,-0.265,-0.105
2.454,-0.035,-0.115
2.456,0.115,-0.120
2.458,0.185,-0.125
2.460,0.155,-0.125
2.462,0.145,-0.130
2.464,-0.070,-0.130
2.466,-0.235,-0.130
2.468,-0.325,-0.125
2.470,-0.335,-0.125
2.472,-0.270,-0.120
2.474,-0.030,-0.120
2.476,0.115,-0.115
2.478,0.190,-0.115
2.480,0.160,-0.120
2.482,0.100,-0.120
2.484,-0.085,-0.125
2.486,-0.245,-0.125
2.488,-0.365,-0.130
2.490,-0.355,-0.135
2.492,-0.245,-0.140
2.494,-0.020,-0.145
2.496,0.155,-0.150
2.498,0.185,-0.155
2.500,0.175,-0.155
2.502,0.070,-0.155
2.504,-0.180,-0.155
2.506,-0.355,-0.155
2.508,-0.405,-0.155
2.510,-0.370,-0.160
2.512,-0.245,-0.165
2.514,-0.035,-0.170
2.516,0.170,-0.175
2.518,0.140,-0.175
2.520,0.135,-0.175
2.522,0.030,-0.170
2.524,-0.200,-0.165
2.526,-0.390,-0.155
2.528,-0.355,-0.145
2.530,-0.300,-0.135
2.532,-0.215,-0.130
2.534,-0.045,-0.130
2.536,0.105,-0.135
2.538,0.205,-0.145
2.540,0.145,-0.150
2.542,0.015,-0.155
2.544,-0.165,-0.160
2.546,-0.380,-0.160
2.548,-0.365,-0.160
2.550,-0.375,-0.155
2.552,-0.225,-0.145
2.554,0.025,-0.140
2.556,0.130,-0.140
2.558,0.165,-0.135
2.560,0.120,-0.135
2.562,0.045,-0.135
2.564,-0.165,-0.140
2.566,-0.340,-0.140
2.568,-0.380,-0.145
2.570,-0.375,-0.145
2.572,-0.245,-0.150
2.574,-0.020,-0.150
2.576,0.140,-0.155
2.578,0.160,-0.160
2.580,0.135,-0.165
2.582,-0.005,-0.170
2.584,-0.245,-0.170
2.586,-0.395,-0.175
2.588,-0.405,-0.180
2.590,-0.340,-0.185
2.592,-0.240,-0.185
2.594,-0.040,-0.190
2.596,0.125,-0.195
2.598,0.115,-0.195
2.600,0.070,-0.195
2.602,-0.020,-0.185
2.604,-0.255,-0.175
2.606,-0.360,-0.165
2.608,-0.390,-0.150
2.610,-0.305,-0.140
2.612,-0.150,-0.130
2.614,0.060,-0.125
2.616,0.180,-0.125
2.618,0.195,-0.125
2.620,0.130,-0.130
2.622,-0.015,-0.135
2.624,-0.240,-0.135
2.626,-0.370,-0.130
2.628,-0.335,-0.125
2.630,-0.260,-0.115
2.632,-0.130,-0.105
2.634,0.095,-0.095
2.636,0.210,-0.090
2.638,0.215,-0.085
2.640,0.135,-0.085
2.642,0.010,-0.090
2.644,-0.215,-0.095
2.646,-0.290,-0.100
2.648,-0.295,-0.105
2.650,-0.275,-0.105
2.652,-0.100,-0.105
2.654,0.100,-0.100
2.656,0.220,-0.095
2.658,0.190,-0.095
2.660,0.140,-0.095
2.662,-0.025,-0.100
2.664,-0.245,-0.105
2.666,-0.375,-0.115
2.668,-0.350,-0.120
2.670,-0.315,-0.130
2.672,-0.120,-0.135
2.674,0.075,-0.135
2.676,0.200,-0.135
2.678,0.180,-0.130
2.680,0.110,-0.130
2.682,-0.080,-0.130
2.684,-0.290,-0.130
2.686,-0.400,-0.130
2.688,-0.380,-0.135
2.690,-0.275,-0.135
2.692,-0.100,-0.140
2.694,0.075,-0.140
2.696,0.140,-0.145
2.698,0.135,-0.145
2.700,0.090,-0.140
2.702,-0.095,-0.140
2.704,-0.295,-0.140
2.706,-0.430,-0.140
2.708,-0.370,-0.145
2.710,-0.335,-0.150
2.712,-0.115,-0.150
2.714,0.080,-0.155
2.716,0.180,-0.160
2.718,0.180,-0.165
2.720,0.065,-0.170
2.722,-0.105,-0.170
2.724,-0.315,-0.170
2.726,-0.435,-0.170
2.728,-0.440,-0.165
2.730,-0.370,-0.160
2.732,-0.145,-0.155
2.734,0.140,-0.145
2.736,0.220,-0.135
2.738,0.175,-0.125
2.740,0.140,-0.115
2.742,-0.090,-0.105
2.744,-0.310,-0.100
2.746,-0.385,-0.105
2.748,-0.390,-0.110
2.750,-0.295,-0.125
2.752,-0.075,-0.140
2.754,0.080,-0.165
2.756,0.155,-0.185
2.758,0.085,-0.200
2.760,0.020,-0.210
2.762,-0.285,-0.210
2.764,-0.380,-0.200
2.766,-0.415,-0.165
2.768,-0.365,-0.115
2.770,-0.225,-0.040
2.772,0.135,0.055
2.774,0.450,0.170
2.776,0.665,0.305
2.778,0.785,0.440
2.780,0.795,0.580
2.782,0.755,0.700
2.784,0.640,0.795
2.786,0.560,0.855
2.788,0.650,0.870
2.790,0.735,0.840
2.792,0.965,0.765
2.794,1.115,0.655
2.796,0.815,0.525
2.798,0.490,0.385
2.800,0.340,0.250
2.802,0.020,0.135
2.804,-0.220,0.040
2.806,-0.295,-0.025
2.808,-0.290,-0.065
2.810,-0.215,-0.085
2.812,0.000,-0.090
2.814,0.175,-0.090
2.816,0.250,-0.085
2.818,0.130,-0.085
2.820,0.075,-0.090
2.822,-0.140,-0.090
2.824,-0.290,-0.095
2.826,-0.350,-0.095
2.828,-0.320,-0.095
2.830,-0.205,-0.095
2.832,0.015,-0.095
2.834,0.205,-0.095
2.836,0.205,-0.100
2.838,0.140,-0.105
2.840,0.040,-0.115
2.842,-0.200,-0.120
2.844,-0.335,-0.125
2.846,-0.375,-0.130
2.848,-0.310,-0.125
2.850,-0.195,-0.120
2.852,0.005,-0.110
2.854,0.205,-0.100
2.856,0.205,-0.095
2.858,0.140,-0.095
2.860,0.015,-0.095
2.862,-0.195,-0.105
2.864,-0.315,-0.115
2.866,-0.360,-0.125
2.868,-0.325,-0.135
2.870,-0.180,-0.140
2.872,0.010,-0.140
2.874,0.120,-0.135
2.876,0.160,-0.130
2.878,0.135,-0.125
2.880,-0.010,-0.120
2.882,-0.230,-0.120
2.884,-0.350,-0.120
2.886,-0.330,-0.115
2.888,-0.315,-0.115
2.890,-0.205,-0.110
2.892,0.025,-0.110
2.894,0.195,-0.100
2.896,0.225,-0.095
2.898,0.155,-0.090
2.900,0.015,-0.085
2.902,-0.205,-0.090
2.904,-0.350,-0.095
2.906,-0.360,-0.105
2.908,-0.305,-0.115
2.910,-0.140,-0.125
2.912,0.000,-0.130
2.914,0.140,-0.130
2.916,0.170,-0.130
2.918,0.140,-0.120
2.920,-0.015,-0.110
2.922,-0.200,-0.100
2.924,-0.315,-0.090
2.926,-0.285,-0.085
2.928,-0.285,-0.080
2.930,-0.135,-0.080
2.932,0.090,-0.080
2.934,0.180,-0.080
2.936,0.205,-0.080
2.938,0.205,-0.070
2.940,-0.010,-0.060
2.942,-0.195,-0.050
2.944,-0.300,-0.040
2.946,-0.250,-0.035
2.948,-0.210,-0.035
2.950,-0.060,-0.045
2.952,0.140,-0.050
2.954,0.225,-0.060
2.956,0.170,-0.070
2.958,0.140,-0.070
2.960,-0.025,-0.065
2.962,-0.210,-0.060
2.964,-0.260,-0.050
2.966,-0.280,-0.040
2.968,-0.210,-0.030
2.970,-0.060,-0.025
2.972,0.110,-0.025
2.974,0.255,-0.030
2.976,0.255,-0.035
2.978,0.225,-0.035
2.980,0.005,-0.040
2.982,-0.170,-0.035
2.984,-0.260,-0.030
2.986,-0.265,-0.020
2.988,-0.200,-0.015
2.990,0.000,-0.010
2.992,0.195,-0.010
2.994,0.295,-0.010
2.996,0.250,-0.010
2.998,0.195,-0.010
3.000,0.060,-0.005
3.002,-0.160,0.010
3.004,-0.180,0.025
3.006,-0.155,0.050
3.008,-0.115,0.070
3.010,0.095,0.085
3.012,0.345,0.095
3.014,0.360,0.100
3.016,0.360,0.095
3.018,0.305,0.090
3.020,0.125,0.085
3.022,-0.115,0.080
3.024,-0.155,0.080
3.026,-0.130,0.090
3.028,-0.065,0.105
3.030,0.165,0.120
3.032,0.360,0.130
3.034,0.460,0.140
3.036,0.390,0.140
3.038,0.345,0.140
3.040,0.115,0.130
3.042,-0.035,0.120
3.044,-0.100,0.120
3.046,-0.075,0.120
3.048,-0.035,0.130
3.050,0.215,0.145
3.052,0.385,0.160
3.054,0.465,0.175
3.056,0.430,0.185
3.058,0.385,0.190
3.060,0.165,0.185
3.062,-0.010,0.170
3.064,-0.090,0.155
3.066,-0.050,0.140
3.068,-0.005,0.125
3.070,0.195,0.115
3.072,0.395,0.110
3.074,0.385,0.110
3.076,0.320,0.110
3.078,0.270,0.110
3.080,0.075,0.100
3.082,-0.090,0.085
3.084,-0.215,0.070
3.086,-0.145,0.050
3.088,-0.100,0.030
3.090,0.070,0.020
3.092,0.250,0.015
3.094,0.300,0.015
3.096,0.270,0.020
3.098,0.280,0.025
3.100,0.050,0.030
3.102,-0.220,0.025
3.104,-0.225,0.015
3.106,-0.270,0.000
3.108,-0.170,-0.025
3.110,0.040,-0.045
3.112,0.230,-0.065
3.114,0.235,-0.075
3.116,0.185,-0.080
3.118,0.095,-0.080
3.120,-0.125,-0.075
3.122,-0.330,-0.065
3.124,-0.325,-0.060
3.126,-0.240,-0.060
3.128,-0.150,-0.065
3.130,0.080,-0.070
3.132,0.180,-0.080
3.134,0.160,-0.085
3.136,0.145,-0.090
3.138,0.090,-0.085
3.140,-0.100,-0.075
3.142,-0.245,-0.060
3.144,-0.275,-0.050
3.146,-0.255,-0.040
3.148,-0.130,-0.035
3.150,0.050,-0.040
3.152,0.190,-0.050
3.154,0.200,-0.065
3.156,0.150,-0.075
3.158,0.095,-0.085
3.160,-0.140,-0.085
3.162,-0.275,-0.085
3.164,-0.315,-0.075
3.166,-0.240,-0.060
3.168,-0.110,-0.050
3.170,0.100,-0.035
3.172,0.265,-0.030
3.174,0.275,-0.025
3.176,0.190,-0.025
3.178,0.090,-0.030
3.180,-0.155,-0.035
3.182,-0.260,-0.040
3.184,-0.250,-0.040
3.186,-0.155,-0.045
3.188,-0.045,-0.045
3.190,0.055,-0.045
3.192,0.200,-0.045
3.194,0.245,-0.045
3.196,0.170,-0.040
3.198,0.080,-0.035
3.200,-0.105,-0.030
3.202,-0.265,-0.020
3.204,-0.235,-0.015
3.206,-0.190,-0.010
3.208,-0.065,-0.005
3.210,0.165,-0.005
3.212,0.280,-0.010
3.214,0.245,-0.015
3.216,0.200,-0.025
3.218,0.030,-0.030
3.220,-0.140,-0.030
3.222,-0.220,-0.030
3.224,-0.220,-0.025
3.226,-0.170,-0.020
3.228,-0.070,-0.010
3.230,0.165,-0.005
3.232,0.245,-0.005
3.234,0.260,-0.005
3.236,0.200,-0.015
3.238,0.055,-0.020
3.240,-0.135,-0.025
3.242,-0.230,-0.025
3.244,-0.215,-0.025
3.246,-0.135,-0.015
3.248,0.050,-0.005
3.250,0.150,0.005
3.252,0.260,0.010
3.254,0.265,0.015
3.256,0.230,0.010
3.258,0.090,0.005
3.260,-0.135,-0.010
3.262,-0.245,-0.020
3.264,-0.250,-0.030
3.266,-0.240,-0.035
3.268,-0.050,-0.030
3.270,0.230,-0.025
3.272,0.300,-0.010
3.274,0.315,0.005
3.276,0.285,0.020
3.278,0.055,0.030
3.280,-0.125,0.040
3.282,-0.195,0.035
3.284,-0.210,0.030
3.286,-0.155,0.020
3.288,0.040,0.005
3.290,0.185,-0.005
3.292,0.305,-0.015
3.294,0.265,-0.020
3.296,0.195,-0.025
3.298,0.030,-0.020
3.300,-0.140,-0.020
3.302,-0.215,-0.015
3.304,-0.220,-0.010
3.306,-0.160,-0.005
3.308,0.035,0.000
3.310,0.195,0.005
3.312,0.305,0.010
3.314,0.295,0.010
3.316,0.250,0.015
3.318,0.025,0.015
3.320,-0.160,0.020
3.322,-0.175,0.015
3.324,-0.165,0.015
3.326,-0.095,0.010
3.328,0.030,0.010
3.330,0.210,0.005
3.332,0.245,0.000
3.334,0.200,0.000
3.336,0.235,0.000
3.338,0.050,0.000
3.340,-0.110,0.005
3.342,-0.200,0.010
3.344,-0.195,0.015
3.346,-0.150,0.015
3.348,0.045,0.020
3.350,0.250,0.020
3.352,0.330,0.020
3.354,0.285,0.015
3.356,0.220,0.010
3.358,0.035,0.010
3.360,-0.165,0.005
3.362,-0.215,0.000
3.364,-0.185,-0.005
3.366,-0.165,-0.010
3.368,0.035,-0.010
3.370,0.260,-0.010
3.372,0.310,-0.010
3.374,0.255,-0.005
3.376,0.200,0.000
3.378,-0.020,0.005
3.380,-0.195,0.005
3.382,-0.200,0.010
3.384,-0.150,0.005
3.386,-0.135,0.005
3.388,0.110,0.000
3.390,0.225,-0.010
3.392,0.280,-0.015
3.394,0.265,-0.020
3.396,0.165,-0.025
3.398,-0.035,-0.025
3.400,-0.195,-0.025
3.402,-0.230,-0.025
3.404,-0.240,-0.020
3.406,-0.080,-0.015
3.408,0.105,-0.015
3.410,0.280,-0.015
3.412,0.280,-0.010
3.414,0.210,-0.015
3.416,0.190,-0.015
3.418,-0.060,-0.015
3.420,-0.255,-0.020
3.422,-0.260,-0.020
3.424,-0.150,-0.020
3.426,-0.110,-0.020
3.428,0.105,-0.015
3.430,0.315,-0.010
3.432,0.330,-0.005
3.434,0.230,0.000
3.436,0.150,0.000
3.438,-0.070,0.000
3.440,-0.225,-0.005
3.442,-0.270,-0.015
3.444,-0.190,-0.030
3.446,-0.080,-0.040
3.448,0.120,-0.045
3.450,0.295,-0.045
3.452,0.250,-0.040
3.454,0.230,-0.030
3.456,0.135,-0.020
3.458,-0.070,-0.005
3.460,-0.230,0.005
3.462,-0.195,0.010
3.464,-0.150,0.015
3.466,-0.055,0.010
3.468,0.120,0.005
3.470,0.295,-0.005
3.472,0.300,-0.010
3.474,0.235,-0.010
3.476,0.060,-0.005
3.478,-0.035,0.005
3.480,-0.140,0.020
3.482,-0.190,0.030
3.484,-0.150,0.040
3.486,0.000,0.045
3.488,0.220,0.045
3.490,0.355,0.045
3.492,0.370,0.040
3.494,0.250,0.035
3.496,0.125,0.030
3.498,-0.085,0.025
3.500,-0.220,0.025
3.502,-0.170,0.025
3.504,-0.100,0.025
3.506,0.005,0.030
3.508,0.195,0.035
3.510,0.310,0.040
3.512,0.315,0.045
3.514,0.310,0.045
3.516,0.190,0.050
3.518,-0.005,0.055
3.520,-0.145,0.050
3.522,-0.225,0.045
3.524,-0.145,0.035
3.526,0.025,0.025
3.528,0.230,0.010
3.530,0.335,-0.005
3.532,0.275,-0.020
3.534,0.200,-0.030
3.536,0.065,-0.035
3.538,-0.085,-0.035
3.540,-0.235,-0.030
3.542,-0.225,-0.025
3.544,-0.200,-0.020
3.546,-0.045,-0.015
3.548,0.170,-0.010
3.550,0.305,-0.010
3.552,0.310,-0.010
3.554,0.260,-0.015
3.556,0.065,-0.015
3.558,-0.135,-0.020
3.560,-0.245,-0.025
3.562,-0.225,-0.030
3.564,-0.200,-0.035
3.566,-0.020,-0.040
3.568,0.180,-0.040
3.570,0.270,-0.040
3.572,0.255,-0.040
3.574,0.230,-0.035
3.576,0.065,-0.025
3.578,-0.125,-0.015
3.580,-0.230,-0.010
3.582,-0.195,-0.005
3.584,-0.155,-0.005
3.586,-0.005,-0.010
3.588,0.215,-0.020
3.590,0.250,-0.035
3.592,0.260,-0.045
3.594,0.210,-0.050
3.596,-0.025,-0.055
3.598,-0.215,-0.045
3.600,-0.250,-0.035
3.602,-0.185,-0.025
3.604,-0.105,-0.015
3.606,0.070,-0.005
3.608,0.185,-0.010
3.610,0.240,-0.020
3.612,0.220,-0.045
3.614,0.200,-0.070
3.616,-0.040,-0.095
3.618,-0.255,-0.115
3.620,-0.350,-0.125
3.622,-0.320,-0.120
3.624,-0.270,-0.100
3.626,-0.025,-0.055
3.628,0.280,0.015
3.630,0.470,0.105
3.632,0.490,0.215
3.634,0.555,0.340
3.636,0.540,0.475
3.638,0.530,0.610
3.640,0.600,0.740
3.642,0.725,0.855
3.644,0.810,0.940
3.646,1.035,0.985
3.648,1.200,0.990
3.650,1.300,0.955
3.652,1.325,0.875
3.654,1.215,0.765
3.656,0.640,0.630
3.658,0.195,0.490
3.660,-0.010,0.355
3.662,-0.045,0.235
3.664,-0.030,0.135
3.666,0.145,0.070
3.668,0.310,0.025
3.670,0.355,0.005
3.672,0.320,0.005
3.674,0.230,0.010
3.676,0.005,0.015
3.678,-0.135,0.020
3.680,-0.185,0.020
3.682,-0.135,0.015
3.684,-0.080,0.005
3.686,0.100,-0.010
3.688,0.265,-0.025
3.690,0.270,-0.035
3.692,0.260,-0.040
3.694,0.185,-0.040
3.696,-0.040,-0.035
3.698,-0.170,-0.025
3.700,-0.200,-0.015
3.702,-0.150,0.000
3.704,-0.060,0.010
3.706,0.135,0.020
3.708,0.260,0.025
3.710,0.330,0.025
3.712,0.275,0.025
3.714,0.210,0.020
3.716,0.035,0.010
3.718,-0.140,0.005
3.720,-0.235,-0.005
3.722,-0.180,-0.010
3.724,-0.080,-0.015
3.726,0.105,-0.020
3.728,0.275,-0.020
3.730,0.320,-0.020
3.732,0.245,-0.020
3.734,0.185,-0.020
3.736,-0.060,-0.015
3.738,-0.235,-0.010
3.740,-0.175,-0.010
3.742,-0.155,-0.010
3.744,-0.085,-0.010
3.746,0.120,-0.010
3.748,0.290,-0.010
3.750,0.330,-0.015
3.752,0.275,-0.015
3.754,0.170,-0.020
3.756,-0.040,-0.020
3.758,-0.210,-0.020
3.760,-0.265,-0.015
3.762,-0.185,-0.015
3.764,-0.005,-0.015
3.766,0.205,-0.010
3.768,0.345,-0.010
3.770,0.315,-0.010
3.772,0.240,-0.010
3.774,0.080,-0.010
3.776,-0.140,-0.010
3.778,-0.225,-0.010
3.780,-0.175,-0.010
3.782,-0.065,-0.010
3.784,0.040,-0.005
3.786,0.160,-0.005
3.788,0.320,0.000
3.790,0.325,0.000
3.792,0.240,0.005
3.794,0.130,0.010
3.796,-0.010,0.010
3.798,-0.135,0.010
3.800,-0.155,0.015
3.802,-0.130,0.010
3.804,-0.020,0.010
3.806,0.195,0.010
3.808,0.310,0.010
3.810,0.365,0.010
3.812,0.310,0.015
3.814,0.140,0.020
3.816,-0.035,0.025
3.818,-0.185,0.030
3.820,-0.145,0.030
3.822,-0.100,0.030
3.824,0.025,0.025
3.826,0.210,0.025
3.828,0.305,0.020
3.830,0.360,0.020
3.832,0.355,0.020
3.834,0.185,0.030
3.836,-0.020,0.040
3.838,-0.145,0.055
3.840,-0.095,0.070
3.842,-0.020,0.085
3.844,0.115,0.095
3.846,0.280,0.100
3.848,0.385,0.095
3.850,0.395,0.090
3.852,0.325,0.080
3.854,0.185,0.070
3.856,-0.020,0.065
3.858,-0.115,0.065
3.860,-0.080,0.070
3.862,-0.010,0.080
3.864,0.170,0.090
3.866,0.350,0.105
3.868,0.435,0.120
3.870,0.390,0.130
3.872,0.410,0.135
3.874,0.260,0.140
3.876,0.040,0.140
3.878,-0.030,0.135
3.880,-0.005,0.130
3.882,0.020,0.130
3.884,0.210,0.135
3.886,0.405,0.140
3.888,0.510,0.150
3.890,0.485,0.165
3.892,0.440,0.180
3.894,0.330,0.195
3.896,0.115,0.215
3.898,0.055,0.225
3.900,0.085,0.235
3.902,0.130,0.240
3.904,0.335,0.245
3.906,0.490,0.240
3.908,0.570,0.235
3.910,0.535,0.225
3.912,0.490,0.220
3.914,0.285,0.210
3.916,0.070,0.205
3.918,0.035,0.200
3.920,0.065,0.200
3.922,0.095,0.200
3.924,0.350,0.200
3.926,0.475,0.205
3.928,0.560,0.205
3.930,0.495,0.205
3.932,0.480,0.205
3.934,0.275,0.200
3.936,0.055,0.190
3.938,0.005,0.180
3.940,0.015,0.170
3.942,0.055,0.160
3.944,0.285,0.145
3.946,0.405,0.130
3.948,0.455,0.115
3.950,0.400,0.095
3.952,0.350,0.075
3.954,0.085,0.055
3.956,-0.085,0.035
3.958,-0.160,0.020
3.960,-0.120,0.010
3.962,-0.060,0.000
3.964,0.155,0.000
3.966,0.335,-0.005
3.968,0.330,-0.005
3.970,0.280,-0.005
3.972,0.245,-0.010
3.974,0.015,-0.020
3.976,-0.125,-0.030
3.978,-0.230,-0.040
3.980,-0.180,-0.050
3.982,-0.145,-0.055
3.984,0.115,-0.055
3.986,0.295,-0.050
3.988,0.335,-0.040
3.990,0.320,-0.030
3.992,0.225,-0.020
3.994,0.025,-0.015
3.996,-0.150,-0.015
3.998,-0.225,-0.020
4.000,-0.145,-0.035
4.002,-0.085,-0.050
4.004,0.115,-0.060
4.006,0.295,-0.075
4.008,0.295,-0.080
4.010,0.230,-0.080
4.012,0.150,-0.075
4.014,-0.090,-0.070
4.016,-0.245,-0.060
4.018,-0.215,-0.055
4.020,-0.140,-0.050
4.022,-0.045,-0.045
4.024,0.155,-0.050
4.026,0.275,-0.055
4.028,0.320,-0.055
4.030,0.275,-0.060
4.032,0.155,-0.060
4.034,-0.060,-0.060
4.036,-0.210,-0.060
4.038,-0.245,-0.055
4.040,-0.180,-0.055
4.042,-0.070,-0.055
4.044,0.130,-0.055
4.046,0.275,-0.060
4.048,0.325,-0.065
4.050,0.250,-0.070
4.052,0.135,-0.075
4.054,-0.065,-0.080
4.056,-0.205,-0.080
4.058,-0.245,-0.080
4.060,-0.190,-0.080
4.062,-0.115,-0.080
4.064,0.125,-0.075
4.066,0.335,-0.070
4.068,0.325,-0.065
4.070,0.280,-0.065
4.072,0.135,-0.060
4.074,-0.080,-0.060
4.076,-0.215,-0.065
4.078,-0.270,-0.070
4.080,-0.175,-0.075
4.082,-0.060,-0.085
4.084,0.150,-0.090
4.086,0.260,-0.100
4.088,0.310,-0.100
4.090,0.265,-0.100
4.092,0.095,-0.095
4.094,-0.120,-0.090
4.096,-0.255,-0.080
4.098,-0.235,-0.070
4.100,-0.170,-0.060
4.102,-0.040,-0.055
4.104,0.210,-0.050
4.106,0.345,-0.045
4.108,0.340,-0.045
4.110,0.275,-0.050
4.112,0.110,-0.055
4.114,-0.080,-0.060
4.116,-0.180,-0.065
4.118,-0.250,-0.070
4.120,-0.200,-0.070
4.122,-0.015,-0.075
4.124,0.185,-0.075
4.126,0.300,-0.075
4.128,0.305,-0.075
4.130,0.265,-0.075
4.132,0.140,-0.075
4.134,-0.085,-0.075
4.136,-0.255,-0.075
4.138,-0.220,-0.075
4.140,-0.200,-0.075
4.142,-0.015,-0.075
4.144,0.190,-0.080
4.146,0.315,-0.080
4.148,0.315,-0.085
4.150,0.265,-0.090
4.152,0.075,-0.090
4.154,-0.155,-0.095
4.156,-0.250,-0.100
4.158,-0.225,-0.100
4.160,-0.195,-0.105
4.162,-0.010,-0.100
4.164,0.200,-0.100
4.166,0.275,-0.095
4.168,0.260,-0.090
4.170,0.280,-0.085
4.172,0.085,-0.080
4.174,-0.125,-0.080
4.176,-0.230,-0.080
4.178,-0.195,-0.080
4.180,-0.170,-0.080
4.182,0.015,-0.080
4.184,0.220,-0.080
4.186,0.315,-0.080
4.188,0.315,-0.075
4.190,0.270,-0.075
4.192,0.075,-0.070
4.194,-0.140,-0.065
4.196,-0.190,-0.060
4.198,-0.205,-0.060
4.200,-0.190,-0.065
4.202,0.000,-0.070
4.204,0.230,-0.075
4.206,0.320,-0.080
4.208,0.330,-0.085
4.210,0.305,-0.085
4.212,0.070,-0.085
4.214,-0.165,-0.080
4.216,-0.235,-0.075
4.218,-0.230,-0.070
4.220,-0.145,-0.060
4.222,0.035,-0.055
4.224,0.295,-0.055
4.226,0.405,-0.050
4.228,0.320,-0.050
4.230,0.285,-0.055
4.232,0.085,-0.060
4.234,-0.150,-0.065
4.236,-0.235,-0.070
4.238,-0.210,-0.080
4.240,-0.165,-0.085
4.242,0.100,-0.085
4.244,0.290,-0.085
4.246,0.335,-0.080
4.248,0.290,-0.080
4.250,0.280,-0.075
4.252,0.040,-0.070
4.254,-0.200,-0.070
4.256,-0.225,-0.075
4.258,-0.230,-0.085
4.260,-0.160,-0.090
4.262,0.040,-0.100
4.264,0.295,-0.105
4.266,0.415,-0.105
4.268,0.335,-0.095
4.270,0.235,-0.085
4.272,0.035,-0.075
4.274,-0.185,-0.060
4.276,-0.235,-0.050
4.278,-0.170,-0.050
4.280,-0.065,-0.050
4.282,0.160,-0.060
4.284,0.300,-0.070
4.286,0.320,-0.080
4.288,0.290,-0.085
4.290,0.215,-0.085
4.292,0.010,-0.075
4.294,-0.150,-0.065
4.296,-0.155,-0.050
4.298,-0.165,-0.040
4.300,-0.060,-0.035
4.302,0.120,-0.035
4.304,0.345,-0.045
4.306,0.370,-0.060
4.308,0.290,-0.070
4.310,0.205,-0.085
4.312,0.010,-0.090
4.314,-0.150,-0.090
4.316,-0.200,-0.080
4.318,-0.150,-0.065
4.320,-0.020,-0.050
4.322,0.185,-0.035
4.324,0.325,-0.025
4.326,0.435,-0.025
4.328,0.400,-0.025
4.330,0.285,-0.025
4.332,0.015,-0.030
4.334,-0.110,-0.035
4.336,-0.175,-0.035
4.338,-0.115,-0.035
4.340,0.025,-0.030
4.342,0.240,-0.025
4.344,0.395,-0.020
4.346,0.405,-0.015
4.348,0.360,-0.010
4.350,0.270,-0.010
4.352,0.075,-0.010
4.354,-0.115,-0.015
4.356,-0.170,-0.015
4.358,-0.145,-0.020
4.360,-0.010,-0.025
4.362,0.205,-0.030
4.364,0.350,-0.035
4.366,0.395,-0.045
4.368,0.395,-0.050
4.370,0.205,-0.060
4.372,-0.025,-0.065
4.374,-0.175,-0.070
4.376,-0.255,-0.070
4.378,-0.150,-0.070
4.380,0.005,-0.070
4.382,0.180,-0.070
4.384,0.330,-0.075
4.386,0.350,-0.085
4.388,0.285,-0.095
4.390,0.110,-0.110
4.392,-0.125,-0.120
4.394,-0.265,-0.130
4.396,-0.280,-0.135
4.398,-0.140,-0.135
4.400,0.025,-0.125
4.402,0.220,-0.110
4.404,0.350,-0.095
4.406,0.320,-0.075
4.408,0.310,-0.060
4.410,0.190,-0.055
4.412,-0.035,-0.050
4.414,-0.215,-0.055
4.416,-0.185,-0.065
4.418,-0.155,-0.080
4.420,-0.010,-0.090
4.422,0.210,-0.100
4.424,0.330,-0.105
4.426,0.320,-0.105
4.428,0.300,-0.095
4.430,0.120,-0.090
4.432,-0.100,-0.080
4.434,-0.195,-0.075
4.436,-0.215,-0.070
4.438,-0.140,-0.075
4.440,0.020,-0.080
4.442,0.190,-0.085
4.444,0.290,-0.095
4.446,0.370,-0.105
4.448,0.275,-0.115
4.450,0.115,-0.130
4.452,-0.140,-0.140
4.454,-0.280,-0.150
4.456,-0.265,-0.165
4.458,-0.260,-0.170
4.460,-0.065,-0.170
4.462,0.150,-0.155
4.464,0.270,-0.125
4.466,0.325,-0.070
4.468,0.450,0.010
4.470,0.335,0.120
4.472,0.255,0.250
4.474,0.335,0.395
4.476,0.485,0.545
4.478,0.655,0.690
4.480,0.970,0.810
4.482,1.240,0.900
4.484,1.395,0.950
4.486,1.430,0.950
4.488,1.380,0.910
4.490,1.220,0.825
4.492,0.865,0.705
4.494,0.430,0.570
4.496,0.155,0.430
4.498,0.030,0.290
4.500,0.235,0.170
4.502,0.385,0.070
4.504,0.455,-0.005
4.506,0.405,-0.050
4.508,0.330,-0.075
4.510,0.135,-0.080
4.512,-0.105,-0.080
4.514,-0.230,-0.070
4.516,-0.185,-0.060
4.518,-0.105,-0.055
4.520,0.110,-0.055
4.522,0.275,-0.060
4.524,0.380,-0.065
4.526,0.360,-0.080
4.528,0.295,-0.090
4.530,0.080,-0.100
4.532,-0.115,-0.105
4.534,-0.220,-0.110
4.536,-0.170,-0.110
4.538,-0.145,-0.105
4.540,0.035,-0.105
4.542,0.230,-0.105
4.544,0.355,-0.100
4.546,0.360,-0.100
4.548,0.325,-0.100
4.550,0.040,-0.100
4.552,-0.150,-0.100
4.554,-0.220,-0.100
4.556,-0.185,-0.095
4.558,-0.110,-0.095
4.560,0.095,-0.095
4.562,0.340,-0.095
4.564,0.365,-0.090
4.566,0.310,-0.090
4.568,0.265,-0.090
4.570,0.060,-0.090
4.572,-0.110,-0.090
4.574,-0.200,-0.090
4.576,-0.155,-0.085
4.578,-0.070,-0.080
4.580,0.150,-0.075
4.582,0.355,-0.070
4.584,0.375,-0.065
4.586,0.335,-0.065
4.588,0.260,-0.065
4.590,0.065,-0.070
4.592,-0.130,-0.080
4.594,-0.185,-0.090
4.596,-0.175,-0.095
4.598,-0.110,-0.105
4.600,0.095,-0.105
4.602,0.270,-0.105
4.604,0.395,-0.095
4.606,0.355,-0.085
4.608,0.275,-0.070
4.610,0.075,-0.055
4.612,-0.125,-0.045
4.614,-0.130,-0.040
4.616,-0.085,-0.035
4.618,-0.040,-0.040
4.620,0.195,-0.045
4.622,0.365,-0.055
4.624,0.405,-0.065
4.626,0.310,-0.075
4.628,0.245,-0.080
4.630,0.025,-0.080
4.632,-0.125,-0.080
4.634,-0.170,-0.080
4.636,-0.110,-0.075
4.638,-0.010,-0.070
4.640,0.210,-0.065
4.642,0.375,-0.065
4.644,0.395,-0.060
4.646,0.355,-0.055
4.648,0.270,-0.050
4.650,0.070,-0.045
4.652,-0.085,-0.040
4.654,-0.170,-0.040
4.656,-0.110,-0.040
4.658,0.015,-0.045
4.660,0.240,-0.045
4.662,0.445,-0.045
4.664,0.420,-0.045
4.666,0.395,-0.040
4.668,0.230,-0.030
4.670,0.020,-0.020
4.672,-0.085,-0.015
4.674,-0.085,-0.005
4.676,-0.035,0.000
4.678,0.120,0.000
4.680,0.320,0.000
4.682,0.435,0.000
4.684,0.430,0.000
4.686,0.410,0.000
4.688,0.300,0.005
4.690,0.090,0.015
4.692,-0.045,0.030
4.694,-0.020,0.045
4.696,0.035,0.055
4.698,0.155,0.065
4.700,0.345,0.075
4.702,0.500,0.075
4.704,0.530,0.075
4.706,0.545,0.075
4.708,0.370,0.080
4.710,0.180,0.085
4.712,0.035,0.095
4.714,0.010,0.110
4.716,0.040,0.125
4.718,0.270,0.135
4.720,0.500,0.150
4.722,0.615,0.160
4.724,0.590,0.160
4.726,0.580,0.165
4.728,0.390,0.160
4.730,0.205,0.160
4.732,0.110,0.155
4.734,0.095,0.160
4.736,0.120,0.160
4.738,0.300,0.170
4.740,0.520,0.180
4.742,0.670,0.190
4.744,0.660,0.195
4.746,0.635,0.205
4.748,0.460,0.210
4.750,0.235,0.215
4.752,0.095,0.215
4.754,0.150,0.215
4.756,0.190,0.210
4.758,0.395,0.205
4.760,0.515,0.200
4.762,0.635,0.190
4.764,0.665,0.185
4.766,0.600,0.175
4.768,0.410,0.170
4.770,0.170,0.160
4.772,0.070,0.155
4.774,0.090,0.150
4.776,0.115,0.140
4.778,0.290,0.135
4.780,0.470,0.125
4.782,0.565,0.115
4.784,0.555,0.100
4.786,0.470,0.080
4.788,0.280,0.065
4.790,0.055,0.045
4.792,-0.065,0.030
4.794,-0.055,0.020
4.796,-0.010,0.010
4.798,0.175,0.005
4.800,0.345,0.005
4.802,0.490,0.005
4.804,0.500,0.005
4.806,0.410,0.000
4.808,0.225,-0.005
4.810,-0.035,-0.015
4.812,-0.135,-0.025
4.814,-0.090,-0.040
4.816,-0.060,-0.050
4.818,0.125,-0.065
4.820,0.325,-0.070
4.822,0.420,-0.070
4.824,0.365,-0.065
4.826,0.335,-0.060
4.828,0.130,-0.050
4.830,-0.030,-0.045
4.832,-0.100,-0.040
4.834,-0.105,-0.035
4.836,-0.055,-0.040
4.838,0.155,-0.045
4.840,0.315,-0.055
4.842,0.415,-0.065
4.844,0.360,-0.075
4.846,0.290,-0.080
4.848,0.085,-0.085
4.850,-0.085,-0.080
4.852,-0.180,-0.075
4.854,-0.080,-0.070
4.856,-0.055,-0.065
4.858,0.180,-0.055
4.860,0.360,-0.050
4.862,0.440,-0.050
4.864,0.360,-0.050
4.866,0.335,-0.050
4.868,0.100,-0.055
4.870,-0.090,-0.055
4.872,-0.140,-0.060
4.874,-0.135,-0.060
4.876,-0.065,-0.065
4.878,0.170,-0.065
4.880,0.345,-0.065
4.882,0.405,-0.070
4.884,0.365,-0.070
4.886,0.300,-0.075
4.888,0.130,-0.080
4.890,-0.120,-0.080
4.892,-0.195,-0.085
4.894,-0.110,-0.085
4.896,-0.025,-0.085
4.898,0.140,-0.080
4.900,0.365,-0.075
4.902,0.445,-0.070
4.904,0.435,-0.060
4.906,0.335,-0.055
4.908,0.100,-0.050
4.910,-0.070,-0.045
4.912,-0.140,-0.045
4.914,-0.125,-0.045
4.916,-0.055,-0.045
4.918,0.220,-0.045
4.920,0.430,-0.050
4.922,0.450,-0.050
4.924,0.375,-0.050
4.926,0.300,-0.050
4.928,0.065,-0.050
4.930,-0.070,-0.050
4.932,-0.115,-0.055
4.934,-0.105,-0.055
4.936,0.015,-0.055
4.938,0.225,-0.055
4.940,0.395,-0.060
4.942,0.425,-0.060
4.944,0.390,-0.060
4.946,0.320,-0.060
4.948,0.030,-0.055
4.950,-0.090,-0.055
4.952,-0.110,-0.050
4.954,-0.040,-0.050
4.956,0.020,-0.050
4.958,0.215,-0.050
4.960,0.375,-0.055
4.962,0.435,-0.055
4.964,0.390,-0.055
4.966,0.230,-0.060
4.968,0.005,-0.060
4.970,-0.120,-0.055
4.972,-0.125,-0.055
4.974,-0.065,-0.050
4.976,0.085,-0.045
4.978,0.305,-0.040
4.980,0.420,-0.035
4.982,0.420,-0.035
4.984,0.395,-0.035
4.986,0.250,-0.035
4.988,0.050,-0.040
4.990,-0.105,-0.050
4.992,-0.140,-0.055
4.994,-0.100,-0.065
4.996,0.030,-0.075
4.998,0.225,-0.080
5.000,0.385,-0.085
5.002,0.405,-0.080
5.004,0.340,-0.075
5.006,0.225,-0.065
5.008,0.025,-0.060
5.010,-0.115,-0.050
5.012,-0.090,-0.045
5.014,-0.060,-0.040
5.016,0.035,-0.045
5.018,0.310,-0.050
5.020,0.375,-0.060
5.022,0.365,-0.065
5.024,0.380,-0.070
5.026,0.230,-0.070
5.028,-0.005,-0.065
5.030,-0.150,-0.060
5.032,-0.155,-0.050
5.034,-0.090,-0.045
5.036,0.100,-0.040
5.038,0.370,-0.040
5.040,0.445,-0.040
5.042,0.430,-0.050
5.044,0.340,-0.055
5.046,0.205,-0.060
5.048,-0.035,-0.065
5.050,-0.175,-0.065
5.052,-0.165,-0.065
5.054,-0.090,-0.065
5.056,0.075,-0.060
5.058,0.325,-0.060
5.060,0.440,-0.060
5.062,0.410,-0.060
5.064,0.365,-0.060
5.066,0.190,-0.060
5.068,-0.030,-0.060
5.070,-0.185,-0.055
5.072,-0.160,-0.055
5.074,-0.070,-0.055
5.076,0.105,-0.055
5.078,0.290,-0.060
5.080,0.425,-0.065
5.082,0.365,-0.075
5.084,0.325,-0.085
5.086,0.160,-0.090
5.088,-0.050,-0.090
5.090,-0.165,-0.090
5.092,-0.125,-0.080
5.094,-0.105,-0.075
5.096,0.115,-0.065
5.098,0.295,-0.060
5.100,0.410,-0.060
5.102,0.390,-0.060
5.104,0.350,-0.070
5.106,0.130,-0.075
5.108,-0.070,-0.080
5.110,-0.120,-0.085
5.112,-0.125,-0.085
5.114,-0.100,-0.080
5.116,0.110,-0.070
5.118,0.370,-0.060
5.120,0.415,-0.055
5.122,0.395,-0.055
5.124,0.330,-0.060
5.126,0.140,-0.065
5.128,-0.030,-0.075
5.130,-0.195,-0.085
5.132,-0.190,-0.090
5.134,-0.160,-0.095
5.136,0.130,-0.085
5.138,0.375,-0.075
5.140,0.485,-0.065
5.142,0.435,-0.050
5.144,0.340,-0.040
5.146,0.130,-0.035
5.148,-0.075,-0.035
5.150,-0.145,-0.035
5.152,-0.090,-0.040
5.154,-0.010,-0.045
5.156,0.195,-0.045
5.158,0.410,-0.045
5.160,0.490,-0.035
5.162,0.410,-0.030
5.164,0.340,-0.020
5.166,0.150,-0.015
5.168,0.010,-0.010
5.170,-0.045,-0.010
5.172,-0.065,-0.010
5.174,-0.025,-0.010
5.176,0.250,-0.015
5.178,0.430,-0.015
5.180,0.460,-0.010
5.182,0.390,-0.005
5.184,0.400,0.005
5.186,0.200,0.010
5.188,0.000,0.020
5.190,-0.130,0.020
5.192,-0.045,0.020
5.194,0.075,0.015
5.196,0.265,0.010
5.198,0.445,0.000
5.200,0.470,-0.010
5.202,0.435,-0.015
5.204,0.330,-0.020
5.206,0.105,-0.025
5.208,-0.045,-0.030
5.210,-0.065,-0.035
5.212,-0.065,-0.045
5.214,-0.020,-0.055
5.216,0.155,-0.065
5.218,0.345,-0.075
5.220,0.450,-0.085
5.222,0.365,-0.090
5.224,0.330,-0.090
5.226,0.010,-0.085
5.228,-0.120,-0.080
5.230,-0.130,-0.075
5.232,-0.075,-0.070
5.234,-0.005,-0.065
5.236,0.190,-0.060
5.238,0.375,-0.055
5.240,0.460,-0.055
5.242,0.395,-0.055
5.244,0.295,-0.050
5.246,0.080,-0.050
5.248,-0.080,-0.050
5.250,-0.135,-0.050
5.252,-0.105,-0.050
5.254,0.035,-0.055
5.256,0.265,-0.060
5.258,0.390,-0.065
5.260,0.470,-0.070
5.262,0.355,-0.075
5.264,0.225,-0.075
5.266,0.000,-0.070
5.268,-0.120,-0.065
5.270,-0.110,-0.055
5.272,-0.085,-0.045
5.274,0.105,-0.040
5.276,0.270,-0.040
5.278,0.395,-0.040
5.280,0.460,-0.040
5.282,0.420,-0.045
5.284,0.245,-0.050
5.286,0.010,-0.060
5.288,-0.145,-0.070
5.290,-0.125,-0.080
5.292,-0.085,-0.090
5.294,0.030,-0.105
5.296,0.150,-0.110
5.298,0.300,-0.110
5.300,0.390,-0.100
5.302,0.380,-0.065
5.304,0.280,-0.010
5.306,0.160,0.075
5.308,0.175,0.190
5.310,0.290,0.325
5.312,0.460,0.480
5.314,0.780,0.635
5.316,1.160,0.775
5.318,1.400,0.895
5.320,1.475,0.980
5.322,1.465,1.015
5.324,1.305,1.000
5.326,1.085,0.940
5.328,0.920,0.835
5.330,0.740,0.700
5.332,0.415,0.545
5.334,0.335,0.390
5.336,0.465,0.245
5.338,0.515,0.120
5.340,0.500,0.030
5.342,0.450,-0.025
5.344,0.245,-0.055
5.346,-0.065,-0.055
5.348,-0.085,-0.040
5.350,-0.020,-0.020
5.352,-0.005,0.000
5.354,0.150,0.010
5.356,0.330,0.010
5.358,0.460,0.000
5.360,0.440,-0.010
5.362,0.400,-0.025
5.364,0.260,-0.030
5.366,0.045,-0.030
5.368,-0.085,-0.025
5.370,-0.070,-0.015
5.372,-0.025,-0.010
5.374,0.165,-0.005
5.376,0.350,-0.005
5.378,0.470,-0.015
5.380,0.435,-0.030
5.382,0.385,-0.050
5.384,0.245,-0.065
5.386,-0.045,-0.075
5.388,-0.165,-0.075
5.390,-0.110,-0.070
5.392,-0.060,-0.060
5.394,0.145,-0.050
5.396,0.325,-0.035
5.398,0.435,-0.030
5.400,0.475,-0.030
5.402,0.435,-0.035
5.404,0.195,-0.040
5.406,-0.035,-0.045
5.408,-0.145,-0.050
5.410,-0.080,-0.050
5.412,-0.005,-0.045
5.414,0.195,-0.035
5.416,0.385,-0.030
5.418,0.460,-0.020
5.420,0.410,-0.020
5.422,0.365,-0.020
5.424,0.175,-0.030
5.426,0.045,-0.035
5.428,-0.065,-0.045
5.430,-0.050,-0.050
5.432,-0.100,-0.055
5.434,0.155,-0.055
5.436,0.310,-0.050
5.438,0.405,-0.045
5.440,0.450,-0.035
5.442,0.435,-0.030
5.444,0.155,-0.020
5.446,0.000,-0.010
5.448,-0.005,0.000
5.450,-0.020,0.005
5.452,0.010,0.010
5.454,0.240,0.010
5.456,0.385,0.010
5.458,0.440,0.010
5.460,0.410,0.005
5.462,0.405,0.000
5.464,0.185,0.000
5.466,0.045,0.000
5.468,-0.020,0.000
5.470,0.005,0.005
5.472,0.040,0.010
5.474,0.270,0.015
5.476,0.420,0.015
5.478,0.470,0.020
5.480,0.445,0.015
5.482,0.385,0.015
5.484,0.165,0.010
5.486,0.020,0.010
5.488,-0.040,0.010
5.490,0.015,0.010
5.492,0.155,0.015
5.494,0.260,0.025
5.496,0.465,0.040
5.498,0.510,0.050
5.500,0.495,0.060
5.502,0.415,0.075
5.504,0.235,0.080
5.506,0.090,0.085
5.508,0.075,0.085
5.510,0.060,0.085
5.512,0.170,0.080
5.514,0.355,0.075
5.516,0.515,0.065
5.518,0.545,0.060
5.520,0.490,0.050
5.522,0.325,0.045
5.524,0.180,0.045
5.526,0.060,0.045
5.528,0.020,0.050
5.530,0.060,0.055
5.532,0.150,0.060
5.534,0.355,0.065
5.536,0.480,0.075
5.538,0.570,0.085
5.540,0.545,0.090
5.542,0.420,0.100
5.544,0.245,0.105
5.546,0.085,0.115
5.548,0.065,0.120
5.550,0.110,0.125
5.552,0.230,0.130
5.554,0.485,0.135
5.556,0.580,0.140
5.558,0.640,0.140
5.560,0.575,0.140
5.562,0.465,0.145
5.564,0.225,0.145
5.566,0.145,0.150
5.568,0.125,0.155
5.570,0.160,0.160
5.572,0.310,0.165
5.574,0.510,0.170
5.576,0.620,0.175
5.578,0.635,0.180
5.580,0.620,0.185
5.582,0.510,0.185
5.584,0.290,0.190
5.586,0.165,0.190
5.588,0.165,0.195
5.590,0.235,0.205
5.592,0.435,0.210
5.594,0.565,0.215
5.596,0.650,0.220
5.598,0.630,0.225
5.600,0.615,0.225
5.602,0.435,0.220
5.604,0.285,0.210
5.606,0.255,0.195
5.608,0.185,0.180
5.610,0.195,0.165
5.612,0.285,0.150
5.614,0.455,0.135
5.616,0.570,0.125
5.618,0.575,0.110
5.620,0.530,0.100
5.622,0.365,0.090
5.624,0.150,0.080
5.626,0.010,0.065
5.628,0.045,0.055
5.630,0.060,0.040
5.632,0.175,0.030
5.634,0.370,0.020
5.636,0.450,0.010
5.638,0.450,0.000
5.640,0.420,-0.010
5.642,0.240,-0.015
5.644,0.080,-0.020
5.646,-0.035,-0.025
5.648,-0.050,-0.025
5.650,-0.035,-0.030
5.652,0.175,-0.035
5.654,0.355,-0.040
5.656,0.410,-0.050
5.658,0.385,-0.055
5.660,0.345,-0.060
5.662,0.170,-0.065
5.664,-0.010,-0.070
5.666,-0.120,-0.070
5.668,-0.125,-0.070
5.670,-0.035,-0.070
5.672,0.145,-0.070
5.674,0.330,-0.070
5.676,0.435,-0.065
5.678,0.380,-0.065
5.680,0.370,-0.065
5.682,0.185,-0.065
5.684,-0.070,-0.060
5.686,-0.130,-0.055
5.688,-0.070,-0.050
5.690,-0.010,-0.045
5.692,0.245,-0.040
5.694,0.380,-0.035
5.696,0.410,-0.030
5.698,0.395,-0.035
5.700,0.385,-0.040
5.702,0.190,-0.045
5.704,-0.040,-0.055
5.706,-0.130,-0.065
5.708,-0.080,-0.070
5.710,-0.050,-0.075
5.712,0.220,-0.080
5.714,0.345,-0.080
5.716,0.425,-0.075
5.718,0.365,-0.070
5.720,0.280,-0.070
5.722,0.180,-0.065
5.724,-0.015,-0.065
5.726,-0.095,-0.065
5.728,-0.060,-0.065
5.730,-0.025,-0.065
5.732,0.195,-0.070
5.734,0.335,-0.070
5.736,0.440,-0.070
5.738,0.390,-0.070
5.740,0.300,-0.070
5.742,0.105,-0.070
5.744,-0.055,-0.070
5.746,-0.100,-0.070
5.748,-0.050,-0.065
5.750,0.000,-0.065
5.752,0.220,-0.060
5.754,0.405,-0.050
5.756,0.450,-0.045
5.758,0.395,-0.040
5.760,0.340,-0.040
5.762,0.150,-0.040
5.764,-0.065,-0.050
5.766,-0.120,-0.060
5.768,-0.110,-0.075
5.770,-0.030,-0.085
5.772,0.220,-0.095
5.774,0.380,-0.095
5.776,0.465,-0.095
5.778,0.355,-0.085
5.780,0.295,-0.070
5.782,0.140,-0.055
5.784,-0.060,-0.045
5.786,-0.040,-0.035
5.788,-0.055,-0.035
5.790,0.005,-0.040
5.792,0.215,-0.050
5.794,0.385,-0.060
5.796,0.440,-0.070
5.798,0.380,-0.080
5.800,0.265,-0.085
5.802,0.080,-0.085
5.804,-0.060,-0.075
5.806,-0.070,-0.065
5.808,-0.070,-0.055
5.810,0.030,-0.045
5.812,0.275,-0.035
5.814,0.390,-0.035
5.816,0.455,-0.040
5.818,0.355,-0.045
5.820,0.325,-0.055
5.822,0.090,-0.070
5.824,-0.090,-0.080
5.826,-0.110,-0.085
5.828,-0.055,-0.090
5.830,0.035,-0.085
5.832,0.225,-0.080
5.834,0.390,-0.075
5.836,0.460,-0.065
5.838,0.415,-0.055
5.840,0.280,-0.055
5.842,0.070,-0.055
5.844,-0.095,-0.060
5.846,-0.090,-0.070
5.848,-0.015,-0.080
5.850,0.040,-0.090
5.852,0.225,-0.095
5.854,0.335,-0.095
5.856,0.385,-0.095
5.858,0.345,-0.090
5.860,0.265,-0.080
5.862,0.090,-0.075
5.864,-0.040,-0.070
5.866,-0.085,-0.070
5.868,-0.030,-0.075
5.870,0.045,-0.085
5.872,0.225,-0.090
5.874,0.380,-0.095
5.876,0.410,-0.095
5.878,0.375,-0.090
5.880,0.240,-0.080
5.882,0.050,-0.070
5.884,-0.110,-0.060
5.886,-0.065,-0.050
5.888,-0.015,-0.045
5.890,0.110,-0.045
5.892,0.285,-0.050
5.894,0.405,-0.060
5.896,0.405,-0.070
5.898,0.355,-0.080
5.900,0.250,-0.080
5.902,0.085,-0.080
5.904,-0.075,-0.080
5.906,-0.120,-0.075
5.908,-0.090,-0.070
5.910,0.080,-0.065
5.912,0.310,-0.065
5.914,0.430,-0.065
5.916,0.435,-0.070
5.918,0.360,-0.070
5.920,0.215,-0.070
5.922,0.015,-0.070
5.924,-0.070,-0.065
5.926,-0.045,-0.060
5.928,-0.015,-0.050
5.930,0.150,-0.050
5.932,0.305,-0.050
5.934,0.460,-0.055
5.936,0.410,-0.060
5.938,0.330,-0.070
5.940,0.205,-0.075
5.942,0.020,-0.080
5.944,-0.090,-0.075
5.946,-0.065,-0.070
5.948,0.000,-0.065
5.950,0.175,-0.055
5.952,0.325,-0.045
5.954,0.400,-0.040
5.956,0.420,-0.035
5.958,0.375,-0.030
5.960,0.245,-0.025
5.962,0.115,-0.020
5.964,-0.020,-0.015
5.966,-0.005,-0.010
5.968,0.060,-0.010
5.970,0.170,-0.010
5.972,0.375,-0.010
5.974,0.510,-0.010
5.976,0.450,-0.015
5.978,0.420,-0.015
5.980,0.240,-0.015
5.982,0.040,-0.010
5.984,-0.030,-0.005
5.986,0.035,0.005
5.988,0.110,0.020
5.990,0.265,0.030
5.992,0.440,0.035
5.994,0.525,0.035
5.996,0.525,0.035
5.998,0.465,0.030
6.000,0.235,0.020
6.002,0.030,0.010
6.004,-0.010,0.005
6.006,0.040,0.000
6.008,0.075,0.000
6.010,0.305,-0.005
6.012,0.400,-0.005
6.014,0.455,-0.010
6.016,0.395,-0.020
6.018,0.410,-0.035
6.020,0.160,-0.050
6.022,-0.025,-0.065
6.024,-0.100,-0.075
6.026,-0.015,-0.085
6.028,-0.015,-0.090
6.030,0.200,-0.085
6.032,0.375,-0.080
6.034,0.455,-0.070
6.036,0.450,-0.055
6.038,0.360,-0.045
6.040,0.195,-0.035
6.042,-0.015,-0.030
6.044,-0.035,-0.025
6.046,0.000,-0.030
6.048,0.055,-0.035
6.050,0.245,-0.040
6.052,0.385,-0.045
6.054,0.460,-0.055
6.056,0.415,-0.055
6.058,0.320,-0.060
6.060,0.130,-0.060
6.062,-0.035,-0.055
6.064,-0.070,-0.050
6.066,0.005,-0.040
6.068,0.100,-0.035
6.070,0.255,-0.025
6.072,0.440,-0.020
6.074,0.460,-0.020
6.076,0.480,-0.020
6.078,0.420,-0.025
6.080,0.140,-0.035
6.082,-0.025,-0.045
6.084,-0.060,-0.060
6.086,-0.035,-0.075
6.088,0.025,-0.085
6.090,0.200,-0.090
6.092,0.365,-0.095
6.094,0.460,-0.100
6.096,0.425,-0.100
6.098,0.320,-0.095
6.100,0.085,-0.095
6.102,-0.120,-0.090
6.104,-0.145,-0.080
6.106,-0.060,-0.065
6.108,0.055,-0.035
6.110,0.310,0.015
6.112,0.620,0.080
6.114,0.765,0.175
6.116,0.790,0.285
6.118,0.790,0.410
6.120,0.760,0.540
6.122,0.715,0.665
6.124,0.815,0.770
6.126,0.850,0.845
6.128,1.015,0.875
6.130,1.215,0.860
6.132,1.450,0.805
6.134,1.415,0.715
6.136,1.175,0.595
6.138,0.685,0.470
6.140,0.340,0.345
6.142,0.140,0.230
6.144,0.055,0.140
6.146,0.070,0.070
6.148,0.190,0.025
6.150,0.355,0.000
6.152,0.490,-0.015
6.154,0.535,-0.015
6.156,0.405,-0.015
6.158,0.340,-0.015
6.160,0.150,-0.015
6.162,-0.025,-0.015
6.164,-0.020,-0.015
6.166,0.015,-0.020
6.168,0.110,-0.025
6.170,0.285,-0.030
6.172,0.435,-0.040
6.174,0.485,-0.045
6.176,0.450,-0.050
6.178,0.320,-0.055
6.180,0.100,-0.055
6.182,-0.025,-0.055
6.184,-0.065,-0.050
6.186,0.025,-0.045
6.188,0.145,-0.045
6.190,0.285,-0.040
6.192,0.465,-0.040
6.194,0.475,-0.045
6.196,0.410,-0.050
6.198,0.280,-0.055
6.200,0.105,-0.060
6.202,-0.020,-0.065
6.204,-0.090,-0.065
6.206,-0.010,-0.060
6.208,0.205,-0.055
6.210,0.315,-0.045
6.212,0.460,-0.040
6.214,0.480,-0.035
6.216,0.445,-0.035
6.218,0.345,-0.035
6.220,0.100,-0.040
6.222,-0.005,-0.040
6.224,-0.015,-0.045
6.226,0.020,-0.045
6.228,0.175,-0.040
6.230,0.300,-0.035
6.232,0.470,-0.030
6.234,0.505,-0.025
6.236,0.465,-0.015
6.238,0.380,-0.015
6.240,0.145,-0.015
6.242,-0.015,-0.015
6.244,-0.015,-0.020
6.246,-0.010,-0.030
6.248,0.200,-0.035
6.250,0.365,-0.045
6.252,0.545,-0.050
6.254,0.475,-0.050
6.256,0.385,-0.045
6.258,0.285,-0.040
6.260,0.095,-0.030
6.262,-0.040,-0.025
6.264,0.015,-0.015
6.266,0.045,-0.015
6.268,0.190,-0.015
6.270,0.400,-0.015
6.272,0.565,-0.020
6.274,0.525,-0.025
6.276,0.470,-0.025
6.278,0.290,-0.025
6.280,0.080,-0.020
6.282,-0.015,-0.015
6.284,-0.010,-0.010
6.286,0.055,-0.005
6.288,0.285,-0.005
6.290,0.430,-0.005
6.292,0.515,-0.005
6.294,0.500,0.000
6.296,0.465,0.000
6.298,0.300,0.005
6.300,0.135,0.015
6.302,0.095,0.025
6.304,0.110,0.030
6.306,0.130,0.040
6.308,0.330,0.040
6.310,0.495,0.035
6.312,0.520,0.030
6.314,0.520,0.020
6.316,0.470,0.015
6.318,0.285,0.010
6.320,0.100,0.010
6.322,0.075,0.015
6.324,0.075,0.025
6.326,0.135,0.035
6.328,0.350,0.045
6.330,0.530,0.055
6.332,0.610,0.060
6.334,0.550,0.065
6.336,0.545,0.065
6.338,0.325,0.065
6.340,0.170,0.065
6.342,0.100,0.070
6.344,0.150,0.075
6.346,0.215,0.080
6.348,0.405,0.085
6.350,0.605,0.095
6.352,0.650,0.100
6.354,0.595,0.100
6.356,0.530,0.105
6.358,0.330,0.105
6.360,0.230,0.110
6.362,0.145,0.115
6.364,0.155,0.120
6.366,0.240,0.125
6.368,0.440,0.135
6.370,0.660,0.135
6.372,0.725,0.140
6.374,0.665,0.145
6.376,0.595,0.150
6.378,0.390,0.155
6.380,0.255,0.160
6.382,0.200,0.170
6.384,0.250,0.180
6.386,0.345,0.195
6.388,0.580,0.200
6.390,0.710,0.205
6.392,0.790,0.205
6.394,0.710,0.200
6.396,0.610,0.190
6.398,0.425,0.185
6.400,0.215,0.175
6.402,0.225,0.170
6.404,0.240,0.170
6.406,0.290,0.170
6.408,0.545,0.175
6.410,0.685,0.175
6.412,0.730,0.175
6.414,0.695,0.170
6.416,0.570,0.155
6.418,0.350,0.140
6.420,0.170,0.125
6.422,0.125,0.110
6.424,0.165,0.095
6.426,0.255,0.080
6.428,0.465,0.070
6.430,0.615,0.055
6.432,0.655,0.045
6.434,0.525,0.035
6.436,0.475,0.020
6.438,0.180,0.010
6.440,0.005,-0.005
6.442,-0.005,-0.010
6.444,0.090,-0.015
6.446,0.255,-0.020
6.448,0.410,-0.015
6.450,0.560,-0.010
6.452,0.560,-0.005
6.454,0.465,-0.005
6.456,0.390,-0.010
6.458,0.160,-0.015
6.460,0.050,-0.030
6.462,0.055,-0.045
6.464,0.030,-0.060
6.466,0.130,-0.070
6.468,0.345,-0.080
6.470,0.500,-0.085
6.472,0.475,-0.085
6.474,0.415,-0.080
6.476,0.350,-0.070
6.478,0.200,-0.060
6.480,0.025,-0.055
6.482,-0.025,-0.050
6.484,0.020,-0.045
6.486,0.155,-0.050
6.488,0.385,-0.055
6.490,0.500,-0.065
6.492,0.490,-0.080
6.494,0.445,-0.090
6.496,0.310,-0.100
6.498,0.090,-0.110
6.500,-0.050,-0.115
6.502,-0.065,-0.115
6.504,-0.010,-0.110
6.506,0.140,-0.105
6.508,0.340,-0.100
6.510,0.460,-0.095
6.512,0.550,-0.085
6.514,0.460,-0.080
6.516,0.310,-0.075
6.518,0.105,-0.070
6.520,-0.015,-0.070
6.522,-0.005,-0.070
6.524,0.080,-0.070
6.526,0.255,-0.070
6.528,0.390,-0.075
6.530,0.510,-0.075
6.532,0.495,-0.080
6.534,0.360,-0.080
6.536,0.305,-0.080
6.538,0.090,-0.085
6.540,-0.005,-0.080
6.542,0.005,-0.080
6.544,0.060,-0.080
6.546,0.255,-0.075
6.548,0.430,-0.070
6.550,0.525,-0.070
6.552,0.500,-0.065
6.554,0.415,-0.065
6.556,0.290,-0.065
6.558,0.110,-0.070
6.560,-0.030,-0.075
6.562,0.020,-0.080
6.564,0.065,-0.080
6.566,0.190,-0.080
6.568,0.425,-0.080
6.570,0.530,-0.080
6.572,0.470,-0.075
6.574,0.450,-0.070
6.576,0.275,-0.065
6.578,0.130,-0.065
6.580,0.045,-0.065
6.582,0.020,-0.070
6.584,0.055,-0.075
6.586,0.250,-0.085
6.588,0.450,-0.090
6.590,0.465,-0.095
6.592,0.500,-0.095
6.594,0.415,-0.090
6.596,0.265,-0.080
6.598,0.085,-0.065
6.600,0.085,-0.055
6.602,0.010,-0.045
6.604,0.085,-0.035
6.606,0.325,-0.035
6.608,0.455,-0.040
6.610,0.535,-0.050
6.612,0.520,-0.065
6.614,0.445,-0.080
6.616,0.265,-0.090
6.618,0.030,-0.095
6.620,-0.005,-0.100
6.622,-0.020,-0.100
6.624,0.110,-0.090
6.626,0.290,-0.085
6.628,0.470,-0.075
6.630,0.535,-0.065
6.632,0.500,-0.060
6.634,0.485,-0.055
6.636,0.285,-0.050
6.638,0.120,-0.055
6.640,0.055,-0.055
6.642,0.040,-0.060
6.644,0.085,-0.070
6.646,0.230,-0.075
6.648,0.490,-0.080
6.650,0.520,-0.085
6.652,0.480,-0.090
6.654,0.425,-0.090
6.656,0.250,-0.085
6.658,0.060,-0.080
6.660,0.015,-0.070
6.662,0.100,-0.065
6.664,0.140,-0.055
6.666,0.350,-0.050
6.668,0.510,-0.050
6.670,0.570,-0.050
6.672,0.510,-0.055
6.674,0.475,-0.060
6.676,0.250,-0.065
6.678,0.035,-0.070
6.680,0.030,-0.070
6.682,0.025,-0.070
6.684,0.175,-0.065
6.686,0.385,-0.055
6.688,0.520,-0.050
6.690,0.575,-0.045
6.692,0.575,-0.040
6.694,0.435,-0.045
6.696,0.225,-0.045
6.698,0.105,-0.050
6.700,0.010,-0.055
6.702,0.105,-0.055
6.704,0.145,-0.055
6.706,0.390,-0.045
6.708,0.580,-0.035
6.710,0.645,-0.020
6.712,0.575,-0.005
6.714,0.520,0.010
6.716,0.320,0.020
6.718,0.100,0.025
6.720,0.110,0.025
6.722,0.160,0.015
6.724,0.240,0.000
6.726,0.425,-0.015
6.728,0.560,-0.035
6.730,0.635,-0.050
6.732,0.580,-0.065
6.734,0.445,-0.075
6.736,0.145,-0.080
6.738,0.005,-0.085
6.740,0.030,-0.085
6.742,0.075,-0.085
6.744,0.185,-0.090
6.746,0.360,-0.095
6.748,0.485,-0.100
6.750,0.570,-0.105
6.752,0.450,-0.105
6.754,0.420,-0.110
6.756,0.195,-0.105
6.758,0.025,-0.105
6.760,-0.030,-0.100
6.762,0.065,-0.090
6.764,0.225,-0.090
6.766,0.415,-0.085
6.768,0.590,-0.085
6.770,0.585,-0.090
6.772,0.525,-0.095
6.774,0.355,-0.100
6.776,0.115,-0.105
6.778,0.035,-0.105
6.780,0.010,-0.105
6.782,0.040,-0.100
6.784,0.170,-0.090
6.786,0.405,-0.085
6.788,0.625,-0.075
6.790,0.620,-0.065
6.792,0.550,-0.060
6.794,0.450,-0.060
6.796,0.190,-0.065
6.798,0.030,-0.070
6.800,0.000,-0.075
6.802,0.100,-0.085
6.804,0.255,-0.090
6.806,0.455,-0.090
6.808,0.585,-0.090
6.810,0.545,-0.090
6.812,0.490,-0.085
6.814,0.385,-0.080
6.816,0.240,-0.080
6.818,0.050,-0.080
6.820,0.050,-0.090
6.822,0.065,-0.105
6.824,0.200,-0.120
6.826,0.380,-0.140
6.828,0.480,-0.150
6.830,0.480,-0.155
6.832,0.435,-0.145
6.834,0.375,-0.120
6.836,0.140,-0.075
6.838,0.090,-0.005
6.840,0.260,0.080
6.842,0.385,0.185
6.844,0.700,0.305
6.846,1.005,0.435
6.848,1.270,0.565
6.850,1.375,0.690
6.852,1.445,0.790
6.854,1.310,0.860
6.856,1.125,0.895
6.858,1.065,0.880
6.860,1.100,0.825
6.862,1.095,0.725
6.864,1.045,0.600
6.866,0.855,0.450
6.868,0.815,0.305
6.870,0.705,0.170
6.872,0.625,0.055
6.874,0.370,-0.025
6.876,0.190,-0.070
6.878,0.125,-0.090
6.880,0.110,-0.085
6.882,0.195,-0.075
6.884,0.350,-0.055
6.886,0.515,-0.045
6.888,0.655,-0.040
6.890,0.605,-0.045
6.892,0.520,-0.055
6.894,0.345,-0.070
6.896,0.145,-0.080
6.898,0.065,-0.090
6.900,0.045,-0.095
6.902,0.110,-0.095
6.904,0.325,-0.090
6.906,0.550,-0.085
6.908,0.635,-0.075
6.910,0.545,-0.070
6.912,0.545,-0.070
6.914,0.350,-0.065
6.916,0.185,-0.065
6.918,0.100,-0.060
6.920,0.095,-0.060
6.922,0.160,-0.060
6.924,0.375,-0.065
6.926,0.520,-0.070
6.928,0.605,-0.075
6.930,0.545,-0.085
6.932,0.510,-0.095
6.934,0.325,-0.105
6.936,0.105,-0.110
6.938,0.050,-0.110
6.940,0.080,-0.105
6.942,0.130,-0.100
6.944,0.360,-0.090
6.946,0.575,-0.080
6.948,0.655,-0.075
6.950,0.600,-0.070
6.952,0.510,-0.070
6.954,0.280,-0.075
6.956,0.130,-0.075
6.958,0.090,-0.075
6.960,0.165,-0.070
6.962,0.230,-0.065
6.964,0.460,-0.055
6.966,0.635,-0.045
6.968,0.645,-0.040
6.970,0.540,-0.040
6.972,0.525,-0.050
6.974,0.295,-0.065
6.976,0.115,-0.080
6.978,0.095,-0.095
6.980,0.155,-0.110
6.982,0.185,-0.115
6.984,0.385,-0.110
6.986,0.560,-0.100
6.988,0.625,-0.080
6.990,0.575,-0.065
6.992,0.540,-0.050
6.994,0.335,-0.040
6.996,0.150,-0.040
6.998,0.145,-0.050
7.000,0.205,-0.060
7.002,0.165,-0.075
7.004,0.430,-0.085
7.006,0.585,-0.090
7.008,0.615,-0.085
7.010,0.530,-0.070
7.012,0.515,-0.055
7.014,0.325,-0.035
7.016,0.225,-0.020
7.018,0.200,-0.010
7.020,0.195,-0.005
7.022,0.330,-0.010
7.024,0.520,-0.020
7.026,0.625,-0.035
7.028,0.645,-0.045
7.030,0.590,-0.055
7.032,0.500,-0.055
7.034,0.340,-0.050
7.036,0.195,-0.045
7.038,0.150,-0.035
7.040,0.200,-0.030
7.042,0.340,-0.020
7.044,0.525,-0.015
7.046,0.695,-0.010
7.048,0.715,-0.005
7.050,0.670,0.000
7.052,0.555,0.005
7.054,0.370,0.015
7.056,0.245,0.020
7.058,0.235,0.025
7.060,0.275,0.030
7.062,0.360,0.035
7.064,0.615,0.035
7.066,0.710,0.035
7.068,0.715,0.035
7.070,0.685,0.040
7.072,0.585,0.040
7.074,0.430,0.045
7.076,0.275,0.055
7.078,0.280,0.065
7.080,0.345,0.075
7.082,0.450,0.085
7.084,0.660,0.095
7.086,0.780,0.105
7.088,0.780,0.110
7.090,0.775,0.115
7.092,0.640,0.115
7.094,0.475,0.115
7.096,0.325,0.115
7.098,0.330,0.115
7.100,0.365,0.115
7.102,0.500,0.115
7.104,0.680,0.120
7.106,0.820,0.125
7.108,0.845,0.130
7.110,0.850,0.140
7.112,0.705,0.150
7.114,0.490,0.160
7.116,0.325,0.165
7.118,0.360,0.170
7.120,0.430,0.170
7.122,0.545,0.160
7.124,0.730,0.150
7.126,0.895,0.140
7.128,0.875,0.125
7.130,0.815,0.115
7.132,0.660,0.110
7.134,0.425,0.105
7.136,0.295,0.105
7.138,0.290,0.105
7.140,0.375,0.105
7.142,0.530,0.105
7.144,0.690,0.100
7.146,0.805,0.090
7.148,0.785,0.075
7.150,0.745,0.055
7.152,0.535,0.035
7.154,0.355,0.020
7.156,0.185,0.005
7.158,0.200,-0.010
7.160,0.255,-0.015
7.162,0.415,-0.020
7.164,0.560,-0.025
7.166,0.700,-0.030
7.168,0.730,-0.030
7.170,0.630,-0.040
7.172,0.455,-0.045
7.174,0.255,-0.055
7.176,0.150,-0.065
7.178,0.115,-0.070
7.180,0.120,-0.080
7.182,0.360,-0.085
7.184,0.555,-0.090
7.186,0.685,-0.090
7.188,0.640,-0.090
7.190,0.580,-0.085
7.192,0.410,-0.085
7.194,0.250,-0.085
7.196,0.120,-0.085
7.198,0.120,-0.085
7.200,0.195,-0.090
7.202,0.385,-0.090
7.204,0.535,-0.095
7.206,0.610,-0.100
7.208,0.595,-0.105
7.210,0.600,-0.110
7.212,0.410,-0.110
7.214,0.170,-0.110
7.216,0.050,-0.110
7.218,0.100,-0.110
7.220,0.170,-0.105
7.222,0.405,-0.100
7.224,0.580,-0.090
7.226,0.715,-0.085
7.228,0.660,-0.080
7.230,0.550,-0.080
7.232,0.350,-0.080
7.234,0.160,-0.080
7.236,0.140,-0.085
7.238,0.195,-0.090
7.240,0.205,-0.095
7.242,0.420,-0.095
7.244,0.605,-0.095
7.246,0.680,-0.095
7.248,0.600,-0.090
7.250,0.590,-0.085
7.252,0.380,-0.080
7.254,0.135,-0.085
7.256,0.135,-0.085
7.258,0.190,-0.095
7.260,0.185,-0.100
7.262,0.420,-0.110
7.264,0.590,-0.115
7.266,0.655,-0.115
7.268,0.615,-0.115
7.270,0.560,-0.110
7.272,0.375,-0.100
7.274,0.175,-0.095
7.276,0.115,-0.090
7.278,0.165,-0.090
7.280,0.225,-0.090
7.282,0.475,-0.095
7.284,0.605,-0.105
7.286,0.645,-0.110
7.288,0.555,-0.115
7.290,0.500,-0.115
7.292,0.305,-0.110
7.294,0.145,-0.105
7.296,0.130,-0.095
7.298,0.215,-0.085
7.300,0.300,-0.080
7.302,0.430,-0.075
7.304,0.650,-0.080
7.306,0.745,-0.080
7.308,0.595,-0.085
7.310,0.520,-0.090
7.312,0.295,-0.095
7.314,0.175,-0.100
7.316,0.150,-0.100
7.318,0.240,-0.100
7.320,0.260,-0.095
7.322,0.445,-0.095
7.324,0.645,-0.095
7.326,0.685,-0.095
7.328,0.575,-0.095
7.330,0.500,-0.105
7.332,0.295,-0.110
7.334,0.130,-0.115
7.336,0.085,-0.120
7.338,0.185,-0.120
7.340,0.265,-0.115
7.342,0.500,-0.110
7.344,0.655,-0.100
7.346,0.680,-0.090
7.348,0.600,-0.085
7.350,0.525,-0.080
7.352,0.285,-0.080
7.354,0.170,-0.085
7.356,0.145,-0.090
7.358,0.195,-0.100
7.360,0.270,-0.110
7.362,0.480,-0.115
7.364,0.615,-0.115
7.366,0.640,-0.110
7.368,0.575,-0.105
7.370,0.515,-0.100
7.372,0.300,-0.090
7.374,0.150,-0.090
7.376,0.145,-0.090
7.378,0.180,-0.100
7.380,0.260,-0.110
7.382,0.475,-0.125
7.384,0.590,-0.135
7.386,0.615,-0.145
7.388,0.560,-0.150
7.390,0.420,-0.150
7.392,0.210,-0.140
7.394,0.115,-0.130
7.396,0.135,-0.115
7.398,0.185,-0.100
7.400,0.275,-0.090
7.402,0.555,-0.085
7.404,0.690,-0.085
7.406,0.680,-0.090
7.408,0.625,-0.095
7.410,0.470,-0.105
7.412,0.200,-0.110
7.414,0.095,-0.115
7.416,0.125,-0.110
7.418,0.180,-0.110
7.420,0.375,-0.100
7.422,0.520,-0.090
7.424,0.660,-0.080
7.426,0.675,-0.075
7.428,0.650,-0.065
7.430,0.500,-0.065
7.432,0.315,-0.065
7.434,0.190,-0.065
7.436,0.180,-0.070
7.438,0.200,-0.070
7.440,0.360,-0.075
7.442,0.520,-0.075
7.444,0.680,-0.075
7.446,0.690,-0.070
7.448,0.650,-0.065
7.450,0.510,-0.055
7.452,0.275,-0.050
7.454,0.205,-0.040
7.456,0.240,-0.035
7.458,0.275,-0.030
7.460,0.420,-0.030
7.462,0.615,-0.030
7.464,0.685,-0.035
7.466,0.680,-0.040
7.468,0.650,-0.050
7.470,0.470,-0.055
7.472,0.250,-0.060
7.474,0.135,-0.065
7.476,0.145,-0.065
7.478,0.265,-0.060
7.480,0.475,-0.055
7.482,0.660,-0.050
7.484,0.695,-0.045
7.486,0.705,-0.040
7.488,0.595,-0.045
7.490,0.460,-0.045
7.492,0.250,-0.055
7.494,0.170,-0.065
7.496,0.185,-0.075
7.498,0.210,-0.085
7.500,0.395,-0.090
7.502,0.565,-0.095
7.504,0.675,-0.090
7.506,0.655,-0.090
7.508,0.575,-0.080
7.510,0.400,-0.075
7.512,0.235,-0.070
7.514,0.135,-0.070
7.516,0.190,-0.070
7.518,0.220,-0.070
7.520,0.425,-0.075
7.522,0.650,-0.075
7.524,0.670,-0.075
7.526,0.635,-0.075
7.528,0.600,-0.070
7.530,0.350,-0.065
7.532,0.245,-0.055
7.534,0.210,-0.050
7.536,0.195,-0.050
7.538,0.265,-0.050
7.540,0.415,-0.055
7.542,0.595,-0.065
7.544,0.670,-0.070
7.546,0.610,-0.080
7.548,0.560,-0.080
7.550,0.390,-0.080
7.552,0.225,-0.075
7.554,0.145,-0.070
7.556,0.195,-0.065
7.558,0.240,-0.060
7.560,0.475,-0.055
7.562,0.630,-0.055
7.564,0.670,-0.060
7.566,0.600,-0.065
7.568,0.570,-0.070
7.570,0.360,-0.075
7.572,0.170,-0.075
7.574,0.115,-0.080
7.576,0.235,-0.085
7.578,0.285,-0.085
7.580,0.420,-0.095
7.582,0.545,-0.100
7.584,0.585,-0.100
7.586,0.560,-0.095
7.588,0.530,-0.075
7.590,0.355,-0.040
7.592,0.270,0.020
7.594,0.380,0.110
7.596,0.500,0.220
7.598,0.720,0.350
7.600,1.055,0.490
7.602,1.370,0.630
7.604,1.495,0.755
7.606,1.605,0.850
7.608,1.475,0.910
7.610,1.260,0.920
7.612,1.190,0.890
7.614,1.140,0.815
7.616,1.190,0.705
7.618,1.015,0.580
7.620,0.850,0.445
7.622,0.860,0.315
7.624,0.820,0.200
7.626,0.735,0.105
7.628,0.555,0.040
7.630,0.360,0.000
7.632,0.205,-0.025
7.634,0.235,-0.030
7.636,0.270,-0.030
7.638,0.325,-0.025
7.640,0.515,-0.025
7.642,0.700,-0.030
7.644,0.735,-0.035
7.646,0.595,-0.045
7.648,0.480,-0.060
7.650,0.250,-0.070
7.652,0.095,-0.080
7.654,0.165,-0.080
7.656,0.250,-0.080
7.658,0.325,-0.075
7.660,0.495,-0.065
7.662,0.620,-0.055
7.664,0.650,-0.045
7.666,0.625,-0.035
7.668,0.575,-0.025
7.670,0.345,-0.020
7.672,0.195,-0.020
7.674,0.165,-0.025
7.676,0.180,-0.030
7.678,0.325,-0.040
7.680,0.480,-0.050
7.682,0.630,-0.055
7.684,0.665,-0.060
7.686,0.630,-0.065
7.688,0.465,-0.065
7.690,0.300,-0.060
7.692,0.185,-0.050
7.694,0.190,-0.040
7.696,0.265,-0.030
7.698,0.335,-0.020
7.700,0.540,-0.015
7.702,0.670,-0.010
7.704,0.700,-0.010
7.706,0.625,-0.010
7.708,0.480,-0.015
7.710,0.325,-0.020
7.712,0.170,-0.025
7.714,0.145,-0.025
7.716,0.220,-0.025
7.718,0.385,-0.025
7.720,0.580,-0.025
7.722,0.690,-0.025
7.724,0.690,-0.025
7.726,0.610,-0.025
7.728,0.455,-0.025
7.730,0.280,-0.025
7.732,0.175,-0.030
7.734,0.140,-0.030
7.736,0.175,-0.030
7.738,0.390,-0.025
7.740,0.595,-0.020
7.742,0.655,-0.015
7.744,0.725,-0.005
7.746,0.710,0.000
7.748,0.475,0.005
7.750,0.290,0.005
7.752,0.105,0.005
7.754,0.160,0.005
7.756,0.255,0.000
7.758,0.440,0.000
7.760,0.610,0.000
7.762,0.720,0.010
7.764,0.685,0.020
7.766,0.665,0.030
7.768,0.500,0.045
7.770,0.300,0.060
7.772,0.285,0.070
7.774,0.245,0.075
7.776,0.315,0.070
7.778,0.455,0.065
7.780,0.635,0.060
7.782,0.700,0.050
7.784,0.685,0.040
7.786,0.690,0.040
7.788,0.530,0.040
7.790,0.320,0.050
7.792,0.215,0.060
7.794,0.235,0.070
7.796,0.310,0.085
7.798,0.510,0.090
7.800,0.675,0.095
7.802,0.780,0.100
7.804,0.760,0.095
7.806,0.705,0.095
7.808,0.535,0.095
7.810,0.315,0.095
7.812,0.185,0.100
7.814,0.285,0.105
7.816,0.365,0.110
7.818,0.565,0.120
7.820,0.725,0.125
7.822,0.785,0.130
7.824,0.785,0.130
7.826,0.765,0.135
7.828,0.545,0.135
7.830,0.385,0.135
7.832,0.315,0.140
7.834,0.310,0.145
7.836,0.400,0.155
7.838,0.595,0.165
7.840,0.750,0.175
7.842,0.830,0.180
7.844,0.845,0.190
7.846,0.805,0.195
7.848,0.595,0.200
7.850,0.425,0.205
7.852,0.350,0.205
7.854,0.415,0.210
7.856,0.440,0.210
7.858,0.655,0.215
7.860,0.770,0.225
7.862,0.905,0.230
7.864,0.890,0.240
7.866,0.845,0.250
7.868,0.620,0.260
7.870,0.460,0.265
7.872,0.410,0.270
7.874,0.415,0.270
7.876,0.470,0.270
7.878,0.735,0.260
7.880,0.885,0.255
7.882,0.860,0.245
7.884,0.825,0.235
7.886,0.760,0.230
7.888,0.595,0.225
7.890,0.405,0.220
7.892,0.365,0.215
7.894,0.420,0.210
7.896,0.460,0.205
7.898,0.625,0.195
7.900,0.775,0.180
7.902,0.830,0.170
7.904,0.755,0.150
7.906,0.660,0.140
7.908,0.450,0.125
7.910,0.290,0.115
7.912,0.225,0.110
7.914,0.270,0.105
7.916,0.360,0.100
7.918,0.545,0.090
7.920,0.690,0.080
7.922,0.675,0.070
7.924,0.695,0.060
7.926,0.610,0.045
7.928,0.320,0.035
7.930,0.185,0.025
7.932,0.155,0.020
7.934,0.170,0.020
7.936,0.220,0.020
7.938,0.485,0.020
7.940,0.705,0.020
7.942,0.625,0.015
7.944,0.600,0.010
7.946,0.490,0.000
7.948,0.270,-0.005
7.950,0.135,-0.010
7.952,0.110,-0.015
7.954,0.190,-0.010
7.956,0.280,-0.005
7.958,0.395,0.005
7.960,0.595,0.015
7.962,0.685,0.025
7.964,0.620,0.030
7.966,0.455,0.030
7.968,0.330,0.030
7.970,0.175,0.025
7.972,0.140,0.020
7.974,0.180,0.020
7.976,0.270,0.020
7.978,0.440,0.020
7.980,0.575,0.020
7.982,0.625,0.025
7.984,0.585,0.025
7.986,0.485,0.020
7.988,0.275,0.015
7.990,0.140,0.005
7.992,0.140,-0.010
7.994,0.145,-0.020
7.996,0.185,-0.030
7.998,0.375,-0.035
8.000,0.515,-0.035
8.002,0.550,-0.030
8.004,0.595,-0.020
8.006,0.470,-0.010
8.008,0.280,0.005
8.010,0.150,0.020
8.012,0.070,0.030
8.014,0.125,0.035
8.016,0.335,0.035
8.018,0.480,0.030
8.020,0.605,0.020
8.022,0.645,0.010
8.024,0.520,0.000
8.026,0.310,-0.010
8.028,0.195,-0.015
8.030,0.110,-0.015
8.032,0.140,-0.010
8.034,0.185,-0.005
8.036,0.315,0.005
8.038,0.475,0.010
8.040,0.570,0.015
8.042,0.600,0.015
8.044,0.535,0.010
8.046,0.385,0.010
8.048,0.170,0.005
8.050,0.110,0.005
8.052,0.125,0.010
8.054,0.180,0.015
8.056,0.325,0.020
8.058,0.500,0.025
8.060,0.595,0.030
8.062,0.595,0.035
8.064,0.540,0.035
8.066,0.365,0.030
8.068,0.190,0.025
8.070,0.070,0.020
8.072,0.115,0.015
8.074,0.130,0.010
8.076,0.320,0.010
8.078,0.520,0.010
8.080,0.610,0.010
8.082,0.550,0.010
8.084,0.495,0.005
8.086,0.330,0.005
8.088,0.130,0.000
8.090,0.015,0.000
8.092,0.070,-0.005
8.094,0.105,0.000
8.096,0.280,0.005
8.098,0.520,0.010
8.100,0.605,0.020
8.102,0.590,0.025
8.104,0.540,0.030
8.106,0.320,0.025
8.108,0.125,0.015
8.110,0.015,0.005
8.112,0.070,-0.010
8.114,0.065,-0.020
8.116,0.275,-0.030
8.118,0.450,-0.030
8.120,0.530,-0.025
8.122,0.535,-0.015
8.124,0.500,-0.005
8.126,0.365,0.010
8.128,0.120,0.015
8.130,0.045,0.020
8.132,0.135,0.020
8.134,0.140,0.015
8.136,0.240,0.010
8.138,0.450,0.005
8.140,0.520,0.000
8.142,0.515,0.000
8.144,0.505,0.005
8.146,0.305,0.015
8.148,0.165,0.020
8.150,0.090,0.025
8.152,0.080,0.030
8.154,0.100,0.030
8.156,0.320,0.025
8.158,0.485,0.020
8.160,0.600,0.020
8.162,0.525,0.020
8.164,0.485,0.020
8.166,0.275,0.020
8.168,0.100,0.020
8.170,0.040,0.020
8.172,0.070,0.020
8.174,0.185,0.020
8.176,0.360,0.020
8.178,0.450,0.020
8.180,0.550,0.025
8.182,0.525,0.030
8.184,0.520,0.035
8.186,0.265,0.045
8.188,0.080,0.050
8.190,0.060,0.055
8.192,0.080,0.055
8.194,0.145,0.055
8.196,0.355,0.050
8.198,0.515,0.050
8.200,0.570,0.050
8.202,0.585,0.050
8.204,0.510,0.060
8.206,0.290,0.070
8.208,0.095,0.075
8.210,0.075,0.085
8.212,0.075,0.085
8.214,0.160,0.080
8.216,0.340,0.070
8.218,0.605,0.055
8.220,0.600,0.045
8.222,0.515,0.030
8.224,0.440,0.025
8.226,0.200,0.025
8.228,0.025,0.030
8.230,0.025,0.035
8.232,0.110,0.040
8.234,0.155,0.045
8.236,0.320,0.040
8.238,0.520,0.030
8.240,0.525,0.015
8.242,0.460,0.000
8.244,0.355,-0.015
8.246,0.120,-0.020
8.248,-0.015,-0.025
8.250,-0.020,-0.025
8.252,0.060,-0.020
8.254,0.135,-0.010
8.256,0.270,-0.005
8.258,0.450,-0.005
8.260,0.455,-0.005
8.262,0.425,-0.005
8.264,0.330,-0.005
8.266,0.160,-0.010
8.268,-0.025,-0.010
8.270,0.000,-0.010
8.272,0.010,-0.005
8.274,0.120,-0.005
8.276,0.290,-0.010
8.278,0.400,-0.015
8.280,0.440,-0.020
8.282,0.400,-0.030
8.284,0.330,-0.035
8.286,0.060,-0.040
8.288,-0.100,-0.040
8.290,-0.045,-0.040
8.292,-0.025,-0.030
8.294,0.145,-0.025
8.296,0.285,-0.020
8.298,0.425,-0.015
8.300,0.440,-0.015
8.302,0.430,-0.020
8.304,0.250,-0.030
8.306,0.095,-0.035
8.308,-0.035,-0.045
8.310,-0.060,-0.055
8.312,-0.010,-0.070
8.314,0.065,-0.085
8.316,0.175,-0.095
8.318,0.260,-0.110
8.320,0.250,-0.120
8.322,0.270,-0.115
8.324,0.195,-0.100
8.326,0.040,-0.065
8.328,-0.040,0.000
8.330,0.075,0.090
8.332,0.225,0.205
8.334,0.515,0.340
8.336,0.820,0.485
8.338,1.100,0.630
8.340,1.225,0.760
8.342,1.315,0.865
8.344,1.185,0.930
8.346,0.970,0.950
8.348,0.820,0.925
8.350,0.915,0.860
8.352,0.995,0.755
8.354,0.900,0.630
8.356,0.700,0.485
8.358,0.650,0.350
8.360,0.490,0.225
8.362,0.415,0.120
8.364,0.250,0.045
8.366,0.020,-0.005
8.368,-0.065,-0.025
8.370,-0.020,-0.025
8.372,0.025,-0.015
8.374,0.170,0.000
8.376,0.365,0.010
8.378,0.455,0.020
8.380,0.430,0.020
8.382,0.315,0.015
8.384,0.155,0.000
8.386,-0.055,-0.010
8.388,-0.185,-0.025
8.390,-0.030,-0.035
8.392,0.010,-0.040
8.394,0.175,-0.040
8.396,0.320,-0.040
8.398,0.355,-0.040
8.400,0.340,-0.040
8.402,0.270,-0.035
8.404,0.150,-0.035
8.406,-0.005,-0.030
8.408,-0.115,-0.030
8.410,-0.125,-0.025
8.412,-0.075,-0.025
8.414,0.145,-0.025
8.416,0.295,-0.030
8.418,0.375,-0.035
8.420,0.340,-0.040
8.422,0.280,-0.045
8.424,0.155,-0.055
8.426,-0.080,-0.055
8.428,-0.145,-0.055
8.430,-0.080,-0.050
8.432,-0.070,-0.045
8.434,0.115,-0.035
8.436,0.305,-0.025
8.438,0.385,-0.020
8.440,0.335,-0.015
8.442,0.310,-0.015
8.444,0.120,-0.020
8.446,-0.065,-0.025
8.448,-0.120,-0.030
8.450,-0.100,-0.035
8.452,-0.070,-0.040
8.454,0.120,-0.035
8.456,0.335,-0.035
8.458,0.350,-0.030
8.460,0.365,-0.025
8.462,0.320,-0.025
8.464,0.050,-0.025
8.466,-0.080,-0.025
8.468,-0.120,-0.030
8.470,-0.085,-0.030
8.472,-0.040,-0.030
8.474,0.140,-0.025
8.476,0.310,-0.020
8.478,0.400,-0.015
8.480,0.325,-0.005
8.482,0.295,0.000
8.484,0.120,0.010
8.486,-0.065,0.015
8.488,-0.120,0.020
8.490,-0.130,0.020
8.492,-0.020,0.025
8.494,0.220,0.025
8.496,0.365,0.025
8.498,0.420,0.025
8.500,0.360,0.025
8.502,0.240,0.025
8.504,0.045,0.020
8.506,-0.130,0.010
8.508,-0.100,0.005
8.510,-0.065,0.000
8.512,-0.030,-0.005
8.514,0.135,-0.010
8.516,0.335,-0.005
8.518,0.405,0.000
8.520,0.335,0.010
8.522,0.250,0.020
8.524,0.065,0.030
8.526,-0.065,0.035
8.528,-0.090,0.035
8.530,-0.075,0.035
8.532,-0.015,0.030
8.534,0.210,0.020
8.536,0.390,0.015
8.538,0.360,0.010
8.540,0.350,0.010
8.542,0.220,0.015
8.544,0.035,0.025
8.546,-0.110,0.040
8.548,-0.095,0.050
8.550,-0.050,0.060
8.552,0.075,0.070
8.554,0.225,0.075
8.556,0.400,0.080
8.558,0.445,0.080
8.560,0.370,0.085
8.562,0.295,0.090
8.564,0.110,0.095
8.566,-0.080,0.100
8.568,-0.005,0.110
8.570,-0.045,0.115
8.572,0.155,0.120
8.574,0.290,0.125
8.576,0.440,0.125
8.578,0.465,0.120
8.580,0.400,0.120
8.582,0.290,0.120
8.584,0.160,0.125
8.586,-0.015,0.130
8.588,-0.020,0.135
8.590,0.010,0.145
8.592,0.130,0.155
8.594,0.305,0.160
8.596,0.480,0.170
8.598,0.525,0.170
8.600,0.460,0.175
8.602,0.360,0.175
8.604,0.155,0.170
8.606,0.040,0.170
8.608,-0.020,0.170
8.610,0.025,0.170
8.612,0.165,0.170
8.614,0.325,0.170
8.616,0.485,0.170
8.618,0.520,0.165
8.620,0.440,0.160
8.622,0.300,0.155
8.624,0.080,0.145
8.626,-0.005,0.135
8.628,-0.035,0.125
8.630,-0.055,0.115
8.632,0.065,0.100
8.634,0.265,0.085
8.636,0.440,0.070
8.638,0.390,0.060
8.640,0.280,0.045
8.642,0.140,0.035
8.644,-0.015,0.030
8.646,-0.160,0.025
8.648,-0.140,0.025
8.650,-0.120,0.020
8.652,0.015,0.015
8.654,0.165,0.005
8.656,0.265,-0.005
8.658,0.265,-0.020
8.660,0.220,-0.040
8.662,0.035,-0.055
8.664,-0.165,-0.065
8.666,-0.225,-0.070
8.668,-0.245,-0.070
8.670,-0.230,-0.065
8.672,-0.025,-0.060
8.674,0.165,-0.060
8.676,0.250,-0.060
8.678,0.175,-0.065
8.680,0.140,-0.080
8.682,-0.035,-0.095
8.684,-0.225,-0.115
8.686,-0.365,-0.125
8.688,-0.345,-0.135
8.690,-0.250,-0.140
8.692,-0.055,-0.135
8.694,0.105,-0.125
8.696,0.180,-0.115
8.698,0.160,-0.100
8.700,0.140,-0.095
8.702,-0.115,-0.090
8.704,-0.255,-0.095
8.706,-0.280,-0.100
8.708,-0.265,-0.105
8.710,-0.245,-0.115
8.712,-0.095,-0.120
8.714,0.075,-0.125
8.716,0.185,-0.125
8.718,0.170,-0.125
8.720,0.065,-0.125
8.722,-0.105,-0.125
8.724,-0.295,-0.125
8.726,-0.355,-0.130
8.728,-0.365,-0.130
8.730,-0.310,-0.130
8.732,-0.100,-0.125
8.734,0.100,-0.120
8.736,0.190,-0.115
8.738,0.165,-0.105
8.740,0.145,-0.095
8.742,-0.095,-0.090
8.744,-0.295,-0.095
8.746,-0.350,-0.100
8.748,-0.330,-0.110
8.750,-0.300,-0.125
8.752,-0.095,-0.135
8.754,0.120,-0.140
8.756,0.175,-0.145
8.758,0.085,-0.135
8.760,0.060,-0.130
8.762,-0.105,-0.115
8.764,-0.310,-0.105
8.766,-0.380,-0.100
8.768,-0.360,-0.100
8.770,-0.245,-0.105
8.772,-0.085,-0.115
8.774,0.080,-0.125
8.776,0.085,-0.135
8.778,0.105,-0.140
8.780,0.055,-0.140
8.782,-0.140,-0.130
8.784,-0.310,-0.120
8.786,-0.355,-0.105
8.788,-0.350,-0.100
8.790,-0.260,-0.095
8.792,-0.030,-0.100
8.794,0.130,-0.110
8.796,0.150,-0.125
8.798,0.065,-0.145
8.800,-0.020,-0.155
8.802,-0.235,-0.165
8.804,-0.390,-0.170
8.806,-0.420,-0.165
8.808,-0.350,-0.160
8.810,-0.275,-0.150
8.812,-0.135,-0.145
8.814,0.075,-0.135
8.816,0.090,-0.135
8.818,0.080,-0.130
8.820,0.035,-0.130
8.822,-0.200,-0.130
8.824,-0.330,-0.130
8.826,-0.415,-0.125
8.828,-0.330,-0.120
8.830,-0.260,-0.120
8.832,-0.075,-0.115
8.834,0.040,-0.115
8.836,0.105,-0.120
8.838,0.065,-0.125
8.840,-0.010,-0.135
8.842,-0.240,-0.145
8.844,-0.380,-0.155
8.846,-0.480,-0.160
8.848,-0.415,-0.165
8.850,-0.265,-0.165
8.852,-0.070,-0.165
8.854,0.090,-0.165
8.856,0.065,-0.160
8.858,0.030,-0.160
8.860,-0.070,-0.165
8.862,-0.285,-0.165
8.864,-0.455,-0.170
8.866,-0.480,-0.175
8.868,-0.390,-0.180
8.870,-0.300,-0.180
8.872,-0.110,-0.180
8.874,0.015,-0.175
8.876,0.010,-0.170
8.878,0.015,-0.170
8.880,-0.045,-0.165
8.882,-0.275,-0.165
8.884,-0.445,-0.165
8.886,-0.450,-0.165
8.888,-0.410,-0.170
8.890,-0.320,-0.175
8.892,-0.140,-0.180
8.894,0.045,-0.180
8.896,0.050,-0.180
8.898,-0.025,-0.180
8.900,-0.105,-0.175
8.902,-0.280,-0.170
8.904,-0.460,-0.165
8.906,-0.460,-0.160
8.908,-0.400,-0.160
8.910,-0.305,-0.165
8.912,-0.115,-0.170
8.914,0.080,-0.175
8.916,0.055,-0.180
8.918,-0.070,-0.185
8.920,-0.165,-0.185
8.922,-0.360,-0.180
8.924,-0.485,-0.170
8.926,-0.425,-0.160
8.928,-0.395,-0.150
8.930,-0.270,-0.145
8.932,-0.075,-0.140
8.934,0.030,-0.140
8.936,0.055,-0.145
8.938,0.005,-0.145
8.940,-0.145,-0.150
8.942,-0.335,-0.150
8.944,-0.485,-0.150
8.946,-0.480,-0.145
8.948,-0.435,-0.145
8.950,-0.195,-0.140
8.952,-0.060,-0.135
8.954,0.070,-0.130
8.956,0.065,-0.125
8.958,0.035,-0.125
8.960,-0.140,-0.120
8.962,-0.330,-0.120
8.964,-0.450,-0.115
8.966,-0.440,-0.115
8.968,-0.350,-0.115
8.970,-0.200,-0.115
8.972,-0.040,-0.120
8.974,0.040,-0.125
8.976,-0.010,-0.130
8.978,-0.015,-0.135
8.980,-0.140,-0.135
8.982,-0.355,-0.135
8.984,-0.450,-0.125
8.986,-0.375,-0.120
8.988,-0.360,-0.115
8.990,-0.175,-0.110
8.992,-0.060,-0.120
8.994,0.055,-0.130
8.996,-0.030,-0.150
8.998,-0.080,-0.170
9.000,-0.255,-0.190
9.002,-0.430,-0.205
9.004,-0.520,-0.215
9.006,-0.510,-0.210
9.008,-0.425,-0.200
9.010,-0.240,-0.180
9.012,-0.050,-0.165
9.014,0.015,-0.150
9.016,-0.020,-0.140
9.018,-0.055,-0.145
9.020,-0.250,-0.155
9.022,-0.435,-0.170
9.024,-0.555,-0.185
9.026,-0.490,-0.195
9.028,-0.505,-0.205
9.030,-0.240,-0.200
9.032,-0.060,-0.190
9.034,0.005,-0.175
9.036,-0.045,-0.160
9.038,-0.045,-0.150
9.040,-0.260,-0.145
9.042,-0.440,-0.150
9.044,-0.495,-0.160
9.046,-0.530,-0.175
9.048,-0.485,-0.190
9.050,-0.240,-0.200
9.052,-0.080,-0.210
9.054,-0.075,-0.205
9.056,-0.085,-0.200
9.058,-0.120,-0.190
9.060,-0.235,-0.180
9.062,-0.410,-0.170
9.064,-0.485,-0.165
9.066,-0.545,-0.165
9.068,-0.460,-0.170
9.070,-0.255,-0.175
9.072,-0.090,-0.175
9.074,-0.020,-0.180
9.076,-0.065,-0.185
9.078,-0.100,-0.185
9.080,-0.305,-0.190
9.082,-0.485,-0.200
9.084,-0.560,-0.210
9.086,-0.535,-0.225
9.088,-0.530,-0.240
9.090,-0.325,-0.245
9.092,-0.200,-0.235
9.094,-0.060,-0.205
9.096,-0.020,-0.145
9.098,-0.030,-0.060
9.100,-0.055,0.055
9.102,-0.060,0.195
9.104,0.000,0.345
9.106,0.205,0.495
9.108,0.415,0.635
9.110,0.750,0.750
9.112,0.960,0.835
9.114,0.980,0.870
9.116,0.925,0.865
9.118,0.905,0.815
9.120,0.705,0.720
9.122,0.445,0.600
9.124,0.075,0.465
9.126,-0.165,0.325
9.128,-0.205,0.195
9.130,-0.040,0.080
9.132,0.020,-0.010
9.134,0.065,-0.070
9.136,0.000,-0.110
9.138,-0.055,-0.130
9.140,-0.285,-0.130
9.142,-0.455,-0.125
9.144,-0.495,-0.120
9.146,-0.470,-0.115
9.148,-0.355,-0.110
9.150,-0.155,-0.115
9.152,-0.010,-0.120
9.154,0.000,-0.130
9.156,-0.015,-0.135
9.158,-0.155,-0.140
9.160,-0.340,-0.140
9.162,-0.515,-0.140
9.164,-0.535,-0.140
9.166,-0.495,-0.135
9.168,-0.390,-0.130
9.170,-0.160,-0.125
9.172,-0.015,-0.125
9.174,0.040,-0.125
9.176,-0.030,-0.125
9.178,-0.180,-0.125
9.180,-0.395,-0.130
9.182,-0.490,-0.130
9.184,-0.510,-0.135
9.186,-0.460,-0.140
9.188,-0.375,-0.145
9.190,-0.180,-0.150
9.192,0.000,-0.150
9.194,0.040,-0.150
9.196,-0.100,-0.145
9.198,-0.215,-0.145
9.200,-0.425,-0.135
9.202,-0.565,-0.130
9.204,-0.475,-0.125
9.206,-0.395,-0.120
9.208,-0.320,-0.115
9.210,-0.115,-0.110
9.212,0.060,-0.110
9.214,0.040,-0.105
9.216,-0.050,-0.100
9.218,-0.205,-0.100
9.220,-0.345,-0.095
9.222,-0.470,-0.095
9.224,-0.495,-0.090
9.226,-0.430,-0.090
9.228,-0.300,-0.095
9.230,-0.070,-0.095
9.232,0.010,-0.100
9.234,0.020,-0.105
9.236,-0.055,-0.110
9.238,-0.200,-0.110
9.240,-0.360,-0.110
9.242,-0.470,-0.105
9.244,-0.470,-0.100
9.246,-0.425,-0.090
9.248,-0.295,-0.085
9.250,-0.080,-0.085
9.252,0.040,-0.080
9.254,0.040,-0.080
9.256,-0.050,-0.085
9.258,-0.185,-0.090
9.260,-0.350,-0.090
9.262,-0.505,-0.095
9.264,-0.520,-0.095
9.266,-0.395,-0.090
9.268,-0.215,-0.085
9.270,-0.035,-0.075
9.272,0.070,-0.065
9.274,0.040,-0.055
9.276,0.010,-0.045
9.278,-0.140,-0.035
9.280,-0.340,-0.030
9.282,-0.495,-0.030
9.284,-0.420,-0.030
9.286,-0.355,-0.035
9.288,-0.155,-0.035
9.290,0.025,-0.040
9.292,0.065,-0.040
9.294,0.075,-0.040
9.296,0.010,-0.035
9.298,-0.115,-0.025
9.300,-0.300,-0.015
9.302,-0.410,-0.005
9.304,-0.405,0.000
9.306,-0.350,0.005
9.308,-0.130,0.005
9.310,0.025,0.005
9.312,0.115,0.000
9.314,0.070,-0.010
9.316,0.005,-0.015
9.318,-0.155,-0.020
9.320,-0.340,-0.020
9.322,-0.460,-0.015
9.324,-0.395,-0.010
9.326,-0.295,0.000
9.328,-0.110,0.010
9.330,0.085,0.025
9.332,0.170,0.035
9.334,0.175,0.045
9.336,0.130,0.060
9.338,-0.095,0.070
9.340,-0.320,0.080
9.342,-0.345,0.090
9.344,-0.265,0.100
9.346,-0.215,0.105
9.348,-0.035,0.105
9.350,0.130,0.105
9.352,0.230,0.105
9.354,0.155,0.100
9.356,0.120,0.100
9.358,-0.065,0.100
9.360,-0.215,0.100
9.362,-0.280,0.105
9.364,-0.245,0.110
9.366,-0.195,0.120
9.368,0.035,0.130
9.370,0.200,0.140
9.372,0.230,0.150
9.374,0.275,0.155
9.376,0.210,0.155
9.378,-0.050,0.155
9.380,-0.255,0.150
9.382,-0.225,0.145
9.384,-0.205,0.140
9.386,-0.165,0.140
9.388,0.030,0.135
9.390,0.210,0.135
9.392,0.245,0.135
9.394,0.225,0.130
9.396,0.165,0.130
9.398,-0.065,0.120
9.400,-0.255,0.115
9.402,-0.335,0.100
9.404,-0.270,0.090
9.406,-0.220,0.075
9.408,-0.015,0.065
9.410,0.115,0.050
9.412,0.140,0.040
9.414,0.085,0.035
9.416,0.020,0.025
9.418,-0.195,0.020
9.420,-0.380,0.010
9.422,-0.385,0.000
9.424,-0.345,-0.005
9.426,-0.305,-0.015
9.428,-0.090,-0.025
9.430,0.090,-0.035
9.432,0.070,-0.040
9.434,-0.015,-0.045
9.436,-0.085,-0.050
9.438,-0.230,-0.050
9.440,-0.440,-0.050
9.442,-0.450,-0.055
9.444,-0.405,-0.055
9.446,-0.335,-0.060
9.448,-0.205,-0.065
9.450,0.005,-0.070
9.452,0.100,-0.075
9.454,0.035,-0.075
9.456,-0.115,-0.075
9.458,-0.350,-0.075
9.460,-0.495,-0.075
9.462,-0.440,-0.075
9.464,-0.420,-0.075
9.466,-0.315,-0.075
9.468,-0.140,-0.075
9.470,0.030,-0.080
9.472,0.055,-0.080
9.474,-0.050,-0.080
9.476,-0.115,-0.080
9.478,-0.320,-0.075
9.480,-0.485,-0.070
9.482,-0.445,-0.065
9.484,-0.420,-0.065
9.486,-0.315,-0.065
9.488,-0.105,-0.070
9.490,0.005,-0.075
9.492,0.020,-0.080
9.494,-0.030,-0.090
9.496,-0.155,-0.095
9.498,-0.325,-0.100
9.500,-0.480,-0.100
9.502,-0.510,-0.100
9.504,-0.425,-0.090
9.506,-0.315,-0.085
9.508,-0.105,-0.075
9.510,0.015,-0.070
9.512,0.040,-0.060
9.514,0.065,-0.055
9.516,-0.070,-0.055
9.518,-0.325,-0.055
9.520,-0.475,-0.060
9.522,-0.450,-0.065
9.524,-0.435,-0.075
9.526,-0.305,-0.085
9.528,-0.120,-0.100
9.530,0.045,-0.110
9.532,-0.030,-0.120
9.534,-0.045,-0.120
9.536,-0.150,-0.120
9.538,-0.320,-0.115
9.540,-0.440,-0.100
9.542,-0.450,-0.085
9.544,-0.400,-0.075
9.546,-0.235,-0.060
9.548,-0.110,-0.050
9.550,0.055,-0.045
9.552,0.060,-0.050
9.554,0.005,-0.050
9.556,-0.150,-0.060
9.558,-0.325,-0.065
9.560,-0.460,-0.070
9.562,-0.470,-0.075
9.564,-0.410,-0.075
9.566,-0.235,-0.075
9.568,-0.075,-0.075
9.570,0.025,-0.070
9.572,0.030,-0.065
9.574,0.005,-0.060
9.576,-0.145,-0.055
9.578,-0.330,-0.050
9.580,-0.395,-0.050
9.582,-0.425,-0.045
9.584,-0.400,-0.045
9.586,-0.255,-0.045
9.588,-0.015,-0.050
9.590,0.085,-0.055
9.592,0.040,-0.065
9.594,-0.010,-0.070
9.596,-0.160,-0.075
9.598,-0.315,-0.075
9.600,-0.425,-0.075
9.602,-0.415,-0.070
9.604,-0.375,-0.060
9.606,-0.185,-0.050
9.608,0.015,-0.040
9.610,0.085,-0.030
9.612,0.045,-0.025
9.614,0.020,-0.020
9.616,-0.115,-0.020
9.618,-0.275,-0.015
9.620,-0.385,-0.015
9.622,-0.400,-0.015
9.624,-0.380,-0.020
9.626,-0.145,-0.020
9.628,0.020,-0.020
9.630,0.140,-0.025
9.632,0.120,-0.030
9.634,0.010,-0.035
9.636,-0.155,-0.035
9.638,-0.345,-0.040
9.640,-0.410,-0.040
9.642,-0.405,-0.040
9.644,-0.345,-0.040
9.646,-0.110,-0.035
9.648,0.070,-0.035
9.650,0.135,-0.030
9.652,0.080,-0.030
9.654,0.015,-0.030
9.656,-0.155,-0.035
9.658,-0.325,-0.035
9.660,-0.415,-0.035
9.662,-0.400,-0.035
9.664,-0.330,-0.030
9.666,-0.070,-0.025
9.668,0.100,-0.020
9.670,0.140,-0.010
9.672,0.085,-0.005
9.674,0.055,-0.005
9.676,-0.165,-0.010
9.678,-0.330,-0.010
9.680,-0.390,-0.020
9.682,-0.305,-0.025
9.684,-0.280,-0.030
9.686,-0.085,-0.030
9.688,0.080,-0.030
9.690,0.150,-0.025
9.692,0.135,-0.015
9.694,0.045,-0.005
9.696,-0.155,0.005
9.698,-0.265,0.010
9.700,-0.340,0.020
9.702,-0.265,0.020
9.704,-0.205,0.020
9.706,-0.010,0.020
9.708,0.110,0.020
9.710,0.145,0.020
9.712,0.150,0.025
9.714,0.120,0.025
9.716,-0.120,0.030
9.718,-0.250,0.035
9.720,-0.315,0.040
9.722,-0.290,0.045
9.724,-0.170,0.050
9.726,0.020,0.060
9.728,0.225,0.065
9.730,0.275,0.075
9.732,0.235,0.080
9.734,0.100,0.080
9.736,-0.095,0.075
9.738,-0.265,0.070
9.740,-0.275,0.055
9.742,-0.240,0.040
9.744,-0.215,0.020
9.746,-0.030,0.005
9.748,0.140,-0.010
9.750,0.185,-0.020
9.752,0.125,-0.025
9.754,0.030,-0.025
9.756,-0.180,-0.020
9.758,-0.340,-0.015
9.760,-0.330,-0.005
9.762,-0.320,0.000
9.764,-0.195,0.005
9.766,0.025,0.005
9.768,0.195,0.010
9.770,0.215,0.010
9.772,0.150,0.010
9.774,0.050,0.010
9.776,-0.155,0.010
9.778,-0.305,0.010
9.780,-0.295,0.010
9.782,-0.265,0.010
9.784,-0.170,0.010
9.786,0.015,0.005
9.788,0.170,0.005
9.790,0.225,0.005
9.792,0.155,0.010
9.794,0.045,0.010
9.796,-0.140,0.015
9.798,-0.275,0.020
9.800,-0.305,0.020
9.802,-0.255,0.020
9.804,-0.100,0.020
9.806,0.100,0.015
9.808,0.190,0.010
9.810,0.195,0.010
9.812,0.140,0.010
9.814,0.040,0.015
9.816,-0.105,0.020
9.818,-0.240,0.025
9.820,-0.275,0.030
9.822,-0.185,0.035
9.824,-0.090,0.030
9.826,0.040,0.025
9.828,0.170,0.015
9.830,0.210,0.005
9.832,0.190,-0.005
9.834,0.055,-0.020
9.836,-0.230,-0.025
9.838,-0.385,-0.030
9.840,-0.345,-0.030
9.842,-0.325,-0.015
9.844,-0.060,0.005
9.846,0.150,0.050
9.848,0.345,0.110
9.850,0.415,0.195
9.852,0.470,0.310
9.854,0.460,0.440
9.856,0.435,0.590
9.858,0.525,0.740
9.860,0.655,0.885
9.862,0.795,1.000
9.864,1.000,1.075
9.866,1.185,1.105
9.868,1.360,1.080
9.870,1.375,1.005
9.872,1.250,0.890
9.874,0.785,0.750
9.876,0.280,0.595
9.878,-0.005,0.450
9.880,-0.080,0.315
9.882,-0.095,0.210
9.884,0.050,0.135
9.886,0.235,0.090
9.888,0.355,0.070
9.890,0.300,0.065
9.892,0.255,0.075
9.894,0.085,0.085
9.896,-0.115,0.100
9.898,-0.165,0.110
9.900,-0.135,0.110
9.902,-0.115,0.110
9.904,0.045,0.105
9.906,0.205,0.095
9.908,0.320,0.085
9.910,0.270,0.075
9.912,0.265,0.065
9.914,0.100,0.060
9.916,-0.115,0.060
9.918,-0.190,0.060
9.920,-0.175,0.065
9.922,-0.115,0.070
9.924,0.065,0.075
9.926,0.190,0.080
9.928,0.290,0.080
9.930,0.280,0.075
9.932,0.315,0.075
9.934,0.075,0.070
9.936,-0.140,0.070
9.938,-0.195,0.070
9.940,-0.085,0.070
9.942,-0.080,0.080
9.944,0.090,0.085
9.946,0.260,0.095
9.948,0.345,0.105
9.950,0.345,0.110
9.952,0.290,0.115
9.954,0.095,0.110
9.956,-0.055,0.105
9.958,-0.165,0.100
9.960,-0.120,0.090
9.962,-0.055,0.085
9.964,0.120,0.080
9.966,0.290,0.080
9.968,0.330,0.085
9.970,0.295,0.085
9.972,0.300,0.095
9.974,0.115,0.100
9.976,-0.045,0.105
9.978,-0.110,0.110
9.980,-0.060,0.115
9.982,0.000,0.120
9.984,0.135,0.120
9.986,0.330,0.120
9.988,0.360,0.120
9.990,0.335,0.115
9.992,0.320,0.110
9.994,0.125,0.105
9.996,-0.075,0.100
9.998,-0.125,0.095
