'Elapsed time','ECG I','ECG I filtered'
'seconds','mV','mV'
0.000,-0.185,-0.020
0.002,-0.245,-0.040
0.004,-0.220,-0.055
0.006,-0.215,-0.065
0.008,-0.200,-0.070
0.010,-0.240,-0.065
0.012,-0.215,-0.065
0.014,-0.190,-0.055
0.016,-0.185,-0.050
0.018,-0.215,-0.045
0.020,-0.225,-0.045
0.022,-0.180,-0.040
0.024,-0.175,-0.040
0.026,-0.235,-0.040
0.028,-0.195,-0.040
0.030,-0.220,-0.035
0.032,-0.175,-0.035
0.034,-0.180,-0.030
0.036,-0.215,-0.030
0.038,-0.205,-0.035
0.040,-0.225,-0.035
0.042,-0.235,-0.045
0.044,-0.210,-0.050
0.046,-0.190,-0.055
0.048,-0.190,-0.060
0.050,-0.190,-0.060
0.052,-0.190,-0.050
0.054,-0.215,-0.045
0.056,-0.195,-0.035
0.058,-0.220,-0.025
0.060,-0.190,-0.020
0.062,-0.230,-0.020
0.064,-0.155,-0.025
0.066,-0.160,-0.035
0.068,-0.215,-0.040
0.070,-0.190,-0.045
0.072,-0.215,-0.050
0.074,-0.250,-0.050
0.076,-0.225,-0.045
0.078,-0.190,-0.040
0.080,-0.160,-0.035
0.082,-0.150,-0.030
0.084,-0.170,-0.025
0.086,-0.230,-0.030
0.088,-0.225,-0.030
0.090,-0.220,-0.035
0.092,-0.140,-0.040
0.094,-0.170,-0.045
0.096,-0.200,-0.045
0.098,-0.200,-0.045
0.100,-0.195,-0.045
0.102,-0.200,-0.045
0.104,-0.255,-0.045
0.106,-0.220,-0.050
0.108,-0.195,-0.050
0.110,-0.195,-0.055
0.112,-0.180,-0.060
0.114,-0.215,-0.065
0.116,-0.210,-0.065
0.118,-0.210,-0.065
0.120,-0.235,-0.060
0.122,-0.205,-0.055
0.124,-0.205,-0.055
0.126,-0.190,-0.055
0.128,-0.200,-0.055
0.130,-0.185,-0.060
0.132,-0.250,-0.060
0.134,-0.225,-0.065
0.136,-0.170,-0.065
0.138,-0.215,-0.060
0.140,-0.220,-0.055
0.142,-0.200,-0.045
0.144,-0.165,-0.035
0.146,-0.195,-0.030
0.148,-0.145,-0.025
0.150,-0.155,-0.030
0.152,-0.200,-0.035
0.154,-0.265,-0.045
0.156,-0.260,-0.060
0.158,-0.220,-0.075
0.160,-0.240,-0.085
0.162,-0.210,-0.090
0.164,-0.165,-0.085
0.166,-0.220,-0.080
0.168,-0.225,-0.070
0.170,-0.210,-0.060
0.172,-0.180,-0.055
0.174,-0.175,-0.050
0.176,-0.215,-0.050
0.178,-0.250,-0.055
0.180,-0.270,-0.060
0.182,-0.270,-0.070
0.184,-0.210,-0.075
0.186,-0.175,-0.080
0.188,-0.210,-0.075
0.190,-0.200,-0.070
0.192,-0.145,-0.060
0.194,-0.220,-0.050
0.196,-0.185,-0.040
0.198,-0.185,-0.035
0.200,-0.200,-0.035
0.202,-0.185,-0.035
0.204,-0.210,-0.045
0.206,-0.245,-0.055
0.208,-0.240,-0.065
0.210,-0.225,-0.070
0.212,-0.180,-0.075
0.214,-0.180,-0.075
0.216,-0.190,-0.070
0.218,-0.175,-0.065
0.220,-0.250,-0.055
0.222,-0.230,-0.050
0.224,-0.175,-0.050
0.226,-0.185,-0.045
0.228,-0.230,-0.050
0.230,-0.230,-0.050
0.232,-0.240,-0.055
0.234,-0.270,-0.060
0.236,-0.185,-0.060
0.238,-0.145,-0.060
0.240,-0.165,-0.060
0.242,-0.220,-0.055
0.244,-0.195,-0.050
0.246,-0.175,-0.045
0.248,-0.195,-0.040
0.250,-0.200,-0.035
0.252,-0.215,-0.035
0.254,-0.185,-0.035
0.256,-0.150,-0.035
0.258,-0.110,-0.040
0.260,-0.190,-0.045
0.262,-0.205,-0.045
0.264,-0.210,-0.045
0.266,-0.165,-0.045
0.268,-0.220,-0.035
0.270,-0.195,-0.025
0.272,-0.135,-0.015
0.274,-0.135,-0.005
0.276,-0.130,0.005
0.278,-0.160,0.005
0.280,-0.175,0.005
0.282,-0.170,-0.005
0.284,-0.175,-0.015
0.286,-0.155,-0.030
0.288,-0.165,-0.040
0.290,-0.155,-0.050
0.292,-0.220,-0.050
0.294,-0.195,-0.045
0.296,-0.165,-0.040
0.298,-0.175,-0.025
0.300,-0.170,-0.015
0.302,-0.130,-0.010
0.304,-0.135,-0.010
0.306,-0.165,-0.015
0.308,-0.200,-0.025
0.310,-0.180,-0.035
0.312,-0.255,-0.050
0.314,-0.210,-0.065
0.316,-0.165,-0.075
0.318,-0.180,-0.085
0.320,-0.225,-0.085
0.322,-0.235,-0.085
0.324,-0.265,-0.085
0.326,-0.290,-0.080
0.328,-0.255,-0.080
0.330,-0.195,-0.080
0.332,-0.190,-0.085
0.334,-0.230,-0.090
0.336,-0.215,-0.090
0.338,-0.230,-0.090
0.340,-0.310,-0.090
0.342,-0.235,-0.090
0.344,-0.155,-0.080
0.346,-0.185,-0.075
0.348,-0.290,-0.070
0.350,-0.235,-0.070
0.352,-0.195,-0.065
0.354,-0.205,-0.070
0.356,-0.200,-0.070
0.358,-0.145,-0.070
0.360,-0.165,-0.070
0.362,-0.235,-0.070
0.364,-0.250,-0.070
0.366,-0.195,-0.075
0.368,-0.230,-0.085
0.370,-0.295,-0.100
0.372,-0.320,-0.120
0.374,-0.315,-0.155
0.376,-0.315,-0.190
0.378,-0.340,-0.225
0.380,-0.370,-0.255
0.382,-0.455,-0.270
0.384,-0.500,-0.265
0.386,-0.455,-0.240
0.388,-0.335,-0.190
0.390,-0.240,-0.115
0.392,-0.095,-0.015
0.394,0.035,0.100
0.396,0.090,0.230
0.398,0.220,0.370
0.400,0.375,0.515
0.402,0.555,0.675
0.404,0.715,0.840
0.406,0.835,1.005
0.408,1.035,1.165
0.410,1.240,1.315
0.412,1.370,1.435
0.414,1.465,1.510
0.416,1.505,1.530
0.418,1.460,1.480
0.420,1.235,1.365
0.422,1.030,1.180
0.424,0.845,0.950
0.426,0.480,0.695
0.428,0.195,0.440
0.430,-0.035,0.205
0.432,-0.210,0.020
0.434,-0.280,-0.110
0.436,-0.275,-0.180
0.438,-0.325,-0.200
0.440,-0.315,-0.185
0.442,-0.295,-0.155
0.444,-0.245,-0.115
0.446,-0.250,-0.090
0.448,-0.270,-0.075
0.450,-0.205,-0.080
0.452,-0.215,-0.090
0.454,-0.280,-0.110
0.456,-0.260,-0.120
0.458,-0.235,-0.125
0.460,-0.185,-0.115
0.462,-0.185,-0.105
0.464,-0.180,-0.090
0.466,-0.225,-0.075
0.468,-0.230,-0.070
0.470,-0.215,-0.070
0.472,-0.275,-0.075
0.474,-0.265,-0.085
0.476,-0.170,-0.095
0.478,-0.235,-0.100
0.480,-0.230,-0.100
0.482,-0.195,-0.095
0.484,-0.205,-0.085
0.486,-0.230,-0.075
0.488,-0.190,-0.070
0.490,-0.235,-0.065
0.492,-0.230,-0.065
0.494,-0.180,-0.065
0.496,-0.205,-0.070
0.498,-0.195,-0.070
0.500,-0.170,-0.065
0.502,-0.190,-0.060
0.504,-0.145,-0.050
0.506,-0.165,-0.040
0.508,-0.185,-0.030
0.510,-0.160,-0.025
0.512,-0.180,-0.020
0.514,-0.155,-0.020
0.516,-0.185,-0.020
0.518,-0.210,-0.025
0.520,-0.130,-0.025
0.522,-0.135,-0.025
0.524,-0.160,-0.020
0.526,-0.145,-0.015
0.528,-0.120,-0.010
0.530,-0.155,-0.010
0.532,-0.140,-0.005
0.534,-0.095,-0.005
0.536,-0.155,-0.005
0.538,-0.185,-0.005
0.540,-0.160,-0.005
0.542,-0.115,0.000
0.544,-0.085,0.005
0.546,-0.110,0.010
0.548,-0.095,0.020
0.550,-0.130,0.025
0.552,-0.100,0.035
0.554,-0.075,0.045
0.556,-0.100,0.050
0.558,-0.110,0.060
0.560,-0.075,0.060
0.562,-0.035,0.065
0.564,-0.065,0.065
0.566,-0.030,0.065
0.568,-0.075,0.060
0.570,-0.125,0.060
0.572,-0.080,0.060
0.574,-0.065,0.060
0.576,-0.030,0.070
0.578,-0.030,0.080
0.580,-0.065,0.100
0.582,-0.035,0.125
0.584,-0.020,0.150
0.586,0.095,0.175
0.588,0.165,0.195
0.590,0.065,0.215
0.592,0.075,0.225
0.594,0.130,0.230
0.596,0.145,0.235
0.598,0.085,0.235
0.600,0.075,0.235
0.602,0.105,0.240
0.604,0.130,0.245
0.606,0.160,0.255
0.608,0.155,0.265
0.610,0.115,0.275
0.612,0.150,0.290
0.614,0.175,0.300
0.616,0.155,0.310
0.618,0.195,0.315
0.620,0.195,0.320
0.622,0.165,0.320
0.624,0.160,0.315
0.626,0.175,0.305
0.628,0.180,0.295
0.630,0.140,0.285
0.632,0.095,0.270
0.634,0.100,0.255
0.636,0.130,0.240
0.638,0.125,0.230
0.640,0.130,0.220
0.642,0.145,0.215
0.644,0.055,0.210
0.646,0.035,0.205
0.648,0.080,0.200
0.650,0.040,0.195
0.652,0.045,0.185
0.654,0.050,0.175
0.656,0.040,0.155
0.658,-0.040,0.135
0.660,-0.005,0.110
0.662,-0.050,0.090
0.664,-0.105,0.070
0.666,-0.130,0.050
0.668,-0.080,0.035
0.670,-0.060,0.025
0.672,-0.070,0.020
0.674,-0.140,0.015
0.676,-0.185,0.010
0.678,-0.150,0.005
0.680,-0.100,-0.005
0.682,-0.135,-0.010
0.684,-0.170,-0.025
0.686,-0.155,-0.035
0.688,-0.180,-0.045
0.690,-0.200,-0.055
0.692,-0.195,-0.060
0.694,-0.215,-0.065
0.696,-0.205,-0.070
0.698,-0.200,-0.070
0.700,-0.180,-0.070
0.702,-0.215,-0.070
0.704,-0.230,-0.075
0.706,-0.205,-0.075
0.708,-0.150,-0.080
0.710,-0.220,-0.080
0.712,-0.220,-0.085
0.714,-0.190,-0.085
0.716,-0.225,-0.085
0.718,-0.275,-0.085
0.720,-0.210,-0.085
0.722,-0.220,-0.085
0.724,-0.195,-0.090
0.726,-0.260,-0.090
0.728,-0.190,-0.095
0.730,-0.175,-0.100
0.732,-0.255,-0.100
0.734,-0.285,-0.105
0.736,-0.225,-0.100
0.738,-0.205,-0.100
0.740,-0.195,-0.090
0.742,-0.180,-0.085
0.744,-0.165,-0.075
0.746,-0.215,-0.070
0.748,-0.195,-0.065
0.750,-0.180,-0.065
0.752,-0.210,-0.070
0.754,-0.180,-0.080
0.756,-0.255,-0.085
0.758,-0.265,-0.095
0.760,-0.230,-0.100
0.762,-0.210,-0.105
0.764,-0.235,-0.100
0.766,-0.250,-0.095
0.768,-0.200,-0.090
0.770,-0.220,-0.085
0.772,-0.195,-0.080
0.774,-0.210,-0.080
0.776,-0.210,-0.080
0.778,-0.195,-0.080
0.780,-0.175,-0.085
0.782,-0.230,-0.090
0.784,-0.250,-0.095
0.786,-0.255,-0.100
0.788,-0.200,-0.100
0.790,-0.215,-0.100
0.792,-0.225,-0.100
0.794,-0.220,-0.095
0.796,-0.205,-0.090
0.798,-0.205,-0.085
0.800,-0.175,-0.075
0.802,-0.250,-0.070
0.804,-0.165,-0.060
0.806,-0.170,-0.055
0.808,-0.175,-0.050
0.810,-0.190,-0.050
0.812,-0.185,-0.055
0.814,-0.230,-0.060
0.816,-0.240,-0.070
0.818,-0.195,-0.080
0.820,-0.165,-0.090
0.822,-0.220,-0.100
0.824,-0.200,-0.105
0.826,-0.240,-0.100
0.828,-0.230,-0.095
0.830,-0.230,-0.085
0.832,-0.185,-0.070
0.834,-0.190,-0.060
0.836,-0.200,-0.055
0.838,-0.220,-0.055
0.840,-0.195,-0.060
0.842,-0.190,-0.065
0.844,-0.215,-0.080
0.846,-0.210,-0.090
0.848,-0.175,-0.100
0.850,-0.230,-0.100
0.852,-0.210,-0.100
0.854,-0.230,-0.090
0.856,-0.305,-0.085
0.858,-0.235,-0.075
0.860,-0.140,-0.065
0.862,-0.160,-0.060
0.864,-0.205,-0.060
0.866,-0.220,-0.060
0.868,-0.185,-0.065
0.870,-0.200,-0.070
0.872,-0.170,-0.070
0.874,-0.230,-0.070
0.876,-0.220,-0.070
0.878,-0.175,-0.070
0.880,-0.155,-0.070
0.882,-0.180,-0.070
0.884,-0.190,-0.070
0.886,-0.195,-0.075
0.888,-0.250,-0.080
0.890,-0.245,-0.085
0.892,-0.220,-0.090
0.894,-0.200,-0.095
0.896,-0.230,-0.095
0.898,-0.155,-0.090
0.900,-0.155,-0.090
0.902,-0.235,-0.090
0.904,-0.215,-0.090
0.906,-0.200,-0.090
0.908,-0.275,-0.090
0.910,-0.285,-0.090
0.912,-0.205,-0.085
0.914,-0.210,-0.080
0.916,-0.220,-0.075
0.918,-0.230,-0.075
0.920,-0.135,-0.070
0.922,-0.150,-0.070
0.924,-0.250,-0.075
0.926,-0.295,-0.080
0.928,-0.230,-0.090
0.930,-0.240,-0.100
0.932,-0.165,-0.110
0.934,-0.245,-0.110
0.936,-0.290,-0.110
0.938,-0.220,-0.105
0.940,-0.230,-0.095
0.942,-0.265,-0.090
0.944,-0.185,-0.085
0.946,-0.220,-0.085
0.948,-0.220,-0.085
0.950,-0.205,-0.090
0.952,-0.240,-0.100
0.954,-0.245,-0.105
0.956,-0.300,-0.110
0.958,-0.260,-0.110
0.960,-0.175,-0.105
0.962,-0.200,-0.095
0.964,-0.220,-0.085
0.966,-0.200,-0.075
0.968,-0.215,-0.070
0.970,-0.235,-0.070
0.972,-0.210,-0.075
0.974,-0.185,-0.080
0.976,-0.225,-0.090
0.978,-0.225,-0.100
0.980,-0.225,-0.110
0.982,-0.225,-0.115
0.984,-0.220,-0.120
0.986,-0.215,-0.120
0.988,-0.250,-0.115
0.990,-0.240,-0.110
0.992,-0.230,-0.100
0.994,-0.235,-0.095
0.996,-0.230,-0.085
0.998,-0.175,-0.075
1.000,-0.180,-0.065
1.002,-0.195,-0.055
1.004,-0.175,-0.045
1.006,-0.145,-0.040
1.008,-0.160,-0.035
1.010,-0.180,-0.035
1.012,-0.185,-0.040
1.014,-0.200,-0.050
1.016,-0.245,-0.060
1.018,-0.225,-0.065
1.020,-0.200,-0.070
1.022,-0.205,-0.075
1.024,-0.160,-0.070
1.026,-0.165,-0.065
1.028,-0.195,-0.055
1.030,-0.200,-0.045
1.032,-0.150,-0.040
1.034,-0.140,-0.035
1.036,-0.150,-0.030
1.038,-0.140,-0.035
1.040,-0.185,-0.035
1.042,-0.200,-0.045
1.044,-0.225,-0.055
1.046,-0.180,-0.060
1.048,-0.200,-0.065
1.050,-0.205,-0.070
1.052,-0.185,-0.075
1.054,-0.240,-0.075
1.056,-0.205,-0.070
1.058,-0.135,-0.070
1.060,-0.170,-0.065
1.062,-0.180,-0.060
1.064,-0.160,-0.060
1.066,-0.195,-0.055
1.068,-0.185,-0.055
1.070,-0.195,-0.060
1.072,-0.245,-0.070
1.074,-0.220,-0.080
1.076,-0.250,-0.095
1.078,-0.255,-0.110
1.080,-0.250,-0.125
1.082,-0.260,-0.135
1.084,-0.270,-0.140
1.086,-0.230,-0.135
1.088,-0.275,-0.130
1.090,-0.210,-0.115
1.092,-0.195,-0.105
1.094,-0.235,-0.095
1.096,-0.285,-0.090
1.098,-0.215,-0.090
1.100,-0.245,-0.105
1.102,-0.250,-0.120
1.104,-0.290,-0.140
1.106,-0.265,-0.160
1.108,-0.315,-0.170
1.110,-0.285,-0.170
1.112,-0.285,-0.165
1.114,-0.330,-0.150
1.116,-0.275,-0.135
1.118,-0.185,-0.125
1.120,-0.265,-0.125
1.122,-0.280,-0.140
1.124,-0.250,-0.170
1.126,-0.355,-0.205
1.128,-0.395,-0.240
1.130,-0.440,-0.265
1.132,-0.420,-0.265
1.134,-0.400,-0.245
1.136,-0.360,-0.195
1.138,-0.155,-0.120
1.140,-0.090,-0.020
1.142,-0.015,0.090
1.144,0.050,0.205
1.146,0.165,0.325
1.148,0.320,0.450
1.150,0.480,0.575
1.152,0.635,0.715
1.154,0.740,0.860
1.156,0.875,1.010
1.158,1.070,1.160
1.160,1.215,1.290
1.162,1.335,1.390
1.164,1.400,1.435
1.166,1.380,1.420
1.168,1.265,1.330
1.170,1.095,1.180
1.172,0.880,0.975
1.174,0.620,0.740
1.176,0.250,0.500
1.178,0.035,0.280
1.180,-0.145,0.095
1.182,-0.240,-0.040
1.184,-0.255,-0.125
1.186,-0.280,-0.160
1.188,-0.285,-0.165
1.190,-0.265,-0.150
1.192,-0.210,-0.130
1.194,-0.215,-0.110
1.196,-0.265,-0.105
1.198,-0.260,-0.100
1.200,-0.260,-0.105
1.202,-0.265,-0.115
1.204,-0.255,-0.120
1.206,-0.165,-0.120
1.208,-0.215,-0.115
1.210,-0.210,-0.110
1.212,-0.245,-0.100
1.214,-0.230,-0.095
1.216,-0.195,-0.090
1.218,-0.240,-0.085
1.220,-0.260,-0.085
1.222,-0.250,-0.085
1.224,-0.170,-0.085
1.226,-0.190,-0.085
1.228,-0.200,-0.085
1.230,-0.225,-0.085
1.232,-0.240,-0.085
1.234,-0.255,-0.085
1.236,-0.245,-0.090
1.238,-0.205,-0.095
1.240,-0.225,-0.100
1.242,-0.235,-0.105
1.244,-0.225,-0.105
1.246,-0.180,-0.100
1.248,-0.210,-0.090
1.250,-0.210,-0.080
1.252,-0.170,-0.070
1.254,-0.215,-0.060
1.256,-0.205,-0.055
1.258,-0.195,-0.050
1.260,-0.170,-0.050
1.262,-0.220,-0.050
1.264,-0.100,-0.050
1.266,-0.170,-0.055
1.268,-0.180,-0.055
1.270,-0.160,-0.050
1.272,-0.135,-0.045
1.274,-0.225,-0.040
1.276,-0.150,-0.035
1.278,-0.135,-0.025
1.280,-0.150,-0.025
1.282,-0.175,-0.020
1.284,-0.135,-0.020
1.286,-0.135,-0.025
1.288,-0.165,-0.025
1.290,-0.135,-0.030
1.292,-0.150,-0.030
1.294,-0.220,-0.030
1.296,-0.155,-0.025
1.298,-0.120,-0.020
1.300,-0.135,-0.015
1.302,-0.115,-0.005
1.304,-0.095,0.005
1.306,-0.145,0.015
1.308,-0.100,0.020
1.310,-0.070,0.030
1.312,-0.055,0.035
1.314,-0.030,0.040
1.316,-0.090,0.045
1.318,-0.125,0.055
1.320,-0.105,0.060
1.322,-0.060,0.070
1.324,-0.030,0.080
1.326,-0.040,0.090
1.328,0.015,0.100
1.330,0.055,0.110
1.332,-0.020,0.115
1.334,-0.040,0.125
1.336,-0.030,0.135
1.338,0.030,0.145
1.340,0.010,0.150
1.342,0.015,0.160
1.344,-0.005,0.165
1.346,-0.010,0.175
1.348,0.110,0.185
1.350,0.095,0.190
1.352,0.035,0.200
1.354,0.095,0.210
1.356,0.120,0.220
1.358,0.105,0.230
1.360,0.135,0.240
1.362,0.070,0.250
1.364,0.140,0.260
1.366,0.135,0.265
1.368,0.135,0.270
1.370,0.145,0.270
1.372,0.140,0.270
1.374,0.120,0.265
1.376,0.085,0.255
1.378,0.070,0.245
1.380,0.120,0.230
1.382,0.115,0.220
1.384,0.120,0.205
1.386,0.065,0.195
1.388,0.015,0.185
1.390,0.035,0.175
1.392,0.040,0.165
1.394,0.045,0.155
1.396,0.045,0.145
1.398,-0.035,0.135
1.400,-0.010,0.125
1.402,0.040,0.110
1.404,0.025,0.090
1.406,-0.115,0.075
1.408,-0.095,0.055
1.410,-0.100,0.040
1.412,-0.145,0.025
1.414,-0.165,0.015
1.416,-0.135,0.005
1.418,-0.100,-0.005
1.420,-0.090,-0.015
1.422,-0.130,-0.025
1.424,-0.180,-0.035
1.426,-0.190,-0.045
1.428,-0.180,-0.055
1.430,-0.245,-0.065
1.432,-0.230,-0.075
1.434,-0.165,-0.080
1.436,-0.180,-0.080
1.438,-0.205,-0.085
1.440,-0.205,-0.085
1.442,-0.185,-0.085
1.444,-0.250,-0.085
1.446,-0.230,-0.085
1.448,-0.195,-0.090
1.450,-0.220,-0.095
1.452,-0.245,-0.105
1.454,-0.230,-0.110
1.456,-0.265,-0.110
1.458,-0.225,-0.115
1.460,-0.250,-0.115
1.462,-0.280,-0.110
1.464,-0.240,-0.110
1.466,-0.235,-0.105
1.468,-0.240,-0.105
1.470,-0.230,-0.105
1.472,-0.230,-0.110
1.474,-0.225,-0.115
1.476,-0.270,-0.115
1.478,-0.260,-0.115
1.480,-0.215,-0.115
1.482,-0.190,-0.110
1.484,-0.205,-0.105
1.486,-0.220,-0.100
1.488,-0.240,-0.100
1.490,-0.260,-0.095
1.492,-0.305,-0.100
1.494,-0.285,-0.105
1.496,-0.225,-0.110
1.498,-0.170,-0.115
1.500,-0.135,-0.125
1.502,-0.235,-0.125
1.504,-0.255,-0.130
1.506,-0.235,-0.125
1.508,-0.245,-0.120
1.510,-0.270,-0.115
1.512,-0.260,-0.110
1.514,-0.215,-0.105
1.516,-0.245,-0.105
1.518,-0.245,-0.110
1.520,-0.250,-0.115
1.522,-0.230,-0.120
1.524,-0.230,-0.120
1.526,-0.250,-0.125
1.528,-0.235,-0.125
1.530,-0.235,-0.125
1.532,-0.270,-0.120
1.534,-0.260,-0.115
1.536,-0.215,-0.110
1.538,-0.205,-0.105
1.540,-0.195,-0.105
1.542,-0.200,-0.105
1.544,-0.250,-0.105
1.546,-0.270,-0.110
1.548,-0.240,-0.110
1.550,-0.230,-0.110
1.552,-0.270,-0.110
1.554,-0.200,-0.105
1.556,-0.210,-0.095
1.558,-0.230,-0.090
1.560,-0.280,-0.085
1.562,-0.190,-0.085
1.564,-0.210,-0.085
1.566,-0.255,-0.090
1.568,-0.245,-0.100
1.570,-0.225,-0.110
1.572,-0.260,-0.115
1.574,-0.230,-0.120
1.576,-0.250,-0.125
1.578,-0.240,-0.120
1.580,-0.305,-0.115
1.582,-0.205,-0.105
1.584,-0.215,-0.095
1.586,-0.210,-0.090
1.588,-0.210,-0.080
1.590,-0.240,-0.080
1.592,-0.220,-0.080
1.594,-0.230,-0.085
1.596,-0.260,-0.090
1.598,-0.185,-0.100
1.600,-0.165,-0.110
1.602,-0.220,-0.115
1.604,-0.305,-0.120
1.606,-0.270,-0.125
1.608,-0.270,-0.125
1.610,-0.255,-0.120
1.612,-0.225,-0.110
1.614,-0.145,-0.105
1.616,-0.155,-0.095
1.618,-0.255,-0.090
1.620,-0.270,-0.085
1.622,-0.230,-0.085
1.624,-0.200,-0.085
1.626,-0.210,-0.090
1.628,-0.235,-0.095
1.630,-0.265,-0.100
1.632,-0.235,-0.105
1.634,-0.215,-0.110
1.636,-0.185,-0.110
1.638,-0.180,-0.110
1.640,-0.255,-0.110
1.642,-0.240,-0.110
1.644,-0.240,-0.110
1.646,-0.260,-0.115
1.648,-0.270,-0.120
1.650,-0.250,-0.120
1.652,-0.225,-0.120
1.654,-0.195,-0.120
1.656,-0.235,-0.115
1.658,-0.270,-0.105
1.660,-0.185,-0.090
1.662,-0.190,-0.080
1.664,-0.245,-0.070
1.666,-0.205,-0.065
1.668,-0.220,-0.070
1.670,-0.225,-0.075
1.672,-0.250,-0.085
1.674,-0.200,-0.100
1.676,-0.195,-0.115
1.678,-0.270,-0.125
1.680,-0.325,-0.125
1.682,-0.255,-0.125
1.684,-0.270,-0.120
1.686,-0.225,-0.110
1.688,-0.215,-0.100
1.690,-0.260,-0.090
1.692,-0.265,-0.085
1.694,-0.195,-0.085
1.696,-0.135,-0.085
1.698,-0.175,-0.095
1.700,-0.285,-0.100
1.702,-0.295,-0.110
1.704,-0.225,-0.115
1.706,-0.215,-0.115
1.708,-0.165,-0.115
1.710,-0.270,-0.115
1.712,-0.275,-0.115
1.714,-0.205,-0.110
1.716,-0.255,-0.110
1.718,-0.250,-0.110
1.720,-0.215,-0.110
1.722,-0.210,-0.110
1.724,-0.240,-0.110
1.726,-0.245,-0.105
1.728,-0.220,-0.095
1.730,-0.180,-0.085
1.732,-0.190,-0.075
1.734,-0.195,-0.065
1.736,-0.205,-0.060
1.738,-0.215,-0.060
1.740,-0.170,-0.060
1.742,-0.190,-0.065
1.744,-0.220,-0.075
1.746,-0.200,-0.080
1.748,-0.230,-0.085
1.750,-0.230,-0.085
1.752,-0.250,-0.085
1.754,-0.185,-0.075
1.756,-0.170,-0.065
1.758,-0.140,-0.055
1.760,-0.160,-0.045
1.762,-0.130,-0.040
1.764,-0.195,-0.040
1.766,-0.235,-0.045
1.768,-0.195,-0.050
1.770,-0.230,-0.060
1.772,-0.235,-0.070
1.774,-0.195,-0.075
1.776,-0.140,-0.075
1.778,-0.190,-0.070
1.780,-0.200,-0.065
1.782,-0.170,-0.060
1.784,-0.195,-0.055
1.786,-0.200,-0.050
1.788,-0.180,-0.055
1.790,-0.230,-0.060
1.792,-0.235,-0.070
1.794,-0.180,-0.075
1.796,-0.190,-0.085
1.798,-0.235,-0.090
1.800,-0.215,-0.095
1.802,-0.240,-0.095
1.804,-0.260,-0.095
1.806,-0.235,-0.095
1.808,-0.245,-0.100
1.810,-0.280,-0.105
1.812,-0.240,-0.110
1.814,-0.230,-0.115
1.816,-0.245,-0.125
1.818,-0.240,-0.125
1.820,-0.270,-0.125
1.822,-0.295,-0.125
1.824,-0.255,-0.115
1.826,-0.205,-0.110
1.828,-0.270,-0.110
1.830,-0.295,-0.110
1.832,-0.230,-0.115
1.834,-0.230,-0.125
1.836,-0.285,-0.135
1.838,-0.265,-0.145
1.840,-0.260,-0.145
1.842,-0.350,-0.140
1.844,-0.320,-0.135
1.846,-0.200,-0.130
1.848,-0.225,-0.130
1.850,-0.255,-0.135
1.852,-0.310,-0.150
1.854,-0.375,-0.180
1.856,-0.390,-0.215
1.858,-0.415,-0.245
1.860,-0.385,-0.265
1.862,-0.435,-0.270
1.864,-0.370,-0.250
1.866,-0.305,-0.200
1.868,-0.270,-0.125
1.870,-0.145,-0.025
1.872,0.010,0.085
1.874,0.050,0.210
1.876,0.165,0.335
1.878,0.335,0.465
1.880,0.530,0.595
1.882,0.625,0.735
1.884,0.740,0.875
1.886,0.905,1.020
1.888,1.065,1.160
1.890,1.225,1.285
1.892,1.300,1.370
1.894,1.340,1.410
1.896,1.305,1.390
1.898,1.205,1.305
1.900,1.070,1.155
1.902,0.825,0.955
1.904,0.575,0.725
1.906,0.250,0.490
1.908,0.050,0.280
1.910,-0.080,0.105
1.912,-0.215,-0.020
1.914,-0.265,-0.095
1.916,-0.230,-0.125
1.918,-0.280,-0.125
1.920,-0.300,-0.110
1.922,-0.275,-0.095
1.924,-0.125,-0.085
1.926,-0.200,-0.085
1.928,-0.280,-0.095
1.930,-0.260,-0.110
1.932,-0.255,-0.125
1.934,-0.235,-0.130
1.936,-0.185,-0.120
1.938,-0.205,-0.105
1.940,-0.240,-0.085
1.942,-0.260,-0.070
1.944,-0.200,-0.055
1.946,-0.225,-0.050
1.948,-0.220,-0.060
1.950,-0.235,-0.075
1.952,-0.235,-0.090
1.954,-0.230,-0.105
1.956,-0.250,-0.120
1.958,-0.225,-0.125
1.960,-0.205,-0.120
1.962,-0.250,-0.110
1.964,-0.240,-0.095
1.966,-0.235,-0.080
1.968,-0.240,-0.070
1.970,-0.195,-0.060
1.972,-0.145,-0.055
1.974,-0.165,-0.055
1.976,-0.210,-0.055
1.978,-0.175,-0.060
1.980,-0.250,-0.065
1.982,-0.220,-0.065
1.984,-0.210,-0.065
1.986,-0.210,-0.065
1.988,-0.175,-0.060
1.990,-0.220,-0.060
1.992,-0.150,-0.060
1.994,-0.225,-0.060
1.996,-0.235,-0.060
1.998,-0.170,-0.055
2.000,-0.195,-0.055
2.002,-0.180,-0.055
2.004,-0.220,-0.050
2.006,-0.220,-0.050
2.008,-0.225,-0.045
2.010,-0.150,-0.040
2.012,-0.135,-0.035
2.014,-0.170,-0.025
2.016,-0.140,-0.020
2.018,-0.120,-0.015
2.020,-0.115,-0.005
2.022,-0.110,0.000
2.024,-0.090,0.005
2.026,-0.155,0.010
2.028,-0.165,0.015
2.030,-0.120,0.015
2.032,-0.100,0.020
2.034,-0.085,0.020
2.036,-0.100,0.025
2.038,-0.080,0.030
2.040,-0.115,0.035
2.042,-0.090,0.040
2.044,-0.095,0.050
2.046,-0.090,0.060
2.048,-0.060,0.070
2.050,-0.015,0.080
2.052,0.000,0.090
2.054,-0.015,0.100
2.056,-0.020,0.105
2.058,-0.015,0.115
2.060,-0.065,0.120
2.062,-0.045,0.130
2.064,0.005,0.135
2.066,0.035,0.145
2.068,0.045,0.150
2.070,0.025,0.160
2.072,0.000,0.165
2.074,-0.055,0.170
2.076,0.035,0.180
2.078,0.105,0.185
2.080,0.045,0.195
2.082,0.035,0.205
2.084,0.065,0.215
2.086,0.130,0.225
2.088,0.095,0.240
2.090,0.130,0.250
2.092,0.155,0.260
2.094,0.140,0.270
2.096,0.125,0.275
2.098,0.145,0.280
2.100,0.120,0.285
2.102,0.090,0.285
2.104,0.155,0.280
2.106,0.145,0.270
2.108,0.095,0.260
2.110,0.120,0.245
2.112,0.085,0.230
2.114,0.095,0.210
2.116,0.075,0.195
2.118,0.040,0.175
2.120,-0.075,0.165
2.122,-0.055,0.155
2.124,0.045,0.150
2.126,0.045,0.150
2.128,0.010,0.150
2.130,0.005,0.150
2.132,-0.010,0.145
2.134,-0.030,0.135
2.136,-0.085,0.120
2.138,-0.080,0.100
2.140,-0.095,0.080
2.142,-0.125,0.055
2.144,-0.105,0.035
2.146,-0.075,0.020
2.148,-0.125,0.010
2.150,-0.130,0.000
2.152,-0.135,-0.005
2.154,-0.175,-0.015
2.156,-0.220,-0.025
2.158,-0.210,-0.035
2.160,-0.215,-0.050
2.162,-0.180,-0.065
2.164,-0.195,-0.080
2.166,-0.250,-0.085
2.168,-0.265,-0.090
2.170,-0.240,-0.090
2.172,-0.235,-0.085
2.174,-0.155,-0.075
2.176,-0.165,-0.070
2.178,-0.225,-0.065
2.180,-0.280,-0.065
2.182,-0.280,-0.075
2.184,-0.190,-0.085
2.186,-0.195,-0.095
2.188,-0.300,-0.100
2.190,-0.250,-0.105
2.192,-0.190,-0.100
2.194,-0.185,-0.095
2.196,-0.215,-0.085
2.198,-0.220,-0.080
2.200,-0.260,-0.075
2.202,-0.275,-0.075
2.204,-0.255,-0.075
2.206,-0.210,-0.085
2.208,-0.245,-0.095
2.210,-0.230,-0.105
2.212,-0.235,-0.110
2.214,-0.240,-0.110
2.216,-0.235,-0.105
2.218,-0.225,-0.095
2.220,-0.255,-0.085
2.222,-0.220,-0.080
2.224,-0.230,-0.075
2.226,-0.240,-0.080
2.228,-0.260,-0.085
2.230,-0.250,-0.095
2.232,-0.245,-0.105
2.234,-0.285,-0.110
2.236,-0.280,-0.115
2.238,-0.225,-0.110
2.240,-0.190,-0.105
2.242,-0.200,-0.090
2.244,-0.210,-0.080
2.246,-0.230,-0.070
2.248,-0.245,-0.065
2.250,-0.245,-0.070
2.252,-0.230,-0.075
2.254,-0.210,-0.085
2.256,-0.215,-0.090
2.258,-0.210,-0.100
2.260,-0.260,-0.105
2.262,-0.255,-0.100
2.264,-0.270,-0.100
2.266,-0.265,-0.090
2.268,-0.215,-0.085
2.270,-0.170,-0.075
2.272,-0.210,-0.075
2.274,-0.240,-0.075
2.276,-0.260,-0.080
2.278,-0.220,-0.085
2.280,-0.250,-0.090
2.282,-0.250,-0.095
2.284,-0.225,-0.100
2.286,-0.270,-0.100
2.288,-0.290,-0.095
2.290,-0.175,-0.090
2.292,-0.225,-0.085
2.294,-0.255,-0.080
2.296,-0.240,-0.080
2.298,-0.220,-0.075
2.300,-0.220,-0.080
2.302,-0.245,-0.080
2.304,-0.235,-0.080
2.306,-0.215,-0.080
2.308,-0.200,-0.080
2.310,-0.200,-0.080
2.312,-0.225,-0.080
2.314,-0.220,-0.080
2.316,-0.235,-0.080
2.318,-0.250,-0.085
2.320,-0.245,-0.090
2.322,-0.260,-0.095
2.324,-0.275,-0.100
2.326,-0.250,-0.105
2.328,-0.230,-0.105
2.330,-0.205,-0.105
2.332,-0.190,-0.100
2.334,-0.205,-0.090
2.336,-0.195,-0.085
2.338,-0.215,-0.075
2.340,-0.265,-0.070
2.342,-0.245,-0.065
2.344,-0.200,-0.060
2.346,-0.225,-0.060
2.348,-0.220,-0.060
2.350,-0.225,-0.060
2.352,-0.235,-0.065
2.354,-0.240,-0.070
2.356,-0.235,-0.075
2.358,-0.230,-0.080
2.360,-0.170,-0.085
2.362,-0.225,-0.085
2.364,-0.285,-0.090
2.366,-0.250,-0.090
2.368,-0.260,-0.090
2.370,-0.230,-0.085
2.372,-0.245,-0.085
2.374,-0.255,-0.085
2.376,-0.260,-0.085
2.378,-0.235,-0.090
2.380,-0.205,-0.100
2.382,-0.245,-0.105
2.384,-0.235,-0.110
2.386,-0.305,-0.110
2.388,-0.260,-0.110
2.390,-0.230,-0.100
2.392,-0.205,-0.095
2.394,-0.240,-0.085
2.396,-0.205,-0.075
2.398,-0.245,-0.070
2.400,-0.235,-0.070
2.402,-0.245,-0.075
2.404,-0.245,-0.080
2.406,-0.255,-0.090
2.408,-0.250,-0.095
2.410,-0.240,-0.100
2.412,-0.195,-0.100
2.414,-0.225,-0.090
2.416,-0.245,-0.080
2.418,-0.235,-0.070
2.420,-0.200,-0.060
2.422,-0.215,-0.055
2.424,-0.245,-0.050
2.426,-0.255,-0.060
2.428,-0.205,-0.070
2.430,-0.220,-0.080
2.432,-0.260,-0.095
2.434,-0.250,-0.100
2.436,-0.220,-0.105
2.438,-0.235,-0.105
2.440,-0.260,-0.095
2.442,-0.270,-0.090
2.444,-0.235,-0.080
2.446,-0.240,-0.080
2.448,-0.250,-0.080
2.450,-0.265,-0.085
2.452,-0.275,-0.090
2.454,-0.255,-0.100
2.456,-0.230,-0.110
2.458,-0.245,-0.110
2.460,-0.235,-0.110
2.462,-0.200,-0.105
2.464,-0.255,-0.090
2.466,-0.295,-0.080
2.468,-0.240,-0.070
2.470,-0.230,-0.060
2.472,-0.210,-0.060
2.474,-0.220,-0.065
2.476,-0.235,-0.075
2.478,-0.290,-0.085
2.480,-0.240,-0.095
2.482,-0.220,-0.105
2.484,-0.235,-0.105
2.486,-0.240,-0.105
2.488,-0.235,-0.095
2.490,-0.240,-0.080
2.492,-0.230,-0.065
2.494,-0.180,-0.050
2.496,-0.130,-0.040
2.498,-0.180,-0.030
2.500,-0.180,-0.025
2.502,-0.195,-0.020
2.504,-0.190,-0.025
2.506,-0.190,-0.025
2.508,-0.160,-0.030
2.510,-0.125,-0.035
2.512,-0.175,-0.035
2.514,-0.210,-0.040
2.516,-0.205,-0.045
2.518,-0.240,-0.050
2.520,-0.225,-0.055
2.522,-0.195,-0.060
2.524,-0.230,-0.065
2.526,-0.260,-0.065
2.528,-0.210,-0.065
2.530,-0.220,-0.065
2.532,-0.205,-0.055
2.534,-0.135,-0.045
2.536,-0.180,-0.035
2.538,-0.215,-0.025
2.540,-0.180,-0.020
2.542,-0.210,-0.015
2.544,-0.220,-0.020
2.546,-0.215,-0.030
2.548,-0.220,-0.045
2.550,-0.230,-0.060
2.552,-0.205,-0.080
2.554,-0.245,-0.095
2.556,-0.200,-0.105
2.558,-0.265,-0.110
2.560,-0.285,-0.110
2.562,-0.280,-0.105
2.564,-0.240,-0.100
2.566,-0.230,-0.095
2.568,-0.200,-0.095
2.570,-0.250,-0.090
2.572,-0.245,-0.090
2.574,-0.240,-0.095
2.576,-0.260,-0.100
2.578,-0.265,-0.100
2.580,-0.280,-0.105
2.582,-0.250,-0.110
2.584,-0.235,-0.110
2.586,-0.335,-0.110
2.588,-0.235,-0.115
2.590,-0.210,-0.115
2.592,-0.280,-0.115
2.594,-0.305,-0.115
2.596,-0.265,-0.110
2.598,-0.295,-0.110
2.600,-0.265,-0.105
2.602,-0.270,-0.105
2.604,-0.290,-0.110
2.606,-0.300,-0.120
2.608,-0.305,-0.140
2.610,-0.345,-0.165
2.612,-0.365,-0.190
2.614,-0.405,-0.215
2.616,-0.435,-0.235
2.618,-0.430,-0.240
2.620,-0.385,-0.225
2.622,-0.355,-0.190
2.624,-0.290,-0.130
2.626,-0.185,-0.050
2.628,-0.025,0.045
2.630,0.020,0.155
2.632,0.045,0.275
2.634,0.220,0.400
2.636,0.375,0.535
2.638,0.570,0.675
2.640,0.675,0.820
2.642,0.840,0.970
2.644,1.005,1.120
2.646,1.120,1.260
2.648,1.265,1.370
2.650,1.340,1.440
2.652,1.400,1.455
2.654,1.350,1.410
2.656,1.170,1.300
2.658,0.945,1.135
2.660,0.765,0.925
2.662,0.515,0.690
2.664,0.210,0.465
2.666,-0.025,0.260
2.668,-0.120,0.090
2.670,-0.240,-0.025
2.672,-0.230,-0.095
2.674,-0.225,-0.125
2.676,-0.265,-0.120
2.678,-0.310,-0.105
2.680,-0.245,-0.090
2.682,-0.295,-0.075
2.684,-0.310,-0.075
2.686,-0.280,-0.075
2.688,-0.240,-0.085
2.690,-0.255,-0.095
2.692,-0.205,-0.095
2.694,-0.120,-0.090
2.696,-0.215,-0.075
2.698,-0.225,-0.060
2.700,-0.235,-0.040
2.702,-0.205,-0.030
2.704,-0.220,-0.025
2.706,-0.190,-0.025
2.708,-0.190,-0.035
2.710,-0.200,-0.050
2.712,-0.235,-0.065
2.714,-0.270,-0.080
2.716,-0.265,-0.085
2.718,-0.225,-0.090
2.720,-0.265,-0.090
2.722,-0.260,-0.090
2.724,-0.235,-0.085
2.726,-0.235,-0.080
2.728,-0.235,-0.075
2.730,-0.245,-0.070
2.732,-0.255,-0.070
2.734,-0.245,-0.070
2.736,-0.235,-0.065
2.738,-0.190,-0.065
2.740,-0.175,-0.070
2.742,-0.225,-0.070
2.744,-0.235,-0.070
2.746,-0.240,-0.070
2.748,-0.235,-0.065
2.750,-0.200,-0.060
2.752,-0.210,-0.050
2.754,-0.165,-0.040
2.756,-0.215,-0.030
2.758,-0.175,-0.020
2.760,-0.185,-0.010
2.762,-0.205,-0.010
2.764,-0.220,-0.010
2.766,-0.175,-0.015
2.768,-0.135,-0.020
2.770,-0.180,-0.030
2.772,-0.205,-0.030
2.774,-0.170,-0.030
2.776,-0.175,-0.025
2.778,-0.175,-0.015
2.780,-0.150,-0.005
2.782,-0.100,0.010
2.784,-0.160,0.025
2.786,-0.145,0.030
2.788,-0.075,0.040
2.790,-0.150,0.040
2.792,-0.135,0.040
2.794,-0.090,0.045
2.796,-0.130,0.045
2.798,-0.085,0.050
2.800,-0.070,0.060
2.802,-0.080,0.070
2.804,-0.145,0.080
2.806,-0.095,0.090
2.808,-0.055,0.100
2.810,-0.050,0.110
2.812,-0.050,0.115
2.814,-0.025,0.115
2.816,-0.015,0.120
2.818,-0.005,0.125
2.820,-0.045,0.130
2.822,-0.020,0.140
2.824,-0.005,0.150
2.826,0.025,0.160
2.828,0.010,0.175
2.830,0.025,0.180
2.832,0.030,0.190
2.834,0.060,0.195
2.836,0.030,0.200
2.838,0.015,0.205
2.840,0.040,0.210
2.842,0.090,0.220
2.844,0.065,0.230
2.846,0.105,0.240
2.848,0.055,0.255
2.850,0.100,0.265
2.852,0.105,0.275
2.854,0.145,0.285
2.856,0.115,0.290
2.858,0.140,0.290
2.860,0.125,0.285
2.862,0.115,0.280
2.864,0.065,0.270
2.866,0.085,0.260
2.868,0.105,0.250
2.870,0.075,0.245
2.872,0.060,0.240
2.874,0.110,0.235
2.876,0.060,0.230
2.878,0.050,0.225
2.880,0.020,0.220
2.882,0.005,0.210
2.884,0.000,0.195
2.886,-0.010,0.180
2.888,-0.015,0.160
2.890,-0.050,0.135
2.892,-0.080,0.115
2.894,-0.090,0.090
2.896,-0.090,0.070
2.898,-0.090,0.050
2.900,-0.100,0.035
2.902,-0.105,0.020
2.904,-0.210,0.010
2.906,-0.205,0.000
2.908,-0.180,-0.010
2.910,-0.185,-0.020
2.912,-0.185,-0.030
2.914,-0.160,-0.035
2.916,-0.210,-0.040
2.918,-0.235,-0.045
2.920,-0.240,-0.050
2.922,-0.220,-0.050
2.924,-0.220,-0.055
2.926,-0.220,-0.060
2.928,-0.225,-0.065
2.930,-0.270,-0.070
2.932,-0.290,-0.075
2.934,-0.265,-0.080
2.936,-0.225,-0.085
2.938,-0.195,-0.085
2.940,-0.235,-0.080
2.942,-0.240,-0.075
2.944,-0.195,-0.065
2.946,-0.215,-0.060
2.948,-0.265,-0.055
2.950,-0.230,-0.055
2.952,-0.230,-0.060
2.954,-0.240,-0.065
2.956,-0.270,-0.075
2.958,-0.280,-0.085
2.960,-0.255,-0.090
2.962,-0.235,-0.095
2.964,-0.230,-0.100
2.966,-0.225,-0.100
2.968,-0.265,-0.095
2.970,-0.275,-0.090
2.972,-0.250,-0.085
2.974,-0.225,-0.080
2.976,-0.255,-0.075
2.978,-0.230,-0.075
2.980,-0.215,-0.070
2.982,-0.260,-0.070
2.984,-0.220,-0.070
2.986,-0.175,-0.065
2.988,-0.225,-0.070
2.990,-0.250,-0.070
2.992,-0.235,-0.075
2.994,-0.305,-0.085
2.996,-0.295,-0.095
2.998,-0.275,-0.100
3.000,-0.270,-0.105
3.002,-0.310,-0.110
3.004,-0.250,-0.105
3.006,-0.220,-0.095
3.008,-0.195,-0.085
3.010,-0.185,-0.070
3.012,-0.195,-0.055
3.014,-0.250,-0.045
3.016,-0.225,-0.040
3.018,-0.175,-0.045
3.020,-0.200,-0.050
3.022,-0.300,-0.055
3.024,-0.240,-0.065
3.026,-0.210,-0.070
3.028,-0.205,-0.075
3.030,-0.240,-0.075
3.032,-0.285,-0.075
3.034,-0.240,-0.070
3.036,-0.210,-0.070
3.038,-0.210,-0.070
3.040,-0.245,-0.070
3.042,-0.310,-0.075
3.044,-0.280,-0.080
3.046,-0.280,-0.085
3.048,-0.215,-0.090
3.050,-0.230,-0.085
3.052,-0.215,-0.080
3.054,-0.230,-0.070
3.056,-0.190,-0.060
3.058,-0.220,-0.055
3.060,-0.285,-0.050
3.062,-0.305,-0.045
3.064,-0.225,-0.050
3.066,-0.200,-0.060
3.068,-0.225,-0.070
3.070,-0.240,-0.080
3.072,-0.235,-0.090
3.074,-0.250,-0.095
3.076,-0.250,-0.100
3.078,-0.260,-0.100
3.080,-0.270,-0.095
3.082,-0.260,-0.090
3.084,-0.240,-0.085
3.086,-0.240,-0.080
3.088,-0.275,-0.075
3.090,-0.280,-0.075
3.092,-0.230,-0.075
3.094,-0.215,-0.075
3.096,-0.190,-0.075
3.098,-0.215,-0.070
3.100,-0.255,-0.065
3.102,-0.230,-0.060
3.104,-0.215,-0.055
3.106,-0.190,-0.055
3.108,-0.215,-0.050
3.110,-0.240,-0.050
3.112,-0.255,-0.055
3.114,-0.245,-0.060
3.116,-0.235,-0.065
3.118,-0.240,-0.070
3.120,-0.250,-0.075
3.122,-0.275,-0.080
3.124,-0.250,-0.085
3.126,-0.250,-0.085
3.128,-0.270,-0.080
3.130,-0.250,-0.080
3.132,-0.165,-0.075
3.134,-0.210,-0.070
3.136,-0.255,-0.065
3.138,-0.285,-0.060
3.140,-0.250,-0.060
3.142,-0.250,-0.065
3.144,-0.210,-0.070
3.146,-0.225,-0.075
3.148,-0.270,-0.085
3.150,-0.230,-0.090
3.152,-0.215,-0.095
3.154,-0.270,-0.095
3.156,-0.245,-0.090
3.158,-0.240,-0.085
3.160,-0.255,-0.080
3.162,-0.280,-0.075
3.164,-0.235,-0.065
3.166,-0.235,-0.065
3.168,-0.245,-0.065
3.170,-0.265,-0.075
3.172,-0.270,-0.080
3.174,-0.265,-0.090
3.176,-0.290,-0.100
3.178,-0.255,-0.110
3.180,-0.285,-0.110
3.182,-0.265,-0.110
3.184,-0.225,-0.105
3.186,-0.250,-0.095
3.188,-0.275,-0.085
3.190,-0.225,-0.075
3.192,-0.260,-0.070
3.194,-0.270,-0.065
3.196,-0.270,-0.065
3.198,-0.270,-0.070
3.200,-0.225,-0.075
3.202,-0.245,-0.085
3.204,-0.240,-0.090
3.206,-0.235,-0.100
3.208,-0.245,-0.105
3.210,-0.255,-0.105
3.212,-0.250,-0.105
3.214,-0.320,-0.100
3.216,-0.290,-0.090
3.218,-0.210,-0.085
3.220,-0.205,-0.080
3.222,-0.255,-0.075
3.224,-0.260,-0.075
3.226,-0.300,-0.080
3.228,-0.315,-0.085
3.230,-0.225,-0.095
3.232,-0.195,-0.100
3.234,-0.270,-0.105
3.236,-0.300,-0.110
3.238,-0.265,-0.105
3.240,-0.215,-0.100
3.242,-0.285,-0.095
3.244,-0.230,-0.085
3.246,-0.255,-0.080
3.248,-0.315,-0.075
3.250,-0.240,-0.075
3.252,-0.205,-0.080
3.254,-0.250,-0.085
3.256,-0.240,-0.095
3.258,-0.240,-0.100
3.260,-0.245,-0.100
3.262,-0.245,-0.105
3.264,-0.255,-0.105
3.266,-0.240,-0.105
3.268,-0.240,-0.105
3.270,-0.235,-0.105
3.272,-0.295,-0.105
3.274,-0.285,-0.105
3.276,-0.250,-0.105
3.278,-0.235,-0.105
3.280,-0.280,-0.105
3.282,-0.260,-0.105
3.284,-0.230,-0.105
3.286,-0.275,-0.100
3.288,-0.305,-0.100
3.290,-0.275,-0.100
3.292,-0.245,-0.100
3.294,-0.230,-0.100
3.296,-0.195,-0.105
3.298,-0.275,-0.105
3.300,-0.265,-0.100
3.302,-0.280,-0.095
3.304,-0.245,-0.090
3.306,-0.230,-0.085
3.308,-0.255,-0.075
3.310,-0.260,-0.070
3.312,-0.265,-0.070
3.314,-0.225,-0.070
3.316,-0.255,-0.075
3.318,-0.245,-0.085
3.320,-0.235,-0.090
3.322,-0.250,-0.100
3.324,-0.240,-0.100
3.326,-0.280,-0.105
3.328,-0.260,-0.100
3.330,-0.250,-0.095
3.332,-0.240,-0.090
3.334,-0.245,-0.080
3.336,-0.200,-0.075
3.338,-0.260,-0.065
3.340,-0.250,-0.060
3.342,-0.180,-0.060
3.344,-0.170,-0.060
3.346,-0.195,-0.060
3.348,-0.200,-0.065
3.350,-0.245,-0.065
3.352,-0.300,-0.070
3.354,-0.280,-0.070
3.356,-0.220,-0.075
3.358,-0.185,-0.070
3.360,-0.205,-0.070
3.362,-0.205,-0.065
3.364,-0.220,-0.060
3.366,-0.195,-0.055
3.368,-0.190,-0.045
3.370,-0.170,-0.045
3.372,-0.220,-0.040
3.374,-0.210,-0.040
3.376,-0.230,-0.040
3.378,-0.230,-0.045
3.380,-0.200,-0.050
3.382,-0.180,-0.055
3.384,-0.200,-0.055
3.386,-0.240,-0.060
3.388,-0.215,-0.060
3.390,-0.225,-0.060
3.392,-0.245,-0.060
3.394,-0.235,-0.055
3.396,-0.185,-0.055
3.398,-0.185,-0.050
3.400,-0.245,-0.055
3.402,-0.210,-0.055
3.404,-0.220,-0.060
3.406,-0.240,-0.070
3.408,-0.260,-0.080
3.410,-0.245,-0.090
3.412,-0.235,-0.100
3.414,-0.315,-0.110
3.416,-0.250,-0.115
3.418,-0.235,-0.120
3.420,-0.250,-0.115
3.422,-0.255,-0.110
3.424,-0.245,-0.105
3.426,-0.240,-0.095
3.428,-0.250,-0.090
3.430,-0.260,-0.085
3.432,-0.280,-0.080
3.434,-0.235,-0.085
3.436,-0.220,-0.085
3.438,-0.260,-0.090
3.440,-0.290,-0.095
3.442,-0.255,-0.105
3.444,-0.300,-0.115
3.446,-0.265,-0.120
3.448,-0.280,-0.130
3.450,-0.305,-0.135
3.452,-0.280,-0.135
3.454,-0.265,-0.135
3.456,-0.300,-0.130
3.458,-0.270,-0.120
3.460,-0.265,-0.110
3.462,-0.245,-0.105
3.464,-0.245,-0.105
3.466,-0.320,-0.120
3.468,-0.340,-0.145
3.470,-0.380,-0.180
3.472,-0.400,-0.225
3.474,-0.400,-0.260
3.476,-0.490,-0.285
3.478,-0.460,-0.290
3.480,-0.415,-0.265
3.482,-0.330,-0.210
3.484,-0.280,-0.125
3.486,-0.170,-0.020
3.488,-0.070,0.100
3.490,0.095,0.230
3.492,0.215,0.360
3.494,0.360,0.495
3.496,0.490,0.630
3.498,0.635,0.775
3.500,0.775,0.925
3.502,0.950,1.080
3.504,1.125,1.230
3.506,1.260,1.370
3.508,1.400,1.480
3.510,1.470,1.540
3.512,1.420,1.535
3.514,1.360,1.460
3.516,1.175,1.315
3.518,0.970,1.115
3.520,0.760,0.875
3.522,0.400,0.625
3.524,0.140,0.385
3.526,-0.055,0.180
3.528,-0.185,0.025
3.530,-0.275,-0.075
3.532,-0.325,-0.125
3.534,-0.290,-0.140
3.536,-0.290,-0.130
3.538,-0.320,-0.110
3.540,-0.295,-0.090
3.542,-0.205,-0.075
3.544,-0.200,-0.070
3.546,-0.245,-0.065
3.548,-0.190,-0.065
3.550,-0.160,-0.065
3.552,-0.200,-0.065
3.554,-0.240,-0.060
3.556,-0.270,-0.060
3.558,-0.275,-0.055
3.560,-0.265,-0.060
3.562,-0.265,-0.065
3.564,-0.230,-0.075
3.566,-0.215,-0.080
3.568,-0.195,-0.085
3.570,-0.205,-0.085
3.572,-0.185,-0.080
3.574,-0.240,-0.070
3.576,-0.240,-0.065
3.578,-0.250,-0.055
3.580,-0.250,-0.055
3.582,-0.215,-0.060
3.584,-0.235,-0.065
3.586,-0.235,-0.075
3.588,-0.160,-0.085
3.590,-0.225,-0.090
3.592,-0.265,-0.090
3.594,-0.260,-0.085
3.596,-0.235,-0.080
3.598,-0.250,-0.070
3.600,-0.200,-0.065
3.602,-0.205,-0.060
3.604,-0.230,-0.060
3.606,-0.180,-0.060
3.608,-0.210,-0.060
3.610,-0.230,-0.060
3.612,-0.215,-0.060
3.614,-0.230,-0.055
3.616,-0.175,-0.050
3.618,-0.215,-0.040
3.620,-0.190,-0.035
3.622,-0.130,-0.035
3.624,-0.155,-0.035
3.626,-0.215,-0.040
3.628,-0.190,-0.040
3.630,-0.205,-0.045
3.632,-0.205,-0.040
3.634,-0.165,-0.035
3.636,-0.155,-0.025
3.638,-0.195,-0.010
3.640,-0.155,0.000
3.642,-0.060,0.015
3.644,-0.085,0.025
3.646,-0.110,0.035
3.648,-0.130,0.040
3.650,-0.125,0.045
3.652,-0.105,0.050
3.654,-0.090,0.055
3.656,-0.125,0.060
3.658,-0.080,0.070
3.660,0.005,0.080
3.662,-0.025,0.090
3.664,-0.060,0.095
3.666,-0.080,0.100
3.668,-0.075,0.095
3.670,-0.095,0.095
3.672,-0.060,0.090
3.674,-0.025,0.090
3.676,-0.070,0.090
3.678,-0.020,0.100
3.680,0.035,0.115
3.682,0.030,0.135
3.684,0.050,0.160
3.686,0.060,0.175
3.688,0.055,0.195
3.690,0.015,0.205
3.692,0.010,0.210
3.694,0.035,0.210
3.696,0.035,0.205
3.698,0.045,0.205
3.700,0.125,0.205
3.702,0.140,0.205
3.704,0.030,0.210
3.706,0.085,0.220
3.708,0.115,0.230
3.710,0.105,0.240
3.712,0.135,0.250
3.714,0.135,0.255
3.716,0.120,0.260
3.718,0.080,0.260
3.720,0.075,0.260
3.722,0.075,0.260
3.724,0.150,0.265
3.726,0.145,0.265
3.728,0.140,0.270
3.730,0.110,0.275
3.732,0.150,0.275
3.734,0.110,0.280
3.736,0.090,0.275
3.738,0.085,0.270
3.740,0.145,0.260
3.742,0.105,0.245
3.744,0.085,0.225
3.746,0.060,0.200
3.748,0.045,0.175
3.750,-0.030,0.155
3.752,-0.070,0.130
3.754,-0.055,0.105
3.756,-0.085,0.085
3.758,-0.080,0.065
3.760,-0.055,0.045
3.762,-0.070,0.030
3.764,-0.150,0.020
3.766,-0.135,0.015
3.768,-0.125,0.010
3.770,-0.135,0.005
3.772,-0.155,0.005
3.774,-0.155,0.005
3.776,-0.155,0.005
3.778,-0.155,0.000
3.780,-0.135,-0.010
3.782,-0.130,-0.020
3.784,-0.175,-0.035
3.786,-0.230,-0.055
3.788,-0.200,-0.070
3.790,-0.260,-0.085
3.792,-0.220,-0.090
3.794,-0.260,-0.095
3.796,-0.225,-0.095
3.798,-0.190,-0.090
3.800,-0.155,-0.080
3.802,-0.220,-0.070
3.804,-0.190,-0.065
3.806,-0.215,-0.065
3.808,-0.195,-0.065
3.810,-0.245,-0.065
3.812,-0.230,-0.070
3.814,-0.180,-0.075
3.816,-0.205,-0.085
3.818,-0.240,-0.085
3.820,-0.200,-0.090
3.822,-0.235,-0.090
3.824,-0.265,-0.095
3.826,-0.240,-0.095
3.828,-0.190,-0.095
3.830,-0.220,-0.095
3.832,-0.280,-0.095
3.834,-0.280,-0.095
3.836,-0.250,-0.090
3.838,-0.190,-0.085
3.840,-0.130,-0.080
3.842,-0.170,-0.070
3.844,-0.165,-0.065
3.846,-0.210,-0.060
3.848,-0.255,-0.055
3.850,-0.285,-0.055
3.852,-0.200,-0.055
3.854,-0.140,-0.060
3.856,-0.210,-0.070
3.858,-0.220,-0.075
3.860,-0.215,-0.080
3.862,-0.175,-0.085
3.864,-0.210,-0.090
3.866,-0.220,-0.090
3.868,-0.235,-0.090
3.870,-0.225,-0.085
3.872,-0.220,-0.085
3.874,-0.225,-0.080
3.876,-0.235,-0.075
3.878,-0.235,-0.075
3.880,-0.215,-0.075
3.882,-0.230,-0.070
3.884,-0.180,-0.070
3.886,-0.145,-0.070
3.888,-0.155,-0.070
3.890,-0.235,-0.075
3.892,-0.215,-0.075
3.894,-0.200,-0.075
3.896,-0.200,-0.075
3.898,-0.210,-0.070
3.900,-0.220,-0.070
3.902,-0.230,-0.065
3.904,-0.190,-0.065
3.906,-0.200,-0.065
3.908,-0.200,-0.065
3.910,-0.225,-0.070
3.912,-0.225,-0.075
3.914,-0.205,-0.075
3.916,-0.185,-0.080
3.918,-0.210,-0.080
3.920,-0.175,-0.080
3.922,-0.170,-0.075
3.924,-0.170,-0.070
3.926,-0.160,-0.065
3.928,-0.215,-0.060
3.930,-0.170,-0.060
3.932,-0.240,-0.065
3.934,-0.255,-0.070
3.936,-0.215,-0.080
3.938,-0.170,-0.090
3.940,-0.200,-0.095
3.942,-0.245,-0.095
3.944,-0.225,-0.095
3.946,-0.165,-0.085
3.948,-0.190,-0.075
3.950,-0.200,-0.070
3.952,-0.230,-0.060
3.954,-0.195,-0.060
3.956,-0.175,-0.060
3.958,-0.175,-0.060
3.960,-0.140,-0.065
3.962,-0.215,-0.070
3.964,-0.220,-0.075
3.966,-0.205,-0.075
3.968,-0.250,-0.075
3.970,-0.215,-0.075
3.972,-0.145,-0.070
3.974,-0.145,-0.070
3.976,-0.225,-0.075
3.978,-0.215,-0.075
3.980,-0.235,-0.085
3.982,-0.240,-0.090
3.984,-0.220,-0.090
3.986,-0.190,-0.090
3.988,-0.195,-0.090
3.990,-0.235,-0.080
3.992,-0.175,-0.075
3.994,-0.185,-0.065
3.996,-0.230,-0.055
3.998,-0.185,-0.050
4.000,-0.175,-0.050
4.002,-0.190,-0.050
4.004,-0.185,-0.055
4.006,-0.170,-0.060
4.008,-0.185,-0.070
4.010,-0.230,-0.075
4.012,-0.195,-0.080
4.014,-0.185,-0.085
4.016,-0.215,-0.085
4.018,-0.180,-0.080
4.020,-0.195,-0.080
4.022,-0.215,-0.080
4.024,-0.220,-0.075
4.026,-0.235,-0.070
4.028,-0.250,-0.070
4.030,-0.130,-0.065
4.032,-0.180,-0.065
4.034,-0.185,-0.060
4.036,-0.205,-0.060
4.038,-0.175,-0.055
4.040,-0.200,-0.055
4.042,-0.150,-0.055
4.044,-0.150,-0.055
4.046,-0.185,-0.055
4.048,-0.220,-0.055
4.050,-0.190,-0.060
4.052,-0.190,-0.060
4.054,-0.220,-0.065
4.056,-0.210,-0.065
4.058,-0.170,-0.070
4.060,-0.185,-0.070
4.062,-0.185,-0.070
4.064,-0.175,-0.075
4.066,-0.160,-0.075
4.068,-0.210,-0.080
4.070,-0.215,-0.085
4.072,-0.185,-0.085
4.074,-0.175,-0.085
4.076,-0.195,-0.085
4.078,-0.190,-0.080
4.080,-0.185,-0.075
4.082,-0.190,-0.070
4.084,-0.210,-0.065
4.086,-0.190,-0.060
4.088,-0.190,-0.060
4.090,-0.205,-0.065
4.092,-0.170,-0.070
4.094,-0.200,-0.075
4.096,-0.205,-0.075
4.098,-0.185,-0.080
4.100,-0.160,-0.080
4.102,-0.195,-0.075
4.104,-0.185,-0.070
4.106,-0.115,-0.065
4.108,-0.180,-0.055
4.110,-0.205,-0.055
4.112,-0.225,-0.055
4.114,-0.210,-0.060
4.116,-0.195,-0.070
4.118,-0.190,-0.080
4.120,-0.200,-0.090
4.122,-0.245,-0.100
4.124,-0.200,-0.105
4.126,-0.210,-0.100
4.128,-0.215,-0.095
4.130,-0.190,-0.085
4.132,-0.130,-0.075
4.134,-0.170,-0.065
4.136,-0.205,-0.055
4.138,-0.175,-0.055
4.140,-0.190,-0.055
4.142,-0.195,-0.060
4.144,-0.215,-0.070
4.146,-0.170,-0.075
4.148,-0.220,-0.085
4.150,-0.220,-0.085
4.152,-0.180,-0.085
4.154,-0.135,-0.080
4.156,-0.135,-0.075
4.158,-0.160,-0.065
4.160,-0.180,-0.060
4.162,-0.175,-0.055
4.164,-0.185,-0.055
4.166,-0.195,-0.060
4.168,-0.235,-0.070
4.170,-0.215,-0.080
4.172,-0.200,-0.090
4.174,-0.205,-0.100
4.176,-0.195,-0.105
4.178,-0.195,-0.110
4.180,-0.235,-0.110
4.182,-0.245,-0.105
4.184,-0.175,-0.095
4.186,-0.170,-0.090
4.188,-0.175,-0.085
4.190,-0.180,-0.075
4.192,-0.180,-0.075
4.194,-0.180,-0.070
4.196,-0.175,-0.070
4.198,-0.165,-0.070
4.200,-0.170,-0.070
4.202,-0.200,-0.070
4.204,-0.195,-0.075
4.206,-0.195,-0.075
4.208,-0.190,-0.075
4.210,-0.165,-0.080
4.212,-0.170,-0.075
4.214,-0.180,-0.075
4.216,-0.160,-0.070
4.218,-0.195,-0.070
4.220,-0.210,-0.065
4.222,-0.225,-0.065
4.224,-0.170,-0.060
4.226,-0.165,-0.065
4.228,-0.195,-0.070
4.230,-0.160,-0.075
4.232,-0.165,-0.080
4.234,-0.175,-0.080
4.236,-0.205,-0.085
4.238,-0.210,-0.085
4.240,-0.195,-0.080
4.242,-0.180,-0.080
4.244,-0.145,-0.075
4.246,-0.150,-0.070
4.248,-0.170,-0.070
4.250,-0.185,-0.070
4.252,-0.195,-0.070
4.254,-0.185,-0.075
4.256,-0.205,-0.075
4.258,-0.210,-0.080
4.260,-0.170,-0.080
4.262,-0.170,-0.075
4.264,-0.170,-0.075
4.266,-0.220,-0.070
4.268,-0.165,-0.065
4.270,-0.165,-0.060
4.272,-0.135,-0.060
4.274,-0.170,-0.065
4.276,-0.200,-0.065
4.278,-0.215,-0.070
4.280,-0.190,-0.075
4.282,-0.155,-0.080
4.284,-0.120,-0.080
4.286,-0.135,-0.075
4.288,-0.220,-0.070
4.290,-0.165,-0.060
4.292,-0.150,-0.055
4.294,-0.150,-0.045
4.296,-0.110,-0.040
4.298,-0.130,-0.035
4.300,-0.140,-0.035
4.302,-0.130,-0.035
4.304,-0.150,-0.040
4.306,-0.145,-0.040
4.308,-0.125,-0.045
4.310,-0.150,-0.045
4.312,-0.155,-0.045
4.314,-0.175,-0.040
4.316,-0.145,-0.035
4.318,-0.150,-0.030
4.320,-0.095,-0.025
4.322,-0.120,-0.025
4.324,-0.095,-0.025
4.326,-0.130,-0.025
4.328,-0.135,-0.030
4.330,-0.170,-0.035
4.332,-0.180,-0.045
4.334,-0.140,-0.045
4.336,-0.150,-0.050
4.338,-0.125,-0.050
4.340,-0.125,-0.050
4.342,-0.125,-0.050
4.344,-0.115,-0.050
4.346,-0.145,-0.045
4.348,-0.130,-0.045
4.350,-0.195,-0.045
4.352,-0.170,-0.050
4.354,-0.205,-0.050
4.356,-0.100,-0.050
4.358,-0.130,-0.050
4.360,-0.150,-0.045
4.362,-0.105,-0.045
4.364,-0.135,-0.045
4.366,-0.195,-0.045
4.368,-0.160,-0.050
4.370,-0.170,-0.055
4.372,-0.160,-0.065
4.374,-0.170,-0.075
4.376,-0.140,-0.090
4.378,-0.165,-0.100
4.380,-0.240,-0.105
4.382,-0.235,-0.105
4.384,-0.195,-0.100
4.386,-0.160,-0.095
4.388,-0.125,-0.085
4.390,-0.150,-0.075
4.392,-0.200,-0.070
4.394,-0.175,-0.065
4.396,-0.135,-0.070
4.398,-0.190,-0.075
4.400,-0.195,-0.080
4.402,-0.225,-0.085
4.404,-0.170,-0.085
4.406,-0.165,-0.080
4.408,-0.175,-0.080
4.410,-0.185,-0.080
4.412,-0.210,-0.085
4.414,-0.230,-0.105
4.416,-0.250,-0.130
4.418,-0.230,-0.165
4.420,-0.275,-0.205
4.422,-0.355,-0.240
4.424,-0.395,-0.265
4.426,-0.410,-0.265
4.428,-0.375,-0.245
4.430,-0.280,-0.195
4.432,-0.215,-0.120
4.434,-0.125,-0.025
4.436,0.030,0.085
4.438,0.145,0.205
4.440,0.285,0.335
4.442,0.385,0.470
4.444,0.535,0.610
4.446,0.660,0.765
4.448,0.835,0.925
4.450,0.990,1.085
4.452,1.175,1.245
4.454,1.365,1.390
4.456,1.505,1.495
4.458,1.545,1.555
4.460,1.555,1.550
4.462,1.475,1.480
4.464,1.285,1.335
4.466,1.075,1.140
4.468,0.825,0.905
4.470,0.465,0.660
4.472,0.205,0.420
4.474,0.010,0.215
4.476,-0.110,0.055
4.478,-0.175,-0.055
4.480,-0.210,-0.115
4.482,-0.170,-0.135
4.484,-0.170,-0.130
4.486,-0.190,-0.110
4.488,-0.195,-0.090
4.490,-0.210,-0.075
4.492,-0.225,-0.070
4.494,-0.210,-0.080
4.496,-0.170,-0.090
4.498,-0.155,-0.100
4.500,-0.155,-0.110
4.502,-0.155,-0.110
4.504,-0.145,-0.100
4.506,-0.150,-0.090
4.508,-0.145,-0.075
4.510,-0.185,-0.060
4.512,-0.230,-0.050
4.514,-0.155,-0.045
4.516,-0.095,-0.050
4.518,-0.110,-0.055
4.520,-0.145,-0.065
4.522,-0.170,-0.075
4.524,-0.195,-0.085
4.526,-0.185,-0.090
4.528,-0.170,-0.090
4.530,-0.165,-0.090
4.532,-0.230,-0.085
4.534,-0.180,-0.080
4.536,-0.115,-0.075
4.538,-0.090,-0.065
4.540,-0.130,-0.060
4.542,-0.130,-0.050
4.544,-0.130,-0.045
4.546,-0.115,-0.040
4.548,-0.120,-0.035
4.550,-0.110,-0.030
4.552,-0.125,-0.025
4.554,-0.095,-0.025
4.556,-0.140,-0.030
4.558,-0.160,-0.035
4.560,-0.165,-0.040
4.562,-0.085,-0.045
4.564,-0.140,-0.045
4.566,-0.095,-0.045
4.568,-0.125,-0.040
4.570,-0.150,-0.030
4.572,-0.100,-0.025
4.574,-0.095,-0.015
4.576,-0.110,-0.010
4.578,-0.075,-0.010
4.580,-0.080,-0.005
4.582,-0.080,-0.010
4.584,-0.100,-0.010
4.586,-0.085,-0.010
4.588,-0.075,-0.005
4.590,-0.080,0.005
4.592,-0.085,0.015
4.594,-0.020,0.030
4.596,-0.030,0.045
4.598,-0.080,0.055
4.600,0.000,0.065
4.602,-0.020,0.075
4.604,0.000,0.080
4.606,0.030,0.085
4.608,0.070,0.090
4.610,-0.005,0.100
4.612,-0.025,0.110
4.614,0.060,0.125
4.616,0.070,0.140
4.618,0.115,0.160
4.620,0.095,0.175
4.622,0.095,0.185
4.624,0.045,0.195
4.626,0.105,0.200
4.628,0.125,0.205
4.630,0.115,0.210
4.632,0.110,0.215
4.634,0.165,0.220
4.636,0.155,0.225
4.638,0.125,0.230
4.640,0.150,0.235
4.642,0.195,0.240
4.644,0.140,0.240
4.646,0.180,0.245
4.648,0.165,0.245
4.650,0.175,0.250
4.652,0.165,0.255
4.654,0.190,0.265
4.656,0.215,0.275
4.658,0.205,0.285
4.660,0.200,0.290
4.662,0.200,0.300
4.664,0.205,0.300
4.666,0.235,0.300
4.668,0.260,0.300
4.670,0.225,0.290
4.672,0.230,0.285
4.674,0.210,0.275
4.676,0.165,0.265
4.678,0.150,0.250
4.680,0.150,0.235
4.682,0.125,0.220
4.684,0.105,0.205
4.686,0.090,0.185
4.688,0.075,0.170
4.690,0.075,0.150
4.692,0.080,0.135
4.694,0.025,0.120
4.696,-0.015,0.110
4.698,0.035,0.100
4.700,0.015,0.095
4.702,-0.030,0.090
4.704,0.010,0.080
4.706,0.010,0.075
4.708,0.000,0.065
4.710,-0.050,0.055
4.712,-0.055,0.040
4.714,-0.105,0.025
4.716,-0.140,0.010
4.718,-0.080,-0.005
4.720,-0.080,-0.020
4.722,-0.085,-0.035
4.724,-0.115,-0.045
4.726,-0.165,-0.060
4.728,-0.165,-0.070
4.730,-0.140,-0.075
4.732,-0.110,-0.085
4.734,-0.170,-0.090
4.736,-0.210,-0.090
4.738,-0.145,-0.090
4.740,-0.165,-0.090
4.742,-0.170,-0.085
4.744,-0.190,-0.080
4.746,-0.150,-0.075
4.748,-0.140,-0.075
4.750,-0.140,-0.070
4.752,-0.115,-0.070
4.754,-0.160,-0.070
4.756,-0.180,-0.075
4.758,-0.155,-0.080
4.760,-0.190,-0.080
4.762,-0.190,-0.085
4.764,-0.155,-0.090
4.766,-0.120,-0.090
4.768,-0.155,-0.095
4.770,-0.130,-0.090
4.772,-0.155,-0.090
4.774,-0.160,-0.090
4.776,-0.215,-0.085
4.778,-0.190,-0.080
4.780,-0.120,-0.075
4.782,-0.130,-0.075
4.784,-0.110,-0.075
4.786,-0.160,-0.075
4.788,-0.165,-0.080
4.790,-0.160,-0.085
4.792,-0.170,-0.090
4.794,-0.170,-0.090
4.796,-0.175,-0.095
4.798,-0.155,-0.095
4.800,-0.185,-0.095
4.802,-0.195,-0.090
4.804,-0.160,-0.085
4.806,-0.100,-0.080
4.808,-0.120,-0.075
4.810,-0.160,-0.070
4.812,-0.155,-0.070
4.814,-0.135,-0.070
4.816,-0.140,-0.070
4.818,-0.155,-0.070
4.820,-0.160,-0.075
4.822,-0.165,-0.075
4.824,-0.120,-0.075
4.826,-0.165,-0.075
4.828,-0.145,-0.075
4.830,-0.105,-0.070
4.832,-0.065,-0.065
4.834,-0.130,-0.065
4.836,-0.170,-0.060
4.838,-0.150,-0.060
4.840,-0.165,-0.060
4.842,-0.195,-0.060
4.844,-0.145,-0.065
4.846,-0.080,-0.065
4.848,-0.105,-0.065
4.850,-0.140,-0.065
4.852,-0.125,-0.065
4.854,-0.150,-0.065
4.856,-0.130,-0.060
4.858,-0.090,-0.060
4.860,-0.135,-0.055
4.862,-0.130,-0.050
4.864,-0.140,-0.050
4.866,-0.135,-0.045
4.868,-0.175,-0.045
4.870,-0.170,-0.050
4.872,-0.085,-0.050
4.874,-0.060,-0.050
4.876,-0.080,-0.055
4.878,-0.120,-0.055
4.880,-0.125,-0.060
4.882,-0.180,-0.060
4.884,-0.145,-0.060
4.886,-0.130,-0.060
4.888,-0.125,-0.060
4.890,-0.135,-0.055
4.892,-0.135,-0.055
4.894,-0.140,-0.060
4.896,-0.130,-0.060
4.898,-0.140,-0.065
4.900,-0.125,-0.065
4.902,-0.110,-0.070
4.904,-0.135,-0.070
4.906,-0.120,-0.070
4.908,-0.140,-0.070
4.910,-0.130,-0.065
4.912,-0.110,-0.055
4.914,-0.135,-0.050
4.916,-0.120,-0.040
4.918,-0.060,-0.035
4.920,-0.110,-0.035
4.922,-0.140,-0.035
4.924,-0.085,-0.045
4.926,-0.110,-0.050
4.928,-0.115,-0.060
4.930,-0.165,-0.065
4.932,-0.175,-0.070
4.934,-0.120,-0.070
4.936,-0.110,-0.070
4.938,-0.125,-0.060
4.940,-0.145,-0.055
4.942,-0.165,-0.050
4.944,-0.080,-0.045
4.946,-0.110,-0.040
4.948,-0.140,-0.045
4.950,-0.140,-0.050
4.952,-0.110,-0.060
4.954,-0.145,-0.065
4.956,-0.130,-0.075
4.958,-0.150,-0.075
4.960,-0.120,-0.075
4.962,-0.135,-0.075
4.964,-0.115,-0.070
4.966,-0.125,-0.060
4.968,-0.105,-0.055
4.970,-0.135,-0.050
4.972,-0.070,-0.045
4.974,-0.105,-0.045
4.976,-0.125,-0.045
4.978,-0.195,-0.050
4.980,-0.125,-0.050
4.982,-0.135,-0.055
4.984,-0.130,-0.060
4.986,-0.130,-0.065
4.988,-0.160,-0.070
4.990,-0.110,-0.070
4.992,-0.090,-0.075
4.994,-0.145,-0.075
4.996,-0.135,-0.075
4.998,-0.150,-0.075
5.000,-0.145,-0.075
5.002,-0.165,-0.070
5.004,-0.115,-0.070
5.006,-0.140,-0.070
5.008,-0.135,-0.070
5.010,-0.135,-0.070
5.012,-0.140,-0.070
5.014,-0.135,-0.070
5.016,-0.165,-0.065
5.018,-0.075,-0.065
5.020,-0.120,-0.055
5.022,-0.170,-0.050
5.024,-0.095,-0.045
5.026,-0.110,-0.040
5.028,-0.125,-0.035
5.030,-0.100,-0.035
5.032,-0.085,-0.040
5.034,-0.150,-0.050
5.036,-0.100,-0.055
5.038,-0.105,-0.065
5.040,-0.155,-0.070
5.042,-0.135,-0.075
5.044,-0.130,-0.080
5.046,-0.170,-0.075
5.048,-0.175,-0.075
5.050,-0.135,-0.070
5.052,-0.085,-0.065
5.054,-0.110,-0.060
5.056,-0.105,-0.060
5.058,-0.080,-0.055
5.060,-0.060,-0.050
5.062,-0.130,-0.045
5.064,-0.175,-0.045
5.066,-0.120,-0.045
5.068,-0.095,-0.045
5.070,-0.100,-0.050
5.072,-0.115,-0.055
5.074,-0.150,-0.060
5.076,-0.125,-0.070
5.078,-0.135,-0.075
5.080,-0.170,-0.085
5.082,-0.160,-0.085
5.084,-0.125,-0.085
5.086,-0.110,-0.085
5.088,-0.130,-0.080
5.090,-0.100,-0.075
5.092,-0.150,-0.065
5.094,-0.185,-0.060
5.096,-0.125,-0.055
5.098,-0.080,-0.050
5.100,-0.110,-0.045
5.102,-0.140,-0.045
5.104,-0.080,-0.045
5.106,-0.080,-0.045
5.108,-0.100,-0.050
5.110,-0.155,-0.055
5.112,-0.180,-0.065
5.114,-0.165,-0.075
5.116,-0.160,-0.085
5.118,-0.115,-0.090
5.120,-0.180,-0.095
5.122,-0.170,-0.090
5.124,-0.085,-0.080
5.126,-0.070,-0.070
5.128,-0.140,-0.055
5.130,-0.110,-0.045
5.132,-0.125,-0.040
5.134,-0.125,-0.040
5.136,-0.090,-0.050
5.138,-0.110,-0.060
5.140,-0.090,-0.075
5.142,-0.145,-0.085
5.144,-0.145,-0.095
5.146,-0.170,-0.100
5.148,-0.170,-0.100
5.150,-0.150,-0.095
5.152,-0.155,-0.085
5.154,-0.180,-0.075
5.156,-0.150,-0.065
5.158,-0.070,-0.055
5.160,-0.090,-0.050
5.162,-0.090,-0.050
5.164,-0.125,-0.050
5.166,-0.125,-0.055
5.168,-0.140,-0.055
5.170,-0.120,-0.060
5.172,-0.130,-0.060
5.174,-0.160,-0.065
5.176,-0.120,-0.065
5.178,-0.115,-0.065
5.180,-0.130,-0.065
5.182,-0.115,-0.060
5.184,-0.075,-0.055
5.186,-0.075,-0.050
5.188,-0.105,-0.045
5.190,-0.105,-0.035
5.192,-0.080,-0.030
5.194,-0.100,-0.020
5.196,-0.050,-0.015
5.198,-0.055,-0.015
5.200,-0.130,-0.015
5.202,-0.070,-0.015
5.204,-0.090,-0.020
5.206,-0.100,-0.025
5.208,-0.125,-0.025
5.210,-0.060,-0.025
5.212,-0.080,-0.025
5.214,-0.050,-0.020
5.216,-0.065,-0.020
5.218,-0.090,-0.015
5.220,-0.095,-0.015
5.222,-0.095,-0.015
5.224,-0.095,-0.015
5.226,-0.070,-0.015
5.228,-0.075,-0.020
5.230,-0.035,-0.025
5.232,-0.090,-0.030
5.234,-0.140,-0.035
5.236,-0.080,-0.040
5.238,-0.115,-0.045
5.240,-0.120,-0.050
5.242,-0.080,-0.055
5.244,-0.095,-0.055
5.246,-0.130,-0.055
5.248,-0.135,-0.050
5.250,-0.075,-0.045
5.252,-0.100,-0.045
5.254,-0.090,-0.045
5.256,-0.090,-0.045
5.258,-0.125,-0.050
5.260,-0.115,-0.055
5.262,-0.135,-0.065
5.264,-0.130,-0.075
5.266,-0.110,-0.085
5.268,-0.160,-0.095
5.270,-0.135,-0.100
5.272,-0.160,-0.100
5.274,-0.180,-0.095
5.276,-0.135,-0.095
5.278,-0.115,-0.090
5.280,-0.185,-0.085
5.282,-0.135,-0.090
5.284,-0.155,-0.095
5.286,-0.175,-0.100
5.288,-0.170,-0.110
5.290,-0.145,-0.120
5.292,-0.135,-0.125
5.294,-0.135,-0.125
5.296,-0.155,-0.120
5.298,-0.165,-0.110
5.300,-0.165,-0.100
5.302,-0.155,-0.100
5.304,-0.135,-0.105
5.306,-0.175,-0.125
5.308,-0.210,-0.150
5.310,-0.260,-0.190
5.312,-0.335,-0.225
5.314,-0.310,-0.260
5.316,-0.360,-0.280
5.318,-0.370,-0.275
5.320,-0.305,-0.250
5.322,-0.265,-0.195
5.324,-0.185,-0.115
5.326,-0.050,-0.020
5.328,0.110,0.090
5.330,0.195,0.205
5.332,0.235,0.325
5.334,0.390,0.450
5.336,0.560,0.585
5.338,0.695,0.730
5.340,0.790,0.885
5.342,0.980,1.050
5.344,1.205,1.220
5.346,1.440,1.380
5.348,1.535,1.505
5.350,1.615,1.585
5.352,1.605,1.600
5.354,1.570,1.540
5.356,1.395,1.410
5.358,1.170,1.210
5.360,0.950,0.970
5.362,0.605,0.705
5.364,0.245,0.450
5.366,0.060,0.230
5.368,-0.055,0.055
5.370,-0.125,-0.060
5.372,-0.195,-0.120
5.374,-0.175,-0.140
5.376,-0.160,-0.125
5.378,-0.175,-0.100
5.380,-0.175,-0.075
5.382,-0.120,-0.060
5.384,-0.115,-0.060
5.386,-0.155,-0.070
5.388,-0.120,-0.085
5.390,-0.110,-0.100
5.392,-0.140,-0.110
5.394,-0.135,-0.115
5.396,-0.135,-0.110
5.398,-0.190,-0.100
5.400,-0.155,-0.090
5.402,-0.120,-0.080
5.404,-0.130,-0.075
5.406,-0.120,-0.075
5.408,-0.135,-0.075
5.410,-0.125,-0.080
5.412,-0.105,-0.080
5.414,-0.120,-0.085
5.416,-0.110,-0.085
5.418,-0.145,-0.080
5.420,-0.180,-0.080
5.422,-0.120,-0.080
5.424,-0.170,-0.080
5.426,-0.170,-0.080
5.428,-0.135,-0.085
5.430,-0.130,-0.080
5.432,-0.085,-0.075
5.434,-0.110,-0.070
5.436,-0.125,-0.060
5.438,-0.105,-0.050
5.440,-0.085,-0.040
5.442,-0.070,-0.035
5.444,-0.060,-0.030
5.446,-0.090,-0.035
5.448,-0.090,-0.040
5.450,-0.135,-0.045
5.452,-0.100,-0.050
5.454,-0.070,-0.055
5.456,-0.085,-0.055
5.458,-0.155,-0.050
5.460,-0.100,-0.040
5.462,-0.045,-0.030
5.464,-0.055,-0.020
5.466,-0.050,-0.010
5.468,-0.050,-0.005
5.470,-0.100,-0.005
5.472,-0.045,-0.005
5.474,-0.090,-0.015
5.476,-0.080,-0.020
5.478,-0.070,-0.025
5.480,0.010,-0.030
5.482,-0.055,-0.030
5.484,-0.065,-0.020
5.486,-0.055,-0.015
5.488,-0.050,0.000
5.490,-0.025,0.015
5.492,-0.010,0.030
5.494,-0.035,0.040
5.496,0.010,0.050
5.498,0.055,0.060
5.500,0.020,0.065
5.502,0.030,0.070
5.504,0.035,0.075
5.506,0.025,0.080
5.508,0.050,0.085
5.510,0.065,0.095
5.512,0.020,0.110
5.514,0.080,0.125
5.516,0.130,0.135
5.518,0.105,0.150
5.520,0.085,0.160
5.522,0.110,0.165
5.524,0.130,0.170
5.526,0.150,0.170
5.528,0.185,0.170
5.530,0.125,0.170
5.532,0.140,0.175
5.534,0.140,0.180
5.536,0.145,0.185
5.538,0.150,0.195
5.540,0.170,0.205
5.542,0.160,0.215
5.544,0.190,0.230
5.546,0.215,0.240
5.548,0.195,0.250
5.550,0.190,0.265
5.552,0.230,0.270
5.554,0.255,0.280
5.556,0.235,0.285
5.558,0.220,0.290
5.560,0.265,0.290
5.562,0.215,0.285
5.564,0.230,0.280
5.566,0.225,0.275
5.568,0.210,0.265
5.570,0.225,0.255
5.572,0.180,0.245
5.574,0.195,0.235
5.576,0.210,0.225
5.578,0.160,0.220
5.580,0.150,0.215
5.582,0.135,0.205
5.584,0.145,0.195
5.586,0.140,0.185
5.588,0.100,0.170
5.590,0.055,0.150
5.592,0.075,0.135
5.594,0.110,0.115
5.596,0.100,0.095
5.598,0.025,0.080
5.600,0.025,0.070
5.602,0.010,0.060
5.604,-0.005,0.050
5.606,0.005,0.045
5.608,0.025,0.035
5.610,-0.060,0.025
5.612,-0.050,0.015
5.614,-0.055,0.000
5.616,-0.090,-0.015
5.618,-0.110,-0.030
5.620,-0.110,-0.045
5.622,-0.100,-0.060
5.624,-0.080,-0.070
5.626,-0.090,-0.075
5.628,-0.135,-0.075
5.630,-0.140,-0.075
5.632,-0.095,-0.075
5.634,-0.120,-0.070
5.636,-0.155,-0.065
5.638,-0.115,-0.065
5.640,-0.120,-0.070
5.642,-0.130,-0.075
5.644,-0.150,-0.085
5.646,-0.170,-0.100
5.648,-0.150,-0.110
5.650,-0.170,-0.115
5.652,-0.145,-0.120
5.654,-0.150,-0.120
5.656,-0.155,-0.110
5.658,-0.135,-0.105
5.660,-0.130,-0.095
5.662,-0.090,-0.085
5.664,-0.100,-0.080
5.666,-0.110,-0.075
5.668,-0.105,-0.080
5.670,-0.160,-0.080
5.672,-0.155,-0.085
5.674,-0.155,-0.090
5.676,-0.165,-0.095
5.678,-0.115,-0.100
5.680,-0.095,-0.100
5.682,-0.155,-0.100
5.684,-0.180,-0.100
5.686,-0.130,-0.105
5.688,-0.120,-0.105
5.690,-0.175,-0.105
5.692,-0.150,-0.105
5.694,-0.120,-0.105
5.696,-0.140,-0.100
5.698,-0.130,-0.095
5.700,-0.150,-0.090
5.702,-0.150,-0.085
5.704,-0.100,-0.080
5.706,-0.095,-0.080
5.708,-0.150,-0.085
5.710,-0.165,-0.095
5.712,-0.185,-0.100
5.714,-0.165,-0.110
5.716,-0.145,-0.115
5.718,-0.120,-0.115
5.720,-0.145,-0.115
5.722,-0.165,-0.110
5.724,-0.140,-0.100
5.726,-0.080,-0.095
5.728,-0.150,-0.090
5.730,-0.150,-0.085
5.732,-0.130,-0.080
5.734,-0.125,-0.080
5.736,-0.145,-0.085
5.738,-0.125,-0.085
5.740,-0.125,-0.085
5.742,-0.145,-0.090
5.744,-0.120,-0.095
5.746,-0.150,-0.100
5.748,-0.140,-0.105
5.750,-0.160,-0.110
5.752,-0.215,-0.115
5.754,-0.160,-0.120
5.756,-0.135,-0.115
5.758,-0.110,-0.110
5.760,-0.095,-0.100
5.762,-0.095,-0.085
5.764,-0.105,-0.075
5.766,-0.035,-0.065
5.768,-0.105,-0.060
5.770,-0.165,-0.060
5.772,-0.155,-0.070
5.774,-0.135,-0.085
5.776,-0.170,-0.105
5.778,-0.170,-0.120
5.780,-0.140,-0.130
5.782,-0.120,-0.135
5.784,-0.155,-0.135
5.786,-0.160,-0.125
5.788,-0.130,-0.115
5.790,-0.150,-0.105
5.792,-0.140,-0.095
5.794,-0.120,-0.090
5.796,-0.135,-0.090
5.798,-0.115,-0.095
5.800,-0.145,-0.100
5.802,-0.175,-0.105
5.804,-0.150,-0.105
5.806,-0.120,-0.105
5.808,-0.140,-0.100
5.810,-0.180,-0.095
5.812,-0.105,-0.085
5.814,-0.095,-0.080
5.816,-0.135,-0.075
5.818,-0.105,-0.075
5.820,-0.115,-0.080
5.822,-0.115,-0.085
5.824,-0.105,-0.095
5.826,-0.125,-0.100
5.828,-0.140,-0.105
5.830,-0.145,-0.110
5.832,-0.185,-0.110
5.834,-0.145,-0.110
5.836,-0.165,-0.115
5.838,-0.150,-0.115
5.840,-0.165,-0.115
5.842,-0.140,-0.120
5.844,-0.135,-0.115
5.846,-0.110,-0.115
5.848,-0.110,-0.110
5.850,-0.165,-0.100
5.852,-0.145,-0.090
5.854,-0.095,-0.080
5.856,-0.090,-0.075
5.858,-0.115,-0.070
5.860,-0.110,-0.070
5.862,-0.120,-0.075
5.864,-0.140,-0.085
5.866,-0.150,-0.095
5.868,-0.185,-0.110
5.870,-0.170,-0.120
5.872,-0.140,-0.125
5.874,-0.165,-0.125
5.876,-0.130,-0.120
5.878,-0.140,-0.110
5.880,-0.140,-0.100
5.882,-0.115,-0.085
5.884,-0.085,-0.080
5.886,-0.040,-0.075
5.888,-0.140,-0.075
5.890,-0.165,-0.080
5.892,-0.185,-0.085
5.894,-0.130,-0.095
5.896,-0.180,-0.100
5.898,-0.130,-0.105
5.900,-0.115,-0.105
5.902,-0.125,-0.105
5.904,-0.155,-0.100
5.906,-0.135,-0.095
5.908,-0.150,-0.090
5.910,-0.125,-0.085
5.912,-0.120,-0.085
5.914,-0.160,-0.090
5.916,-0.160,-0.090
5.918,-0.115,-0.100
5.920,-0.150,-0.105
5.922,-0.155,-0.110
5.924,-0.130,-0.110
5.926,-0.135,-0.115
5.928,-0.185,-0.115
5.930,-0.190,-0.110
5.932,-0.130,-0.105
5.934,-0.105,-0.100
5.936,-0.110,-0.095
5.938,-0.085,-0.085
5.940,-0.085,-0.080
5.942,-0.115,-0.075
5.944,-0.145,-0.070
5.946,-0.150,-0.070
5.948,-0.100,-0.070
5.950,-0.105,-0.075
5.952,-0.115,-0.085
5.954,-0.155,-0.095
5.956,-0.165,-0.110
5.958,-0.155,-0.115
5.960,-0.165,-0.120
5.962,-0.170,-0.120
5.964,-0.160,-0.120
5.966,-0.135,-0.115
5.968,-0.135,-0.110
5.970,-0.150,-0.105
5.972,-0.135,-0.100
5.974,-0.140,-0.100
5.976,-0.175,-0.100
5.978,-0.140,-0.100
5.980,-0.125,-0.105
5.982,-0.105,-0.105
5.984,-0.095,-0.100
5.986,-0.150,-0.100
5.988,-0.180,-0.100
5.990,-0.125,-0.095
5.992,-0.160,-0.095
5.994,-0.170,-0.100
5.996,-0.185,-0.100
5.998,-0.140,-0.105
6.000,-0.145,-0.110
6.002,-0.105,-0.110
6.004,-0.065,-0.110
6.006,-0.110,-0.105
6.008,-0.180,-0.100
6.010,-0.120,-0.095
6.012,-0.130,-0.090
6.014,-0.155,-0.090
6.016,-0.180,-0.090
6.018,-0.175,-0.095
6.020,-0.155,-0.100
6.022,-0.110,-0.100
6.024,-0.105,-0.105
6.026,-0.115,-0.100
6.028,-0.150,-0.100
6.030,-0.145,-0.095
6.032,-0.110,-0.090
6.034,-0.100,-0.090
6.036,-0.100,-0.090
6.038,-0.170,-0.100
6.040,-0.195,-0.105
6.042,-0.160,-0.110
6.044,-0.130,-0.115
6.046,-0.125,-0.115
6.048,-0.110,-0.110
6.050,-0.130,-0.105
6.052,-0.120,-0.095
6.054,-0.155,-0.085
6.056,-0.105,-0.080
6.058,-0.140,-0.080
6.060,-0.170,-0.085
6.062,-0.080,-0.090
6.064,-0.135,-0.100
6.066,-0.155,-0.105
6.068,-0.125,-0.105
6.070,-0.110,-0.105
6.072,-0.105,-0.100
6.074,-0.105,-0.090
6.076,-0.060,-0.075
6.078,-0.065,-0.065
6.080,-0.075,-0.055
6.082,-0.075,-0.050
6.084,-0.045,-0.050
6.086,-0.105,-0.050
6.088,-0.105,-0.055
6.090,-0.085,-0.055
6.092,-0.090,-0.055
6.094,-0.110,-0.060
6.096,-0.075,-0.060
6.098,-0.100,-0.065
6.100,-0.110,-0.065
6.102,-0.110,-0.070
6.104,-0.110,-0.075
6.106,-0.095,-0.075
6.108,-0.125,-0.075
6.110,-0.080,-0.075
6.112,-0.100,-0.065
6.114,-0.120,-0.055
6.116,-0.060,-0.045
6.118,-0.060,-0.040
6.120,-0.080,-0.040
6.122,-0.090,-0.045
6.124,-0.070,-0.055
6.126,-0.115,-0.070
6.128,-0.060,-0.085
6.130,-0.125,-0.100
6.132,-0.200,-0.110
6.134,-0.210,-0.115
6.136,-0.105,-0.115
6.138,-0.110,-0.105
6.140,-0.110,-0.100
6.142,-0.110,-0.095
6.144,-0.130,-0.095
6.146,-0.180,-0.095
6.148,-0.195,-0.105
6.150,-0.155,-0.115
6.152,-0.095,-0.120
6.154,-0.140,-0.130
6.156,-0.155,-0.130
6.158,-0.175,-0.125
6.160,-0.155,-0.125
6.162,-0.170,-0.120
6.164,-0.135,-0.115
6.166,-0.145,-0.120
6.168,-0.205,-0.125
6.170,-0.170,-0.135
6.172,-0.105,-0.145
6.174,-0.195,-0.150
6.176,-0.170,-0.155
6.178,-0.130,-0.150
6.180,-0.130,-0.140
6.182,-0.155,-0.130
6.184,-0.140,-0.125
6.186,-0.195,-0.125
6.188,-0.215,-0.140
6.190,-0.240,-0.170
6.192,-0.265,-0.205
6.194,-0.275,-0.245
6.196,-0.305,-0.275
6.198,-0.315,-0.295
6.200,-0.360,-0.295
6.202,-0.345,-0.270
6.204,-0.240,-0.220
6.206,-0.170,-0.145
6.208,-0.050,-0.055
6.210,0.080,0.050
6.212,0.170,0.160
6.214,0.235,0.285
6.216,0.340,0.420
6.218,0.535,0.565
6.220,0.730,0.720
6.222,0.925,0.890
6.224,1.055,1.065
6.226,1.225,1.235
6.228,1.435,1.380
6.230,1.550,1.485
6.232,1.550,1.540
6.234,1.550,1.525
6.236,1.515,1.435
6.238,1.330,1.285
6.240,1.100,1.080
6.242,0.845,0.845
6.244,0.455,0.600
6.246,0.195,0.370
6.248,0.060,0.175
6.250,-0.080,0.020
6.252,-0.165,-0.080
6.254,-0.125,-0.140
6.256,-0.125,-0.165
6.258,-0.185,-0.170
6.260,-0.170,-0.160
6.262,-0.220,-0.150
6.264,-0.205,-0.140
6.266,-0.165,-0.135
6.268,-0.185,-0.135
6.270,-0.120,-0.135
6.272,-0.130,-0.130
6.274,-0.170,-0.125
6.276,-0.110,-0.120
6.278,-0.130,-0.110
6.280,-0.100,-0.105
6.282,-0.115,-0.105
6.284,-0.205,-0.110
6.286,-0.225,-0.120
6.288,-0.155,-0.125
6.290,-0.140,-0.135
6.292,-0.145,-0.135
6.294,-0.155,-0.130
6.296,-0.110,-0.120
6.298,-0.100,-0.110
6.300,-0.120,-0.095
6.302,-0.125,-0.085
6.304,-0.155,-0.080
6.306,-0.160,-0.075
6.308,-0.090,-0.080
6.310,-0.085,-0.085
6.312,-0.120,-0.095
6.314,-0.120,-0.100
6.316,-0.120,-0.100
6.318,-0.165,-0.100
6.320,-0.145,-0.095
6.322,-0.050,-0.090
6.324,-0.090,-0.090
6.326,-0.150,-0.085
6.328,-0.090,-0.090
6.330,-0.105,-0.090
6.332,-0.105,-0.090
6.334,-0.085,-0.090
6.336,-0.070,-0.090
6.338,-0.105,-0.085
6.340,-0.140,-0.075
6.342,-0.085,-0.065
6.344,-0.060,-0.060
6.346,-0.070,-0.055
6.348,-0.090,-0.050
6.350,-0.070,-0.055
6.352,-0.065,-0.055
6.354,-0.090,-0.060
6.356,-0.070,-0.060
6.358,-0.080,-0.050
6.360,-0.065,-0.040
6.362,-0.020,-0.030
6.364,-0.020,-0.010
6.366,-0.035,0.000
6.368,0.020,0.010
6.370,0.015,0.015
6.372,-0.045,0.015
6.374,-0.025,0.010
6.376,0.005,0.000
6.378,-0.015,-0.005
6.380,-0.020,-0.005
6.382,-0.030,0.000
6.384,-0.020,0.010
6.386,0.020,0.025
6.388,0.010,0.045
6.390,0.075,0.065
6.392,0.080,0.080
6.394,0.100,0.090
6.396,0.080,0.100
6.398,0.100,0.100
6.400,0.105,0.105
6.402,0.085,0.105
6.404,0.065,0.110
6.406,0.115,0.115
6.408,0.100,0.125
6.410,0.125,0.140
6.412,0.130,0.155
6.414,0.130,0.170
6.416,0.180,0.180
6.418,0.185,0.195
6.420,0.185,0.200
6.422,0.240,0.205
6.424,0.155,0.210
6.426,0.220,0.215
6.428,0.235,0.215
6.430,0.210,0.220
6.432,0.215,0.220
6.434,0.235,0.225
6.436,0.215,0.225
6.438,0.195,0.230
6.440,0.225,0.235
6.442,0.250,0.235
6.444,0.265,0.235
6.446,0.215,0.235
6.448,0.215,0.230
6.450,0.245,0.225
6.452,0.230,0.220
6.454,0.240,0.210
6.456,0.185,0.200
6.458,0.140,0.190
6.460,0.135,0.180
6.462,0.175,0.175
6.464,0.150,0.165
6.466,0.165,0.160
6.468,0.175,0.150
6.470,0.170,0.140
6.472,0.160,0.125
6.474,0.150,0.110
6.476,0.070,0.095
6.478,0.050,0.075
6.480,0.010,0.050
6.482,0.010,0.035
6.484,-0.005,0.015
6.486,-0.010,0.005
6.488,-0.035,-0.005
6.490,-0.035,-0.015
6.492,-0.050,-0.020
6.494,-0.050,-0.025
6.496,-0.055,-0.035
6.498,-0.065,-0.050
6.500,-0.060,-0.065
6.502,-0.100,-0.080
6.504,-0.150,-0.095
6.506,-0.125,-0.105
6.508,-0.120,-0.115
6.510,-0.090,-0.120
6.512,-0.095,-0.120
6.514,-0.115,-0.115
6.516,-0.105,-0.110
6.518,-0.135,-0.105
6.520,-0.150,-0.105
6.522,-0.120,-0.105
6.524,-0.130,-0.115
6.526,-0.120,-0.125
6.528,-0.145,-0.135
6.530,-0.170,-0.145
6.532,-0.145,-0.150
6.534,-0.115,-0.155
6.536,-0.140,-0.150
6.538,-0.135,-0.150
6.540,-0.110,-0.140
6.542,-0.130,-0.135
6.544,-0.175,-0.130
6.546,-0.135,-0.125
6.548,-0.135,-0.125
6.550,-0.170,-0.130
6.552,-0.160,-0.135
6.554,-0.120,-0.140
6.556,-0.135,-0.145
6.558,-0.140,-0.150
6.560,-0.125,-0.150
6.562,-0.115,-0.150
6.564,-0.150,-0.145
6.566,-0.140,-0.140
6.568,-0.115,-0.130
6.570,-0.110,-0.125
6.572,-0.115,-0.120
6.574,-0.090,-0.115
6.576,-0.100,-0.120
6.578,-0.145,-0.125
6.580,-0.145,-0.130
6.582,-0.175,-0.140
6.584,-0.140,-0.150
6.586,-0.100,-0.155
6.588,-0.135,-0.150
6.590,-0.150,-0.145
6.592,-0.140,-0.135
6.594,-0.090,-0.120
6.596,-0.065,-0.105
6.598,-0.075,-0.095
6.600,-0.120,-0.090
6.602,-0.155,-0.090
6.604,-0.075,-0.095
6.606,-0.085,-0.105
6.608,-0.115,-0.120
6.610,-0.150,-0.135
6.612,-0.135,-0.145
6.614,-0.120,-0.150
6.616,-0.110,-0.145
6.618,-0.075,-0.140
6.620,-0.080,-0.125
6.622,-0.120,-0.110
6.624,-0.075,-0.100
6.626,-0.055,-0.090
6.628,-0.120,-0.085
6.630,-0.120,-0.090
6.632,-0.130,-0.095
6.634,-0.150,-0.110
6.636,-0.130,-0.120
6.638,-0.095,-0.130
6.640,-0.080,-0.140
6.642,-0.120,-0.145
6.644,-0.115,-0.140
6.646,-0.110,-0.135
6.648,-0.115,-0.125
6.650,-0.080,-0.115
6.652,-0.105,-0.110
6.654,-0.090,-0.100
6.656,-0.100,-0.100
6.658,-0.095,-0.100
6.660,-0.060,-0.105
6.662,-0.100,-0.105
6.664,-0.080,-0.105
6.666,-0.045,-0.105
6.668,-0.075,-0.105
6.670,-0.115,-0.095
6.672,-0.105,-0.090
6.674,-0.065,-0.085
6.676,-0.080,-0.080
6.678,-0.075,-0.080
6.680,-0.085,-0.085
6.682,-0.095,-0.090
6.684,-0.105,-0.105
6.686,-0.090,-0.115
6.688,-0.105,-0.125
6.690,-0.150,-0.135
6.692,-0.120,-0.135
6.694,-0.080,-0.135
6.696,-0.085,-0.130
6.698,-0.090,-0.120
6.700,-0.130,-0.110
6.702,-0.075,-0.105
6.704,-0.070,-0.100
6.706,-0.065,-0.095
6.708,-0.110,-0.100
6.710,-0.120,-0.105
6.712,-0.080,-0.110
6.714,-0.110,-0.115
6.716,-0.105,-0.120
6.718,-0.130,-0.120
6.720,-0.085,-0.125
6.722,-0.120,-0.125
6.724,-0.145,-0.125
6.726,-0.080,-0.120
6.728,-0.095,-0.120
6.730,-0.070,-0.120
6.732,-0.095,-0.120
6.734,-0.095,-0.115
6.736,-0.110,-0.115
6.738,-0.125,-0.110
6.740,-0.105,-0.110
6.742,-0.055,-0.110
6.744,-0.065,-0.110
6.746,-0.090,-0.110
6.748,-0.110,-0.110
6.750,-0.140,-0.115
6.752,-0.135,-0.115
6.754,-0.075,-0.120
6.756,-0.020,-0.115
6.758,-0.060,-0.110
6.760,-0.110,-0.105
6.762,-0.065,-0.100
6.764,-0.085,-0.095
6.766,-0.075,-0.090
6.768,-0.090,-0.095
6.770,-0.130,-0.100
6.772,-0.085,-0.105
6.774,-0.040,-0.120
6.776,-0.065,-0.130
6.778,-0.115,-0.135
6.780,-0.115,-0.140
6.782,-0.115,-0.145
6.784,-0.110,-0.140
6.786,-0.075,-0.135
6.788,-0.060,-0.130
6.790,-0.115,-0.125
6.792,-0.105,-0.120
6.794,-0.120,-0.115
6.796,-0.080,-0.115
6.798,-0.095,-0.110
6.800,-0.060,-0.105
6.802,-0.060,-0.100
6.804,-0.110,-0.095
6.806,-0.050,-0.090
6.808,-0.060,-0.085
6.810,-0.080,-0.080
6.812,-0.050,-0.080
6.814,-0.050,-0.080
6.816,-0.040,-0.080
6.818,-0.060,-0.085
6.820,-0.040,-0.085
6.822,-0.010,-0.080
6.824,-0.010,-0.075
6.826,-0.025,-0.065
6.828,-0.085,-0.055
6.830,-0.045,-0.045
6.832,0.020,-0.035
6.834,0.015,-0.035
6.836,-0.025,-0.040
6.838,-0.060,-0.050
6.840,-0.040,-0.065
6.842,-0.035,-0.080
6.844,-0.025,-0.085
6.846,-0.070,-0.090
6.848,-0.055,-0.090
6.850,-0.035,-0.080
6.852,0.005,-0.070
6.854,-0.035,-0.060
6.856,-0.045,-0.055
6.858,-0.030,-0.050
6.860,-0.030,-0.055
6.862,-0.060,-0.060
6.864,-0.065,-0.070
6.866,-0.050,-0.085
6.868,-0.060,-0.095
6.870,-0.055,-0.100
6.872,-0.035,-0.100
6.874,-0.075,-0.100
6.876,-0.115,-0.095
6.878,-0.080,-0.085
6.880,0.000,-0.075
6.882,-0.010,-0.070
6.884,0.005,-0.065
6.886,-0.030,-0.060
6.888,-0.070,-0.060
6.890,-0.045,-0.065
6.892,-0.055,-0.065
6.894,-0.015,-0.065
6.896,-0.030,-0.065
6.898,-0.005,-0.065
6.900,0.035,-0.060
6.902,-0.020,-0.055
6.904,-0.015,-0.050
6.906,-0.030,-0.045
6.908,-0.015,-0.040
6.910,0.015,-0.035
6.912,0.010,-0.035
6.914,-0.010,-0.035
6.916,0.005,-0.030
6.918,0.045,-0.025
6.920,0.000,-0.020
6.922,-0.005,-0.010
6.924,0.050,0.005
6.926,0.080,0.015
6.928,0.075,0.030
6.930,0.100,0.040
6.932,0.075,0.045
6.934,0.085,0.050
6.936,0.070,0.055
6.938,0.110,0.055
6.940,0.130,0.060
6.942,0.105,0.065
6.944,0.120,0.075
6.946,0.170,0.080
6.948,0.115,0.090
6.950,0.115,0.100
6.952,0.165,0.100
6.954,0.155,0.105
6.956,0.155,0.105
6.958,0.125,0.100
6.960,0.135,0.100
6.962,0.155,0.105
6.964,0.175,0.115
6.966,0.205,0.130
6.968,0.195,0.150
6.970,0.230,0.175
6.972,0.285,0.195
6.974,0.265,0.215
6.976,0.250,0.225
6.978,0.235,0.225
6.980,0.265,0.220
6.982,0.230,0.210
6.984,0.200,0.200
6.986,0.250,0.190
6.988,0.225,0.185
6.990,0.275,0.185
6.992,0.290,0.195
6.994,0.240,0.205
6.996,0.255,0.215
6.998,0.265,0.225
7.000,0.270,0.230
7.002,0.280,0.235
7.004,0.280,0.240
7.006,0.265,0.240
7.008,0.265,0.245
7.010,0.270,0.250
7.012,0.315,0.255
7.014,0.320,0.260
7.016,0.310,0.270
7.018,0.335,0.270
7.020,0.310,0.270
7.022,0.285,0.265
7.024,0.285,0.255
7.026,0.280,0.245
7.028,0.265,0.240
7.030,0.265,0.235
7.032,0.265,0.230
7.034,0.270,0.230
7.036,0.225,0.220
7.038,0.245,0.205
7.040,0.220,0.180
7.042,0.200,0.145
7.044,0.185,0.100
7.046,0.105,0.055
7.048,-0.010,0.015
7.050,-0.010,-0.010
7.052,0.005,-0.015
7.054,0.065,0.015
7.056,0.150,0.070
7.058,0.240,0.155
7.060,0.300,0.265
7.062,0.435,0.390
7.064,0.590,0.525
7.066,0.705,0.665
7.068,0.865,0.810
7.070,1.045,0.965
7.072,1.200,1.120
7.074,1.290,1.275
7.076,1.485,1.435
7.078,1.725,1.575
7.080,1.835,1.695
7.082,1.915,1.765
7.084,1.855,1.780
7.086,1.820,1.725
7.088,1.700,1.600
7.090,1.490,1.405
7.092,1.265,1.165
7.094,0.930,0.900
7.096,0.540,0.640
7.098,0.355,0.405
7.100,0.190,0.220
7.102,0.090,0.095
7.104,0.085,0.030
7.106,0.085,0.010
7.108,0.045,0.020
7.110,0.135,0.050
7.112,0.135,0.075
7.114,0.105,0.090
7.116,0.090,0.090
7.118,0.075,0.075
7.120,0.060,0.055
7.122,0.080,0.030
7.124,0.100,0.015
7.126,0.110,0.010
7.128,0.085,0.010
7.130,0.060,0.025
7.132,0.070,0.040
7.134,0.065,0.055
7.136,0.140,0.060
7.138,0.125,0.060
7.140,0.080,0.055
7.142,0.075,0.045
7.144,0.080,0.030
7.146,0.085,0.020
7.148,0.095,0.015
7.150,0.085,0.015
7.152,0.075,0.015
7.154,0.090,0.020
7.156,0.100,0.025
7.158,0.075,0.025
7.160,0.035,0.025
7.162,0.050,0.025
7.164,0.035,0.020
7.166,0.050,0.020
7.168,0.095,0.020
7.170,0.130,0.025
7.172,0.135,0.025
7.174,0.085,0.030
7.176,0.080,0.035
7.178,0.075,0.035
7.180,0.080,0.035
7.182,0.075,0.035
7.184,0.050,0.030
7.186,0.065,0.030
7.188,0.055,0.030
7.190,0.095,0.030
7.192,0.095,0.030
7.194,0.115,0.035
7.196,0.110,0.040
7.198,0.105,0.045
7.200,0.125,0.055
7.202,0.125,0.060
7.204,0.095,0.065
7.206,0.065,0.065
7.208,0.085,0.065
7.210,0.145,0.065
7.212,0.130,0.065
7.214,0.120,0.065
7.216,0.135,0.060
7.218,0.125,0.060
7.220,0.065,0.060
7.222,0.060,0.060
7.224,0.115,0.065
7.226,0.120,0.075
7.228,0.165,0.080
7.230,0.165,0.095
7.232,0.180,0.105
7.234,0.150,0.115
7.236,0.160,0.120
7.238,0.185,0.125
7.240,0.160,0.130
7.242,0.190,0.125
7.244,0.170,0.125
7.246,0.175,0.125
7.248,0.180,0.125
7.250,0.215,0.125
7.252,0.220,0.130
7.254,0.225,0.140
7.256,0.230,0.155
7.258,0.225,0.165
7.260,0.225,0.180
7.262,0.245,0.190
7.264,0.255,0.205
7.266,0.295,0.210
7.268,0.310,0.220
7.270,0.260,0.225
7.272,0.265,0.230
7.274,0.305,0.240
7.276,0.325,0.250
7.278,0.300,0.260
7.280,0.285,0.270
7.282,0.335,0.280
7.284,0.330,0.285
7.286,0.290,0.290
7.288,0.320,0.290
7.290,0.320,0.290
7.292,0.335,0.285
7.294,0.340,0.275
7.296,0.340,0.270
7.298,0.310,0.265
7.300,0.305,0.265
7.302,0.290,0.260
7.304,0.255,0.260
7.306,0.280,0.260
7.308,0.355,0.255
7.310,0.340,0.250
7.312,0.280,0.245
7.314,0.255,0.235
7.316,0.235,0.220
7.318,0.210,0.205
7.320,0.185,0.180
7.322,0.160,0.160
7.324,0.150,0.135
7.326,0.120,0.110
7.328,0.135,0.085
7.330,0.120,0.065
7.332,0.130,0.045
7.334,0.065,0.025
7.336,0.075,0.015
7.338,0.045,0.005
7.340,-0.010,0.000
7.342,-0.035,-0.005
7.344,0.010,-0.010
7.346,0.025,-0.025
7.348,0.015,-0.035
7.350,-0.030,-0.055
7.352,-0.010,-0.070
7.354,-0.040,-0.085
7.356,-0.030,-0.095
7.358,-0.060,-0.105
7.360,-0.055,-0.105
7.362,-0.070,-0.100
7.364,-0.080,-0.090
7.366,-0.055,-0.085
7.368,-0.055,-0.080
7.370,-0.055,-0.085
7.372,-0.065,-0.095
7.374,-0.050,-0.105
7.376,-0.080,-0.120
7.378,-0.120,-0.135
7.380,-0.110,-0.150
7.382,-0.120,-0.155
7.384,-0.115,-0.150
7.386,-0.155,-0.145
7.388,-0.100,-0.135
7.390,-0.030,-0.120
7.392,-0.045,-0.110
7.394,-0.090,-0.105
7.396,-0.075,-0.105
7.398,-0.095,-0.110
7.400,-0.105,-0.120
7.402,-0.100,-0.125
7.404,-0.125,-0.135
7.406,-0.095,-0.145
7.408,-0.100,-0.150
7.410,-0.130,-0.155
7.412,-0.145,-0.155
7.414,-0.115,-0.160
7.416,-0.090,-0.165
7.418,-0.200,-0.165
7.420,-0.145,-0.170
7.422,-0.105,-0.170
7.424,-0.070,-0.170
7.426,-0.060,-0.165
7.428,-0.110,-0.155
7.430,-0.185,-0.145
7.432,-0.165,-0.140
7.434,-0.115,-0.135
7.436,-0.105,-0.130
7.438,-0.120,-0.135
7.440,-0.075,-0.140
7.442,-0.090,-0.150
7.444,-0.140,-0.155
7.446,-0.145,-0.160
7.448,-0.140,-0.165
7.450,-0.090,-0.165
7.452,-0.115,-0.160
7.454,-0.125,-0.150
7.456,-0.115,-0.145
7.458,-0.120,-0.140
7.460,-0.140,-0.135
7.462,-0.140,-0.140
7.464,-0.120,-0.145
7.466,-0.170,-0.150
7.468,-0.105,-0.160
7.470,-0.115,-0.165
7.472,-0.145,-0.170
7.474,-0.140,-0.165
7.476,-0.105,-0.160
7.478,-0.160,-0.155
7.480,-0.170,-0.150
7.482,-0.120,-0.140
7.484,-0.130,-0.135
7.486,-0.130,-0.135
7.488,-0.130,-0.135
7.490,-0.140,-0.140
7.492,-0.150,-0.140
7.494,-0.125,-0.145
7.496,-0.115,-0.150
7.498,-0.125,-0.150
7.500,-0.115,-0.150
7.502,-0.140,-0.150
7.504,-0.185,-0.150
7.506,-0.130,-0.150
7.508,-0.105,-0.150
7.510,-0.125,-0.145
7.512,-0.110,-0.145
7.514,-0.130,-0.145
7.516,-0.155,-0.140
7.518,-0.120,-0.140
7.520,-0.110,-0.140
7.522,-0.145,-0.145
7.524,-0.170,-0.150
7.526,-0.130,-0.155
7.528,-0.075,-0.160
7.530,-0.170,-0.170
7.532,-0.210,-0.175
7.534,-0.170,-0.180
7.536,-0.155,-0.185
7.538,-0.170,-0.185
7.540,-0.190,-0.180
7.542,-0.165,-0.175
7.544,-0.190,-0.170
7.546,-0.175,-0.165
7.548,-0.090,-0.165
7.550,-0.155,-0.165
7.552,-0.165,-0.165
7.554,-0.140,-0.165
7.556,-0.150,-0.170
7.558,-0.225,-0.175
7.560,-0.205,-0.180
7.562,-0.215,-0.185
7.564,-0.235,-0.185
7.566,-0.130,-0.185
7.568,-0.105,-0.185
7.570,-0.170,-0.180
7.572,-0.185,-0.175
7.574,-0.155,-0.170
7.576,-0.150,-0.165
7.578,-0.165,-0.160
7.580,-0.170,-0.160
7.582,-0.210,-0.160
7.584,-0.225,-0.160
7.586,-0.110,-0.165
7.588,-0.125,-0.165
7.590,-0.190,-0.170
7.592,-0.190,-0.170
7.594,-0.175,-0.170
7.596,-0.205,-0.170
7.598,-0.170,-0.170
7.600,-0.175,-0.165
7.602,-0.120,-0.165
7.604,-0.190,-0.165
7.606,-0.165,-0.170
7.608,-0.160,-0.170
7.610,-0.200,-0.175
7.612,-0.225,-0.175
7.614,-0.245,-0.175
7.616,-0.195,-0.175
7.618,-0.185,-0.175
7.620,-0.180,-0.175
7.622,-0.185,-0.175
7.624,-0.200,-0.180
7.626,-0.200,-0.180
7.628,-0.200,-0.185
7.630,-0.215,-0.190
7.632,-0.195,-0.190
7.634,-0.175,-0.190
7.636,-0.195,-0.190
7.638,-0.175,-0.185
7.640,-0.195,-0.185
7.642,-0.230,-0.180
7.644,-0.220,-0.175
7.646,-0.155,-0.175
7.648,-0.215,-0.180
7.650,-0.220,-0.185
7.652,-0.220,-0.190
7.654,-0.225,-0.190
7.656,-0.220,-0.195
7.658,-0.195,-0.190
7.660,-0.190,-0.190
7.662,-0.175,-0.180
7.664,-0.160,-0.175
7.666,-0.155,-0.170
7.668,-0.180,-0.170
7.670,-0.230,-0.175
7.672,-0.275,-0.185
7.674,-0.260,-0.195
7.676,-0.225,-0.205
7.678,-0.210,-0.215
7.680,-0.180,-0.215
7.682,-0.245,-0.215
7.684,-0.270,-0.210
7.686,-0.210,-0.195
7.688,-0.180,-0.180
7.690,-0.200,-0.170
7.692,-0.220,-0.155
7.694,-0.215,-0.150
7.696,-0.205,-0.150
7.698,-0.135,-0.155
7.700,-0.175,-0.165
7.702,-0.210,-0.175
7.704,-0.230,-0.185
7.706,-0.255,-0.195
7.708,-0.245,-0.200
7.710,-0.245,-0.200
7.712,-0.205,-0.200
7.714,-0.230,-0.195
7.716,-0.215,-0.190
7.718,-0.150,-0.185
7.720,-0.185,-0.180
7.722,-0.230,-0.175
7.724,-0.245,-0.170
7.726,-0.225,-0.170
7.728,-0.220,-0.170
7.730,-0.215,-0.170
7.732,-0.165,-0.170
7.734,-0.135,-0.165
7.736,-0.190,-0.165
7.738,-0.220,-0.160
7.740,-0.215,-0.155
7.742,-0.220,-0.150
7.744,-0.180,-0.140
7.746,-0.135,-0.135
7.748,-0.160,-0.130
7.750,-0.190,-0.130
7.752,-0.180,-0.130
7.754,-0.145,-0.135
7.756,-0.165,-0.145
7.758,-0.235,-0.155
7.760,-0.235,-0.165
7.762,-0.270,-0.175
7.764,-0.220,-0.175
7.766,-0.205,-0.175
7.768,-0.185,-0.165
7.770,-0.180,-0.155
7.772,-0.145,-0.140
7.774,-0.175,-0.130
7.776,-0.185,-0.125
7.778,-0.180,-0.120
7.780,-0.205,-0.125
7.782,-0.215,-0.130
7.784,-0.215,-0.145
7.786,-0.260,-0.160
7.788,-0.265,-0.175
7.790,-0.215,-0.190
7.792,-0.230,-0.200
7.794,-0.235,-0.205
7.796,-0.310,-0.205
7.798,-0.300,-0.205
7.800,-0.245,-0.200
7.802,-0.255,-0.195
7.804,-0.225,-0.185
7.806,-0.220,-0.180
7.808,-0.250,-0.175
7.810,-0.245,-0.170
7.812,-0.255,-0.170
7.814,-0.265,-0.175
7.816,-0.225,-0.185
7.818,-0.280,-0.190
7.820,-0.285,-0.200
7.822,-0.295,-0.210
7.824,-0.305,-0.215
7.826,-0.290,-0.215
7.828,-0.210,-0.210
7.830,-0.265,-0.205
7.832,-0.290,-0.200
7.834,-0.300,-0.200
7.836,-0.305,-0.205
7.838,-0.235,-0.225
7.840,-0.300,-0.250
7.842,-0.385,-0.285
7.844,-0.435,-0.320
7.846,-0.460,-0.350
7.848,-0.445,-0.365
7.850,-0.415,-0.360
7.852,-0.435,-0.335
7.854,-0.380,-0.285
7.856,-0.290,-0.215
7.858,-0.205,-0.125
7.860,-0.075,-0.025
7.862,0.080,0.085
7.864,0.145,0.205
7.866,0.205,0.330
7.868,0.325,0.465
7.870,0.565,0.615
7.872,0.785,0.780
7.874,0.890,0.950
7.876,1.025,1.120
7.878,1.260,1.270
7.880,1.375,1.385
7.882,1.425,1.440
7.884,1.415,1.435
7.886,1.385,1.350
7.888,1.140,1.195
7.890,0.940,0.980
7.892,0.660,0.735
7.894,0.305,0.480
7.896,-0.015,0.240
7.898,-0.200,0.040
7.900,-0.245,-0.110
7.902,-0.310,-0.205
7.904,-0.310,-0.245
7.906,-0.315,-0.250
7.908,-0.320,-0.235
7.910,-0.240,-0.210
7.912,-0.265,-0.190
7.914,-0.385,-0.180
7.916,-0.355,-0.185
7.918,-0.290,-0.195
7.920,-0.260,-0.205
7.922,-0.285,-0.210
7.924,-0.255,-0.210
7.926,-0.230,-0.200
7.928,-0.265,-0.185
7.930,-0.290,-0.165
7.932,-0.255,-0.145
7.934,-0.250,-0.130
7.936,-0.245,-0.125
7.938,-0.200,-0.125
7.940,-0.255,-0.135
7.942,-0.235,-0.140
7.944,-0.210,-0.150
7.946,-0.245,-0.155
7.948,-0.265,-0.155
7.950,-0.255,-0.155
7.952,-0.265,-0.155
7.954,-0.295,-0.150
7.956,-0.270,-0.150
7.958,-0.215,-0.145
7.960,-0.260,-0.145
7.962,-0.245,-0.145
7.964,-0.210,-0.145
7.966,-0.210,-0.140
7.968,-0.225,-0.130
7.970,-0.250,-0.125
7.972,-0.215,-0.115
7.974,-0.240,-0.105
7.976,-0.235,-0.100
7.978,-0.240,-0.095
7.980,-0.240,-0.095
7.982,-0.250,-0.095
7.984,-0.185,-0.095
7.986,-0.185,-0.095
7.988,-0.180,-0.095
7.990,-0.195,-0.095
7.992,-0.220,-0.090
7.994,-0.210,-0.085
7.996,-0.205,-0.075
7.998,-0.240,-0.070
8.000,-0.230,-0.065
8.002,-0.190,-0.060
8.004,-0.100,-0.055
8.006,-0.120,-0.055
8.008,-0.210,-0.055
8.010,-0.195,-0.050
8.012,-0.165,-0.050
8.014,-0.155,-0.045
8.016,-0.125,-0.040
8.018,-0.110,-0.035
8.020,-0.175,-0.025
8.022,-0.230,-0.015
8.024,-0.140,-0.005
8.026,-0.095,0.005
8.028,-0.080,0.015
8.030,-0.050,0.020
8.032,-0.065,0.025
8.034,-0.180,0.030
8.036,-0.105,0.035
8.038,-0.070,0.045
8.040,-0.130,0.050
8.042,-0.085,0.060
8.044,0.010,0.070
8.046,-0.040,0.085
8.048,-0.025,0.095
8.050,-0.015,0.105
8.052,-0.025,0.110
8.054,-0.050,0.115
8.056,-0.050,0.120
8.058,-0.030,0.120
8.060,-0.005,0.125
8.062,0.040,0.130
8.064,0.075,0.135
8.066,0.090,0.150
8.068,-0.005,0.165
8.070,-0.030,0.185
8.072,0.045,0.205
8.074,0.100,0.225
8.076,0.145,0.240
8.078,0.100,0.255
8.080,0.080,0.265
8.082,0.145,0.275
8.084,0.140,0.280
8.086,0.145,0.280
8.088,0.130,0.280
8.090,0.115,0.285
8.092,0.065,0.285
8.094,0.115,0.280
8.096,0.175,0.280
8.098,0.205,0.275
8.100,0.095,0.270
8.102,0.125,0.260
8.104,0.115,0.250
8.106,0.045,0.240
8.108,0.090,0.230
8.110,0.010,0.220
8.112,0.025,0.210
8.114,0.025,0.195
8.116,0.020,0.185
8.118,0.005,0.170
8.120,0.040,0.155
8.122,-0.030,0.135
8.124,-0.020,0.120
8.126,-0.040,0.100
8.128,-0.090,0.075
8.130,-0.165,0.055
8.132,-0.165,0.040
8.134,-0.190,0.020
8.136,-0.155,0.005
8.138,-0.145,-0.005
8.140,-0.175,-0.015
8.142,-0.180,-0.025
8.144,-0.160,-0.030
8.146,-0.240,-0.035
8.148,-0.195,-0.035
8.150,-0.225,-0.040
8.152,-0.255,-0.040
8.154,-0.260,-0.045
8.156,-0.215,-0.050
8.158,-0.205,-0.055
8.160,-0.225,-0.065
8.162,-0.265,-0.070
8.164,-0.235,-0.080
8.166,-0.255,-0.085
8.168,-0.290,-0.085
8.170,-0.260,-0.090
8.172,-0.275,-0.085
8.174,-0.245,-0.085
8.176,-0.265,-0.085
8.178,-0.285,-0.085
8.180,-0.290,-0.085
8.182,-0.295,-0.085
8.184,-0.245,-0.090
8.186,-0.280,-0.095
8.188,-0.250,-0.105
8.190,-0.245,-0.110
8.192,-0.300,-0.115
8.194,-0.295,-0.120
8.196,-0.295,-0.120
8.198,-0.235,-0.115
8.200,-0.325,-0.110
8.202,-0.320,-0.105
8.204,-0.250,-0.095
8.206,-0.270,-0.085
8.208,-0.280,-0.080
8.210,-0.260,-0.070
8.212,-0.235,-0.065
8.214,-0.235,-0.065
8.216,-0.240,-0.065
8.218,-0.280,-0.065
8.220,-0.310,-0.070
8.222,-0.265,-0.075
8.224,-0.245,-0.080
8.226,-0.280,-0.085
8.228,-0.305,-0.090
8.230,-0.260,-0.095
8.232,-0.235,-0.100
8.234,-0.290,-0.100
8.236,-0.280,-0.095
8.238,-0.260,-0.090
8.240,-0.320,-0.085
8.242,-0.290,-0.080
8.244,-0.240,-0.070
8.246,-0.255,-0.065
8.248,-0.260,-0.065
8.250,-0.230,-0.065
8.252,-0.275,-0.065
8.254,-0.275,-0.070
8.256,-0.270,-0.075
8.258,-0.275,-0.075
8.260,-0.345,-0.075
8.262,-0.275,-0.075
8.264,-0.240,-0.070
8.266,-0.225,-0.065
8.268,-0.195,-0.055
8.270,-0.260,-0.045
8.272,-0.310,-0.045
8.274,-0.235,-0.045
8.276,-0.260,-0.045
8.278,-0.275,-0.055
8.280,-0.280,-0.060
8.282,-0.250,-0.070
8.284,-0.305,-0.075
8.286,-0.280,-0.080
8.288,-0.265,-0.075
8.290,-0.270,-0.070
8.292,-0.265,-0.060
8.294,-0.235,-0.055
8.296,-0.230,-0.050
8.298,-0.215,-0.050
8.300,-0.270,-0.050
8.302,-0.230,-0.055
8.304,-0.290,-0.065
8.306,-0.290,-0.070
8.308,-0.295,-0.075
8.310,-0.285,-0.075
8.312,-0.295,-0.070
8.314,-0.315,-0.065
8.316,-0.260,-0.060
8.318,-0.200,-0.055
8.320,-0.235,-0.050
8.322,-0.260,-0.050
8.324,-0.290,-0.050
8.326,-0.290,-0.050
8.328,-0.285,-0.050
8.330,-0.260,-0.050
8.332,-0.290,-0.050
8.334,-0.220,-0.045
8.336,-0.215,-0.045
8.338,-0.235,-0.045
8.340,-0.320,-0.050
8.342,-0.285,-0.055
8.344,-0.305,-0.065
8.346,-0.285,-0.070
8.348,-0.310,-0.075
8.350,-0.275,-0.075
8.352,-0.250,-0.070
8.354,-0.215,-0.060
8.356,-0.265,-0.050
8.358,-0.235,-0.035
8.360,-0.235,-0.025
8.362,-0.215,-0.020
8.364,-0.250,-0.020
8.366,-0.235,-0.025
8.368,-0.265,-0.035
8.370,-0.290,-0.050
8.372,-0.370,-0.060
8.374,-0.265,-0.065
8.376,-0.225,-0.065
8.378,-0.250,-0.060
8.380,-0.270,-0.055
8.382,-0.270,-0.050
8.384,-0.285,-0.045
8.386,-0.235,-0.045
8.388,-0.305,-0.050
8.390,-0.335,-0.055
8.392,-0.295,-0.065
8.394,-0.265,-0.070
8.396,-0.260,-0.070
8.398,-0.285,-0.065
8.400,-0.270,-0.060
8.402,-0.210,-0.045
8.404,-0.280,-0.035
8.406,-0.280,-0.025
8.408,-0.240,-0.015
8.410,-0.230,-0.010
8.412,-0.245,-0.015
8.414,-0.250,-0.020
8.416,-0.220,-0.030
8.418,-0.300,-0.040
8.420,-0.310,-0.050
8.422,-0.320,-0.060
8.424,-0.240,-0.065
8.426,-0.325,-0.070
8.428,-0.305,-0.070
8.430,-0.310,-0.070
8.432,-0.240,-0.065
8.434,-0.230,-0.060
8.436,-0.285,-0.055
8.438,-0.315,-0.045
8.440,-0.305,-0.040
8.442,-0.240,-0.030
8.444,-0.260,-0.025
8.446,-0.265,-0.020
8.448,-0.235,-0.020
8.450,-0.230,-0.020
8.452,-0.260,-0.020
8.454,-0.220,-0.025
8.456,-0.250,-0.025
8.458,-0.315,-0.030
8.460,-0.255,-0.030
8.462,-0.280,-0.035
8.464,-0.295,-0.035
8.466,-0.240,-0.035
8.468,-0.265,-0.035
8.470,-0.285,-0.035
8.472,-0.290,-0.035
8.474,-0.235,-0.035
8.476,-0.200,-0.035
8.478,-0.290,-0.035
8.480,-0.280,-0.035
8.482,-0.240,-0.035
8.484,-0.275,-0.040
8.486,-0.235,-0.045
8.488,-0.235,-0.045
8.490,-0.295,-0.050
8.492,-0.325,-0.050
8.494,-0.310,-0.050
8.496,-0.255,-0.045
8.498,-0.295,-0.035
8.500,-0.225,-0.030
8.502,-0.235,-0.015
8.504,-0.215,-0.005
8.506,-0.185,0.005
8.508,-0.200,0.010
8.510,-0.270,0.015
8.512,-0.215,0.015
8.514,-0.240,0.015
8.516,-0.270,0.015
8.518,-0.265,0.010
8.520,-0.205,0.010
8.522,-0.190,0.005
8.524,-0.195,0.005
8.526,-0.255,0.000
8.528,-0.275,-0.005
8.530,-0.235,-0.010
8.532,-0.255,-0.015
8.534,-0.290,-0.020
8.536,-0.300,-0.020
8.538,-0.290,-0.020
8.540,-0.260,-0.015
8.542,-0.175,-0.010
8.544,-0.190,-0.005
8.546,-0.215,0.005
8.548,-0.220,0.010
8.550,-0.210,0.010
8.552,-0.230,0.010
8.554,-0.235,0.000
8.556,-0.295,-0.015
8.558,-0.265,-0.030
8.560,-0.240,-0.045
8.562,-0.240,-0.055
8.564,-0.310,-0.065
8.566,-0.305,-0.070
8.568,-0.285,-0.065
8.570,-0.310,-0.065
8.572,-0.315,-0.060
8.574,-0.265,-0.055
8.576,-0.280,-0.050
8.578,-0.255,-0.050
8.580,-0.265,-0.050
8.582,-0.310,-0.055
8.584,-0.310,-0.055
8.586,-0.315,-0.060
8.588,-0.295,-0.065
8.590,-0.300,-0.070
8.592,-0.310,-0.070
8.594,-0.300,-0.070
8.596,-0.285,-0.070
8.598,-0.295,-0.070
8.600,-0.265,-0.070
8.602,-0.255,-0.065
8.604,-0.305,-0.065
8.606,-0.325,-0.070
8.608,-0.345,-0.080
8.610,-0.365,-0.095
8.612,-0.310,-0.115
8.614,-0.355,-0.140
8.616,-0.420,-0.170
8.618,-0.475,-0.195
8.620,-0.415,-0.210
8.622,-0.440,-0.210
8.624,-0.420,-0.190
8.626,-0.440,-0.155
8.628,-0.375,-0.095
8.630,-0.235,-0.020
8.632,-0.080,0.070
8.634,-0.030,0.170
8.636,-0.030,0.275
8.638,0.110,0.390
8.640,0.310,0.515
8.642,0.490,0.650
8.644,0.610,0.795
8.646,0.705,0.955
8.648,0.885,1.115
8.650,1.100,1.270
8.652,1.275,1.405
8.654,1.300,1.500
8.656,1.365,1.540
8.658,1.335,1.515
8.660,1.255,1.415
8.662,1.080,1.250
8.664,0.845,1.030
8.666,0.565,0.785
8.668,0.205,0.530
8.670,-0.075,0.295
8.672,-0.205,0.095
8.674,-0.355,-0.050
8.676,-0.435,-0.140
8.678,-0.420,-0.175
8.680,-0.345,-0.170
8.682,-0.275,-0.140
8.684,-0.270,-0.100
8.686,-0.265,-0.065
8.688,-0.300,-0.040
8.690,-0.325,-0.025
8.692,-0.285,-0.025
8.694,-0.240,-0.030
8.696,-0.270,-0.045
8.698,-0.290,-0.055
8.700,-0.250,-0.060
8.702,-0.235,-0.060
8.704,-0.265,-0.055
8.706,-0.245,-0.045
8.708,-0.260,-0.035
8.710,-0.280,-0.030
8.712,-0.265,-0.030
8.714,-0.285,-0.035
8.716,-0.250,-0.040
8.718,-0.275,-0.050
8.720,-0.305,-0.060
8.722,-0.265,-0.070
8.724,-0.315,-0.080
8.726,-0.280,-0.080
8.728,-0.260,-0.080
8.730,-0.325,-0.075
8.732,-0.285,-0.065
8.734,-0.240,-0.050
8.736,-0.250,-0.040
8.738,-0.275,-0.025
8.740,-0.215,-0.020
8.742,-0.245,-0.015
8.744,-0.210,-0.015
8.746,-0.250,-0.015
8.748,-0.250,-0.020
8.750,-0.265,-0.020
8.752,-0.280,-0.025
8.754,-0.280,-0.020
8.756,-0.290,-0.020
8.758,-0.295,-0.015
8.760,-0.180,-0.015
8.762,-0.160,-0.010
8.764,-0.245,-0.010
8.766,-0.270,-0.010
8.768,-0.210,-0.005
8.770,-0.190,-0.005
8.772,-0.200,0.000
8.774,-0.275,0.005
8.776,-0.235,0.015
8.778,-0.175,0.025
8.780,-0.165,0.035
8.782,-0.170,0.045
8.784,-0.155,0.045
8.786,-0.155,0.045
8.788,-0.145,0.040
8.790,-0.215,0.035
8.792,-0.195,0.030
8.794,-0.170,0.025
8.796,-0.190,0.025
8.798,-0.165,0.030
8.800,-0.210,0.040
8.802,-0.160,0.055
8.804,-0.115,0.070
8.806,-0.090,0.080
8.808,-0.120,0.095
8.810,-0.095,0.100
8.812,-0.090,0.105
8.814,-0.085,0.105
8.816,-0.115,0.105
8.818,-0.115,0.105
8.820,-0.100,0.105
8.822,-0.080,0.110
8.824,-0.065,0.125
8.826,-0.060,0.140
8.828,-0.010,0.155
8.830,0.015,0.175
8.832,0.005,0.195
8.834,-0.005,0.210
8.836,0.035,0.220
8.838,0.045,0.230
8.840,0.030,0.240
8.842,0.030,0.245
8.844,0.020,0.250
8.846,0.045,0.255
8.848,0.010,0.265
8.850,0.070,0.270
8.852,0.125,0.275
8.854,0.120,0.280
8.856,0.080,0.285
8.858,0.085,0.285
8.860,0.090,0.290
8.862,0.030,0.290
8.864,0.060,0.290
8.866,0.110,0.290
8.868,0.110,0.290
8.870,0.085,0.290
8.872,0.095,0.285
8.874,0.100,0.280
8.876,0.080,0.275
8.878,0.050,0.265
8.880,0.040,0.255
8.882,0.045,0.240
8.884,0.005,0.225
8.886,-0.005,0.215
8.888,0.015,0.200
8.890,0.000,0.185
8.892,-0.055,0.170
8.894,-0.110,0.155
8.896,-0.045,0.140
8.898,-0.025,0.120
8.900,-0.075,0.100
8.902,-0.150,0.080
8.904,-0.145,0.065
8.906,-0.125,0.050
8.908,-0.170,0.035
8.910,-0.220,0.025
8.912,-0.180,0.020
8.914,-0.145,0.015
8.916,-0.170,0.005
8.918,-0.205,0.000
8.920,-0.255,-0.005
8.922,-0.215,-0.015
8.924,-0.255,-0.025
8.926,-0.245,-0.040
8.928,-0.270,-0.050
8.930,-0.240,-0.060
8.932,-0.240,-0.070
8.934,-0.240,-0.070
8.936,-0.285,-0.075
8.938,-0.280,-0.075
8.940,-0.245,-0.070
8.942,-0.255,-0.070
8.944,-0.245,-0.065
8.946,-0.265,-0.070
8.948,-0.280,-0.070
8.950,-0.300,-0.075
8.952,-0.295,-0.080
8.954,-0.285,-0.090
8.956,-0.345,-0.095
8.958,-0.270,-0.105
8.960,-0.280,-0.110
8.962,-0.265,-0.110
8.964,-0.250,-0.105
8.966,-0.250,-0.100
8.968,-0.260,-0.095
8.970,-0.265,-0.090
8.972,-0.270,-0.080
8.974,-0.255,-0.075
8.976,-0.275,-0.075
8.978,-0.300,-0.075
8.980,-0.280,-0.080
8.982,-0.290,-0.085
8.984,-0.240,-0.090
8.986,-0.295,-0.095
8.988,-0.280,-0.095
8.990,-0.245,-0.090
8.992,-0.205,-0.085
8.994,-0.225,-0.080
8.996,-0.285,-0.075
8.998,-0.280,-0.070
9.000,-0.335,-0.070
9.002,-0.295,-0.075
9.004,-0.225,-0.080
9.006,-0.265,-0.090
9.008,-0.260,-0.100
9.010,-0.235,-0.110
9.012,-0.235,-0.110
9.014,-0.305,-0.110
9.016,-0.355,-0.105
9.018,-0.315,-0.100
9.020,-0.300,-0.090
9.022,-0.250,-0.080
9.024,-0.255,-0.075
9.026,-0.165,-0.070
9.028,-0.220,-0.070
9.030,-0.230,-0.070
9.032,-0.270,-0.070
9.034,-0.290,-0.075
9.036,-0.295,-0.075
9.038,-0.265,-0.080
9.040,-0.245,-0.075
9.042,-0.230,-0.075
9.044,-0.250,-0.070
9.046,-0.225,-0.070
9.048,-0.245,-0.065
9.050,-0.230,-0.065
9.052,-0.250,-0.065
9.054,-0.285,-0.070
9.056,-0.245,-0.075
9.058,-0.255,-0.080
9.060,-0.300,-0.085
9.062,-0.280,-0.090
9.064,-0.200,-0.090
9.066,-0.235,-0.090
9.068,-0.245,-0.085
9.070,-0.255,-0.085
9.072,-0.230,-0.080
9.074,-0.280,-0.075
9.076,-0.295,-0.075
9.078,-0.235,-0.075
9.080,-0.240,-0.075
9.082,-0.290,-0.075
9.084,-0.245,-0.080
9.086,-0.225,-0.080
9.088,-0.200,-0.080
9.090,-0.220,-0.080
9.092,-0.230,-0.075
9.094,-0.295,-0.075
9.096,-0.250,-0.070
9.098,-0.215,-0.070
9.100,-0.235,-0.070
9.102,-0.235,-0.070
9.104,-0.270,-0.075
9.106,-0.255,-0.080
9.108,-0.275,-0.085
9.110,-0.240,-0.090
9.112,-0.195,-0.095
9.114,-0.230,-0.095
9.116,-0.225,-0.095
9.118,-0.275,-0.095
9.120,-0.280,-0.090
9.122,-0.275,-0.090
9.124,-0.225,-0.085
9.126,-0.205,-0.085
9.128,-0.245,-0.085
9.130,-0.195,-0.085
9.132,-0.200,-0.085
9.134,-0.260,-0.085
9.136,-0.260,-0.090
9.138,-0.255,-0.090
9.140,-0.250,-0.095
9.142,-0.245,-0.095
9.144,-0.230,-0.095
9.146,-0.270,-0.095
9.148,-0.245,-0.090
9.150,-0.215,-0.085
9.152,-0.220,-0.075
9.154,-0.200,-0.070
9.156,-0.210,-0.060
9.158,-0.270,-0.060
9.160,-0.240,-0.060
9.162,-0.195,-0.065
9.164,-0.190,-0.075
9.166,-0.265,-0.090
9.168,-0.275,-0.105
9.170,-0.310,-0.120
9.172,-0.265,-0.125
9.174,-0.260,-0.130
9.176,-0.285,-0.125
9.178,-0.260,-0.115
9.180,-0.230,-0.100
9.182,-0.240,-0.090
9.184,-0.190,-0.080
9.186,-0.240,-0.075
9.188,-0.195,-0.075
9.190,-0.195,-0.080
9.192,-0.270,-0.090
9.194,-0.240,-0.100
9.196,-0.265,-0.110
9.198,-0.300,-0.115
9.200,-0.315,-0.120
9.202,-0.275,-0.115
9.204,-0.230,-0.110
9.206,-0.215,-0.105
9.208,-0.250,-0.100
9.210,-0.200,-0.095
9.212,-0.190,-0.095
9.214,-0.300,-0.095
9.216,-0.250,-0.095
9.218,-0.215,-0.095
9.220,-0.225,-0.095
9.222,-0.245,-0.095
9.224,-0.240,-0.095
9.226,-0.245,-0.100
9.228,-0.265,-0.100
9.230,-0.270,-0.100
9.232,-0.315,-0.100
9.234,-0.240,-0.100
9.236,-0.175,-0.100
9.238,-0.195,-0.100
9.240,-0.225,-0.100
9.242,-0.260,-0.095
9.244,-0.250,-0.095
9.246,-0.260,-0.095
9.248,-0.210,-0.095
9.250,-0.195,-0.095
9.252,-0.270,-0.100
9.254,-0.280,-0.095
9.256,-0.220,-0.095
9.258,-0.230,-0.090
9.260,-0.190,-0.085
9.262,-0.220,-0.075
9.264,-0.190,-0.070
9.266,-0.195,-0.065
9.268,-0.210,-0.065
9.270,-0.215,-0.065
9.272,-0.250,-0.070
9.274,-0.240,-0.075
9.276,-0.190,-0.080
9.278,-0.205,-0.080
9.280,-0.150,-0.080
9.282,-0.165,-0.075
9.284,-0.175,-0.070
9.286,-0.225,-0.060
9.288,-0.195,-0.050
9.290,-0.205,-0.050
9.292,-0.225,-0.045
9.294,-0.250,-0.050
9.296,-0.180,-0.060
9.298,-0.160,-0.075
9.300,-0.200,-0.085
9.302,-0.180,-0.095
9.304,-0.220,-0.100
9.306,-0.225,-0.100
9.308,-0.220,-0.090
9.310,-0.205,-0.085
9.312,-0.220,-0.075
9.314,-0.195,-0.070
9.316,-0.150,-0.065
9.318,-0.195,-0.070
9.320,-0.215,-0.075
9.322,-0.225,-0.085
9.324,-0.250,-0.095
9.326,-0.270,-0.105
9.328,-0.220,-0.110
9.330,-0.285,-0.115
9.332,-0.240,-0.115
9.334,-0.170,-0.110
9.336,-0.190,-0.105
9.338,-0.205,-0.105
9.340,-0.260,-0.105
9.342,-0.240,-0.110
9.344,-0.245,-0.120
9.346,-0.260,-0.125
9.348,-0.305,-0.135
9.350,-0.300,-0.140
9.352,-0.260,-0.145
9.354,-0.250,-0.145
9.356,-0.260,-0.145
9.358,-0.235,-0.140
9.360,-0.265,-0.135
9.362,-0.225,-0.125
9.364,-0.220,-0.120
9.366,-0.225,-0.110
9.368,-0.200,-0.105
9.370,-0.260,-0.110
9.372,-0.270,-0.115
9.374,-0.275,-0.130
9.376,-0.245,-0.150
9.378,-0.290,-0.180
9.380,-0.355,-0.215
9.382,-0.320,-0.250
9.384,-0.415,-0.285
9.386,-0.440,-0.305
9.388,-0.430,-0.305
9.390,-0.470,-0.290
9.392,-0.425,-0.250
9.394,-0.280,-0.185
9.396,-0.150,-0.105
9.398,-0.100,-0.010
9.400,-0.030,0.095
9.402,0.135,0.215
9.404,0.240,0.335
9.406,0.345,0.470
9.408,0.525,0.615
9.410,0.705,0.770
9.412,0.760,0.930
9.414,1.010,1.090
9.416,1.190,1.240
9.418,1.305,1.365
9.420,1.415,1.450
9.422,1.450,1.480
9.424,1.395,1.445
9.426,1.295,1.345
9.428,1.130,1.185
9.430,0.910,0.980
9.432,0.565,0.750
9.434,0.265,0.515
9.436,0.095,0.300
9.438,-0.075,0.120
9.440,-0.165,-0.015
9.442,-0.175,-0.105
9.444,-0.245,-0.150
9.446,-0.285,-0.165
9.448,-0.285,-0.160
9.450,-0.285,-0.145
9.452,-0.295,-0.130
9.454,-0.230,-0.125
9.456,-0.155,-0.120
9.458,-0.215,-0.120
9.460,-0.225,-0.120
9.462,-0.195,-0.115
9.464,-0.195,-0.110
9.466,-0.220,-0.100
9.468,-0.250,-0.090
9.470,-0.210,-0.085
9.472,-0.195,-0.085
9.474,-0.195,-0.090
9.476,-0.225,-0.100
9.478,-0.245,-0.115
9.480,-0.230,-0.130
9.482,-0.200,-0.140
9.484,-0.195,-0.145
9.486,-0.250,-0.145
9.488,-0.225,-0.140
9.490,-0.255,-0.125
9.492,-0.255,-0.110
9.494,-0.200,-0.100
9.496,-0.205,-0.090
9.498,-0.160,-0.080
9.500,-0.180,-0.080
9.502,-0.140,-0.080
9.504,-0.170,-0.085
9.506,-0.185,-0.085
9.508,-0.205,-0.085
9.510,-0.205,-0.085
9.512,-0.180,-0.085
9.514,-0.165,-0.080
9.516,-0.140,-0.075
9.518,-0.165,-0.070
9.520,-0.180,-0.065
9.522,-0.125,-0.060
9.524,-0.150,-0.055
9.526,-0.215,-0.055
9.528,-0.180,-0.055
9.530,-0.185,-0.055
9.532,-0.190,-0.060
9.534,-0.180,-0.065
9.536,-0.130,-0.065
9.538,-0.125,-0.070
9.540,-0.170,-0.065
9.542,-0.145,-0.065
9.544,-0.150,-0.055
9.546,-0.140,-0.045
9.548,-0.135,-0.035
9.550,-0.150,-0.030
9.552,-0.120,-0.020
9.554,-0.080,-0.015
9.556,-0.015,-0.010
9.558,-0.100,-0.005
9.560,-0.105,0.000
9.562,-0.095,0.005
9.564,-0.125,0.010
9.566,-0.085,0.020
9.568,-0.040,0.030
9.570,-0.060,0.035
9.572,-0.065,0.045
9.574,-0.030,0.050
9.576,-0.020,0.055
9.578,-0.050,0.055
9.580,-0.090,0.060
9.582,-0.025,0.065
9.584,-0.005,0.070
9.586,0.025,0.080
9.588,0.040,0.100
9.590,0.030,0.120
9.592,-0.010,0.140
9.594,0.090,0.160
9.596,0.030,0.175
9.598,0.075,0.190
9.600,0.085,0.195
9.602,0.095,0.195
9.604,0.120,0.195
9.606,0.165,0.190
9.608,0.115,0.190
9.610,0.070,0.190
9.612,0.070,0.190
9.614,0.105,0.200
9.616,0.115,0.210
9.618,0.125,0.220
9.620,0.180,0.235
9.622,0.185,0.250
9.624,0.160,0.260
9.626,0.180,0.265
9.628,0.185,0.270
9.630,0.160,0.270
9.632,0.145,0.265
9.634,0.120,0.260
9.636,0.130,0.250
9.638,0.175,0.240
9.640,0.165,0.230
9.642,0.145,0.220
9.644,0.110,0.210
9.646,0.110,0.200
9.648,0.100,0.190
9.650,0.115,0.185
9.652,0.060,0.175
9.654,0.045,0.160
9.656,0.010,0.145
9.658,-0.010,0.130
9.660,0.015,0.110
9.662,0.025,0.090
9.664,-0.035,0.065
9.666,-0.010,0.050
9.668,-0.075,0.035
9.670,-0.130,0.020
9.672,-0.075,0.010
9.674,-0.095,0.005
9.676,-0.080,0.000
9.678,-0.100,-0.005
9.680,-0.140,-0.010
9.682,-0.150,-0.020
9.684,-0.160,-0.030
9.686,-0.120,-0.045
9.688,-0.125,-0.055
9.690,-0.195,-0.070
9.692,-0.170,-0.080
9.694,-0.155,-0.085
9.696,-0.195,-0.095
9.698,-0.170,-0.100
9.700,-0.150,-0.105
9.702,-0.195,-0.110
9.704,-0.250,-0.115
9.706,-0.250,-0.115
9.708,-0.205,-0.120
9.710,-0.240,-0.120
9.712,-0.255,-0.120
9.714,-0.185,-0.115
9.716,-0.160,-0.105
9.718,-0.140,-0.100
9.720,-0.120,-0.090
9.722,-0.150,-0.080
9.724,-0.175,-0.070
9.726,-0.190,-0.070
9.728,-0.215,-0.065
9.730,-0.235,-0.065
9.732,-0.125,-0.070
9.734,-0.135,-0.070
9.736,-0.180,-0.075
9.738,-0.190,-0.080
9.740,-0.210,-0.090
9.742,-0.225,-0.095
9.744,-0.195,-0.105
9.746,-0.225,-0.110
9.748,-0.170,-0.120
9.750,-0.235,-0.125
9.752,-0.230,-0.125
9.754,-0.190,-0.125
9.756,-0.170,-0.120
9.758,-0.165,-0.115
9.760,-0.185,-0.105
9.762,-0.210,-0.100
9.764,-0.235,-0.095
9.766,-0.205,-0.095
9.768,-0.215,-0.100
9.770,-0.210,-0.105
9.772,-0.230,-0.115
9.774,-0.210,-0.120
9.776,-0.230,-0.125
9.778,-0.235,-0.125
9.780,-0.180,-0.115
9.782,-0.210,-0.105
9.784,-0.205,-0.095
9.786,-0.130,-0.085
9.788,-0.165,-0.075
9.790,-0.200,-0.075
9.792,-0.180,-0.075
9.794,-0.200,-0.085
9.796,-0.210,-0.090
9.798,-0.245,-0.100
9.800,-0.165,-0.110
9.802,-0.205,-0.110
9.804,-0.200,-0.110
9.806,-0.175,-0.110
9.808,-0.180,-0.100
9.810,-0.205,-0.095
9.812,-0.210,-0.090
9.814,-0.185,-0.085
9.816,-0.140,-0.085
9.818,-0.175,-0.085
9.820,-0.170,-0.085
9.822,-0.185,-0.090
9.824,-0.175,-0.090
9.826,-0.210,-0.095
9.828,-0.230,-0.095
9.830,-0.195,-0.095
9.832,-0.180,-0.095
9.834,-0.170,-0.090
9.836,-0.200,-0.090
9.838,-0.185,-0.090
9.840,-0.150,-0.085
9.842,-0.175,-0.085
9.844,-0.170,-0.085
9.846,-0.155,-0.090
9.848,-0.210,-0.090
9.850,-0.215,-0.095
9.852,-0.160,-0.095
9.854,-0.130,-0.100
9.856,-0.210,-0.100
9.858,-0.210,-0.105
9.860,-0.200,-0.105
9.862,-0.205,-0.105
9.864,-0.190,-0.105
9.866,-0.175,-0.100
9.868,-0.140,-0.100
9.870,-0.205,-0.100
9.872,-0.205,-0.100
9.874,-0.220,-0.100
9.876,-0.210,-0.100
9.878,-0.185,-0.100
9.880,-0.155,-0.095
9.882,-0.175,-0.095
9.884,-0.165,-0.090
9.886,-0.160,-0.090
9.888,-0.175,-0.085
9.890,-0.185,-0.085
9.892,-0.185,-0.085
9.894,-0.205,-0.085
9.896,-0.220,-0.090
9.898,-0.215,-0.095
9.900,-0.165,-0.095
9.902,-0.165,-0.100
9.904,-0.130,-0.100
9.906,-0.210,-0.100
9.908,-0.240,-0.095
9.910,-0.215,-0.090
9.912,-0.180,-0.085
9.914,-0.190,-0.080
9.916,-0.190,-0.075
9.918,-0.160,-0.075
9.920,-0.160,-0.075
9.922,-0.165,-0.075
9.924,-0.220,-0.080
9.926,-0.165,-0.080
9.928,-0.135,-0.085
9.930,-0.215,-0.085
9.932,-0.195,-0.085
9.934,-0.130,-0.085
9.936,-0.185,-0.085
9.938,-0.150,-0.085
9.940,-0.170,-0.085
9.942,-0.225,-0.090
9.944,-0.255,-0.095
9.946,-0.235,-0.100
9.948,-0.200,-0.110
9.950,-0.190,-0.110
9.952,-0.215,-0.110
9.954,-0.170,-0.110
9.956,-0.145,-0.105
9.958,-0.180,-0.100
9.960,-0.190,-0.090
9.962,-0.205,-0.085
9.964,-0.230,-0.080
9.966,-0.200,-0.075
9.968,-0.125,-0.075
9.970,-0.095,-0.075
9.972,-0.140,-0.075
9.974,-0.205,-0.075
9.976,-0.225,-0.075
9.978,-0.180,-0.075
9.980,-0.200,-0.080
9.982,-0.220,-0.085
9.984,-0.180,-0.090
9.986,-0.195,-0.100
9.988,-0.215,-0.105
9.990,-0.195,-0.110
9.992,-0.190,-0.115
9.994,-0.195,-0.115
9.996,-0.210,-0.110
9.998,-0.225,-0.100
