'Elapsed time','ECG I','ECG I filtered'
'seconds','mV','mV'
0.000,0.415,-0.025
0.002,0.400,-0.025
0.004,0.420,-0.025
0.006,0.430,-0.025
0.008,0.415,-0.025
0.010,0.425,-0.030
0.012,0.405,-0.030
0.014,0.400,-0.030
0.016,0.425,-0.030
0.018,0.445,-0.030
0.020,0.415,-0.030
0.022,0.420,-0.030
0.024,0.405,-0.025
0.026,0.380,-0.025
0.028,0.390,-0.025
0.030,0.415,-0.020
0.032,0.425,-0.020
0.034,0.430,-0.015
0.036,0.430,-0.015
0.038,0.425,-0.015
0.040,0.415,-0.010
0.042,0.450,-0.010
0.044,0.435,-0.005
0.046,0.415,-0.005
0.048,0.410,-0.005
0.050,0.405,-0.005
0.052,0.395,-0.010
0.054,0.400,-0.015
0.056,0.385,-0.025
0.058,0.435,-0.030
0.060,0.435,-0.040
0.062,0.400,-0.045
0.064,0.425,-0.045
0.066,0.415,-0.045
0.068,0.370,-0.040
0.070,0.370,-0.030
0.072,0.400,-0.025
0.074,0.410,-0.020
0.076,0.475,-0.015
0.078,0.480,-0.015
0.080,0.425,-0.015
0.082,0.400,-0.020
0.084,0.390,-0.025
0.086,0.420,-0.035
0.088,0.400,-0.040
0.090,0.395,-0.040
0.092,0.410,-0.045
0.094,0.400,-0.045
0.096,0.410,-0.040
0.098,0.410,-0.040
0.100,0.395,-0.035
0.102,0.410,-0.035
0.104,0.445,-0.035
0.106,0.420,-0.035
0.108,0.405,-0.035
0.110,0.395,-0.040
0.112,0.360,-0.040
0.114,0.385,-0.040
0.116,0.405,-0.040
0.118,0.425,-0.040
0.120,0.430,-0.040
0.122,0.445,-0.045
0.124,0.405,-0.045
0.126,0.415,-0.045
0.128,0.410,-0.050
0.130,0.415,-0.050
0.132,0.370,-0.050
0.134,0.405,-0.050
0.136,0.435,-0.045
0.138,0.435,-0.045
0.140,0.390,-0.040
0.142,0.385,-0.040
0.144,0.425,-0.040
0.146,0.420,-0.040
0.148,0.405,-0.045
0.150,0.380,-0.050
0.152,0.390,-0.055
0.154,0.415,-0.055
0.156,0.435,-0.055
0.158,0.395,-0.055
0.160,0.415,-0.055
0.162,0.435,-0.050
0.164,0.450,-0.045
0.166,0.430,-0.045
0.168,0.410,-0.040
0.170,0.410,-0.040
0.172,0.380,-0.045
0.174,0.375,-0.045
0.176,0.365,-0.050
0.178,0.420,-0.050
0.180,0.430,-0.050
0.182,0.395,-0.050
0.184,0.430,-0.050
0.186,0.415,-0.050
0.188,0.395,-0.055
0.190,0.380,-0.055
0.192,0.375,-0.060
0.194,0.395,-0.060
0.196,0.440,-0.065
0.198,0.405,-0.065
0.200,0.400,-0.065
0.202,0.365,-0.060
0.204,0.425,-0.055
0.206,0.405,-0.050
0.208,0.415,-0.045
0.210,0.400,-0.040
0.212,0.395,-0.040
0.214,0.380,-0.040
0.216,0.440,-0.045
0.218,0.425,-0.050
0.220,0.445,-0.055
0.222,0.420,-0.055
0.224,0.425,-0.060
0.226,0.420,-0.055
0.228,0.415,-0.055
0.230,0.425,-0.050
0.232,0.420,-0.050
0.234,0.385,-0.050
0.236,0.405,-0.055
0.238,0.440,-0.060
0.240,0.400,-0.060
0.242,0.365,-0.065
0.244,0.420,-0.070
0.246,0.385,-0.075
0.248,0.390,-0.080
0.250,0.390,-0.080
0.252,0.385,-0.085
0.254,0.400,-0.085
0.256,0.415,-0.085
0.258,0.425,-0.090
0.260,0.425,-0.085
0.262,0.420,-0.085
0.264,0.410,-0.080
0.266,0.385,-0.075
0.268,0.335,-0.070
0.270,0.380,-0.065
0.272,0.390,-0.065
0.274,0.405,-0.065
0.276,0.420,-0.070
0.278,0.390,-0.075
0.280,0.410,-0.080
0.282,0.405,-0.085
0.284,0.405,-0.085
0.286,0.370,-0.080
0.288,0.380,-0.070
0.290,0.430,-0.060
0.292,0.430,-0.050
0.294,0.425,-0.040
0.296,0.425,-0.035
0.298,0.420,-0.030
0.300,0.405,-0.035
0.302,0.410,-0.045
0.304,0.440,-0.050
0.306,0.410,-0.060
0.308,0.425,-0.070
0.310,0.430,-0.070
0.312,0.415,-0.070
0.314,0.430,-0.065
0.316,0.430,-0.060
0.318,0.405,-0.050
0.320,0.410,-0.045
0.322,0.420,-0.040
0.324,0.425,-0.040
0.326,0.425,-0.040
0.328,0.460,-0.045
0.330,0.445,-0.050
0.332,0.420,-0.055
0.334,0.420,-0.060
0.336,0.405,-0.060
0.338,0.420,-0.060
0.340,0.420,-0.060
0.342,0.410,-0.060
0.344,0.420,-0.060
0.346,0.420,-0.065
0.348,0.400,-0.070
0.350,0.420,-0.075
0.352,0.395,-0.080
0.354,0.410,-0.085
0.356,0.435,-0.085
0.358,0.400,-0.085
0.360,0.420,-0.085
0.362,0.430,-0.080
0.364,0.410,-0.075
0.366,0.415,-0.070
0.368,0.430,-0.065
0.370,0.420,-0.060
0.372,0.425,-0.055
0.374,0.465,-0.055
0.376,0.445,-0.055
0.378,0.410,-0.060
0.380,0.445,-0.065
0.382,0.400,-0.070
0.384,0.410,-0.075
0.386,0.405,-0.080
0.388,0.410,-0.085
0.390,0.425,-0.085
0.392,0.445,-0.080
0.394,0.430,-0.075
0.396,0.455,-0.070
0.398,0.420,-0.060
0.400,0.425,-0.050
0.402,0.460,-0.045
0.404,0.450,-0.040
0.406,0.450,-0.045
0.408,0.405,-0.045
0.410,0.425,-0.055
0.412,0.425,-0.065
0.414,0.460,-0.070
0.416,0.445,-0.080
0.418,0.415,-0.080
0.420,0.425,-0.080
0.422,0.415,-0.080
0.424,0.430,-0.075
0.426,0.475,-0.070
0.428,0.430,-0.065
0.430,0.440,-0.060
0.432,0.455,-0.060
0.434,0.445,-0.060
0.436,0.450,-0.060
0.438,0.460,-0.060
0.440,0.440,-0.060
0.442,0.450,-0.060
0.444,0.450,-0.055
0.446,0.490,-0.055
0.448,0.450,-0.050
0.450,0.460,-0.050
0.452,0.465,-0.045
0.454,0.510,-0.045
0.456,0.515,-0.040
0.458,0.455,-0.040
0.460,0.420,-0.040
0.462,0.455,-0.035
0.464,0.470,-0.035
0.466,0.465,-0.035
0.468,0.495,-0.035
0.470,0.490,-0.030
0.472,0.455,-0.030
0.474,0.495,-0.030
0.476,0.525,-0.030
0.478,0.475,-0.030
0.480,0.455,-0.030
0.482,0.455,-0.035
0.484,0.455,-0.035
0.486,0.470,-0.040
0.488,0.465,-0.040
0.490,0.485,-0.045
0.492,0.485,-0.045
0.494,0.460,-0.045
0.496,0.480,-0.045
0.498,0.475,-0.045
0.500,0.505,-0.040
0.502,0.500,-0.040
0.504,0.445,-0.040
0.506,0.440,-0.040
0.508,0.495,-0.040
0.510,0.465,-0.045
0.512,0.465,-0.050
0.514,0.445,-0.055
0.516,0.460,-0.060
0.518,0.475,-0.065
0.520,0.455,-0.065
0.522,0.470,-0.070
0.524,0.445,-0.070
0.526,0.430,-0.070
0.528,0.450,-0.075
0.530,0.410,-0.080
0.532,0.395,-0.085
0.534,0.430,-0.095
0.536,0.455,-0.100
0.538,0.445,-0.105
0.540,0.430,-0.105
0.542,0.435,-0.105
0.544,0.390,-0.105
0.546,0.420,-0.105
0.548,0.420,-0.100
0.550,0.395,-0.100
0.552,0.395,-0.100
0.554,0.470,-0.100
0.556,0.435,-0.095
0.558,0.420,-0.095
0.560,0.415,-0.095
0.562,0.410,-0.090
0.564,0.425,-0.095
0.566,0.415,-0.105
0.568,0.405,-0.120
0.570,0.375,-0.145
0.572,0.320,-0.180
0.574,0.340,-0.210
0.576,0.305,-0.245
0.578,0.250,-0.265
0.580,0.215,-0.275
0.582,0.225,-0.255
0.584,0.270,-0.215
0.586,0.390,-0.155
0.588,0.505,-0.070
0.590,0.630,0.035
0.592,0.710,0.150
0.594,0.825,0.280
0.596,0.920,0.415
0.598,1.105,0.560
0.600,1.245,0.715
0.602,1.425,0.880
0.604,1.610,1.055
0.606,1.810,1.225
0.608,1.985,1.385
0.610,2.125,1.515
0.612,2.185,1.600
0.614,2.260,1.620
0.616,2.200,1.575
0.618,2.035,1.455
0.620,1.835,1.275
0.622,1.645,1.045
0.624,1.270,0.795
0.626,0.965,0.545
0.628,0.730,0.320
0.630,0.590,0.135
0.632,0.510,0.005
0.634,0.495,-0.075
0.636,0.445,-0.110
0.638,0.405,-0.110
0.640,0.430,-0.095
0.642,0.470,-0.080
0.644,0.430,-0.065
0.646,0.460,-0.060
0.648,0.475,-0.060
0.650,0.495,-0.070
0.652,0.525,-0.080
0.654,0.485,-0.085
0.656,0.480,-0.085
0.658,0.490,-0.080
0.660,0.490,-0.070
0.662,0.470,-0.065
0.664,0.460,-0.060
0.666,0.470,-0.065
0.668,0.460,-0.070
0.670,0.485,-0.080
0.672,0.460,-0.090
0.674,0.465,-0.095
0.676,0.500,-0.100
0.678,0.465,-0.095
0.680,0.495,-0.090
0.682,0.495,-0.080
0.684,0.465,-0.070
0.686,0.470,-0.060
0.688,0.515,-0.050
0.690,0.475,-0.045
0.692,0.515,-0.045
0.694,0.580,-0.040
0.696,0.550,-0.040
0.698,0.510,-0.040
0.700,0.505,-0.035
0.702,0.525,-0.030
0.704,0.550,-0.025
0.706,0.540,-0.020
0.708,0.550,-0.015
0.710,0.555,-0.015
0.712,0.560,-0.015
0.714,0.545,-0.015
0.716,0.490,-0.015
0.718,0.550,-0.015
0.720,0.550,-0.015
0.722,0.555,-0.010
0.724,0.560,-0.005
0.726,0.580,0.000
0.728,0.570,0.005
0.730,0.560,0.015
0.732,0.595,0.015
0.734,0.615,0.020
0.736,0.575,0.020
0.738,0.555,0.020
0.740,0.580,0.020
0.742,0.610,0.020
0.744,0.630,0.025
0.746,0.605,0.030
0.748,0.620,0.035
0.750,0.605,0.045
0.752,0.625,0.050
0.754,0.665,0.060
0.756,0.610,0.065
0.758,0.620,0.065
0.760,0.620,0.065
0.762,0.635,0.065
0.764,0.635,0.065
0.766,0.665,0.065
0.768,0.655,0.070
0.770,0.650,0.080
0.772,0.690,0.095
0.774,0.710,0.110
0.776,0.735,0.125
0.778,0.710,0.135
0.780,0.680,0.145
0.782,0.720,0.150
0.784,0.700,0.150
0.786,0.730,0.150
0.788,0.760,0.150
0.790,0.735,0.155
0.792,0.750,0.160
0.794,0.790,0.175
0.796,0.775,0.195
0.798,0.815,0.215
0.800,0.835,0.235
0.802,0.820,0.255
0.804,0.825,0.265
0.806,0.820,0.270
0.808,0.855,0.270
0.810,0.860,0.270
0.812,0.890,0.275
0.814,0.900,0.280
0.816,0.885,0.290
0.818,0.880,0.305
0.820,0.925,0.320
0.822,0.940,0.340
0.824,0.955,0.360
0.826,0.980,0.375
0.828,0.955,0.385
0.830,0.980,0.385
0.832,1.010,0.390
0.834,1.005,0.390
0.836,0.965,0.390
0.838,0.955,0.390
0.840,0.945,0.395
0.842,0.910,0.400
0.844,1.020,0.405
0.846,1.040,0.410
0.848,0.985,0.410
0.850,0.995,0.410
0.852,0.985,0.400
0.854,0.955,0.390
0.856,0.965,0.375
0.858,0.955,0.365
0.860,0.945,0.350
0.862,0.905,0.335
0.864,0.880,0.320
0.866,0.870,0.305
0.868,0.845,0.285
0.870,0.845,0.265
0.872,0.830,0.240
0.874,0.810,0.210
0.876,0.755,0.180
0.878,0.770,0.155
0.880,0.745,0.135
0.882,0.690,0.115
0.884,0.655,0.100
0.886,0.680,0.090
0.888,0.665,0.085
0.890,0.650,0.075
0.892,0.640,0.065
0.894,0.640,0.050
0.896,0.660,0.035
0.898,0.645,0.015
0.900,0.590,0.000
0.902,0.550,-0.015
0.904,0.550,-0.025
0.906,0.545,-0.035
0.908,0.530,-0.035
0.910,0.590,-0.035
0.912,0.580,-0.035
0.914,0.570,-0.040
0.916,0.580,-0.040
0.918,0.540,-0.045
0.920,0.535,-0.050
0.922,0.545,-0.055
0.924,0.540,-0.060
0.926,0.535,-0.065
0.928,0.530,-0.065
0.930,0.535,-0.065
0.932,0.525,-0.065
0.934,0.520,-0.065
0.936,0.550,-0.065
0.938,0.580,-0.065
0.940,0.575,-0.070
0.942,0.515,-0.075
0.944,0.500,-0.075
0.946,0.505,-0.080
0.948,0.525,-0.080
0.950,0.565,-0.080
0.952,0.565,-0.075
0.954,0.545,-0.070
0.956,0.545,-0.065
0.958,0.540,-0.065
0.960,0.530,-0.060
0.962,0.535,-0.060
0.964,0.535,-0.060
0.966,0.530,-0.065
0.968,0.525,-0.065
0.970,0.510,-0.070
0.972,0.565,-0.075
0.974,0.560,-0.080
0.976,0.520,-0.080
0.978,0.555,-0.085
0.980,0.525,-0.085
0.982,0.490,-0.085
0.984,0.535,-0.085
0.986,0.525,-0.085
0.988,0.525,-0.085
0.990,0.540,-0.085
0.992,0.555,-0.085
0.994,0.540,-0.090
0.996,0.535,-0.090
0.998,0.560,-0.090
1.000,0.525,-0.090
1.002,0.520,-0.090
1.004,0.510,-0.090
1.006,0.530,-0.090
1.008,0.555,-0.085
1.010,0.555,-0.085
1.012,0.530,-0.085
1.014,0.515,-0.085
1.016,0.530,-0.085
1.018,0.550,-0.085
1.020,0.540,-0.090
1.022,0.525,-0.090
1.024,0.540,-0.095
1.026,0.550,-0.095
1.028,0.525,-0.090
1.030,0.545,-0.090
1.032,0.575,-0.085
1.034,0.555,-0.080
1.036,0.535,-0.075
1.038,0.540,-0.070
1.040,0.530,-0.070
1.042,0.520,-0.070
1.044,0.555,-0.075
1.046,0.585,-0.080
1.048,0.580,-0.085
1.050,0.540,-0.090
1.052,0.535,-0.095
1.054,0.530,-0.100
1.056,0.555,-0.105
1.058,0.550,-0.105
1.060,0.515,-0.110
1.062,0.525,-0.105
1.064,0.535,-0.105
1.066,0.530,-0.100
1.068,0.535,-0.090
1.070,0.535,-0.085
1.072,0.580,-0.075
1.074,0.560,-0.075
1.076,0.540,-0.070
1.078,0.540,-0.070
1.080,0.600,-0.075
1.082,0.595,-0.085
1.084,0.510,-0.090
1.086,0.505,-0.095
1.088,0.520,-0.100
1.090,0.540,-0.100
1.092,0.570,-0.095
1.094,0.565,-0.090
1.096,0.555,-0.085
1.098,0.535,-0.080
1.100,0.515,-0.080
1.102,0.540,-0.080
1.104,0.560,-0.085
1.106,0.555,-0.090
1.108,0.540,-0.095
1.110,0.525,-0.105
1.112,0.550,-0.105
1.114,0.535,-0.110
1.116,0.500,-0.105
1.118,0.530,-0.105
1.120,0.560,-0.100
1.122,0.545,-0.095
1.124,0.510,-0.095
1.126,0.565,-0.095
1.128,0.580,-0.095
1.130,0.560,-0.095
1.132,0.570,-0.100
1.134,0.530,-0.100
1.136,0.515,-0.100
1.138,0.540,-0.100
1.140,0.590,-0.095
1.142,0.555,-0.090
1.144,0.580,-0.085
1.146,0.540,-0.080
1.148,0.535,-0.075
1.150,0.575,-0.075
1.152,0.575,-0.075
1.154,0.540,-0.080
1.156,0.535,-0.085
1.158,0.525,-0.090
1.160,0.545,-0.100
1.162,0.540,-0.105
1.164,0.560,-0.110
1.166,0.600,-0.115
1.168,0.505,-0.115
1.170,0.550,-0.115
1.172,0.560,-0.110
1.174,0.570,-0.110
1.176,0.560,-0.110
1.178,0.580,-0.110
1.180,0.490,-0.110
1.182,0.500,-0.115
1.184,0.535,-0.120
1.186,0.540,-0.125
1.188,0.540,-0.125
1.190,0.555,-0.125
1.192,0.550,-0.125
1.194,0.535,-0.120
1.196,0.525,-0.115
1.198,0.550,-0.110
1.200,0.555,-0.105
1.202,0.555,-0.105
1.204,0.550,-0.105
1.206,0.540,-0.105
1.208,0.555,-0.105
1.210,0.580,-0.110
1.212,0.530,-0.110
1.214,0.505,-0.115
1.216,0.525,-0.115
1.218,0.550,-0.115
1.220,0.520,-0.110
1.222,0.585,-0.105
1.224,0.585,-0.100
1.226,0.535,-0.095
1.228,0.505,-0.090
1.230,0.560,-0.090
1.232,0.560,-0.090
1.234,0.530,-0.090
1.236,0.530,-0.095
1.238,0.535,-0.095
1.240,0.530,-0.100
1.242,0.585,-0.105
1.244,0.575,-0.105
1.246,0.545,-0.105
1.248,0.545,-0.105
1.250,0.565,-0.105
1.252,0.530,-0.105
1.254,0.535,-0.110
1.256,0.575,-0.110
1.258,0.565,-0.110
1.260,0.545,-0.115
1.262,0.510,-0.115
1.264,0.505,-0.115
1.266,0.520,-0.115
1.268,0.580,-0.115
1.270,0.570,-0.110
1.272,0.565,-0.110
1.274,0.555,-0.110
1.276,0.570,-0.110
1.278,0.540,-0.110
1.280,0.525,-0.115
1.282,0.545,-0.115
1.284,0.575,-0.120
1.286,0.540,-0.120
1.288,0.515,-0.120
1.290,0.545,-0.115
1.292,0.520,-0.110
1.294,0.570,-0.105
1.296,0.555,-0.100
1.298,0.540,-0.095
1.300,0.570,-0.095
1.302,0.590,-0.095
1.304,0.555,-0.100
1.306,0.530,-0.105
1.308,0.570,-0.110
1.310,0.550,-0.110
1.312,0.550,-0.115
1.314,0.540,-0.115
1.316,0.535,-0.115
1.318,0.545,-0.115
1.320,0.545,-0.110
1.322,0.580,-0.110
1.324,0.560,-0.110
1.326,0.510,-0.110
1.328,0.540,-0.110
1.330,0.605,-0.115
1.332,0.520,-0.120
1.334,0.515,-0.125
1.336,0.525,-0.125
1.338,0.545,-0.130
1.340,0.515,-0.130
1.342,0.555,-0.130
1.344,0.550,-0.125
1.346,0.535,-0.125
1.348,0.560,-0.120
1.350,0.605,-0.120
1.352,0.530,-0.120
1.354,0.525,-0.120
1.356,0.530,-0.120
1.358,0.535,-0.120
1.360,0.520,-0.120
1.362,0.550,-0.120
1.364,0.545,-0.120
1.366,0.550,-0.120
1.368,0.560,-0.120
1.370,0.545,-0.120
1.372,0.575,-0.120
1.374,0.545,-0.120
1.376,0.545,-0.120
1.378,0.545,-0.120
1.380,0.535,-0.120
1.382,0.525,-0.120
1.384,0.525,-0.120
1.386,0.540,-0.120
1.388,0.550,-0.120
1.390,0.550,-0.125
1.392,0.550,-0.120
1.394,0.560,-0.120
1.396,0.550,-0.120
1.398,0.545,-0.115
1.400,0.530,-0.110
1.402,0.575,-0.105
1.404,0.540,-0.105
1.406,0.560,-0.100
1.408,0.550,-0.105
1.410,0.535,-0.105
1.412,0.550,-0.110
1.414,0.555,-0.110
1.416,0.555,-0.115
1.418,0.555,-0.115
1.420,0.565,-0.110
1.422,0.540,-0.105
1.424,0.570,-0.100
1.426,0.545,-0.090
1.428,0.590,-0.080
1.430,0.625,-0.075
1.432,0.615,-0.065
1.434,0.620,-0.060
1.436,0.595,-0.060
1.438,0.540,-0.055
1.440,0.585,-0.055
1.442,0.645,-0.055
1.444,0.615,-0.055
1.446,0.605,-0.055
1.448,0.610,-0.055
1.450,0.600,-0.055
1.452,0.590,-0.060
1.454,0.600,-0.065
1.456,0.575,-0.070
1.458,0.585,-0.080
1.460,0.560,-0.085
1.462,0.560,-0.090
1.464,0.565,-0.095
1.466,0.550,-0.095
1.468,0.580,-0.090
1.470,0.620,-0.080
1.472,0.610,-0.075
1.474,0.590,-0.065
1.476,0.595,-0.055
1.478,0.615,-0.050
1.480,0.595,-0.045
1.482,0.595,-0.050
1.484,0.585,-0.055
1.486,0.600,-0.065
1.488,0.620,-0.080
1.490,0.570,-0.095
1.492,0.560,-0.110
1.494,0.520,-0.120
1.496,0.520,-0.130
1.498,0.525,-0.135
1.500,0.535,-0.140
1.502,0.505,-0.140
1.504,0.540,-0.135
1.506,0.550,-0.135
1.508,0.560,-0.130
1.510,0.550,-0.130
1.512,0.550,-0.130
1.514,0.510,-0.125
1.516,0.540,-0.125
1.518,0.490,-0.125
1.520,0.515,-0.125
1.522,0.530,-0.125
1.524,0.555,-0.130
1.526,0.535,-0.135
1.528,0.515,-0.140
1.530,0.500,-0.145
1.532,0.515,-0.145
1.534,0.515,-0.145
1.536,0.555,-0.140
1.538,0.545,-0.130
1.540,0.520,-0.125
1.542,0.505,-0.120
1.544,0.485,-0.120
1.546,0.475,-0.130
1.548,0.470,-0.155
1.550,0.470,-0.190
1.552,0.440,-0.230
1.554,0.415,-0.265
1.556,0.345,-0.295
1.558,0.300,-0.300
1.560,0.335,-0.285
1.562,0.380,-0.240
1.564,0.500,-0.170
1.566,0.605,-0.080
1.568,0.740,0.025
1.570,0.820,0.140
1.572,0.930,0.265
1.574,1.035,0.395
1.576,1.210,0.535
1.578,1.350,0.685
1.580,1.510,0.850
1.582,1.680,1.025
1.584,1.870,1.200
1.586,2.085,1.360
1.588,2.240,1.495
1.590,2.310,1.575
1.592,2.330,1.595
1.594,2.275,1.545
1.596,2.125,1.415
1.598,1.910,1.230
1.600,1.700,0.995
1.602,1.340,0.745
1.604,1.005,0.500
1.606,0.805,0.280
1.608,0.670,0.105
1.610,0.610,-0.015
1.612,0.600,-0.090
1.614,0.550,-0.120
1.616,0.510,-0.120
1.618,0.515,-0.110
1.620,0.545,-0.095
1.622,0.535,-0.085
1.624,0.550,-0.080
1.626,0.545,-0.085
1.628,0.580,-0.095
1.630,0.565,-0.100
1.632,0.570,-0.100
1.634,0.605,-0.095
1.636,0.560,-0.085
1.638,0.550,-0.070
1.640,0.585,-0.055
1.642,0.590,-0.050
1.644,0.575,-0.045
1.646,0.570,-0.055
1.648,0.565,-0.065
1.650,0.550,-0.075
1.652,0.575,-0.090
1.654,0.540,-0.100
1.656,0.580,-0.105
1.658,0.560,-0.105
1.660,0.575,-0.095
1.662,0.580,-0.085
1.664,0.555,-0.075
1.666,0.570,-0.065
1.668,0.610,-0.060
1.670,0.605,-0.060
1.672,0.540,-0.060
1.674,0.570,-0.065
1.676,0.575,-0.070
1.678,0.565,-0.075
1.680,0.575,-0.080
1.682,0.580,-0.080
1.684,0.580,-0.075
1.686,0.590,-0.070
1.688,0.620,-0.060
1.690,0.595,-0.055
1.692,0.620,-0.050
1.694,0.625,-0.045
1.696,0.590,-0.045
1.698,0.585,-0.045
1.700,0.595,-0.045
1.702,0.600,-0.050
1.704,0.610,-0.045
1.706,0.590,-0.045
1.708,0.630,-0.035
1.710,0.655,-0.025
1.712,0.630,-0.020
1.714,0.640,-0.010
1.716,0.605,0.000
1.718,0.660,0.005
1.720,0.670,0.005
1.722,0.650,0.010
1.724,0.635,0.010
1.726,0.640,0.010
1.728,0.685,0.015
1.730,0.715,0.020
1.732,0.685,0.025
1.734,0.675,0.035
1.736,0.695,0.040
1.738,0.675,0.045
1.740,0.690,0.050
1.742,0.670,0.055
1.744,0.695,0.055
1.746,0.720,0.060
1.748,0.740,0.060
1.750,0.735,0.065
1.752,0.715,0.070
1.754,0.710,0.075
1.756,0.715,0.085
1.758,0.740,0.095
1.760,0.760,0.105
1.762,0.750,0.115
1.764,0.785,0.125
1.766,0.795,0.135
1.768,0.830,0.150
1.770,0.850,0.160
1.772,0.805,0.175
1.774,0.810,0.185
1.776,0.820,0.200
1.778,0.855,0.210
1.780,0.855,0.220
1.782,0.875,0.235
1.784,0.910,0.240
1.786,0.940,0.250
1.788,0.905,0.260
1.790,0.915,0.275
1.792,0.940,0.285
1.794,0.935,0.300
1.796,0.920,0.310
1.798,0.970,0.325
1.800,0.995,0.340
1.802,0.985,0.350
1.804,0.985,0.360
1.806,0.990,0.365
1.808,0.990,0.370
1.810,0.990,0.375
1.812,1.005,0.375
1.814,1.055,0.380
1.816,1.035,0.385
1.818,1.000,0.390
1.820,1.035,0.400
1.822,1.045,0.405
1.824,1.040,0.410
1.826,1.035,0.410
1.828,1.020,0.405
1.830,1.020,0.395
1.832,1.010,0.385
1.834,0.975,0.370
1.836,0.970,0.350
1.838,0.940,0.335
1.840,0.920,0.315
1.842,0.920,0.300
1.844,0.900,0.285
1.846,0.885,0.270
1.848,0.855,0.255
1.850,0.830,0.235
1.852,0.830,0.215
1.854,0.815,0.190
1.856,0.785,0.165
1.858,0.750,0.140
1.860,0.730,0.115
1.862,0.665,0.090
1.864,0.695,0.070
1.866,0.725,0.050
1.868,0.675,0.040
1.870,0.660,0.025
1.872,0.615,0.020
1.874,0.625,0.010
1.876,0.605,0.005
1.878,0.615,0.000
1.880,0.610,-0.005
1.882,0.600,-0.015
1.884,0.580,-0.020
1.886,0.620,-0.025
1.888,0.595,-0.030
1.890,0.575,-0.035
1.892,0.560,-0.040
1.894,0.570,-0.045
1.896,0.555,-0.050
1.898,0.575,-0.055
1.900,0.580,-0.060
1.902,0.545,-0.065
1.904,0.545,-0.070
1.906,0.560,-0.075
1.908,0.555,-0.075
1.910,0.525,-0.080
1.912,0.545,-0.080
1.914,0.535,-0.080
1.916,0.500,-0.080
1.918,0.550,-0.080
1.920,0.510,-0.080
1.922,0.530,-0.085
1.924,0.560,-0.085
1.926,0.570,-0.090
1.928,0.545,-0.090
1.930,0.545,-0.085
1.932,0.535,-0.085
1.934,0.535,-0.080
1.936,0.540,-0.070
1.938,0.540,-0.065
1.940,0.540,-0.065
1.942,0.535,-0.060
1.944,0.520,-0.065
1.946,0.550,-0.070
1.948,0.520,-0.075
1.950,0.530,-0.085
1.952,0.500,-0.095
1.954,0.520,-0.100
1.956,0.535,-0.105
1.958,0.505,-0.105
1.960,0.540,-0.100
1.962,0.540,-0.095
1.964,0.535,-0.090
1.966,0.560,-0.085
1.968,0.560,-0.080
1.970,0.530,-0.080
1.972,0.525,-0.080
1.974,0.535,-0.080
1.976,0.495,-0.085
1.978,0.510,-0.085
1.980,0.545,-0.085
1.982,0.540,-0.085
1.984,0.525,-0.080
1.986,0.540,-0.075
1.988,0.550,-0.070
1.990,0.565,-0.065
1.992,0.550,-0.065
1.994,0.535,-0.060
1.996,0.525,-0.065
1.998,0.525,-0.070
2.000,0.525,-0.075
2.002,0.520,-0.085
2.004,0.520,-0.095
2.006,0.535,-0.100
2.008,0.545,-0.100
2.010,0.520,-0.100
2.012,0.510,-0.095
2.014,0.520,-0.085
2.016,0.505,-0.075
2.018,0.525,-0.065
2.020,0.565,-0.060
2.022,0.570,-0.060
2.024,0.545,-0.065
2.026,0.575,-0.070
2.028,0.510,-0.080
2.030,0.505,-0.085
2.032,0.510,-0.090
2.034,0.495,-0.090
2.036,0.520,-0.085
2.038,0.550,-0.080
2.040,0.530,-0.075
2.042,0.515,-0.070
2.044,0.505,-0.065
2.046,0.485,-0.065
2.048,0.500,-0.070
2.050,0.520,-0.075
2.052,0.555,-0.080
2.054,0.535,-0.085
2.056,0.540,-0.090
2.058,0.515,-0.085
2.060,0.495,-0.080
2.062,0.525,-0.075
2.064,0.565,-0.065
2.066,0.535,-0.065
2.068,0.515,-0.060
2.070,0.485,-0.065
2.072,0.500,-0.070
2.074,0.520,-0.075
2.076,0.495,-0.080
2.078,0.495,-0.080
2.080,0.525,-0.080
2.082,0.525,-0.075
2.084,0.555,-0.075
2.086,0.540,-0.070
2.088,0.500,-0.065
2.090,0.480,-0.065
2.092,0.500,-0.070
2.094,0.475,-0.075
2.096,0.500,-0.085
2.098,0.520,-0.090
2.100,0.535,-0.090
2.102,0.550,-0.090
2.104,0.555,-0.090
2.106,0.555,-0.080
2.108,0.490,-0.075
2.110,0.490,-0.070
2.112,0.520,-0.065
2.114,0.480,-0.065
2.116,0.475,-0.070
2.118,0.505,-0.075
2.120,0.525,-0.080
2.122,0.515,-0.090
2.124,0.490,-0.090
2.126,0.475,-0.095
2.128,0.475,-0.090
2.130,0.525,-0.090
2.132,0.505,-0.085
2.134,0.470,-0.080
2.136,0.460,-0.080
2.138,0.490,-0.080
2.140,0.520,-0.085
2.142,0.555,-0.085
2.144,0.545,-0.090
2.146,0.485,-0.090
2.148,0.480,-0.090
2.150,0.485,-0.090
2.152,0.505,-0.085
2.154,0.465,-0.080
2.156,0.505,-0.075
2.158,0.515,-0.075
2.160,0.510,-0.075
2.162,0.470,-0.080
2.164,0.510,-0.085
2.166,0.530,-0.090
2.168,0.475,-0.095
2.170,0.455,-0.095
2.172,0.465,-0.095
2.174,0.455,-0.095
2.176,0.520,-0.090
2.178,0.525,-0.085
2.180,0.510,-0.080
2.182,0.480,-0.075
2.184,0.515,-0.075
2.186,0.485,-0.075
2.188,0.495,-0.075
2.190,0.485,-0.080
2.192,0.460,-0.085
2.194,0.450,-0.090
2.196,0.485,-0.095
2.198,0.495,-0.100
2.200,0.450,-0.105
2.202,0.465,-0.105
2.204,0.485,-0.105
2.206,0.505,-0.100
2.208,0.500,-0.100
2.210,0.470,-0.095
2.212,0.470,-0.090
2.214,0.485,-0.085
2.216,0.465,-0.085
2.218,0.495,-0.085
2.220,0.470,-0.085
2.222,0.510,-0.090
2.224,0.465,-0.095
2.226,0.485,-0.100
2.228,0.475,-0.100
2.230,0.475,-0.100
2.232,0.495,-0.095
2.234,0.480,-0.090
2.236,0.470,-0.085
2.238,0.480,-0.080
2.240,0.480,-0.080
2.242,0.470,-0.075
2.244,0.505,-0.075
2.246,0.500,-0.075
2.248,0.500,-0.080
2.250,0.490,-0.080
2.252,0.490,-0.085
2.254,0.445,-0.085
2.256,0.490,-0.085
2.258,0.490,-0.085
2.260,0.450,-0.090
2.262,0.465,-0.090
2.264,0.485,-0.095
2.266,0.465,-0.100
2.268,0.470,-0.105
2.270,0.465,-0.110
2.272,0.470,-0.110
2.274,0.465,-0.110
2.276,0.460,-0.110
2.278,0.475,-0.105
2.280,0.475,-0.105
2.282,0.500,-0.100
2.284,0.470,-0.100
2.286,0.455,-0.105
2.288,0.455,-0.105
2.290,0.460,-0.110
2.292,0.455,-0.110
2.294,0.460,-0.110
2.296,0.440,-0.110
2.298,0.390,-0.105
2.300,0.435,-0.100
2.302,0.505,-0.095
2.304,0.530,-0.090
2.306,0.500,-0.085
2.308,0.460,-0.085
2.310,0.465,-0.080
2.312,0.420,-0.080
2.314,0.470,-0.085
2.316,0.505,-0.085
2.318,0.545,-0.085
2.320,0.435,-0.085
2.322,0.435,-0.085
2.324,0.495,-0.080
2.326,0.485,-0.080
2.328,0.475,-0.080
2.330,0.465,-0.075
2.332,0.460,-0.075
2.334,0.470,-0.075
2.336,0.460,-0.075
2.338,0.450,-0.075
2.340,0.490,-0.075
2.342,0.500,-0.075
2.344,0.510,-0.080
2.346,0.475,-0.080
2.348,0.435,-0.085
2.350,0.480,-0.090
2.352,0.430,-0.095
2.354,0.435,-0.095
2.356,0.460,-0.100
2.358,0.445,-0.100
2.360,0.445,-0.100
2.362,0.495,-0.100
2.364,0.465,-0.095
2.366,0.450,-0.095
2.368,0.455,-0.095
2.370,0.455,-0.095
2.372,0.455,-0.095
2.374,0.455,-0.095
2.376,0.460,-0.095
2.378,0.440,-0.095
2.380,0.450,-0.095
2.382,0.485,-0.090
2.384,0.480,-0.090
2.386,0.420,-0.090
2.388,0.475,-0.085
2.390,0.485,-0.085
2.392,0.455,-0.085
2.394,0.460,-0.085
2.396,0.455,-0.085
2.398,0.460,-0.085
2.400,0.465,-0.085
2.402,0.440,-0.085
2.404,0.460,-0.085
2.406,0.435,-0.085
2.408,0.475,-0.085
2.410,0.495,-0.085
2.412,0.460,-0.085
2.414,0.460,-0.080
2.416,0.470,-0.075
2.418,0.450,-0.070
2.420,0.455,-0.060
2.422,0.490,-0.050
2.424,0.585,-0.040
2.426,0.525,-0.030
2.428,0.505,-0.025
2.430,0.515,-0.020
2.432,0.505,-0.020
2.434,0.520,-0.020
2.436,0.500,-0.025
2.438,0.475,-0.035
2.440,0.470,-0.040
2.442,0.495,-0.050
2.444,0.520,-0.055
2.446,0.500,-0.060
2.448,0.510,-0.060
2.450,0.480,-0.065
2.452,0.455,-0.065
2.454,0.465,-0.065
2.456,0.465,-0.065
2.458,0.435,-0.065
2.460,0.475,-0.065
2.462,0.490,-0.060
2.464,0.505,-0.060
2.466,0.500,-0.055
2.468,0.500,-0.055
2.470,0.485,-0.055
2.472,0.475,-0.055
2.474,0.485,-0.055
2.476,0.495,-0.060
2.478,0.465,-0.060
2.480,0.480,-0.070
2.482,0.485,-0.075
2.484,0.485,-0.080
2.486,0.440,-0.080
2.488,0.435,-0.085
2.490,0.410,-0.090
2.492,0.410,-0.095
2.494,0.470,-0.100
2.496,0.465,-0.105
2.498,0.400,-0.115
2.500,0.395,-0.120
2.502,0.410,-0.125
2.504,0.410,-0.130
2.506,0.420,-0.130
2.508,0.420,-0.125
2.510,0.400,-0.120
2.512,0.420,-0.115
2.514,0.435,-0.115
2.516,0.405,-0.115
2.518,0.390,-0.115
2.520,0.400,-0.125
2.522,0.435,-0.130
2.524,0.370,-0.140
2.526,0.380,-0.140
2.528,0.455,-0.140
2.530,0.425,-0.135
2.532,0.420,-0.125
2.534,0.415,-0.115
2.536,0.420,-0.110
2.538,0.395,-0.115
2.540,0.390,-0.130
2.542,0.385,-0.160
2.544,0.330,-0.195
2.546,0.270,-0.235
2.548,0.240,-0.270
2.550,0.200,-0.290
2.552,0.155,-0.295
2.554,0.205,-0.270
2.556,0.315,-0.215
2.558,0.425,-0.135
2.560,0.540,-0.030
2.562,0.685,0.090
2.564,0.765,0.230
2.566,0.875,0.370
2.568,1.040,0.525
2.570,1.205,0.680
2.572,1.395,0.845
2.574,1.555,1.010
2.576,1.740,1.180
2.578,1.875,1.335
2.580,2.035,1.465
2.582,2.180,1.555
2.584,2.235,1.595
2.586,2.195,1.560
2.588,2.050,1.460
2.590,1.865,1.295
2.592,1.640,1.075
2.594,1.300,0.830
2.596,0.955,0.580
2.598,0.700,0.345
2.600,0.585,0.150
2.602,0.525,0.010
2.604,0.460,-0.080
2.606,0.405,-0.120
2.608,0.415,-0.125
2.610,0.440,-0.110
2.612,0.445,-0.085
2.614,0.420,-0.065
2.616,0.405,-0.055
2.618,0.430,-0.055
2.620,0.470,-0.065
2.622,0.480,-0.080
2.624,0.475,-0.090
2.626,0.450,-0.100
2.628,0.435,-0.100
2.630,0.425,-0.095
2.632,0.425,-0.085
2.634,0.450,-0.080
2.636,0.430,-0.070
2.638,0.425,-0.065
2.640,0.460,-0.065
2.642,0.480,-0.070
2.644,0.470,-0.070
2.646,0.405,-0.075
2.648,0.430,-0.080
2.650,0.420,-0.080
2.652,0.420,-0.080
2.654,0.420,-0.080
2.656,0.435,-0.080
2.658,0.460,-0.080
2.660,0.435,-0.080
2.662,0.430,-0.080
2.664,0.445,-0.075
2.666,0.420,-0.075
2.668,0.455,-0.075
2.670,0.495,-0.070
2.672,0.425,-0.070
2.674,0.445,-0.065
2.676,0.420,-0.065
2.678,0.450,-0.060
2.680,0.500,-0.060
2.682,0.480,-0.050
2.684,0.485,-0.045
2.686,0.465,-0.040
2.688,0.460,-0.030
2.690,0.495,-0.025
2.692,0.490,-0.020
2.694,0.510,-0.020
2.696,0.480,-0.020
2.698,0.490,-0.025
2.700,0.505,-0.025
2.702,0.505,-0.025
2.704,0.515,-0.025
2.706,0.510,-0.020
2.708,0.485,-0.010
2.710,0.490,-0.005
2.712,0.510,0.005
2.714,0.515,0.010
2.716,0.545,0.015
2.718,0.535,0.020
2.720,0.550,0.020
2.722,0.510,0.020
2.724,0.530,0.020
2.726,0.550,0.020
2.728,0.570,0.025
2.730,0.535,0.030
2.732,0.530,0.035
2.734,0.550,0.045
2.736,0.580,0.050
2.738,0.575,0.060
2.740,0.595,0.070
2.742,0.610,0.080
2.744,0.610,0.090
2.746,0.605,0.100
2.748,0.580,0.115
2.750,0.635,0.125
2.752,0.625,0.135
2.754,0.655,0.140
2.756,0.630,0.150
2.758,0.615,0.155
2.760,0.700,0.160
2.762,0.695,0.170
2.764,0.670,0.175
2.766,0.700,0.185
2.768,0.660,0.195
2.770,0.705,0.205
2.772,0.705,0.215
2.774,0.745,0.230
2.776,0.760,0.240
2.778,0.750,0.250
2.780,0.805,0.265
2.782,0.825,0.275
2.784,0.755,0.280
2.786,0.795,0.290
2.788,0.815,0.300
2.790,0.815,0.310
2.792,0.815,0.320
2.794,0.820,0.330
2.796,0.860,0.335
2.798,0.870,0.345
2.800,0.890,0.355
2.802,0.880,0.365
2.804,0.885,0.370
2.806,0.895,0.380
2.808,0.885,0.385
2.810,0.895,0.395
2.812,0.895,0.400
2.814,0.900,0.405
2.816,0.885,0.405
2.818,0.915,0.405
2.820,0.920,0.400
2.822,0.870,0.395
2.824,0.860,0.385
2.826,0.860,0.375
2.828,0.830,0.365
2.830,0.865,0.350
2.832,0.845,0.335
2.834,0.810,0.320
2.836,0.780,0.300
2.838,0.775,0.280
2.840,0.730,0.255
2.842,0.740,0.230
2.844,0.685,0.205
2.846,0.655,0.180
2.848,0.615,0.155
2.850,0.630,0.135
2.852,0.615,0.115
2.854,0.580,0.100
2.856,0.550,0.090
2.858,0.555,0.075
2.860,0.560,0.065
2.862,0.530,0.055
2.864,0.520,0.040
2.866,0.530,0.025
2.868,0.510,0.010
2.870,0.445,-0.005
2.872,0.460,-0.020
2.874,0.490,-0.030
2.876,0.450,-0.040
2.878,0.455,-0.040
2.880,0.490,-0.040
2.882,0.465,-0.040
2.884,0.435,-0.035
2.886,0.410,-0.035
2.888,0.410,-0.040
2.890,0.410,-0.045
2.892,0.440,-0.050
2.894,0.440,-0.060
2.896,0.435,-0.070
2.898,0.420,-0.075
2.900,0.425,-0.080
2.902,0.415,-0.080
2.904,0.400,-0.075
2.906,0.420,-0.070
2.908,0.410,-0.065
2.910,0.380,-0.065
2.912,0.410,-0.060
2.914,0.435,-0.060
2.916,0.430,-0.065
2.918,0.425,-0.070
2.920,0.405,-0.070
2.922,0.435,-0.075
2.924,0.400,-0.080
2.926,0.390,-0.080
2.928,0.400,-0.080
2.930,0.385,-0.075
2.932,0.395,-0.075
2.934,0.395,-0.075
2.936,0.385,-0.075
2.938,0.410,-0.075
2.940,0.425,-0.080
2.942,0.450,-0.080
2.944,0.415,-0.080
2.946,0.420,-0.085
2.948,0.380,-0.085
2.950,0.355,-0.085
2.952,0.380,-0.085
2.954,0.370,-0.085
2.956,0.375,-0.085
2.958,0.410,-0.085
2.960,0.425,-0.085
2.962,0.410,-0.085
2.964,0.425,-0.080
2.966,0.425,-0.080
2.968,0.395,-0.075
2.970,0.365,-0.075
2.972,0.380,-0.070
2.974,0.375,-0.070
2.976,0.375,-0.070
2.978,0.400,-0.075
2.980,0.405,-0.080
2.982,0.425,-0.080
2.984,0.395,-0.085
2.986,0.400,-0.085
2.988,0.410,-0.085
2.990,0.390,-0.080
2.992,0.395,-0.080
2.994,0.360,-0.080
2.996,0.405,-0.080
2.998,0.390,-0.085
3.000,0.400,-0.085
3.002,0.370,-0.090
3.004,0.370,-0.090
3.006,0.395,-0.090
3.008,0.365,-0.090
3.010,0.390,-0.085
3.012,0.435,-0.075
3.014,0.410,-0.070
3.016,0.395,-0.065
3.018,0.405,-0.060
3.020,0.405,-0.060
3.022,0.385,-0.060
3.024,0.380,-0.065
3.026,0.395,-0.070
3.028,0.390,-0.075
3.030,0.395,-0.080
3.032,0.400,-0.085
3.034,0.385,-0.085
3.036,0.390,-0.085
3.038,0.415,-0.085
3.040,0.390,-0.080
3.042,0.375,-0.080
3.044,0.390,-0.080
3.046,0.390,-0.080
3.048,0.370,-0.080
3.050,0.370,-0.080
3.052,0.400,-0.080
3.054,0.380,-0.080
3.056,0.370,-0.080
3.058,0.410,-0.075
3.060,0.400,-0.070
3.062,0.405,-0.070
3.064,0.405,-0.065
3.066,0.385,-0.060
3.068,0.365,-0.060
3.070,0.400,-0.060
3.072,0.385,-0.065
3.074,0.365,-0.070
3.076,0.370,-0.070
3.078,0.440,-0.075
3.080,0.455,-0.080
3.082,0.345,-0.085
3.084,0.400,-0.090
3.086,0.355,-0.090
3.088,0.380,-0.090
3.090,0.380,-0.090
3.092,0.370,-0.090
3.094,0.375,-0.085
3.096,0.385,-0.085
3.098,0.395,-0.085
3.100,0.405,-0.080
3.102,0.390,-0.080
3.104,0.355,-0.080
3.106,0.365,-0.080
3.108,0.360,-0.080
3.110,0.380,-0.080
3.112,0.415,-0.080
3.114,0.385,-0.080
3.116,0.375,-0.080
3.118,0.360,-0.085
3.120,0.380,-0.085
3.122,0.395,-0.090
3.124,0.360,-0.090
3.126,0.360,-0.095
3.128,0.365,-0.095
3.130,0.365,-0.095
3.132,0.350,-0.100
3.134,0.365,-0.105
3.136,0.380,-0.105
3.138,0.385,-0.105
3.140,0.350,-0.110
3.142,0.370,-0.105
3.144,0.360,-0.105
3.146,0.360,-0.100
3.148,0.355,-0.095
3.150,0.385,-0.090
3.152,0.365,-0.085
3.154,0.355,-0.080
3.156,0.320,-0.080
3.158,0.320,-0.085
3.160,0.355,-0.090
3.162,0.380,-0.095
3.164,0.400,-0.100
3.166,0.385,-0.105
3.168,0.345,-0.105
3.170,0.340,-0.105
3.172,0.330,-0.105
3.174,0.370,-0.100
3.176,0.360,-0.095
3.178,0.355,-0.095
3.180,0.345,-0.090
3.182,0.390,-0.090
3.184,0.385,-0.090
3.186,0.330,-0.095
3.188,0.345,-0.095
3.190,0.325,-0.095
3.192,0.320,-0.090
3.194,0.375,-0.090
3.196,0.405,-0.085
3.198,0.410,-0.085
3.200,0.355,-0.080
3.202,0.345,-0.080
3.204,0.355,-0.080
3.206,0.335,-0.085
3.208,0.335,-0.085
3.210,0.355,-0.085
3.212,0.370,-0.090
3.214,0.360,-0.085
3.216,0.375,-0.085
3.218,0.390,-0.085
3.220,0.390,-0.080
3.222,0.370,-0.080
3.224,0.360,-0.080
3.226,0.335,-0.085
3.228,0.340,-0.090
3.230,0.360,-0.095
3.232,0.345,-0.105
3.234,0.315,-0.110
3.236,0.360,-0.110
3.238,0.350,-0.110
3.240,0.325,-0.110
3.242,0.340,-0.105
3.244,0.310,-0.105
3.246,0.330,-0.100
3.248,0.340,-0.100
3.250,0.330,-0.100
3.252,0.330,-0.105
3.254,0.305,-0.110
3.256,0.345,-0.115
3.258,0.360,-0.115
3.260,0.315,-0.115
3.262,0.345,-0.110
3.264,0.410,-0.105
3.266,0.345,-0.095
3.268,0.320,-0.090
3.270,0.340,-0.080
3.272,0.330,-0.080
3.274,0.320,-0.080
3.276,0.360,-0.085
3.278,0.355,-0.095
3.280,0.335,-0.105
3.282,0.325,-0.115
3.284,0.335,-0.120
3.286,0.305,-0.120
3.288,0.320,-0.120
3.290,0.345,-0.115
3.292,0.340,-0.105
3.294,0.330,-0.095
3.296,0.335,-0.085
3.298,0.330,-0.085
3.300,0.360,-0.080
3.302,0.375,-0.085
3.304,0.355,-0.085
3.306,0.320,-0.090
3.308,0.340,-0.095
3.310,0.340,-0.095
3.312,0.320,-0.100
3.314,0.325,-0.095
3.316,0.335,-0.090
3.318,0.360,-0.090
3.320,0.350,-0.085
3.322,0.345,-0.080
3.324,0.390,-0.080
3.326,0.355,-0.080
3.328,0.315,-0.085
3.330,0.335,-0.085
3.332,0.350,-0.090
3.334,0.340,-0.095
3.336,0.335,-0.095
3.338,0.330,-0.100
3.340,0.305,-0.105
3.342,0.315,-0.105
3.344,0.335,-0.110
3.346,0.325,-0.110
3.348,0.340,-0.110
3.350,0.340,-0.110
3.352,0.325,-0.105
3.354,0.320,-0.105
3.356,0.340,-0.100
3.358,0.355,-0.095
3.360,0.325,-0.095
3.362,0.320,-0.095
3.364,0.360,-0.095
3.366,0.320,-0.095
3.368,0.315,-0.100
3.370,0.325,-0.100
3.372,0.345,-0.105
3.374,0.335,-0.105
3.376,0.285,-0.110
3.378,0.325,-0.110
3.380,0.350,-0.110
3.382,0.345,-0.110
3.384,0.305,-0.105
3.386,0.330,-0.105
3.388,0.275,-0.105
3.390,0.300,-0.105
3.392,0.345,-0.105
3.394,0.330,-0.105
3.396,0.315,-0.100
3.398,0.370,-0.100
3.400,0.330,-0.095
3.402,0.340,-0.090
3.404,0.340,-0.085
3.406,0.340,-0.085
3.408,0.310,-0.085
3.410,0.325,-0.085
3.412,0.350,-0.085
3.414,0.340,-0.090
3.416,0.335,-0.090
3.418,0.350,-0.090
3.420,0.380,-0.085
3.422,0.380,-0.080
3.424,0.325,-0.070
3.426,0.315,-0.065
3.428,0.400,-0.055
3.430,0.390,-0.045
3.432,0.365,-0.045
3.434,0.375,-0.045
3.436,0.385,-0.045
3.438,0.390,-0.050
3.440,0.350,-0.060
3.442,0.350,-0.065
3.444,0.355,-0.070
3.446,0.355,-0.070
3.448,0.375,-0.070
3.450,0.355,-0.070
3.452,0.345,-0.065
3.454,0.375,-0.065
3.456,0.355,-0.060
3.458,0.325,-0.060
3.460,0.365,-0.060
3.462,0.345,-0.065
3.464,0.330,-0.065
3.466,0.345,-0.065
3.468,0.385,-0.065
3.470,0.375,-0.065
3.472,0.350,-0.060
3.474,0.350,-0.060
3.476,0.370,-0.060
3.478,0.360,-0.065
3.480,0.365,-0.070
3.482,0.370,-0.080
3.484,0.295,-0.085
3.486,0.310,-0.095
3.488,0.335,-0.095
3.490,0.355,-0.100
3.492,0.350,-0.095
3.494,0.340,-0.095
3.496,0.310,-0.095
3.498,0.270,-0.095
3.500,0.290,-0.095
3.502,0.305,-0.100
3.504,0.295,-0.110
3.506,0.300,-0.120
3.508,0.310,-0.125
3.510,0.330,-0.130
3.512,0.315,-0.130
3.514,0.305,-0.125
3.516,0.290,-0.120
3.518,0.295,-0.110
3.520,0.295,-0.105
3.522,0.295,-0.105
3.524,0.290,-0.105
3.526,0.320,-0.105
3.528,0.295,-0.110
3.530,0.285,-0.115
3.532,0.290,-0.120
3.534,0.280,-0.120
3.536,0.305,-0.120
3.538,0.285,-0.125
3.540,0.260,-0.135
3.542,0.275,-0.150
3.544,0.220,-0.175
3.546,0.175,-0.200
3.548,0.175,-0.235
3.550,0.165,-0.260
3.552,0.090,-0.275
3.554,0.105,-0.275
3.556,0.170,-0.245
3.558,0.205,-0.195
3.560,0.295,-0.120
3.562,0.440,-0.020
3.564,0.515,0.095
3.566,0.595,0.225
3.568,0.770,0.365
3.570,0.935,0.510
3.572,1.085,0.665
3.574,1.255,0.830
3.576,1.415,0.995
3.578,1.595,1.165
3.580,1.770,1.325
3.582,1.960,1.465
3.584,2.015,1.560
3.586,2.100,1.605
3.588,2.050,1.585
3.590,1.925,1.490
3.592,1.735,1.330
3.594,1.580,1.115
3.596,1.285,0.870
3.598,0.920,0.620
3.600,0.640,0.380
3.602,0.550,0.180
3.604,0.365,0.030
3.606,0.285,-0.065
3.608,0.315,-0.110
3.610,0.305,-0.120
3.612,0.300,-0.105
3.614,0.335,-0.080
3.616,0.320,-0.060
3.618,0.300,-0.055
3.620,0.325,-0.055
3.622,0.305,-0.065
3.624,0.335,-0.080
3.626,0.340,-0.095
3.628,0.365,-0.100
3.630,0.375,-0.100
3.632,0.295,-0.085
3.634,0.315,-0.070
3.636,0.330,-0.055
3.638,0.350,-0.045
3.640,0.340,-0.040
3.642,0.340,-0.040
3.644,0.305,-0.050
3.646,0.345,-0.065
3.648,0.325,-0.080
3.650,0.295,-0.090
3.652,0.300,-0.100
3.654,0.315,-0.100
3.656,0.330,-0.095
3.658,0.365,-0.085
3.660,0.340,-0.070
3.662,0.310,-0.060
3.664,0.315,-0.045
3.666,0.340,-0.040
3.668,0.330,-0.035
3.670,0.335,-0.035
3.672,0.335,-0.040
3.674,0.375,-0.050
3.676,0.375,-0.055
3.678,0.320,-0.065
3.680,0.325,-0.065
3.682,0.350,-0.065
3.684,0.345,-0.060
3.686,0.360,-0.050
3.688,0.395,-0.040
3.690,0.360,-0.030
3.692,0.310,-0.025
3.694,0.355,-0.020
3.696,0.385,-0.020
3.698,0.370,-0.025
3.700,0.410,-0.030
3.702,0.350,-0.035
3.704,0.355,-0.035
3.706,0.360,-0.035
3.708,0.400,-0.030
3.710,0.355,-0.020
3.712,0.370,-0.010
3.714,0.425,0.000
3.716,0.390,0.010
3.718,0.395,0.015
3.720,0.420,0.020
3.722,0.400,0.020
3.724,0.385,0.020
3.726,0.415,0.025
3.728,0.445,0.025
3.730,0.440,0.030
3.732,0.420,0.040
3.734,0.430,0.050
3.736,0.435,0.055
3.738,0.435,0.065
3.740,0.440,0.075
3.742,0.440,0.080
3.744,0.480,0.085
3.746,0.515,0.090
3.748,0.500,0.095
3.750,0.465,0.100
3.752,0.495,0.110
3.754,0.520,0.120
3.756,0.485,0.130
3.758,0.540,0.140
3.760,0.565,0.150
3.762,0.555,0.165
3.764,0.545,0.175
3.766,0.560,0.180
3.768,0.530,0.190
3.770,0.575,0.195
3.772,0.615,0.205
3.774,0.615,0.210
3.776,0.630,0.220
3.778,0.645,0.230
3.780,0.655,0.245
3.782,0.640,0.260
3.784,0.640,0.275
3.786,0.670,0.290
3.788,0.700,0.300
3.790,0.700,0.310
3.792,0.705,0.320
3.794,0.720,0.330
3.796,0.775,0.335
3.798,0.700,0.340
3.800,0.740,0.345
3.802,0.750,0.350
3.804,0.745,0.355
3.806,0.775,0.365
3.808,0.785,0.375
3.810,0.790,0.385
3.812,0.790,0.395
3.814,0.795,0.400
3.816,0.785,0.400
3.818,0.765,0.400
3.820,0.775,0.395
3.822,0.725,0.390
3.824,0.740,0.380
3.826,0.785,0.375
3.828,0.770,0.365
3.830,0.745,0.360
3.832,0.720,0.350
3.834,0.710,0.340
3.836,0.695,0.325
3.838,0.660,0.310
3.840,0.630,0.290
3.842,0.630,0.265
3.844,0.570,0.235
3.846,0.550,0.210
3.848,0.520,0.185
3.850,0.535,0.160
3.852,0.580,0.145
3.854,0.525,0.130
3.856,0.490,0.120
3.858,0.455,0.110
3.860,0.430,0.100
3.862,0.410,0.085
3.864,0.410,0.070
3.866,0.400,0.055
3.868,0.350,0.035
3.870,0.385,0.015
3.872,0.385,-0.005
3.874,0.425,-0.015
3.876,0.380,-0.025
3.878,0.365,-0.030
3.880,0.320,-0.030
3.882,0.305,-0.030
3.884,0.335,-0.025
3.886,0.325,-0.025
3.888,0.335,-0.030
3.890,0.330,-0.040
3.892,0.310,-0.045
3.894,0.290,-0.055
3.896,0.300,-0.065
3.898,0.345,-0.070
3.900,0.320,-0.070
3.902,0.310,-0.070
3.904,0.270,-0.065
3.906,0.295,-0.060
3.908,0.290,-0.055
3.910,0.285,-0.055
3.912,0.280,-0.060
3.914,0.290,-0.065
3.916,0.315,-0.075
3.918,0.290,-0.085
3.920,0.290,-0.090
3.922,0.275,-0.095
3.924,0.280,-0.095
3.926,0.270,-0.090
3.928,0.305,-0.085
3.930,0.335,-0.085
3.932,0.290,-0.080
3.934,0.300,-0.075
3.936,0.275,-0.075
3.938,0.280,-0.080
3.940,0.310,-0.080
3.942,0.295,-0.080
3.944,0.300,-0.075
3.946,0.330,-0.075
3.948,0.285,-0.070
3.950,0.265,-0.070
3.952,0.305,-0.065
3.954,0.300,-0.070
3.956,0.280,-0.070
3.958,0.285,-0.080
3.960,0.285,-0.085
3.962,0.245,-0.090
3.964,0.270,-0.095
3.966,0.305,-0.095
3.968,0.270,-0.090
3.970,0.305,-0.080
3.972,0.340,-0.070
3.974,0.315,-0.065
3.976,0.325,-0.060
3.978,0.285,-0.055
3.980,0.285,-0.060
3.982,0.300,-0.065
3.984,0.275,-0.075
3.986,0.285,-0.080
3.988,0.265,-0.090
3.990,0.285,-0.095
3.992,0.300,-0.095
3.994,0.280,-0.095
3.996,0.275,-0.090
3.998,0.265,-0.085
4.000,0.290,-0.085
4.002,0.255,-0.085
4.004,0.275,-0.085
4.006,0.310,-0.090
4.008,0.280,-0.090
4.010,0.290,-0.095
4.012,0.305,-0.095
4.014,0.245,-0.095
4.016,0.265,-0.095
4.018,0.295,-0.090
4.020,0.275,-0.090
4.022,0.285,-0.085
4.024,0.330,-0.080
4.026,0.255,-0.080
4.028,0.235,-0.080
4.030,0.250,-0.080
4.032,0.335,-0.080
4.034,0.305,-0.080
4.036,0.285,-0.080
4.038,0.285,-0.085
4.040,0.295,-0.085
4.042,0.245,-0.085
4.044,0.270,-0.085
4.046,0.310,-0.080
4.048,0.295,-0.080
4.050,0.275,-0.080
4.052,0.285,-0.075
4.054,0.280,-0.070
4.056,0.280,-0.070
4.058,0.330,-0.065
4.060,0.300,-0.065
4.062,0.270,-0.060
4.064,0.295,-0.060
4.066,0.295,-0.060
4.068,0.260,-0.065
4.070,0.305,-0.070
4.072,0.295,-0.075
4.074,0.240,-0.080
4.076,0.280,-0.085
4.078,0.280,-0.090
4.080,0.295,-0.095
4.082,0.235,-0.095
4.084,0.280,-0.090
4.086,0.305,-0.085
4.088,0.260,-0.075
4.090,0.305,-0.070
4.092,0.290,-0.070
4.094,0.265,-0.070
4.096,0.270,-0.075
4.098,0.240,-0.080
4.100,0.290,-0.090
4.102,0.270,-0.095
4.104,0.275,-0.100
4.106,0.280,-0.100
4.108,0.205,-0.095
4.110,0.235,-0.085
4.112,0.340,-0.075
4.114,0.300,-0.070
4.116,0.290,-0.065
4.118,0.275,-0.065
4.120,0.280,-0.070
4.122,0.235,-0.080
4.124,0.245,-0.085
4.126,0.270,-0.090
4.128,0.270,-0.090
4.130,0.260,-0.090
4.132,0.285,-0.085
4.134,0.260,-0.080
4.136,0.300,-0.075
4.138,0.285,-0.075
4.140,0.320,-0.080
4.142,0.215,-0.090
4.144,0.230,-0.100
4.146,0.255,-0.110
4.148,0.265,-0.115
4.150,0.265,-0.115
4.152,0.285,-0.115
4.154,0.235,-0.105
4.156,0.250,-0.100
4.158,0.275,-0.090
4.160,0.255,-0.085
4.162,0.235,-0.085
4.164,0.260,-0.090
4.166,0.255,-0.100
4.168,0.205,-0.105
4.170,0.255,-0.110
4.172,0.310,-0.110
4.174,0.260,-0.110
4.176,0.220,-0.100
4.178,0.255,-0.095
4.180,0.240,-0.085
4.182,0.235,-0.080
4.184,0.265,-0.080
4.186,0.280,-0.085
4.188,0.225,-0.095
4.190,0.270,-0.105
4.192,0.255,-0.115
4.194,0.230,-0.120
4.196,0.220,-0.125
4.198,0.235,-0.120
4.200,0.230,-0.115
4.202,0.255,-0.105
4.204,0.290,-0.095
4.206,0.245,-0.085
4.208,0.240,-0.075
4.210,0.290,-0.075
4.212,0.275,-0.075
4.214,0.250,-0.080
4.216,0.240,-0.085
4.218,0.265,-0.095
4.220,0.225,-0.105
4.222,0.250,-0.110
4.224,0.270,-0.115
4.226,0.235,-0.120
4.228,0.225,-0.120
4.230,0.240,-0.115
4.232,0.235,-0.115
4.234,0.265,-0.110
4.236,0.215,-0.110
4.238,0.240,-0.105
4.240,0.235,-0.105
4.242,0.255,-0.105
4.244,0.285,-0.100
4.246,0.260,-0.100
4.248,0.220,-0.095
4.250,0.255,-0.095
4.252,0.235,-0.095
4.254,0.225,-0.100
4.256,0.245,-0.105
4.258,0.210,-0.110
4.260,0.225,-0.115
4.262,0.250,-0.125
4.264,0.195,-0.130
4.266,0.210,-0.130
4.268,0.270,-0.125
4.270,0.285,-0.120
4.272,0.250,-0.110
4.274,0.230,-0.100
4.276,0.240,-0.095
4.278,0.270,-0.085
4.280,0.255,-0.085
4.282,0.245,-0.085
4.284,0.240,-0.085
4.286,0.215,-0.090
4.288,0.195,-0.095
4.290,0.255,-0.100
4.292,0.260,-0.100
4.294,0.250,-0.100
4.296,0.245,-0.095
4.298,0.265,-0.095
4.300,0.240,-0.090
4.302,0.255,-0.090
4.304,0.240,-0.085
4.306,0.235,-0.085
4.308,0.250,-0.090
4.310,0.290,-0.095
4.312,0.245,-0.095
4.314,0.235,-0.100
4.316,0.230,-0.105
4.318,0.255,-0.105
4.320,0.265,-0.100
4.322,0.290,-0.095
4.324,0.285,-0.090
4.326,0.200,-0.085
4.328,0.245,-0.080
4.330,0.260,-0.075
4.332,0.250,-0.075
4.334,0.290,-0.075
4.336,0.260,-0.080
4.338,0.250,-0.080
4.340,0.240,-0.085
4.342,0.265,-0.090
4.344,0.235,-0.090
4.346,0.215,-0.090
4.348,0.240,-0.090
4.350,0.275,-0.090
4.352,0.260,-0.090
4.354,0.250,-0.090
4.356,0.225,-0.090
4.358,0.240,-0.095
4.360,0.245,-0.095
4.362,0.280,-0.100
4.364,0.250,-0.100
4.366,0.220,-0.100
4.368,0.230,-0.100
4.370,0.255,-0.095
4.372,0.250,-0.095
4.374,0.250,-0.095
4.376,0.235,-0.090
4.378,0.260,-0.090
4.380,0.225,-0.095
4.382,0.240,-0.095
4.384,0.265,-0.095
4.386,0.275,-0.095
4.388,0.280,-0.090
4.390,0.300,-0.090
4.392,0.265,-0.085
4.394,0.255,-0.080
4.396,0.260,-0.075
4.398,0.225,-0.070
4.400,0.210,-0.070
4.402,0.260,-0.070
4.404,0.265,-0.075
4.406,0.245,-0.075
4.408,0.285,-0.075
4.410,0.295,-0.075
4.412,0.245,-0.075
4.414,0.260,-0.070
4.416,0.275,-0.070
4.418,0.265,-0.065
4.420,0.250,-0.060
4.422,0.235,-0.060
4.424,0.260,-0.060
4.426,0.260,-0.060
4.428,0.265,-0.060
4.430,0.270,-0.060
4.432,0.290,-0.060
4.434,0.315,-0.055
4.436,0.320,-0.045
4.438,0.305,-0.040
4.440,0.280,-0.030
4.442,0.305,-0.025
4.444,0.300,-0.025
4.446,0.290,-0.025
4.448,0.310,-0.025
4.450,0.305,-0.030
4.452,0.285,-0.040
4.454,0.270,-0.045
4.456,0.295,-0.050
4.458,0.280,-0.050
4.460,0.250,-0.050
4.462,0.260,-0.050
4.464,0.290,-0.055
4.466,0.300,-0.055
4.468,0.310,-0.055
4.470,0.265,-0.060
4.472,0.295,-0.060
4.474,0.255,-0.060
4.476,0.250,-0.060
4.478,0.240,-0.060
4.480,0.265,-0.060
4.482,0.290,-0.055
4.484,0.310,-0.050
4.486,0.335,-0.045
4.488,0.355,-0.045
4.490,0.305,-0.045
4.492,0.285,-0.045
4.494,0.265,-0.045
4.496,0.285,-0.045
4.498,0.250,-0.045
4.500,0.275,-0.050
4.502,0.290,-0.050
4.504,0.250,-0.055
4.506,0.245,-0.060
4.508,0.225,-0.070
4.510,0.225,-0.080
4.512,0.245,-0.090
4.514,0.240,-0.100
4.516,0.210,-0.110
4.518,0.215,-0.110
4.520,0.230,-0.110
4.522,0.235,-0.105
4.524,0.225,-0.100
4.526,0.215,-0.095
4.528,0.235,-0.095
4.530,0.250,-0.095
4.532,0.215,-0.100
4.534,0.240,-0.110
4.536,0.225,-0.115
4.538,0.220,-0.115
4.540,0.220,-0.115
4.542,0.245,-0.105
4.544,0.220,-0.095
4.546,0.205,-0.085
4.548,0.235,-0.085
4.550,0.225,-0.090
4.552,0.185,-0.110
4.554,0.155,-0.140
4.556,0.155,-0.175
4.558,0.110,-0.215
4.560,0.060,-0.250
4.562,0.040,-0.265
4.564,0.010,-0.265
4.566,0.020,-0.240
4.568,0.095,-0.195
4.570,0.215,-0.125
4.572,0.320,-0.045
4.574,0.430,0.055
4.576,0.520,0.165
4.578,0.635,0.290
4.580,0.745,0.435
4.582,0.915,0.595
4.584,1.095,0.780
4.586,1.280,0.970
4.588,1.475,1.165
4.590,1.670,1.335
4.592,1.850,1.465
4.594,1.960,1.530
4.596,2.040,1.520
4.598,2.010,1.430
4.600,1.620,1.265
4.602,1.340,1.045
4.604,0.950,0.785
4.606,0.670,0.525
4.608,0.455,0.290
4.610,0.350,0.100
4.612,0.260,-0.035
4.614,0.255,-0.110
4.616,0.280,-0.130
4.618,0.215,-0.120
4.620,0.195,-0.090
4.622,0.250,-0.060
4.624,0.285,-0.040
4.626,0.250,-0.035
4.628,0.260,-0.040
4.630,0.245,-0.055
4.632,0.265,-0.075
4.634,0.270,-0.085
4.636,0.285,-0.085
4.638,0.295,-0.080
4.640,0.280,-0.065
4.642,0.275,-0.045
4.644,0.235,-0.030
4.646,0.240,-0.025
4.648,0.235,-0.025
4.650,0.295,-0.030
4.652,0.320,-0.045
4.654,0.255,-0.055
4.656,0.260,-0.065
4.658,0.260,-0.070
4.660,0.250,-0.065
4.662,0.250,-0.055
4.664,0.275,-0.045
4.666,0.265,-0.035
4.668,0.260,-0.030
4.670,0.325,-0.025
4.672,0.285,-0.030
4.674,0.250,-0.035
4.676,0.265,-0.040
4.678,0.290,-0.045
4.680,0.280,-0.045
4.682,0.280,-0.045
4.684,0.310,-0.040
4.686,0.295,-0.030
4.688,0.305,-0.025
4.690,0.290,-0.015
4.692,0.280,-0.010
4.694,0.265,-0.005
4.696,0.280,-0.005
4.698,0.340,-0.010
4.700,0.340,-0.010
4.702,0.315,-0.015
4.704,0.310,-0.015
4.706,0.315,-0.015
4.708,0.320,-0.015
4.710,0.280,-0.010
4.712,0.285,-0.005
4.714,0.315,0.000
4.716,0.340,0.010
4.718,0.350,0.015
4.720,0.350,0.020
4.722,0.330,0.030
4.724,0.355,0.035
4.726,0.380,0.045
4.728,0.350,0.050
4.730,0.385,0.055
4.732,0.360,0.060
4.734,0.335,0.065
4.736,0.375,0.070
4.738,0.365,0.070
4.740,0.390,0.075
4.742,0.430,0.080
4.744,0.430,0.080
4.746,0.400,0.090
4.748,0.375,0.095
4.750,0.390,0.105
4.752,0.400,0.110
4.754,0.430,0.120
4.756,0.450,0.125
4.758,0.445,0.130
4.760,0.440,0.135
4.762,0.445,0.140
4.764,0.475,0.140
4.766,0.485,0.150
4.768,0.505,0.155
4.770,0.450,0.165
4.772,0.495,0.180
4.774,0.470,0.190
4.776,0.520,0.205
4.778,0.535,0.220
4.780,0.530,0.230
4.782,0.565,0.240
4.784,0.560,0.250
4.786,0.575,0.260
4.788,0.600,0.265
4.790,0.610,0.275
4.792,0.605,0.290
4.794,0.610,0.300
4.796,0.620,0.315
4.798,0.660,0.330
4.800,0.630,0.345
4.802,0.665,0.360
4.804,0.705,0.370
4.806,0.690,0.385
4.808,0.680,0.395
4.810,0.720,0.410
4.812,0.710,0.420
4.814,0.740,0.425
4.816,0.730,0.430
4.818,0.725,0.435
4.820,0.755,0.435
4.822,0.715,0.430
4.824,0.715,0.425
4.826,0.740,0.420
4.828,0.725,0.410
4.830,0.675,0.405
4.832,0.665,0.400
4.834,0.700,0.395
4.836,0.700,0.390
4.838,0.685,0.385
4.840,0.665,0.375
4.842,0.645,0.360
4.844,0.620,0.340
4.846,0.580,0.315
4.848,0.565,0.290
4.850,0.570,0.260
4.852,0.520,0.230
4.854,0.480,0.205
4.856,0.490,0.185
4.858,0.465,0.165
4.860,0.455,0.150
4.862,0.430,0.140
4.864,0.395,0.125
4.866,0.365,0.115
4.868,0.385,0.095
4.870,0.400,0.080
4.872,0.360,0.060
4.874,0.315,0.040
4.876,0.335,0.020
4.878,0.295,0.005
4.880,0.310,-0.005
4.882,0.315,-0.010
4.884,0.320,-0.015
4.886,0.340,-0.015
4.888,0.240,-0.020
4.890,0.315,-0.020
4.892,0.255,-0.030
4.894,0.195,-0.040
4.896,0.210,-0.050
4.898,0.235,-0.060
4.900,0.280,-0.070
4.902,0.280,-0.075
4.904,0.250,-0.075
4.906,0.235,-0.075
4.908,0.200,-0.070
4.910,0.200,-0.060
4.912,0.230,-0.055
4.914,0.270,-0.055
4.916,0.240,-0.055
4.918,0.240,-0.055
4.920,0.250,-0.065
4.922,0.300,-0.070
4.924,0.220,-0.075
4.926,0.230,-0.075
4.928,0.235,-0.075
4.930,0.210,-0.070
4.932,0.215,-0.065
4.934,0.200,-0.065
4.936,0.235,-0.065
4.938,0.240,-0.065
4.940,0.255,-0.070
4.942,0.265,-0.075
4.944,0.190,-0.085
4.946,0.200,-0.085
4.948,0.180,-0.090
4.950,0.180,-0.090
4.952,0.225,-0.085
4.954,0.280,-0.080
4.956,0.240,-0.075
4.958,0.225,-0.070
4.960,0.225,-0.070
4.962,0.230,-0.070
4.964,0.220,-0.075
4.966,0.205,-0.080
4.968,0.205,-0.085
4.970,0.185,-0.085
4.972,0.195,-0.085
4.974,0.245,-0.080
4.976,0.245,-0.075
4.978,0.230,-0.070
4.980,0.210,-0.060
4.982,0.255,-0.055
4.984,0.220,-0.050
4.986,0.230,-0.050
4.988,0.225,-0.050
4.990,0.225,-0.055
4.992,0.215,-0.055
4.994,0.255,-0.065
4.996,0.245,-0.070
4.998,0.210,-0.075
5.000,0.215,-0.085
5.002,0.195,-0.095
5.004,0.190,-0.105
5.006,0.210,-0.115
5.008,0.150,-0.120
5.010,0.155,-0.120
5.012,0.195,-0.120
5.014,0.225,-0.110
5.016,0.250,-0.100
5.018,0.225,-0.085
5.020,0.200,-0.075
5.022,0.235,-0.065
5.024,0.250,-0.055
5.026,0.230,-0.055
5.028,0.200,-0.060
5.030,0.200,-0.070
5.032,0.165,-0.085
5.034,0.205,-0.095
5.036,0.225,-0.105
5.038,0.190,-0.110
5.040,0.180,-0.110
5.042,0.185,-0.105
5.044,0.220,-0.095
5.046,0.230,-0.085
5.048,0.230,-0.075
5.050,0.225,-0.070
5.052,0.225,-0.065
5.054,0.255,-0.070
5.056,0.210,-0.070
5.058,0.180,-0.075
5.060,0.175,-0.085
5.062,0.230,-0.085
5.064,0.240,-0.090
5.066,0.195,-0.090
5.068,0.195,-0.085
5.070,0.180,-0.085
5.072,0.220,-0.080
5.074,0.210,-0.080
5.076,0.225,-0.080
5.078,0.185,-0.085
5.080,0.205,-0.085
5.082,0.255,-0.090
5.084,0.205,-0.095
5.086,0.205,-0.095
5.088,0.200,-0.100
5.090,0.180,-0.100
5.092,0.190,-0.100
5.094,0.190,-0.100
5.096,0.205,-0.100
5.098,0.200,-0.100
5.100,0.210,-0.105
5.102,0.215,-0.105
5.104,0.190,-0.105
5.106,0.155,-0.105
5.108,0.125,-0.100
5.110,0.165,-0.095
5.112,0.215,-0.090
5.114,0.215,-0.085
5.116,0.215,-0.080
5.118,0.205,-0.080
5.120,0.235,-0.080
5.122,0.255,-0.080
5.124,0.185,-0.085
5.126,0.190,-0.090
5.128,0.175,-0.095
5.130,0.160,-0.100
5.132,0.175,-0.105
5.134,0.190,-0.105
5.136,0.205,-0.110
5.138,0.145,-0.110
5.140,0.180,-0.110
5.142,0.215,-0.115
5.144,0.175,-0.120
5.146,0.180,-0.120
5.148,0.190,-0.125
5.150,0.185,-0.125
5.152,0.190,-0.120
5.154,0.155,-0.120
5.156,0.170,-0.110
5.158,0.150,-0.105
5.160,0.155,-0.100
5.162,0.230,-0.100
5.164,0.225,-0.095
5.166,0.205,-0.095
5.168,0.155,-0.100
5.170,0.160,-0.105
5.172,0.180,-0.110
5.174,0.180,-0.110
5.176,0.170,-0.110
5.178,0.180,-0.115
5.180,0.165,-0.115
5.182,0.155,-0.115
5.184,0.145,-0.115
5.186,0.175,-0.115
5.188,0.205,-0.115
5.190,0.170,-0.115
5.192,0.200,-0.115
5.194,0.175,-0.110
5.196,0.155,-0.110
5.198,0.170,-0.105
5.200,0.200,-0.105
5.202,0.220,-0.100
5.204,0.180,-0.100
5.206,0.180,-0.105
5.208,0.140,-0.105
5.210,0.160,-0.110
5.212,0.165,-0.115
5.214,0.170,-0.115
5.216,0.140,-0.115
5.218,0.145,-0.110
5.220,0.215,-0.110
5.222,0.215,-0.105
5.224,0.190,-0.105
5.226,0.190,-0.105
5.228,0.180,-0.110
5.230,0.135,-0.115
5.232,0.130,-0.120
5.234,0.170,-0.130
5.236,0.150,-0.135
5.238,0.180,-0.135
5.240,0.135,-0.135
5.242,0.170,-0.135
5.244,0.205,-0.130
5.246,0.170,-0.125
5.248,0.160,-0.125
5.250,0.160,-0.125
5.252,0.150,-0.120
5.254,0.175,-0.120
5.256,0.115,-0.120
5.258,0.180,-0.115
5.260,0.215,-0.110
5.262,0.195,-0.105
5.264,0.200,-0.100
5.266,0.230,-0.100
5.268,0.210,-0.100
5.270,0.150,-0.100
5.272,0.145,-0.105
5.274,0.175,-0.110
5.276,0.150,-0.110
5.278,0.180,-0.115
5.280,0.190,-0.115
5.282,0.210,-0.110
5.284,0.185,-0.105
5.286,0.215,-0.095
5.288,0.195,-0.090
5.290,0.180,-0.090
5.292,0.210,-0.090
5.294,0.185,-0.095
5.296,0.135,-0.105
5.298,0.155,-0.110
5.300,0.195,-0.120
5.302,0.190,-0.120
5.304,0.220,-0.120
5.306,0.170,-0.115
5.308,0.190,-0.110
5.310,0.165,-0.100
5.312,0.120,-0.095
5.314,0.145,-0.095
5.316,0.195,-0.095
5.318,0.215,-0.095
5.320,0.265,-0.100
5.322,0.215,-0.100
5.324,0.195,-0.105
5.326,0.175,-0.105
5.328,0.180,-0.100
5.330,0.125,-0.095
5.332,0.150,-0.095
5.334,0.240,-0.090
5.336,0.220,-0.085
5.338,0.220,-0.085
5.340,0.225,-0.090
5.342,0.180,-0.090
5.344,0.195,-0.095
5.346,0.190,-0.095
5.348,0.215,-0.095
5.350,0.215,-0.095
5.352,0.245,-0.095
5.354,0.200,-0.095
5.356,0.155,-0.095
5.358,0.160,-0.095
5.360,0.195,-0.095
5.362,0.205,-0.100
5.364,0.195,-0.100
5.366,0.240,-0.100
5.368,0.190,-0.095
5.370,0.170,-0.090
5.372,0.170,-0.085
5.374,0.205,-0.080
5.376,0.205,-0.080
5.378,0.205,-0.080
5.380,0.230,-0.085
5.382,0.170,-0.090
5.384,0.195,-0.100
5.386,0.250,-0.105
5.388,0.180,-0.115
5.390,0.145,-0.120
5.392,0.135,-0.120
5.394,0.170,-0.115
5.396,0.210,-0.110
5.398,0.195,-0.100
5.400,0.175,-0.090
5.402,0.200,-0.085
5.404,0.220,-0.080
5.406,0.280,-0.075
5.408,0.220,-0.070
5.410,0.235,-0.070
5.412,0.255,-0.070
5.414,0.200,-0.065
5.416,0.155,-0.065
5.418,0.210,-0.060
5.420,0.245,-0.055
5.422,0.240,-0.055
5.424,0.250,-0.050
5.426,0.260,-0.045
5.428,0.245,-0.045
5.430,0.260,-0.040
5.432,0.245,-0.040
5.434,0.255,-0.040
5.436,0.225,-0.040
5.438,0.240,-0.045
5.440,0.240,-0.045
5.442,0.225,-0.050
5.444,0.235,-0.060
5.446,0.220,-0.065
5.448,0.210,-0.070
5.450,0.230,-0.075
5.452,0.200,-0.075
5.454,0.220,-0.075
5.456,0.210,-0.070
5.458,0.245,-0.065
5.460,0.225,-0.060
5.462,0.230,-0.055
5.464,0.250,-0.055
5.466,0.280,-0.055
5.468,0.230,-0.050
5.470,0.260,-0.050
5.472,0.260,-0.050
5.474,0.275,-0.050
5.476,0.245,-0.050
5.478,0.230,-0.050
5.480,0.240,-0.045
5.482,0.225,-0.050
5.484,0.220,-0.050
5.486,0.205,-0.060
5.488,0.230,-0.065
5.490,0.240,-0.075
5.492,0.200,-0.090
5.494,0.155,-0.100
5.496,0.160,-0.105
5.498,0.215,-0.110
5.500,0.170,-0.115
5.502,0.215,-0.115
5.504,0.215,-0.110
5.506,0.185,-0.105
5.508,0.190,-0.105
5.510,0.205,-0.100
5.512,0.195,-0.100
5.514,0.190,-0.100
5.516,0.165,-0.105
5.518,0.180,-0.105
5.520,0.195,-0.110
5.522,0.210,-0.115
5.524,0.210,-0.115
5.526,0.200,-0.115
5.528,0.185,-0.115
5.530,0.185,-0.110
5.532,0.175,-0.105
5.534,0.160,-0.105
5.536,0.190,-0.105
5.538,0.185,-0.120
5.540,0.145,-0.140
5.542,0.150,-0.165
5.544,0.120,-0.195
5.546,0.055,-0.225
5.548,-0.015,-0.245
5.550,0.015,-0.255
5.552,0.015,-0.250
5.554,0.075,-0.220
5.556,0.130,-0.170
5.558,0.195,-0.100
5.560,0.315,-0.010
5.562,0.435,0.090
5.564,0.485,0.210
5.566,0.635,0.335
5.568,0.770,0.470
5.570,0.940,0.615
5.572,1.090,0.770
5.574,1.205,0.930
5.576,1.380,1.095
5.578,1.610,1.245
5.580,1.755,1.375
5.582,1.815,1.460
5.584,1.895,1.490
5.586,1.830,1.455
5.588,1.695,1.355
5.590,1.515,1.185
5.592,1.305,0.970
5.594,0.945,0.725
5.596,0.640,0.475
5.598,0.450,0.250
5.600,0.300,0.060
5.602,0.185,-0.070
5.604,0.160,-0.150
5.606,0.125,-0.180
5.608,0.090,-0.175
5.610,0.140,-0.150
5.612,0.200,-0.120
5.614,0.190,-0.095
5.616,0.190,-0.085
5.618,0.235,-0.090
5.620,0.190,-0.100
5.622,0.195,-0.110
5.624,0.235,-0.115
5.626,0.180,-0.115
5.628,0.170,-0.105
5.630,0.245,-0.085
5.632,0.270,-0.065
5.634,0.245,-0.050
5.636,0.245,-0.040
5.638,0.260,-0.035
5.640,0.230,-0.040
5.642,0.215,-0.050
5.644,0.235,-0.065
5.646,0.260,-0.075
5.648,0.230,-0.080
5.650,0.250,-0.080
5.652,0.285,-0.080
5.654,0.290,-0.075
5.656,0.175,-0.070
5.658,0.205,-0.065
5.660,0.190,-0.065
5.662,0.210,-0.065
5.664,0.285,-0.065
5.666,0.300,-0.065
5.668,0.260,-0.060
5.670,0.260,-0.055
5.672,0.270,-0.045
5.674,0.285,-0.030
5.676,0.260,-0.020
5.678,0.305,-0.015
5.680,0.290,-0.010
5.682,0.285,-0.015
5.684,0.290,-0.020
5.686,0.225,-0.030
5.688,0.220,-0.035
5.690,0.275,-0.045
5.692,0.245,-0.045
5.694,0.280,-0.040
5.696,0.325,-0.035
5.698,0.330,-0.025
5.700,0.305,-0.015
5.702,0.315,-0.005
5.704,0.325,0.000
5.706,0.260,0.005
5.708,0.265,0.005
5.710,0.270,0.005
5.712,0.320,0.005
5.714,0.330,0.010
5.716,0.375,0.010
5.718,0.350,0.015
5.720,0.345,0.020
5.722,0.350,0.025
5.724,0.340,0.035
5.726,0.320,0.040
5.728,0.355,0.040
5.730,0.355,0.045
5.732,0.345,0.045
5.734,0.355,0.050
5.736,0.400,0.055
5.738,0.415,0.060
5.740,0.375,0.065
5.742,0.385,0.070
5.744,0.385,0.080
5.746,0.420,0.090
5.748,0.440,0.100
5.750,0.440,0.115
5.752,0.450,0.125
5.754,0.440,0.135
5.756,0.465,0.150
5.758,0.450,0.160
5.760,0.475,0.170
5.762,0.500,0.180
5.764,0.530,0.190
5.766,0.505,0.200
5.768,0.540,0.210
5.770,0.525,0.220
5.772,0.545,0.230
5.774,0.560,0.240
5.776,0.575,0.255
5.778,0.620,0.270
5.780,0.585,0.280
5.782,0.565,0.295
5.784,0.635,0.310
5.786,0.630,0.325
5.788,0.605,0.335
5.790,0.645,0.340
5.792,0.680,0.350
5.794,0.680,0.355
5.796,0.665,0.360
5.798,0.715,0.365
5.800,0.705,0.375
5.802,0.715,0.380
5.804,0.720,0.390
5.806,0.735,0.400
5.808,0.740,0.410
5.810,0.795,0.415
5.812,0.695,0.415
5.814,0.695,0.415
5.816,0.760,0.410
5.818,0.735,0.405
5.820,0.670,0.395
5.822,0.675,0.380
5.824,0.695,0.370
5.826,0.690,0.355
5.828,0.655,0.345
5.830,0.655,0.340
5.832,0.670,0.330
5.834,0.680,0.325
5.836,0.645,0.315
5.838,0.595,0.305
5.840,0.560,0.290
5.842,0.540,0.270
5.844,0.530,0.245
5.846,0.495,0.215
5.848,0.500,0.185
5.850,0.450,0.150
5.852,0.395,0.120
5.854,0.430,0.095
5.856,0.435,0.075
5.858,0.390,0.060
5.860,0.365,0.045
5.862,0.355,0.040
5.864,0.355,0.035
5.866,0.315,0.025
5.868,0.315,0.015
5.870,0.285,0.000
5.872,0.255,-0.010
5.874,0.285,-0.025
5.876,0.320,-0.040
5.878,0.310,-0.050
5.880,0.280,-0.055
5.882,0.270,-0.055
5.884,0.245,-0.055
5.886,0.230,-0.050
5.888,0.270,-0.050
5.890,0.270,-0.050
5.892,0.280,-0.055
5.894,0.245,-0.065
5.896,0.275,-0.075
5.898,0.240,-0.085
5.900,0.235,-0.095
5.902,0.230,-0.100
5.904,0.235,-0.105
5.906,0.180,-0.105
5.908,0.240,-0.100
5.910,0.215,-0.095
5.912,0.235,-0.090
5.914,0.245,-0.085
5.916,0.225,-0.085
5.918,0.230,-0.085
5.920,0.240,-0.085
5.922,0.230,-0.085
5.924,0.260,-0.085
5.926,0.230,-0.085
5.928,0.245,-0.080
5.930,0.225,-0.075
5.932,0.220,-0.075
5.934,0.215,-0.075
5.936,0.250,-0.075
5.938,0.230,-0.085
5.940,0.220,-0.090
5.942,0.245,-0.100
5.944,0.240,-0.110
5.946,0.245,-0.115
5.948,0.165,-0.115
5.950,0.140,-0.115
5.952,0.185,-0.115
5.954,0.255,-0.110
5.956,0.275,-0.105
5.958,0.230,-0.105
5.960,0.200,-0.105
5.962,0.230,-0.110
5.964,0.220,-0.110
5.966,0.145,-0.110
5.968,0.140,-0.110
5.970,0.250,-0.105
5.972,0.280,-0.100
5.974,0.260,-0.095
5.976,0.235,-0.090
5.978,0.255,-0.085
5.980,0.225,-0.080
5.982,0.225,-0.080
5.984,0.260,-0.080
5.986,0.230,-0.085
5.988,0.215,-0.085
5.990,0.225,-0.090
5.992,0.205,-0.095
5.994,0.265,-0.095
5.996,0.235,-0.100
5.998,0.265,-0.100
6.000,0.210,-0.105
6.002,0.220,-0.100
6.004,0.220,-0.100
6.006,0.220,-0.100
6.008,0.230,-0.095
6.010,0.250,-0.090
6.012,0.275,-0.085
6.014,0.275,-0.080
6.016,0.260,-0.080
6.018,0.200,-0.080
6.020,0.210,-0.085
6.022,0.220,-0.095
6.024,0.205,-0.105
6.026,0.215,-0.110
6.028,0.255,-0.115
6.030,0.175,-0.120
6.032,0.235,-0.115
6.034,0.260,-0.110
6.036,0.235,-0.100
6.038,0.205,-0.095
6.040,0.230,-0.085
6.042,0.230,-0.085
6.044,0.235,-0.085
6.046,0.235,-0.085
6.048,0.235,-0.090
6.050,0.195,-0.095
6.052,0.230,-0.095
6.054,0.260,-0.100
6.056,0.260,-0.095
6.058,0.225,-0.095
6.060,0.205,-0.090
6.062,0.255,-0.090
6.064,0.200,-0.090
6.066,0.180,-0.095
6.068,0.230,-0.100
6.070,0.235,-0.105
6.072,0.205,-0.110
6.074,0.250,-0.115
6.076,0.255,-0.115
6.078,0.220,-0.115
6.080,0.220,-0.110
6.082,0.265,-0.110
6.084,0.195,-0.105
6.086,0.170,-0.105
6.088,0.190,-0.105
6.090,0.245,-0.110
6.092,0.230,-0.115
6.094,0.210,-0.120
6.096,0.225,-0.120
6.098,0.240,-0.120
6.100,0.250,-0.115
6.102,0.260,-0.110
6.104,0.225,-0.105
6.106,0.190,-0.100
6.108,0.225,-0.095
6.110,0.230,-0.095
6.112,0.205,-0.100
6.114,0.230,-0.105
6.116,0.265,-0.115
6.118,0.245,-0.120
6.120,0.215,-0.125
6.122,0.190,-0.125
6.124,0.210,-0.125
6.126,0.240,-0.120
6.128,0.195,-0.110
6.130,0.220,-0.105
6.132,0.200,-0.100
6.134,0.245,-0.095
6.136,0.250,-0.095
6.138,0.235,-0.100
6.140,0.245,-0.105
6.142,0.240,-0.115
6.144,0.165,-0.120
6.146,0.175,-0.125
6.148,0.205,-0.125
6.150,0.215,-0.125
6.152,0.230,-0.125
6.154,0.255,-0.120
6.156,0.240,-0.110
6.158,0.215,-0.105
6.160,0.230,-0.100
6.162,0.230,-0.100
6.164,0.220,-0.095
6.166,0.225,-0.095
6.168,0.210,-0.095
6.170,0.265,-0.100
6.172,0.270,-0.100
6.174,0.215,-0.105
6.176,0.190,-0.110
6.178,0.205,-0.115
6.180,0.195,-0.120
6.182,0.210,-0.125
6.184,0.225,-0.130
6.186,0.205,-0.135
6.188,0.215,-0.140
6.190,0.220,-0.145
6.192,0.230,-0.145
6.194,0.220,-0.150
6.196,0.210,-0.150
6.198,0.205,-0.145
6.200,0.165,-0.140
6.202,0.155,-0.135
6.204,0.180,-0.130
6.206,0.255,-0.125
6.208,0.255,-0.115
6.210,0.230,-0.110
6.212,0.175,-0.105
6.214,0.240,-0.105
6.216,0.225,-0.105
6.218,0.220,-0.105
6.220,0.220,-0.110
6.222,0.215,-0.110
6.224,0.225,-0.115
6.226,0.225,-0.115
6.228,0.205,-0.115
6.230,0.195,-0.115
6.232,0.220,-0.110
6.234,0.210,-0.110
6.236,0.200,-0.110
6.238,0.195,-0.110
6.240,0.240,-0.115
6.242,0.260,-0.120
6.244,0.205,-0.130
6.246,0.220,-0.135
6.248,0.225,-0.135
6.250,0.225,-0.135
6.252,0.215,-0.135
6.254,0.240,-0.130
6.256,0.230,-0.120
6.258,0.210,-0.115
6.260,0.185,-0.110
6.262,0.215,-0.105
6.264,0.200,-0.105
6.266,0.205,-0.110
6.268,0.235,-0.110
6.270,0.210,-0.115
6.272,0.250,-0.120
6.274,0.245,-0.120
6.276,0.230,-0.115
6.278,0.295,-0.110
6.280,0.225,-0.105
6.282,0.145,-0.100
6.284,0.215,-0.095
6.286,0.200,-0.090
6.288,0.220,-0.095
6.290,0.235,-0.095
6.292,0.235,-0.100
6.294,0.255,-0.110
6.296,0.270,-0.115
6.298,0.235,-0.120
6.300,0.185,-0.125
6.302,0.210,-0.130
6.304,0.165,-0.130
6.306,0.160,-0.130
6.308,0.220,-0.130
6.310,0.195,-0.125
6.312,0.210,-0.125
6.314,0.250,-0.120
6.316,0.220,-0.115
6.318,0.250,-0.110
6.320,0.230,-0.105
6.322,0.200,-0.100
6.324,0.225,-0.100
6.326,0.240,-0.100
6.328,0.210,-0.100
6.330,0.235,-0.105
6.332,0.245,-0.110
6.334,0.250,-0.110
6.336,0.240,-0.115
6.338,0.225,-0.115
6.340,0.220,-0.120
6.342,0.230,-0.120
6.344,0.215,-0.115
6.346,0.215,-0.115
6.348,0.225,-0.110
6.350,0.205,-0.110
6.352,0.240,-0.105
6.354,0.265,-0.100
6.356,0.290,-0.100
6.358,0.260,-0.095
6.360,0.235,-0.090
6.362,0.230,-0.085
6.364,0.225,-0.080
6.366,0.230,-0.075
6.368,0.230,-0.075
6.370,0.225,-0.075
6.372,0.315,-0.080
6.374,0.245,-0.080
6.376,0.265,-0.085
6.378,0.260,-0.085
6.380,0.265,-0.085
6.382,0.270,-0.085
6.384,0.270,-0.080
6.386,0.270,-0.080
6.388,0.270,-0.075
6.390,0.265,-0.070
6.392,0.250,-0.070
6.394,0.235,-0.075
6.396,0.245,-0.080
6.398,0.255,-0.085
6.400,0.280,-0.090
6.402,0.215,-0.095
6.404,0.215,-0.095
6.406,0.260,-0.095
6.408,0.285,-0.090
6.410,0.230,-0.085
6.412,0.235,-0.080
6.414,0.250,-0.075
6.416,0.310,-0.075
6.418,0.280,-0.080
6.420,0.235,-0.085
6.422,0.200,-0.095
6.424,0.195,-0.110
6.426,0.225,-0.120
6.428,0.185,-0.125
6.430,0.200,-0.130
6.432,0.220,-0.130
6.434,0.270,-0.130
6.436,0.225,-0.125
6.438,0.250,-0.120
6.440,0.230,-0.115
6.442,0.185,-0.110
6.444,0.185,-0.110
6.446,0.220,-0.115
6.448,0.185,-0.115
6.450,0.205,-0.120
6.452,0.225,-0.125
6.454,0.210,-0.130
6.456,0.220,-0.135
6.458,0.190,-0.140
6.460,0.200,-0.140
6.462,0.155,-0.140
6.464,0.200,-0.130
6.466,0.220,-0.125
6.468,0.205,-0.115
6.470,0.200,-0.105
6.472,0.255,-0.095
6.474,0.245,-0.095
6.476,0.225,-0.105
6.478,0.180,-0.125
6.480,0.135,-0.155
6.482,0.105,-0.190
6.484,0.120,-0.225
6.486,0.055,-0.255
6.488,0.025,-0.275
6.490,0.035,-0.275
6.492,0.030,-0.255
6.494,0.080,-0.210
6.496,0.185,-0.145
6.498,0.280,-0.060
6.500,0.420,0.035
6.502,0.460,0.145
6.504,0.625,0.260
6.506,0.720,0.390
6.508,0.885,0.530
6.510,1.005,0.685
6.512,1.185,0.845
6.514,1.335,1.015
6.516,1.515,1.180
6.518,1.710,1.325
6.520,1.860,1.435
6.522,1.895,1.495
6.524,1.900,1.490
6.526,1.805,1.420
6.528,1.685,1.280
6.530,1.460,1.090
6.532,1.200,0.855
6.534,0.835,0.610
6.536,0.545,0.375
6.538,0.355,0.170
6.540,0.280,0.005
6.542,0.195,-0.105
6.544,0.170,-0.165
6.546,0.175,-0.185
6.548,0.180,-0.175
6.550,0.205,-0.150
6.552,0.215,-0.120
6.554,0.205,-0.095
6.556,0.240,-0.080
6.558,0.220,-0.070
6.560,0.205,-0.075
6.562,0.220,-0.080
6.564,0.275,-0.085
6.566,0.265,-0.085
6.568,0.270,-0.085
6.570,0.265,-0.085
6.572,0.260,-0.080
6.574,0.225,-0.075
6.576,0.205,-0.075
6.578,0.235,-0.075
6.580,0.210,-0.080
6.582,0.235,-0.080
6.584,0.230,-0.085
6.586,0.225,-0.085
6.588,0.215,-0.080
6.590,0.280,-0.075
6.592,0.275,-0.065
6.594,0.270,-0.060
6.596,0.260,-0.055
6.598,0.290,-0.050
6.600,0.240,-0.050
6.602,0.255,-0.050
6.604,0.250,-0.055
6.606,0.235,-0.060
6.608,0.265,-0.060
6.610,0.265,-0.065
6.612,0.280,-0.065
6.614,0.270,-0.060
6.616,0.235,-0.055
6.618,0.220,-0.050
6.620,0.260,-0.045
6.622,0.260,-0.040
6.624,0.285,-0.035
6.626,0.290,-0.030
6.628,0.280,-0.030
6.630,0.315,-0.030
6.632,0.275,-0.025
6.634,0.315,-0.025
6.636,0.315,-0.030
6.638,0.325,-0.030
6.640,0.295,-0.030
6.642,0.220,-0.025
6.644,0.250,-0.025
6.646,0.310,-0.020
6.648,0.345,-0.015
6.650,0.320,-0.005
6.652,0.345,0.000
6.654,0.325,0.005
6.656,0.310,0.015
6.658,0.315,0.020
6.660,0.320,0.025
6.662,0.365,0.030
6.664,0.365,0.035
6.666,0.340,0.040
6.668,0.330,0.045
6.670,0.365,0.050
6.672,0.365,0.055
6.674,0.370,0.060
6.676,0.405,0.065
6.678,0.370,0.075
6.680,0.360,0.080
6.682,0.415,0.085
6.684,0.435,0.095
6.686,0.435,0.100
6.688,0.450,0.105
6.690,0.450,0.110
6.692,0.445,0.120
6.694,0.435,0.125
6.696,0.435,0.135
6.698,0.470,0.150
6.700,0.445,0.160
6.702,0.480,0.175
6.704,0.465,0.190
6.706,0.520,0.205
6.708,0.520,0.215
6.710,0.565,0.225
6.712,0.565,0.235
6.714,0.565,0.240
6.716,0.575,0.250
6.718,0.570,0.255
6.720,0.575,0.265
6.722,0.615,0.275
6.724,0.625,0.290
6.726,0.610,0.305
6.728,0.620,0.315
6.730,0.620,0.330
6.732,0.675,0.340
6.734,0.685,0.350
6.736,0.665,0.355
6.738,0.670,0.360
6.740,0.685,0.370
6.742,0.715,0.375
6.744,0.715,0.380
6.746,0.695,0.390
6.748,0.695,0.400
6.750,0.710,0.410
6.752,0.745,0.420
6.754,0.730,0.420
6.756,0.710,0.420
6.758,0.705,0.415
6.760,0.690,0.400
6.762,0.705,0.390
6.764,0.715,0.375
6.766,0.650,0.360
6.768,0.670,0.345
6.770,0.630,0.335
6.772,0.620,0.325
6.774,0.625,0.315
6.776,0.615,0.305
6.778,0.570,0.290
6.780,0.535,0.275
6.782,0.525,0.250
6.784,0.495,0.230
6.786,0.450,0.205
6.788,0.465,0.180
6.790,0.435,0.155
6.792,0.435,0.135
6.794,0.430,0.120
6.796,0.390,0.110
6.798,0.375,0.095
6.800,0.335,0.085
6.802,0.335,0.075
6.804,0.335,0.060
6.806,0.300,0.045
6.808,0.315,0.025
6.810,0.335,0.010
6.812,0.295,-0.005
6.814,0.295,-0.020
6.816,0.255,-0.030
6.818,0.240,-0.040
6.820,0.240,-0.040
6.822,0.240,-0.040
6.824,0.280,-0.035
6.826,0.255,-0.035
6.828,0.245,-0.030
6.830,0.260,-0.030
6.832,0.265,-0.030
6.834,0.270,-0.030
6.836,0.270,-0.035
6.838,0.245,-0.040
6.840,0.220,-0.045
6.842,0.215,-0.050
6.844,0.230,-0.055
6.846,0.240,-0.060
6.848,0.230,-0.060
6.850,0.265,-0.060
6.852,0.240,-0.060
6.854,0.210,-0.060
6.856,0.210,-0.060
6.858,0.235,-0.060
6.860,0.235,-0.060
6.862,0.220,-0.060
6.864,0.205,-0.060
6.866,0.210,-0.065
6.868,0.235,-0.065
6.870,0.265,-0.070
6.872,0.255,-0.075
6.874,0.210,-0.075
6.876,0.205,-0.075
6.878,0.185,-0.075
6.880,0.185,-0.080
6.882,0.185,-0.080
6.884,0.195,-0.080
6.886,0.225,-0.080
6.888,0.235,-0.080
6.890,0.235,-0.080
6.892,0.230,-0.080
6.894,0.220,-0.080
6.896,0.210,-0.075
6.898,0.225,-0.070
6.900,0.205,-0.070
6.902,0.235,-0.065
6.904,0.245,-0.060
6.906,0.215,-0.055
6.908,0.210,-0.055
6.910,0.205,-0.055
6.912,0.200,-0.055
6.914,0.225,-0.060
6.916,0.215,-0.065
6.918,0.210,-0.065
6.920,0.200,-0.070
6.922,0.215,-0.070
6.924,0.200,-0.070
6.926,0.215,-0.070
6.928,0.255,-0.070
6.930,0.240,-0.065
6.932,0.230,-0.065
6.934,0.205,-0.065
6.936,0.195,-0.065
6.938,0.180,-0.065
6.940,0.220,-0.065
6.942,0.205,-0.070
6.944,0.220,-0.070
6.946,0.235,-0.070
6.948,0.240,-0.070
6.950,0.250,-0.070
6.952,0.205,-0.070
6.954,0.155,-0.070
6.956,0.195,-0.065
6.958,0.215,-0.065
6.960,0.195,-0.065
6.962,0.210,-0.065
6.964,0.210,-0.060
6.966,0.225,-0.060
6.968,0.245,-0.055
6.970,0.240,-0.055
6.972,0.225,-0.055
6.974,0.240,-0.055
6.976,0.205,-0.055
6.978,0.195,-0.055
6.980,0.225,-0.060
6.982,0.205,-0.060
6.984,0.220,-0.060
6.986,0.205,-0.055
6.988,0.210,-0.055
6.990,0.245,-0.050
6.992,0.245,-0.045
6.994,0.235,-0.045
6.996,0.225,-0.045
6.998,0.245,-0.045
7.000,0.215,-0.045
7.002,0.210,-0.050
7.004,0.220,-0.050
7.006,0.245,-0.050
7.008,0.240,-0.045
7.010,0.245,-0.045
7.012,0.230,-0.040
7.014,0.210,-0.040
7.016,0.190,-0.040
7.018,0.220,-0.045
7.020,0.200,-0.055
7.022,0.225,-0.065
7.024,0.190,-0.075
7.026,0.215,-0.080
7.028,0.235,-0.085
7.030,0.195,-0.080
7.032,0.195,-0.075
7.034,0.230,-0.065
7.036,0.235,-0.055
7.038,0.205,-0.050
7.040,0.175,-0.045
7.042,0.210,-0.040
7.044,0.230,-0.045
7.046,0.185,-0.050
7.048,0.240,-0.055
7.050,0.235,-0.060
7.052,0.215,-0.060
7.054,0.185,-0.060
7.056,0.200,-0.060
7.058,0.180,-0.055
7.060,0.210,-0.050
7.062,0.250,-0.045
7.064,0.245,-0.040
7.066,0.210,-0.040
7.068,0.250,-0.040
7.070,0.240,-0.040
7.072,0.200,-0.040
7.074,0.210,-0.035
7.076,0.200,-0.035
7.078,0.230,-0.035
7.080,0.230,-0.035
7.082,0.225,-0.040
7.084,0.205,-0.045
7.086,0.200,-0.050
7.088,0.210,-0.050
7.090,0.210,-0.055
7.092,0.215,-0.060
7.094,0.235,-0.060
7.096,0.200,-0.060
7.098,0.230,-0.060
7.100,0.205,-0.060
7.102,0.165,-0.060
7.104,0.190,-0.060
7.106,0.210,-0.065
7.108,0.185,-0.070
7.110,0.185,-0.070
7.112,0.180,-0.075
7.114,0.180,-0.075
7.116,0.215,-0.075
7.118,0.165,-0.075
7.120,0.220,-0.075
7.122,0.225,-0.070
7.124,0.185,-0.065
7.126,0.210,-0.065
7.128,0.230,-0.065
7.130,0.190,-0.060
7.132,0.150,-0.060
7.134,0.180,-0.060
7.136,0.210,-0.060
7.138,0.205,-0.060
7.140,0.210,-0.060
7.142,0.190,-0.060
7.144,0.160,-0.055
7.146,0.200,-0.055
7.148,0.215,-0.060
7.150,0.225,-0.060
7.152,0.190,-0.060
7.154,0.200,-0.060
7.156,0.170,-0.065
7.158,0.210,-0.065
7.160,0.195,-0.065
7.162,0.200,-0.065
7.164,0.185,-0.070
7.166,0.185,-0.070
7.168,0.200,-0.070
7.170,0.190,-0.075
7.172,0.170,-0.075
7.174,0.190,-0.075
7.176,0.190,-0.080
7.178,0.195,-0.075
7.180,0.195,-0.075
7.182,0.210,-0.070
7.184,0.170,-0.065
7.186,0.195,-0.060
7.188,0.215,-0.060
7.190,0.185,-0.065
7.192,0.190,-0.070
7.194,0.180,-0.075
7.196,0.170,-0.080
7.198,0.170,-0.085
7.200,0.155,-0.085
7.202,0.160,-0.085
7.204,0.185,-0.080
7.206,0.225,-0.075
7.208,0.210,-0.070
7.210,0.175,-0.060
7.212,0.195,-0.055
7.214,0.210,-0.055
7.216,0.190,-0.055
7.218,0.175,-0.060
7.220,0.185,-0.065
7.222,0.175,-0.070
7.224,0.155,-0.070
7.226,0.190,-0.065
7.228,0.195,-0.060
7.230,0.160,-0.055
7.232,0.245,-0.050
7.234,0.230,-0.045
7.236,0.230,-0.045
7.238,0.235,-0.045
7.240,0.180,-0.050
7.242,0.160,-0.055
7.244,0.175,-0.060
7.246,0.230,-0.065
7.248,0.205,-0.070
7.250,0.145,-0.070
7.252,0.195,-0.075
7.254,0.185,-0.075
7.256,0.145,-0.075
7.258,0.155,-0.075
7.260,0.175,-0.080
7.262,0.195,-0.080
7.264,0.175,-0.080
7.266,0.195,-0.075
7.268,0.165,-0.075
7.270,0.185,-0.070
7.272,0.175,-0.065
7.274,0.165,-0.060
7.276,0.195,-0.055
7.278,0.190,-0.055
7.280,0.180,-0.055
7.282,0.205,-0.055
7.284,0.200,-0.060
7.286,0.170,-0.060
7.288,0.210,-0.060
7.290,0.215,-0.060
7.292,0.205,-0.055
7.294,0.205,-0.055
7.296,0.190,-0.050
7.298,0.170,-0.050
7.300,0.175,-0.045
7.302,0.205,-0.050
7.304,0.225,-0.050
7.306,0.235,-0.050
7.308,0.270,-0.050
7.310,0.200,-0.045
7.312,0.155,-0.045
7.314,0.210,-0.040
7.316,0.230,-0.035
7.318,0.195,-0.030
7.320,0.185,-0.025
7.322,0.250,-0.025
7.324,0.210,-0.025
7.326,0.215,-0.030
7.328,0.245,-0.035
7.330,0.220,-0.035
7.332,0.225,-0.040
7.334,0.205,-0.040
7.336,0.200,-0.045
7.338,0.235,-0.045
7.340,0.185,-0.045
7.342,0.195,-0.045
7.344,0.180,-0.045
7.346,0.240,-0.045
7.348,0.220,-0.045
7.350,0.205,-0.040
7.352,0.195,-0.040
7.354,0.220,-0.035
7.356,0.215,-0.035
7.358,0.215,-0.035
7.360,0.220,-0.035
7.362,0.195,-0.035
7.364,0.210,-0.040
7.366,0.210,-0.045
7.368,0.200,-0.055
7.370,0.195,-0.060
7.372,0.205,-0.065
7.374,0.195,-0.070
7.376,0.155,-0.070
7.378,0.165,-0.075
7.380,0.155,-0.075
7.382,0.140,-0.080
7.384,0.165,-0.085
7.386,0.175,-0.090
7.388,0.180,-0.100
7.390,0.175,-0.105
7.392,0.130,-0.105
7.394,0.125,-0.105
7.396,0.115,-0.105
7.398,0.125,-0.100
7.400,0.170,-0.095
7.402,0.170,-0.090
7.404,0.170,-0.090
7.406,0.185,-0.090
7.408,0.165,-0.090
7.410,0.165,-0.090
7.412,0.175,-0.085
7.414,0.175,-0.080
7.416,0.140,-0.070
7.418,0.195,-0.065
7.420,0.190,-0.060
7.422,0.160,-0.060
7.424,0.150,-0.075
7.426,0.145,-0.105
7.428,0.100,-0.145
7.430,0.065,-0.185
7.432,-0.005,-0.230
7.434,-0.045,-0.260
7.436,-0.065,-0.265
7.438,-0.020,-0.250
7.440,0.035,-0.205
7.442,0.125,-0.130
7.444,0.255,-0.030
7.446,0.410,0.080
7.448,0.475,0.205
7.450,0.560,0.330
7.452,0.710,0.460
7.454,0.865,0.590
7.456,0.975,0.730
7.458,1.150,0.875
7.460,1.310,1.030
7.462,1.460,1.180
7.464,1.620,1.325
7.466,1.790,1.445
7.468,1.825,1.525
7.470,1.860,1.545
7.472,1.830,1.495
7.474,1.705,1.380
7.476,1.485,1.205
7.478,1.290,0.985
7.480,0.925,0.745
7.482,0.625,0.510
7.484,0.425,0.295
7.486,0.295,0.130
7.488,0.275,0.010
7.490,0.225,-0.060
7.492,0.140,-0.090
7.494,0.140,-0.090
7.496,0.205,-0.075
7.498,0.185,-0.060
7.500,0.180,-0.050
7.502,0.165,-0.045
7.504,0.165,-0.050
7.506,0.190,-0.055
7.508,0.190,-0.065
7.510,0.230,-0.065
7.512,0.265,-0.065
7.514,0.230,-0.060
7.516,0.185,-0.050
7.518,0.165,-0.045
7.520,0.185,-0.045
7.522,0.200,-0.045
7.524,0.230,-0.050
7.526,0.195,-0.055
7.528,0.195,-0.060
7.530,0.240,-0.065
7.532,0.210,-0.065
7.534,0.200,-0.060
7.536,0.205,-0.055
7.538,0.200,-0.050
7.540,0.210,-0.045
7.542,0.190,-0.045
7.544,0.195,-0.045
7.546,0.225,-0.050
7.548,0.220,-0.050
7.550,0.220,-0.055
7.552,0.200,-0.055
7.554,0.190,-0.055
7.556,0.205,-0.055
7.558,0.215,-0.050
7.560,0.200,-0.045
7.562,0.235,-0.045
7.564,0.255,-0.045
7.566,0.240,-0.045
7.568,0.235,-0.045
7.570,0.220,-0.050
7.572,0.220,-0.050
7.574,0.210,-0.050
7.576,0.210,-0.050
7.578,0.220,-0.045
7.580,0.205,-0.040
7.582,0.205,-0.035
7.584,0.255,-0.025
7.586,0.265,-0.020
7.588,0.260,-0.015
7.590,0.235,-0.015
7.592,0.250,-0.015
7.594,0.275,-0.010
7.596,0.265,-0.010
7.598,0.265,-0.005
7.600,0.250,0.000
7.602,0.235,0.010
7.604,0.290,0.020
7.606,0.305,0.030
7.608,0.315,0.040
7.610,0.310,0.045
7.612,0.365,0.050
7.614,0.295,0.050
7.616,0.275,0.050
7.618,0.315,0.045
7.620,0.340,0.040
7.622,0.305,0.040
7.624,0.295,0.035
7.626,0.295,0.040
7.628,0.335,0.045
7.630,0.355,0.055
7.632,0.345,0.065
7.634,0.380,0.080
7.636,0.375,0.100
7.638,0.405,0.110
7.640,0.410,0.125
7.642,0.390,0.135
7.644,0.415,0.140
7.646,0.435,0.145
7.648,0.430,0.150
7.650,0.450,0.155
7.652,0.450,0.160
7.654,0.405,0.165
7.656,0.460,0.175
7.658,0.485,0.190
7.660,0.515,0.205
7.662,0.490,0.220
7.664,0.525,0.235
7.666,0.510,0.255
7.668,0.495,0.270
7.670,0.565,0.285
7.672,0.585,0.295
7.674,0.585,0.305
7.676,0.595,0.310
7.678,0.570,0.315
7.680,0.585,0.320
7.682,0.635,0.325
7.684,0.620,0.330
7.686,0.630,0.330
7.688,0.630,0.335
7.690,0.645,0.345
7.692,0.660,0.350
7.694,0.645,0.360
7.696,0.635,0.365
7.698,0.665,0.375
7.700,0.685,0.375
7.702,0.650,0.375
7.704,0.655,0.370
7.706,0.645,0.365
7.708,0.625,0.350
7.710,0.600,0.340
7.712,0.605,0.325
7.714,0.570,0.310
7.716,0.535,0.295
7.718,0.600,0.280
7.720,0.565,0.265
7.722,0.525,0.255
7.724,0.510,0.235
7.726,0.485,0.220
7.728,0.480,0.200
7.730,0.460,0.175
7.732,0.410,0.150
7.734,0.390,0.125
7.736,0.355,0.100
7.738,0.340,0.080
7.740,0.335,0.060
7.742,0.345,0.040
7.744,0.315,0.025
7.746,0.300,0.015
7.748,0.285,0.000
7.750,0.250,-0.005
7.752,0.260,-0.015
7.754,0.245,-0.025
7.756,0.240,-0.035
7.758,0.230,-0.045
7.760,0.225,-0.055
7.762,0.205,-0.065
7.764,0.240,-0.075
7.766,0.205,-0.085
7.768,0.175,-0.090
7.770,0.215,-0.100
7.772,0.230,-0.105
7.774,0.185,-0.110
7.776,0.185,-0.110
7.778,0.195,-0.110
7.780,0.180,-0.110
7.782,0.180,-0.105
7.784,0.230,-0.105
7.786,0.195,-0.105
7.788,0.205,-0.105
7.790,0.165,-0.110
7.792,0.145,-0.120
7.794,0.165,-0.125
7.796,0.190,-0.130
7.798,0.170,-0.135
7.800,0.185,-0.140
7.802,0.190,-0.135
7.804,0.200,-0.135
7.806,0.180,-0.130
7.808,0.190,-0.120
7.810,0.165,-0.115
7.812,0.165,-0.110
7.814,0.165,-0.110
7.816,0.165,-0.110
7.818,0.165,-0.115
7.820,0.170,-0.120
7.822,0.185,-0.125
7.824,0.165,-0.130
7.826,0.170,-0.135
7.828,0.215,-0.135
7.830,0.195,-0.135
7.832,0.155,-0.130
7.834,0.160,-0.125
7.836,0.145,-0.115
7.838,0.115,-0.110
7.840,0.215,-0.105
7.842,0.235,-0.100
7.844,0.230,-0.100
7.846,0.215,-0.105
7.848,0.200,-0.110
7.850,0.200,-0.120
7.852,0.135,-0.125
7.854,0.140,-0.130
7.856,0.225,-0.135
7.858,0.180,-0.140
7.860,0.160,-0.140
7.862,0.190,-0.140
7.864,0.170,-0.140
7.866,0.180,-0.135
7.868,0.190,-0.135
7.870,0.190,-0.135
7.872,0.160,-0.135
7.874,0.160,-0.140
7.876,0.155,-0.140
7.878,0.180,-0.145
7.880,0.170,-0.145
7.882,0.190,-0.145
7.884,0.180,-0.145
7.886,0.195,-0.145
7.888,0.180,-0.145
7.890,0.180,-0.145
7.892,0.140,-0.145
7.894,0.175,-0.145
7.896,0.185,-0.145
7.898,0.175,-0.140
7.900,0.195,-0.140
7.902,0.225,-0.140
7.904,0.210,-0.140
7.906,0.200,-0.135
7.908,0.220,-0.135
7.910,0.180,-0.130
7.912,0.125,-0.130
7.914,0.170,-0.125
7.916,0.180,-0.125
7.918,0.190,-0.130
7.920,0.200,-0.130
7.922,0.210,-0.130
7.924,0.215,-0.135
7.926,0.180,-0.135
7.928,0.170,-0.140
7.930,0.180,-0.140
7.932,0.175,-0.140
7.934,0.185,-0.140
7.936,0.195,-0.135
7.938,0.205,-0.135
7.940,0.200,-0.135
7.942,0.195,-0.135
7.944,0.210,-0.140
7.946,0.185,-0.145
7.948,0.180,-0.150
7.950,0.200,-0.155
7.952,0.165,-0.160
7.954,0.170,-0.165
7.956,0.185,-0.170
7.958,0.170,-0.170
7.960,0.205,-0.165
7.962,0.205,-0.160
7.964,0.150,-0.155
7.966,0.175,-0.155
7.968,0.210,-0.150
7.970,0.220,-0.145
7.972,0.200,-0.140
7.974,0.205,-0.140
7.976,0.235,-0.140
7.978,0.205,-0.140
7.980,0.220,-0.140
7.982,0.215,-0.140
7.984,0.195,-0.140
7.986,0.195,-0.140
7.988,0.195,-0.140
7.990,0.200,-0.140
7.992,0.190,-0.140
7.994,0.190,-0.140
7.996,0.240,-0.140
7.998,0.185,-0.135
8.000,0.220,-0.135
8.002,0.255,-0.130
8.004,0.225,-0.130
8.006,0.220,-0.125
8.008,0.200,-0.125
8.010,0.180,-0.125
8.012,0.155,-0.130
8.014,0.230,-0.135
8.016,0.205,-0.135
8.018,0.200,-0.140
8.020,0.255,-0.145
8.022,0.220,-0.150
8.024,0.195,-0.150
8.026,0.220,-0.150
8.028,0.215,-0.150
8.030,0.225,-0.150
8.032,0.190,-0.150
8.034,0.195,-0.150
8.036,0.225,-0.145
8.038,0.210,-0.145
8.040,0.210,-0.145
8.042,0.200,-0.145
8.044,0.230,-0.145
8.046,0.185,-0.145
8.048,0.185,-0.150
8.050,0.230,-0.150
8.052,0.170,-0.155
8.054,0.215,-0.160
8.056,0.250,-0.160
8.058,0.245,-0.160
8.060,0.240,-0.160
8.062,0.230,-0.155
8.064,0.215,-0.150
8.066,0.220,-0.145
8.068,0.210,-0.140
8.070,0.235,-0.135
8.072,0.220,-0.135
8.074,0.200,-0.140
8.076,0.205,-0.140
8.078,0.220,-0.145
8.080,0.235,-0.150
8.082,0.210,-0.155
8.084,0.225,-0.155
8.086,0.240,-0.155
8.088,0.240,-0.155
8.090,0.230,-0.150
8.092,0.200,-0.150
8.094,0.255,-0.145
8.096,0.270,-0.145
8.098,0.185,-0.145
8.100,0.230,-0.145
8.102,0.245,-0.145
8.104,0.235,-0.145
8.106,0.230,-0.150
8.108,0.255,-0.145
8.110,0.225,-0.145
8.112,0.205,-0.145
8.114,0.225,-0.140
8.116,0.250,-0.140
8.118,0.230,-0.140
8.120,0.225,-0.140
8.122,0.280,-0.140
8.124,0.260,-0.140
8.126,0.260,-0.140
8.128,0.270,-0.140
8.130,0.245,-0.140
8.132,0.240,-0.145
8.134,0.205,-0.145
8.136,0.245,-0.145
8.138,0.225,-0.150
8.140,0.200,-0.150
8.142,0.265,-0.155
8.144,0.275,-0.155
8.146,0.235,-0.155
8.148,0.265,-0.155
8.150,0.265,-0.150
8.152,0.235,-0.145
8.154,0.260,-0.140
8.156,0.270,-0.135
8.158,0.260,-0.135
8.160,0.235,-0.130
8.162,0.240,-0.135
8.164,0.250,-0.135
8.166,0.265,-0.140
8.168,0.275,-0.150
8.170,0.250,-0.155
8.172,0.245,-0.155
8.174,0.255,-0.155
8.176,0.275,-0.155
8.178,0.285,-0.150
8.180,0.295,-0.140
8.182,0.290,-0.135
8.184,0.270,-0.130
8.186,0.240,-0.125
8.188,0.290,-0.120
8.190,0.305,-0.125
8.192,0.245,-0.125
8.194,0.290,-0.130
8.196,0.275,-0.135
8.198,0.255,-0.135
8.200,0.300,-0.140
8.202,0.310,-0.140
8.204,0.255,-0.145
8.206,0.270,-0.145
8.208,0.295,-0.145
8.210,0.245,-0.145
8.212,0.265,-0.140
8.214,0.310,-0.135
8.216,0.265,-0.130
8.218,0.265,-0.125
8.220,0.320,-0.120
8.222,0.295,-0.120
8.224,0.305,-0.120
8.226,0.280,-0.120
8.228,0.275,-0.130
8.230,0.290,-0.140
8.232,0.280,-0.150
8.234,0.235,-0.160
8.236,0.245,-0.165
8.238,0.265,-0.165
8.240,0.305,-0.160
8.242,0.255,-0.155
8.244,0.310,-0.140
8.246,0.345,-0.125
8.248,0.350,-0.110
8.250,0.320,-0.100
8.252,0.290,-0.095
8.254,0.275,-0.095
8.256,0.300,-0.100
8.258,0.315,-0.105
8.260,0.315,-0.110
8.262,0.310,-0.120
8.264,0.315,-0.125
8.266,0.290,-0.130
8.268,0.315,-0.135
8.270,0.280,-0.135
8.272,0.290,-0.140
8.274,0.320,-0.140
8.276,0.295,-0.140
8.278,0.315,-0.140
8.280,0.330,-0.140
8.282,0.330,-0.135
8.284,0.330,-0.130
8.286,0.315,-0.125
8.288,0.325,-0.120
8.290,0.320,-0.115
8.292,0.315,-0.105
8.294,0.370,-0.105
8.296,0.320,-0.105
8.298,0.315,-0.105
8.300,0.335,-0.105
8.302,0.330,-0.110
8.304,0.330,-0.115
8.306,0.335,-0.115
8.308,0.365,-0.120
8.310,0.330,-0.115
8.312,0.350,-0.110
8.314,0.370,-0.105
8.316,0.345,-0.095
8.318,0.370,-0.090
8.320,0.365,-0.080
8.322,0.365,-0.080
8.324,0.365,-0.075
8.326,0.375,-0.075
8.328,0.375,-0.080
8.330,0.365,-0.080
8.332,0.395,-0.085
8.334,0.415,-0.085
8.336,0.350,-0.090
8.338,0.375,-0.085
8.340,0.410,-0.085
8.342,0.360,-0.080
8.344,0.405,-0.075
8.346,0.385,-0.075
8.348,0.385,-0.075
8.350,0.370,-0.075
8.352,0.400,-0.075
8.354,0.375,-0.080
8.356,0.370,-0.085
8.358,0.355,-0.085
8.360,0.385,-0.085
8.362,0.415,-0.080
8.364,0.410,-0.080
8.366,0.365,-0.075
8.368,0.400,-0.075
8.370,0.390,-0.075
8.372,0.405,-0.075
8.374,0.385,-0.075
8.376,0.395,-0.075
8.378,0.420,-0.075
8.380,0.435,-0.075
8.382,0.425,-0.070
8.384,0.405,-0.070
8.386,0.405,-0.065
8.388,0.385,-0.070
8.390,0.365,-0.075
8.392,0.380,-0.080
8.394,0.390,-0.095
8.396,0.355,-0.105
8.398,0.380,-0.120
8.400,0.370,-0.130
8.402,0.360,-0.140
8.404,0.350,-0.145
8.406,0.340,-0.145
8.408,0.350,-0.145
8.410,0.330,-0.140
8.412,0.350,-0.140
8.414,0.350,-0.135
8.416,0.375,-0.130
8.418,0.340,-0.130
8.420,0.375,-0.130
8.422,0.385,-0.130
8.424,0.380,-0.125
8.426,0.385,-0.125
8.428,0.370,-0.125
8.430,0.315,-0.120
8.432,0.355,-0.115
8.434,0.420,-0.115
8.436,0.385,-0.110
8.438,0.400,-0.110
8.440,0.380,-0.110
8.442,0.355,-0.120
8.444,0.355,-0.140
8.446,0.340,-0.165
8.448,0.305,-0.195
8.450,0.235,-0.225
8.452,0.220,-0.260
8.454,0.185,-0.280
8.456,0.175,-0.285
8.458,0.240,-0.270
8.460,0.250,-0.230
8.462,0.330,-0.165
8.464,0.465,-0.080
8.466,0.550,0.025
8.468,0.675,0.145
8.470,0.770,0.270
8.472,0.925,0.405
8.474,1.085,0.545
8.476,1.230,0.690
8.478,1.380,0.840
8.480,1.530,1.000
8.482,1.685,1.160
8.484,1.855,1.315
8.486,2.025,1.450
8.488,2.100,1.545
8.490,2.210,1.585
8.492,2.160,1.560
8.494,2.070,1.465
8.496,1.845,1.300
8.498,1.640,1.085
8.500,1.335,0.840
8.502,0.995,0.595
8.504,0.750,0.365
8.506,0.620,0.175
8.508,0.520,0.035
8.510,0.510,-0.050
8.512,0.470,-0.090
8.514,0.435,-0.090
8.516,0.440,-0.075
8.518,0.455,-0.055
8.520,0.475,-0.040
8.522,0.440,-0.035
8.524,0.455,-0.040
8.526,0.490,-0.050
8.528,0.485,-0.060
8.530,0.515,-0.070
8.532,0.490,-0.065
8.534,0.465,-0.060
8.536,0.475,-0.050
8.538,0.500,-0.040
8.540,0.500,-0.030
8.542,0.480,-0.030
8.544,0.505,-0.035
8.546,0.510,-0.040
8.548,0.500,-0.045
8.550,0.505,-0.055
8.552,0.465,-0.055
8.554,0.490,-0.055
8.556,0.485,-0.050
8.558,0.520,-0.045
8.560,0.510,-0.040
8.562,0.490,-0.040
8.564,0.500,-0.040
8.566,0.530,-0.045
8.568,0.505,-0.045
8.570,0.515,-0.045
8.572,0.500,-0.040
8.574,0.525,-0.035
8.576,0.535,-0.025
8.578,0.580,-0.015
8.580,0.575,-0.005
8.582,0.535,0.005
8.584,0.520,0.005
8.586,0.555,0.005
8.588,0.545,0.005
8.590,0.550,0.000
8.592,0.535,0.000
8.594,0.525,0.000
8.596,0.550,0.005
8.598,0.625,0.010
8.600,0.630,0.020
8.602,0.595,0.025
8.604,0.600,0.030
8.606,0.580,0.030
8.608,0.575,0.030
8.610,0.600,0.030
8.612,0.590,0.025
8.614,0.615,0.030
8.616,0.590,0.030
8.618,0.625,0.040
8.620,0.625,0.050
8.622,0.605,0.060
8.624,0.655,0.070
8.626,0.665,0.080
8.628,0.660,0.085
8.630,0.680,0.090
8.632,0.670,0.095
8.634,0.640,0.095
8.636,0.665,0.090
8.638,0.720,0.090
8.640,0.675,0.090
8.642,0.645,0.095
8.644,0.675,0.100
8.646,0.695,0.105
8.648,0.700,0.115
8.650,0.735,0.125
8.652,0.700,0.140
8.654,0.750,0.150
8.656,0.775,0.160
8.658,0.790,0.170
8.660,0.775,0.180
8.662,0.790,0.190
8.664,0.795,0.200
8.666,0.790,0.205
8.668,0.790,0.215
8.670,0.790,0.225
8.672,0.840,0.235
8.674,0.870,0.245
8.676,0.855,0.255
8.678,0.880,0.265
8.680,0.900,0.280
8.682,0.880,0.290
8.684,0.915,0.305
8.686,0.915,0.320
8.688,0.950,0.330
8.690,0.980,0.340
8.692,0.940,0.350
8.694,0.975,0.360
8.696,0.990,0.365
8.698,1.000,0.375
8.700,1.010,0.385
8.702,1.010,0.395
8.704,1.055,0.400
8.706,1.025,0.410
8.708,1.025,0.420
8.710,1.035,0.430
8.712,1.060,0.440
8.714,1.075,0.445
8.716,1.080,0.450
8.718,1.085,0.455
8.720,1.065,0.455
8.722,1.070,0.455
8.724,1.070,0.450
8.726,1.060,0.445
8.728,1.035,0.440
8.730,1.090,0.435
8.732,1.025,0.425
8.734,0.990,0.415
8.736,1.005,0.405
8.738,1.020,0.395
8.740,1.000,0.380
8.742,0.995,0.365
8.744,0.980,0.345
8.746,0.915,0.325
8.748,0.925,0.305
8.750,0.885,0.280
8.752,0.855,0.260
8.754,0.830,0.240
8.756,0.860,0.220
8.758,0.865,0.200
8.760,0.840,0.185
8.762,0.800,0.170
8.764,0.730,0.155
8.766,0.710,0.140
8.768,0.695,0.125
8.770,0.705,0.105
8.772,0.730,0.090
8.774,0.700,0.070
8.776,0.705,0.060
8.778,0.685,0.050
8.780,0.695,0.045
8.782,0.680,0.040
8.784,0.680,0.040
8.786,0.670,0.040
8.788,0.650,0.040
8.790,0.670,0.035
8.792,0.700,0.030
8.794,0.660,0.020
8.796,0.675,0.010
8.798,0.660,0.000
8.800,0.660,-0.005
8.802,0.615,-0.010
8.804,0.650,-0.010
8.806,0.645,-0.010
8.808,0.660,-0.005
8.810,0.635,-0.005
8.812,0.660,0.000
8.814,0.655,0.000
8.816,0.640,-0.005
8.818,0.630,-0.010
8.820,0.625,-0.015
8.822,0.605,-0.020
8.824,0.625,-0.025
8.826,0.680,-0.025
8.828,0.665,-0.025
8.830,0.635,-0.025
8.832,0.615,-0.020
8.834,0.640,-0.015
8.836,0.655,-0.010
8.838,0.670,-0.010
8.840,0.655,-0.005
8.842,0.640,-0.005
8.844,0.630,-0.005
8.846,0.675,-0.005
8.848,0.685,-0.005
8.850,0.670,-0.005
8.852,0.680,-0.005
8.854,0.660,0.000
8.856,0.680,0.000
8.858,0.660,0.000
8.860,0.675,0.005
8.862,0.690,0.000
8.864,0.690,0.000
8.866,0.665,-0.005
8.868,0.610,-0.010
8.870,0.665,-0.015
8.872,0.625,-0.020
8.874,0.665,-0.025
8.876,0.690,-0.025
8.878,0.710,-0.020
8.880,0.685,-0.015
8.882,0.665,-0.010
8.884,0.670,-0.010
8.886,0.660,-0.005
8.888,0.680,-0.010
8.890,0.665,-0.010
8.892,0.675,-0.015
8.894,0.680,-0.020
8.896,0.690,-0.020
8.898,0.655,-0.020
8.900,0.670,-0.015
8.902,0.725,-0.010
8.904,0.680,0.000
8.906,0.660,0.005
8.908,0.700,0.010
8.910,0.700,0.015
8.912,0.710,0.015
8.914,0.725,0.005
8.916,0.665,-0.005
8.918,0.670,-0.015
8.920,0.675,-0.025
8.922,0.680,-0.030
8.924,0.690,-0.035
8.926,0.730,-0.035
8.928,0.695,-0.035
8.930,0.675,-0.030
8.932,0.665,-0.025
8.934,0.660,-0.020
8.936,0.705,-0.015
8.938,0.720,-0.015
8.940,0.710,-0.010
8.942,0.725,-0.010
8.944,0.700,-0.005
8.946,0.705,0.000
8.948,0.685,0.000
8.950,0.710,0.005
8.952,0.730,0.005
8.954,0.710,0.005
8.956,0.700,0.000
8.958,0.730,-0.005
8.960,0.710,-0.010
8.962,0.715,-0.020
8.964,0.720,-0.025
8.966,0.680,-0.025
8.968,0.680,-0.030
8.970,0.695,-0.030
8.972,0.715,-0.025
8.974,0.715,-0.025
8.976,0.715,-0.020
8.978,0.715,-0.020
8.980,0.705,-0.020
8.982,0.705,-0.020
8.984,0.730,-0.020
8.986,0.675,-0.025
8.988,0.690,-0.025
8.990,0.735,-0.020
8.992,0.720,-0.020
8.994,0.725,-0.020
8.996,0.735,-0.020
8.998,0.710,-0.020
9.000,0.695,-0.020
9.002,0.700,-0.025
9.004,0.660,-0.030
9.006,0.690,-0.030
9.008,0.740,-0.030
9.010,0.715,-0.030
9.012,0.710,-0.025
9.014,0.725,-0.020
9.016,0.750,-0.015
9.018,0.740,-0.010
9.020,0.710,-0.005
9.022,0.695,-0.010
9.024,0.705,-0.015
9.026,0.695,-0.025
9.028,0.700,-0.035
9.030,0.655,-0.045
9.032,0.695,-0.055
9.034,0.750,-0.055
9.036,0.755,-0.055
9.038,0.720,-0.055
9.040,0.700,-0.050
9.042,0.705,-0.045
9.044,0.705,-0.040
9.046,0.710,-0.035
9.048,0.715,-0.035
9.050,0.700,-0.035
9.052,0.685,-0.035
9.054,0.695,-0.035
9.056,0.750,-0.035
9.058,0.755,-0.035
9.060,0.740,-0.030
9.062,0.695,-0.030
9.064,0.720,-0.030
9.066,0.705,-0.035
9.068,0.720,-0.040
9.070,0.745,-0.040
9.072,0.685,-0.045
9.074,0.700,-0.050
9.076,0.780,-0.050
9.078,0.745,-0.050
9.080,0.745,-0.045
9.082,0.710,-0.040
9.084,0.700,-0.035
9.086,0.715,-0.035
9.088,0.710,-0.030
9.090,0.705,-0.035
9.092,0.705,-0.040
9.094,0.745,-0.045
9.096,0.745,-0.050
9.098,0.725,-0.055
9.100,0.720,-0.060
9.102,0.720,-0.055
9.104,0.750,-0.055
9.106,0.700,-0.050
9.108,0.735,-0.050
9.110,0.710,-0.045
9.112,0.700,-0.045
9.114,0.725,-0.050
9.116,0.755,-0.050
9.118,0.730,-0.055
9.120,0.710,-0.055
9.122,0.720,-0.055
9.124,0.750,-0.050
9.126,0.730,-0.045
9.128,0.765,-0.040
9.130,0.750,-0.035
9.132,0.740,-0.035
9.134,0.755,-0.035
9.136,0.760,-0.035
9.138,0.715,-0.040
9.140,0.740,-0.050
9.142,0.765,-0.055
9.144,0.715,-0.060
9.146,0.710,-0.065
9.148,0.720,-0.070
9.150,0.705,-0.070
9.152,0.715,-0.065
9.154,0.750,-0.065
9.156,0.740,-0.060
9.158,0.725,-0.060
9.160,0.735,-0.055
9.162,0.765,-0.055
9.164,0.740,-0.050
9.166,0.730,-0.050
9.168,0.700,-0.050
9.170,0.740,-0.050
9.172,0.740,-0.050
9.174,0.760,-0.055
9.176,0.740,-0.060
9.178,0.715,-0.065
9.180,0.715,-0.070
9.182,0.735,-0.075
9.184,0.755,-0.080
9.186,0.730,-0.080
9.188,0.730,-0.075
9.190,0.705,-0.070
9.192,0.705,-0.065
9.194,0.790,-0.060
9.196,0.775,-0.060
9.198,0.715,-0.060
9.200,0.740,-0.060
9.202,0.770,-0.065
9.204,0.735,-0.070
9.206,0.740,-0.075
9.208,0.725,-0.080
9.210,0.725,-0.085
9.212,0.750,-0.085
9.214,0.750,-0.085
9.216,0.730,-0.080
9.218,0.740,-0.080
9.220,0.760,-0.080
9.222,0.735,-0.080
9.224,0.735,-0.080
9.226,0.750,-0.080
9.228,0.710,-0.080
9.230,0.720,-0.085
9.232,0.760,-0.080
9.234,0.760,-0.080
9.236,0.720,-0.080
9.238,0.750,-0.075
9.240,0.770,-0.070
9.242,0.735,-0.070
9.244,0.715,-0.065
9.246,0.760,-0.065
9.248,0.760,-0.065
9.250,0.735,-0.070
9.252,0.745,-0.070
9.254,0.745,-0.075
9.256,0.745,-0.080
9.258,0.750,-0.080
9.260,0.735,-0.085
9.262,0.745,-0.085
9.264,0.730,-0.090
9.266,0.725,-0.090
9.268,0.735,-0.090
9.270,0.725,-0.090
9.272,0.735,-0.090
9.274,0.740,-0.095
9.276,0.715,-0.095
9.278,0.740,-0.095
9.280,0.760,-0.100
9.282,0.720,-0.100
9.284,0.755,-0.100
9.286,0.725,-0.100
9.288,0.745,-0.100
9.290,0.760,-0.095
9.292,0.760,-0.090
9.294,0.750,-0.085
9.296,0.710,-0.080
9.298,0.755,-0.075
9.300,0.790,-0.080
9.302,0.755,-0.080
9.304,0.775,-0.085
9.306,0.800,-0.090
9.308,0.725,-0.095
9.310,0.695,-0.100
9.312,0.740,-0.100
9.314,0.745,-0.095
9.316,0.745,-0.095
9.318,0.735,-0.090
9.320,0.755,-0.085
9.322,0.800,-0.085
9.324,0.750,-0.085
9.326,0.740,-0.090
9.328,0.725,-0.090
9.330,0.730,-0.095
9.332,0.750,-0.100
9.334,0.795,-0.100
9.336,0.760,-0.100
9.338,0.770,-0.095
9.340,0.775,-0.090
9.342,0.760,-0.085
9.344,0.730,-0.080
9.346,0.770,-0.075
9.348,0.745,-0.075
9.350,0.730,-0.080
9.352,0.765,-0.085
9.354,0.770,-0.090
9.356,0.765,-0.100
9.358,0.735,-0.105
9.360,0.705,-0.110
9.362,0.720,-0.110
9.364,0.750,-0.105
9.366,0.755,-0.100
9.368,0.800,-0.095
9.370,0.800,-0.090
9.372,0.780,-0.085
9.374,0.740,-0.080
9.376,0.740,-0.080
9.378,0.785,-0.075
9.380,0.770,-0.070
9.382,0.770,-0.070
9.384,0.795,-0.065
9.386,0.815,-0.060
9.388,0.815,-0.055
9.390,0.810,-0.050
9.392,0.815,-0.050
9.394,0.830,-0.050
9.396,0.790,-0.050
9.398,0.770,-0.050
9.400,0.780,-0.055
9.402,0.785,-0.060
9.404,0.820,-0.060
9.406,0.810,-0.060
9.408,0.775,-0.060
9.410,0.765,-0.060
9.412,0.815,-0.060
9.414,0.830,-0.055
9.416,0.805,-0.060
9.418,0.785,-0.065
9.420,0.790,-0.070
9.422,0.780,-0.085
9.424,0.735,-0.095
9.426,0.740,-0.110
9.428,0.715,-0.120
9.430,0.725,-0.125
9.432,0.780,-0.125
9.434,0.775,-0.120
9.436,0.785,-0.110
9.438,0.785,-0.095
9.440,0.795,-0.080
9.442,0.770,-0.065
9.444,0.810,-0.060
9.446,0.795,-0.060
9.448,0.760,-0.070
9.450,0.775,-0.085
9.452,0.755,-0.100
9.454,0.785,-0.120
9.456,0.735,-0.135
9.458,0.680,-0.145
9.460,0.735,-0.150
9.462,0.745,-0.145
9.464,0.720,-0.140
9.466,0.740,-0.135
9.468,0.750,-0.130
9.470,0.710,-0.125
9.472,0.745,-0.125
9.474,0.780,-0.125
9.476,0.765,-0.130
9.478,0.720,-0.135
9.480,0.730,-0.140
9.482,0.690,-0.140
9.484,0.725,-0.140
9.486,0.735,-0.145
9.488,0.720,-0.145
9.490,0.725,-0.145
9.492,0.725,-0.145
9.494,0.720,-0.145
9.496,0.760,-0.145
9.498,0.725,-0.140
9.500,0.705,-0.140
9.502,0.695,-0.135
9.504,0.720,-0.140
9.506,0.715,-0.150
9.508,0.685,-0.165
9.510,0.670,-0.195
9.512,0.640,-0.230
9.514,0.590,-0.265
9.516,0.575,-0.295
9.518,0.500,-0.320
9.520,0.535,-0.320
9.522,0.530,-0.305
9.524,0.530,-0.260
9.526,0.700,-0.190
9.528,0.765,-0.100
9.530,0.925,0.010
9.532,1.050,0.130
9.534,1.125,0.255
9.536,1.270,0.390
9.538,1.450,0.535
9.540,1.585,0.685
9.542,1.715,0.850
9.544,1.875,1.020
9.546,2.070,1.190
9.548,2.265,1.345
9.550,2.410,1.475
9.552,2.520,1.560
9.554,2.510,1.585
9.556,2.480,1.540
9.558,2.345,1.420
9.560,2.155,1.245
9.562,1.950,1.020
9.564,1.595,0.770
9.566,1.225,0.520
9.568,1.045,0.295
9.570,0.905,0.110
9.572,0.835,-0.020
9.574,0.785,-0.100
9.576,0.785,-0.140
9.578,0.765,-0.145
9.580,0.710,-0.130
9.582,0.710,-0.115
9.584,0.780,-0.100
9.586,0.760,-0.095
9.588,0.780,-0.095
9.590,0.775,-0.105
9.592,0.790,-0.110
9.594,0.795,-0.115
9.596,0.790,-0.115
9.598,0.790,-0.110
9.600,0.775,-0.105
9.602,0.765,-0.095
9.604,0.785,-0.090
9.606,0.800,-0.090
9.608,0.780,-0.090
9.610,0.735,-0.095
9.612,0.780,-0.100
9.614,0.755,-0.105
9.616,0.795,-0.105
9.618,0.780,-0.100
9.620,0.750,-0.095
9.622,0.770,-0.090
9.624,0.820,-0.085
9.626,0.800,-0.080
9.628,0.775,-0.075
9.630,0.800,-0.075
9.632,0.820,-0.080
9.634,0.805,-0.080
9.636,0.770,-0.080
9.638,0.765,-0.080
9.640,0.805,-0.075
9.642,0.805,-0.075
9.644,0.805,-0.070
9.646,0.780,-0.065
9.648,0.810,-0.065
9.650,0.820,-0.060
9.652,0.840,-0.060
9.654,0.835,-0.060
9.656,0.810,-0.060
9.658,0.815,-0.060
9.660,0.825,-0.055
9.662,0.825,-0.050
9.664,0.815,-0.045
9.666,0.825,-0.040
9.668,0.820,-0.035
9.670,0.875,-0.035
9.672,0.850,-0.035
9.674,0.825,-0.035
9.676,0.820,-0.035
9.678,0.840,-0.035
9.680,0.820,-0.035
9.682,0.820,-0.035
9.684,0.860,-0.030
9.686,0.870,-0.025
9.688,0.855,-0.020
9.690,0.855,-0.015
9.692,0.880,-0.010
9.694,0.905,-0.005
9.696,0.905,0.000
9.698,0.870,0.010
9.700,0.870,0.015
9.702,0.900,0.020
9.704,0.905,0.030
9.706,0.945,0.035
9.708,0.905,0.040
9.710,0.895,0.040
9.712,0.910,0.045
9.714,0.910,0.050
9.716,0.915,0.055
9.718,0.960,0.060
9.720,0.970,0.070
9.722,0.935,0.080
9.724,0.925,0.095
9.726,0.995,0.110
9.728,0.970,0.120
9.730,1.005,0.130
9.732,0.990,0.135
9.734,1.000,0.140
9.736,1.000,0.145
9.738,1.040,0.145
9.740,1.070,0.150
9.742,1.035,0.160
9.744,1.040,0.175
9.746,1.055,0.190
9.748,1.055,0.210
9.750,1.130,0.235
9.752,1.160,0.255
9.754,1.145,0.275
9.756,1.160,0.290
9.758,1.155,0.305
9.760,1.175,0.310
9.762,1.185,0.315
9.764,1.210,0.320
9.766,1.205,0.330
9.768,1.215,0.335
9.770,1.215,0.345
9.772,1.230,0.355
9.774,1.265,0.365
9.776,1.215,0.370
9.778,1.265,0.375
9.780,1.215,0.375
9.782,1.225,0.370
9.784,1.250,0.365
9.786,1.175,0.355
9.788,1.195,0.350
9.790,1.245,0.345
9.792,1.235,0.345
9.794,1.210,0.345
9.796,1.210,0.340
9.798,1.200,0.335
9.800,1.160,0.330
9.802,1.140,0.315
9.804,1.135,0.295
9.806,1.080,0.275
9.808,1.060,0.245
9.810,1.085,0.220
9.812,1.095,0.195
9.814,1.055,0.170
9.816,1.000,0.150
9.818,0.945,0.135
9.820,0.935,0.120
9.822,0.920,0.110
9.824,0.965,0.105
9.826,0.965,0.095
9.828,0.940,0.080
9.830,0.910,0.070
9.832,0.900,0.055
9.834,0.895,0.035
9.836,0.855,0.020
9.838,0.820,0.000
9.840,0.785,-0.020
9.842,0.830,-0.035
9.844,0.815,-0.050
9.846,0.750,-0.060
9.848,0.785,-0.070
9.850,0.820,-0.070
9.852,0.775,-0.075
9.854,0.810,-0.075
9.856,0.765,-0.070
9.858,0.795,-0.070
9.860,0.785,-0.065
9.862,0.740,-0.070
9.864,0.740,-0.070
9.866,0.770,-0.075
9.868,0.755,-0.085
9.870,0.785,-0.090
9.872,0.765,-0.100
9.874,0.735,-0.105
9.876,0.740,-0.110
9.878,0.740,-0.110
9.880,0.690,-0.105
9.882,0.740,-0.105
9.884,0.790,-0.095
9.886,0.755,-0.095
9.888,0.765,-0.090
9.890,0.750,-0.090
9.892,0.735,-0.090
9.894,0.750,-0.090
9.896,0.725,-0.095
9.898,0.735,-0.095
9.900,0.715,-0.100
9.902,0.715,-0.100
9.904,0.775,-0.105
9.906,0.760,-0.105
9.908,0.710,-0.105
9.910,0.705,-0.100
9.912,0.755,-0.100
9.914,0.735,-0.100
9.916,0.745,-0.100
9.918,0.795,-0.100
9.920,0.735,-0.095
9.922,0.735,-0.095
9.924,0.745,-0.090
9.926,0.765,-0.085
9.928,0.755,-0.085
9.930,0.765,-0.080
9.932,0.745,-0.075
9.934,0.765,-0.075
9.936,0.745,-0.075
9.938,0.690,-0.080
9.940,0.755,-0.085
9.942,0.755,-0.090
9.944,0.710,-0.095
9.946,0.695,-0.105
9.948,0.720,-0.110
9.950,0.745,-0.115
9.952,0.725,-0.120
9.954,0.695,-0.120
9.956,0.705,-0.120
9.958,0.725,-0.115
9.960,0.730,-0.110
9.962,0.725,-0.105
9.964,0.720,-0.100
9.966,0.700,-0.100
9.968,0.740,-0.100
9.970,0.755,-0.100
9.972,0.760,-0.105
9.974,0.700,-0.110
9.976,0.715,-0.115
9.978,0.700,-0.120
9.980,0.695,-0.125
9.982,0.700,-0.125
9.984,0.690,-0.125
9.986,0.650,-0.120
9.988,0.695,-0.115
9.990,0.740,-0.115
9.992,0.715,-0.110
9.994,0.700,-0.110
9.996,0.715,-0.110
9.998,0.725,-0.110
